# Wavelength	Hexa80_00000.asd.rts.txt
350.000000	0.281422
351.000000	0.287518
352.000000	0.279119
353.000000	0.271190
354.000000	0.273726
355.000000	0.278687
356.000000	0.285176
357.000000	0.291044
358.000000	0.287757
359.000000	0.286620
360.000000	0.288615
361.000000	0.291042
362.000000	0.288527
363.000000	0.286895
364.000000	0.288998
365.000000	0.292112
366.000000	0.292860
367.000000	0.291432
368.000000	0.291962
369.000000	0.293697
370.000000	0.295156
371.000000	0.294959
372.000000	0.295553
373.000000	0.295925
374.000000	0.296022
375.000000	0.296865
376.000000	0.297078
377.000000	0.296610
378.000000	0.297101
379.000000	0.296338
380.000000	0.296057
381.000000	0.299366
382.000000	0.299025
383.000000	0.298163
384.000000	0.299513
385.000000	0.300155
386.000000	0.300984
387.000000	0.302135
388.000000	0.302443
389.000000	0.302456
390.000000	0.302663
391.000000	0.303154
392.000000	0.304049
393.000000	0.304303
394.000000	0.303681
395.000000	0.305036
396.000000	0.306619
397.000000	0.307350
398.000000	0.306916
399.000000	0.307256
400.000000	0.308153
401.000000	0.308341
402.000000	0.309130
403.000000	0.309783
404.000000	0.309873
405.000000	0.310720
406.000000	0.311314
407.000000	0.311432
408.000000	0.312139
409.000000	0.312488
410.000000	0.312551
411.000000	0.312895
412.000000	0.313294
413.000000	0.313632
414.000000	0.313886
415.000000	0.314221
416.000000	0.314673
417.000000	0.315207
418.000000	0.315660
419.000000	0.316147
420.000000	0.316619
421.000000	0.316864
422.000000	0.317224
423.000000	0.317572
424.000000	0.317789
425.000000	0.318190
426.000000	0.318529
427.000000	0.318643
428.000000	0.318910
429.000000	0.319316
430.000000	0.319774
431.000000	0.320076
432.000000	0.320343
433.000000	0.320574
434.000000	0.320858
435.000000	0.321081
436.000000	0.321272
437.000000	0.321456
438.000000	0.321633
439.000000	0.321852
440.000000	0.322192
441.000000	0.322304
442.000000	0.322569
443.000000	0.322879
444.000000	0.323011
445.000000	0.323209
446.000000	0.323590
447.000000	0.323946
448.000000	0.324016
449.000000	0.324268
450.000000	0.324908
451.000000	0.325195
452.000000	0.325340
453.000000	0.325439
454.000000	0.325802
455.000000	0.326061
456.000000	0.326390
457.000000	0.326897
458.000000	0.327180
459.000000	0.327369
460.000000	0.327689
461.000000	0.327962
462.000000	0.328310
463.000000	0.328561
464.000000	0.328649
465.000000	0.329009
466.000000	0.329462
467.000000	0.329597
468.000000	0.329826
469.000000	0.330019
470.000000	0.330177
471.000000	0.330372
472.000000	0.330579
473.000000	0.330820
474.000000	0.331140
475.000000	0.331289
476.000000	0.331449
477.000000	0.331827
478.000000	0.332031
479.000000	0.332289
480.000000	0.332577
481.000000	0.332743
482.000000	0.332979
483.000000	0.333192
484.000000	0.333543
485.000000	0.333746
486.000000	0.333918
487.000000	0.334118
488.000000	0.334351
489.000000	0.334653
490.000000	0.335042
491.000000	0.335342
492.000000	0.335632
493.000000	0.335868
494.000000	0.336092
495.000000	0.336383
496.000000	0.336724
497.000000	0.337080
498.000000	0.337416
499.000000	0.337786
500.000000	0.338094
501.000000	0.338334
502.000000	0.338600
503.000000	0.338916
504.000000	0.339201
505.000000	0.339450
506.000000	0.339685
507.000000	0.339914
508.000000	0.340240
509.000000	0.340631
510.000000	0.340971
511.000000	0.341273
512.000000	0.341594
513.000000	0.341952
514.000000	0.342281
515.000000	0.342611
516.000000	0.342915
517.000000	0.343249
518.000000	0.343624
519.000000	0.343936
520.000000	0.344275
521.000000	0.344566
522.000000	0.344815
523.000000	0.345133
524.000000	0.345450
525.000000	0.345740
526.000000	0.346061
527.000000	0.346354
528.000000	0.346608
529.000000	0.346893
530.000000	0.347191
531.000000	0.347554
532.000000	0.347881
533.000000	0.348139
534.000000	0.348436
535.000000	0.348768
536.000000	0.349077
537.000000	0.349408
538.000000	0.349732
539.000000	0.349986
540.000000	0.350244
541.000000	0.350510
542.000000	0.350819
543.000000	0.351108
544.000000	0.351406
545.000000	0.351660
546.000000	0.351983
547.000000	0.352335
548.000000	0.352709
549.000000	0.352988
550.000000	0.353279
551.000000	0.353617
552.000000	0.353940
553.000000	0.354255
554.000000	0.354562
555.000000	0.354880
556.000000	0.355249
557.000000	0.355581
558.000000	0.355980
559.000000	0.356305
560.000000	0.356618
561.000000	0.357000
562.000000	0.357350
563.000000	0.357634
564.000000	0.357951
565.000000	0.358266
566.000000	0.358644
567.000000	0.359014
568.000000	0.359315
569.000000	0.359626
570.000000	0.359939
571.000000	0.360260
572.000000	0.360640
573.000000	0.360988
574.000000	0.361294
575.000000	0.361657
576.000000	0.362019
577.000000	0.362330
578.000000	0.362646
579.000000	0.362984
580.000000	0.363314
581.000000	0.363624
582.000000	0.363942
583.000000	0.364264
584.000000	0.364583
585.000000	0.364892
586.000000	0.365244
587.000000	0.365607
588.000000	0.365944
589.000000	0.366318
590.000000	0.366705
591.000000	0.367073
592.000000	0.367385
593.000000	0.367666
594.000000	0.367919
595.000000	0.368141
596.000000	0.368304
597.000000	0.368474
598.000000	0.368623
599.000000	0.368752
600.000000	0.368960
601.000000	0.369205
602.000000	0.369408
603.000000	0.369591
604.000000	0.369782
605.000000	0.369975
606.000000	0.370131
607.000000	0.370273
608.000000	0.370466
609.000000	0.370666
610.000000	0.370880
611.000000	0.371118
612.000000	0.371348
613.000000	0.371541
614.000000	0.371731
615.000000	0.371917
616.000000	0.372074
617.000000	0.372186
618.000000	0.372374
619.000000	0.372592
620.000000	0.372783
621.000000	0.372967
622.000000	0.373151
623.000000	0.373349
624.000000	0.373565
625.000000	0.373783
626.000000	0.374014
627.000000	0.374275
628.000000	0.374587
629.000000	0.374931
630.000000	0.375154
631.000000	0.375405
632.000000	0.375646
633.000000	0.375892
634.000000	0.376133
635.000000	0.376317
636.000000	0.376481
637.000000	0.376615
638.000000	0.376680
639.000000	0.376762
640.000000	0.376919
641.000000	0.376975
642.000000	0.377081
643.000000	0.377246
644.000000	0.377432
645.000000	0.377569
646.000000	0.377696
647.000000	0.377820
648.000000	0.377975
649.000000	0.378153
650.000000	0.378316
651.000000	0.378462
652.000000	0.378603
653.000000	0.378780
654.000000	0.378941
655.000000	0.379164
656.000000	0.379409
657.000000	0.379571
658.000000	0.379792
659.000000	0.380026
660.000000	0.380225
661.000000	0.380413
662.000000	0.380572
663.000000	0.380770
664.000000	0.380986
665.000000	0.381181
666.000000	0.381352
667.000000	0.381477
668.000000	0.381649
669.000000	0.381858
670.000000	0.382083
671.000000	0.382260
672.000000	0.382445
673.000000	0.382634
674.000000	0.382797
675.000000	0.382983
676.000000	0.383193
677.000000	0.383424
678.000000	0.383564
679.000000	0.383668
680.000000	0.383798
681.000000	0.383943
682.000000	0.384142
683.000000	0.384305
684.000000	0.384508
685.000000	0.384683
686.000000	0.384863
687.000000	0.385038
688.000000	0.385228
689.000000	0.385417
690.000000	0.385631
691.000000	0.385835
692.000000	0.385995
693.000000	0.386191
694.000000	0.386411
695.000000	0.386635
696.000000	0.386834
697.000000	0.386984
698.000000	0.387158
699.000000	0.387365
700.000000	0.387594
701.000000	0.387761
702.000000	0.387961
703.000000	0.388180
704.000000	0.388330
705.000000	0.388520
706.000000	0.388700
707.000000	0.388871
708.000000	0.389017
709.000000	0.389143
710.000000	0.389288
711.000000	0.389462
712.000000	0.389642
713.000000	0.389833
714.000000	0.390012
715.000000	0.390188
716.000000	0.390360
717.000000	0.390493
718.000000	0.390644
719.000000	0.390801
720.000000	0.390962
721.000000	0.391131
722.000000	0.391278
723.000000	0.391456
724.000000	0.391579
725.000000	0.391654
726.000000	0.391786
727.000000	0.391905
728.000000	0.392019
729.000000	0.392145
730.000000	0.392233
731.000000	0.392382
732.000000	0.392521
733.000000	0.392671
734.000000	0.392807
735.000000	0.392893
736.000000	0.393066
737.000000	0.393192
738.000000	0.393266
739.000000	0.393413
740.000000	0.393492
741.000000	0.393557
742.000000	0.393671
743.000000	0.393806
744.000000	0.393947
745.000000	0.394051
746.000000	0.394172
747.000000	0.394269
748.000000	0.394411
749.000000	0.394592
750.000000	0.394742
751.000000	0.394839
752.000000	0.394925
753.000000	0.395026
754.000000	0.395123
755.000000	0.395202
756.000000	0.395300
757.000000	0.395398
758.000000	0.395532
759.000000	0.395699
760.000000	0.395809
761.000000	0.395956
762.000000	0.396060
763.000000	0.396108
764.000000	0.396231
765.000000	0.396269
766.000000	0.396298
767.000000	0.396395
768.000000	0.396474
769.000000	0.396554
770.000000	0.396656
771.000000	0.396776
772.000000	0.396954
773.000000	0.397069
774.000000	0.397128
775.000000	0.397212
776.000000	0.397323
777.000000	0.397421
778.000000	0.397507
779.000000	0.397584
780.000000	0.397653
781.000000	0.397684
782.000000	0.397706
783.000000	0.397807
784.000000	0.397846
785.000000	0.397900
786.000000	0.397906
787.000000	0.397855
788.000000	0.397883
789.000000	0.397953
790.000000	0.398015
791.000000	0.398067
792.000000	0.398135
793.000000	0.398200
794.000000	0.398264
795.000000	0.398380
796.000000	0.398488
797.000000	0.398555
798.000000	0.398593
799.000000	0.398646
800.000000	0.398709
801.000000	0.398764
802.000000	0.398811
803.000000	0.398887
804.000000	0.399021
805.000000	0.399037
806.000000	0.399010
807.000000	0.399053
808.000000	0.399096
809.000000	0.399159
810.000000	0.399227
811.000000	0.399271
812.000000	0.399328
813.000000	0.399376
814.000000	0.399402
815.000000	0.399426
816.000000	0.399360
817.000000	0.399313
818.000000	0.399297
819.000000	0.399316
820.000000	0.399402
821.000000	0.399480
822.000000	0.399517
823.000000	0.399539
824.000000	0.399467
825.000000	0.399375
826.000000	0.399348
827.000000	0.399292
828.000000	0.399214
829.000000	0.399165
830.000000	0.399130
831.000000	0.399177
832.000000	0.399188
833.000000	0.399186
834.000000	0.399181
835.000000	0.399215
836.000000	0.399235
837.000000	0.399213
838.000000	0.399170
839.000000	0.399112
840.000000	0.399105
841.000000	0.399122
842.000000	0.399077
843.000000	0.399021
844.000000	0.399027
845.000000	0.399046
846.000000	0.398999
847.000000	0.398953
848.000000	0.398910
849.000000	0.398902
850.000000	0.398920
851.000000	0.398888
852.000000	0.398829
853.000000	0.398760
854.000000	0.398671
855.000000	0.398681
856.000000	0.398665
857.000000	0.398520
858.000000	0.398424
859.000000	0.398348
860.000000	0.398221
861.000000	0.398174
862.000000	0.398189
863.000000	0.398103
864.000000	0.398043
865.000000	0.398022
866.000000	0.398051
867.000000	0.398064
868.000000	0.397995
869.000000	0.397825
870.000000	0.397707
871.000000	0.397572
872.000000	0.397417
873.000000	0.397205
874.000000	0.397117
875.000000	0.396953
876.000000	0.396768
877.000000	0.396618
878.000000	0.396452
879.000000	0.396346
880.000000	0.396158
881.000000	0.395957
882.000000	0.395812
883.000000	0.395741
884.000000	0.395635
885.000000	0.395468
886.000000	0.395281
887.000000	0.395140
888.000000	0.395040
889.000000	0.394893
890.000000	0.394654
891.000000	0.394577
892.000000	0.394478
893.000000	0.394312
894.000000	0.394206
895.000000	0.394014
896.000000	0.393757
897.000000	0.393500
898.000000	0.393303
899.000000	0.393075
900.000000	0.392896
901.000000	0.392750
902.000000	0.392652
903.000000	0.392594
904.000000	0.392530
905.000000	0.392306
906.000000	0.392190
907.000000	0.392033
908.000000	0.391854
909.000000	0.391633
910.000000	0.391408
911.000000	0.391193
912.000000	0.391005
913.000000	0.390777
914.000000	0.390540
915.000000	0.390372
916.000000	0.390160
917.000000	0.389855
918.000000	0.389585
919.000000	0.389420
920.000000	0.389329
921.000000	0.389140
922.000000	0.388903
923.000000	0.388735
924.000000	0.388513
925.000000	0.388307
926.000000	0.388174
927.000000	0.387971
928.000000	0.387720
929.000000	0.387448
930.000000	0.387192
931.000000	0.386984
932.000000	0.386850
933.000000	0.386744
934.000000	0.386415
935.000000	0.386135
936.000000	0.385942
937.000000	0.385678
938.000000	0.385374
939.000000	0.385184
940.000000	0.385022
941.000000	0.384865
942.000000	0.384610
943.000000	0.384414
944.000000	0.384206
945.000000	0.384010
946.000000	0.383759
947.000000	0.383578
948.000000	0.383476
949.000000	0.383137
950.000000	0.382798
951.000000	0.382500
952.000000	0.382238
953.000000	0.382110
954.000000	0.381948
955.000000	0.381574
956.000000	0.381267
957.000000	0.381067
958.000000	0.380916
959.000000	0.380847
960.000000	0.380647
961.000000	0.380415
962.000000	0.380177
963.000000	0.379930
964.000000	0.379730
965.000000	0.379568
966.000000	0.379301
967.000000	0.379152
968.000000	0.378904
969.000000	0.378554
970.000000	0.378343
971.000000	0.378005
972.000000	0.377772
973.000000	0.377579
974.000000	0.377226
975.000000	0.376990
976.000000	0.376776
977.000000	0.376477
978.000000	0.376199
979.000000	0.376212
980.000000	0.376077
981.000000	0.375769
982.000000	0.375602
983.000000	0.375450
984.000000	0.375328
985.000000	0.375232
986.000000	0.375061
987.000000	0.374940
988.000000	0.374790
989.000000	0.374513
990.000000	0.374263
991.000000	0.374110
992.000000	0.374108
993.000000	0.374081
994.000000	0.373825
995.000000	0.373599
996.000000	0.373463
997.000000	0.373462
998.000000	0.373402
999.000000	0.373313
1000.000000	0.373260
1001.000000	0.373614
1002.000000	0.373226
1003.000000	0.373135
1004.000000	0.373091
1005.000000	0.372898
1006.000000	0.372680
1007.000000	0.372747
1008.000000	0.372661
1009.000000	0.372197
1010.000000	0.371834
1011.000000	0.371887
1012.000000	0.372071
1013.000000	0.371918
1014.000000	0.371943
1015.000000	0.371929
1016.000000	0.371807
1017.000000	0.371793
1018.000000	0.371922
1019.000000	0.371968
1020.000000	0.372103
1021.000000	0.371769
1022.000000	0.371400
1023.000000	0.371400
1024.000000	0.371145
1025.000000	0.371262
1026.000000	0.371340
1027.000000	0.371372
1028.000000	0.371482
1029.000000	0.371427
1030.000000	0.371315
1031.000000	0.371318
1032.000000	0.371449
1033.000000	0.371543
1034.000000	0.371632
1035.000000	0.371881
1036.000000	0.372073
1037.000000	0.372228
1038.000000	0.372184
1039.000000	0.372186
1040.000000	0.372326
1041.000000	0.372230
1042.000000	0.372151
1043.000000	0.372277
1044.000000	0.372439
1045.000000	0.372631
1046.000000	0.372755
1047.000000	0.372947
1048.000000	0.373198
1049.000000	0.373303
1050.000000	0.373340
1051.000000	0.373380
1052.000000	0.373235
1053.000000	0.373228
1054.000000	0.373516
1055.000000	0.373790
1056.000000	0.374172
1057.000000	0.374561
1058.000000	0.374773
1059.000000	0.374751
1060.000000	0.374865
1061.000000	0.374890
1062.000000	0.375016
1063.000000	0.375265
1064.000000	0.375477
1065.000000	0.375692
1066.000000	0.375888
1067.000000	0.376002
1068.000000	0.376145
1069.000000	0.376220
1070.000000	0.376332
1071.000000	0.376560
1072.000000	0.376744
1073.000000	0.376967
1074.000000	0.377243
1075.000000	0.377424
1076.000000	0.377578
1077.000000	0.377668
1078.000000	0.377793
1079.000000	0.377935
1080.000000	0.378098
1081.000000	0.378334
1082.000000	0.378765
1083.000000	0.379071
1084.000000	0.379497
1085.000000	0.379801
1086.000000	0.379909
1087.000000	0.380138
1088.000000	0.380232
1089.000000	0.380414
1090.000000	0.380695
1091.000000	0.380873
1092.000000	0.381079
1093.000000	0.381445
1094.000000	0.381534
1095.000000	0.381272
1096.000000	0.381540
1097.000000	0.381929
1098.000000	0.382278
1099.000000	0.382944
1100.000000	0.383340
1101.000000	0.383465
1102.000000	0.383597
1103.000000	0.383627
1104.000000	0.383764
1105.000000	0.383848
1106.000000	0.383969
1107.000000	0.384086
1108.000000	0.384222
1109.000000	0.384467
1110.000000	0.384631
1111.000000	0.384806
1112.000000	0.385033
1113.000000	0.385233
1114.000000	0.385409
1115.000000	0.385555
1116.000000	0.385767
1117.000000	0.385839
1118.000000	0.385704
1119.000000	0.385699
1120.000000	0.385670
1121.000000	0.385721
1122.000000	0.386075
1123.000000	0.386425
1124.000000	0.386509
1125.000000	0.386643
1126.000000	0.386598
1127.000000	0.386602
1128.000000	0.386618
1129.000000	0.386699
1130.000000	0.386791
1131.000000	0.386944
1132.000000	0.386998
1133.000000	0.387051
1134.000000	0.387210
1135.000000	0.387349
1136.000000	0.387436
1137.000000	0.387638
1138.000000	0.387636
1139.000000	0.387519
1140.000000	0.387580
1141.000000	0.387601
1142.000000	0.387627
1143.000000	0.387656
1144.000000	0.387784
1145.000000	0.387725
1146.000000	0.387577
1147.000000	0.387528
1148.000000	0.387389
1149.000000	0.387337
1150.000000	0.387373
1151.000000	0.387365
1152.000000	0.387289
1153.000000	0.387268
1154.000000	0.387195
1155.000000	0.387148
1156.000000	0.387191
1157.000000	0.387143
1158.000000	0.386994
1159.000000	0.386857
1160.000000	0.386614
1161.000000	0.386447
1162.000000	0.386353
1163.000000	0.386475
1164.000000	0.386433
1165.000000	0.386369
1166.000000	0.386346
1167.000000	0.386250
1168.000000	0.386118
1169.000000	0.386019
1170.000000	0.385964
1171.000000	0.385933
1172.000000	0.385914
1173.000000	0.385904
1174.000000	0.385885
1175.000000	0.385825
1176.000000	0.385708
1177.000000	0.385634
1178.000000	0.385613
1179.000000	0.385612
1180.000000	0.385479
1181.000000	0.385414
1182.000000	0.385383
1183.000000	0.385295
1184.000000	0.385267
1185.000000	0.385213
1186.000000	0.385209
1187.000000	0.385155
1188.000000	0.385042
1189.000000	0.384935
1190.000000	0.384932
1191.000000	0.384848
1192.000000	0.384802
1193.000000	0.384859
1194.000000	0.384790
1195.000000	0.384748
1196.000000	0.384689
1197.000000	0.384635
1198.000000	0.384598
1199.000000	0.384554
1200.000000	0.384493
1201.000000	0.384434
1202.000000	0.384385
1203.000000	0.384353
1204.000000	0.384329
1205.000000	0.384324
1206.000000	0.384253
1207.000000	0.384257
1208.000000	0.384179
1209.000000	0.384104
1210.000000	0.384068
1211.000000	0.384049
1212.000000	0.383982
1213.000000	0.383967
1214.000000	0.383950
1215.000000	0.383849
1216.000000	0.383798
1217.000000	0.383778
1218.000000	0.383712
1219.000000	0.383652
1220.000000	0.383627
1221.000000	0.383611
1222.000000	0.383551
1223.000000	0.383525
1224.000000	0.383509
1225.000000	0.383490
1226.000000	0.383517
1227.000000	0.383455
1228.000000	0.383436
1229.000000	0.383351
1230.000000	0.383136
1231.000000	0.383007
1232.000000	0.383077
1233.000000	0.383134
1234.000000	0.383216
1235.000000	0.383217
1236.000000	0.383032
1237.000000	0.383003
1238.000000	0.382937
1239.000000	0.382900
1240.000000	0.382939
1241.000000	0.382962
1242.000000	0.382932
1243.000000	0.382926
1244.000000	0.382922
1245.000000	0.382995
1246.000000	0.383058
1247.000000	0.383173
1248.000000	0.383297
1249.000000	0.383382
1250.000000	0.383432
1251.000000	0.383482
1252.000000	0.383494
1253.000000	0.383513
1254.000000	0.383502
1255.000000	0.383459
1256.000000	0.383393
1257.000000	0.383294
1258.000000	0.383291
1259.000000	0.383224
1260.000000	0.383249
1261.000000	0.383299
1262.000000	0.383318
1263.000000	0.383359
1264.000000	0.383396
1265.000000	0.383436
1266.000000	0.383444
1267.000000	0.383449
1268.000000	0.383465
1269.000000	0.383394
1270.000000	0.383437
1271.000000	0.383465
1272.000000	0.383456
1273.000000	0.383478
1274.000000	0.383425
1275.000000	0.383393
1276.000000	0.383383
1277.000000	0.383402
1278.000000	0.383338
1279.000000	0.383290
1280.000000	0.383145
1281.000000	0.383004
1282.000000	0.382926
1283.000000	0.382939
1284.000000	0.382880
1285.000000	0.382867
1286.000000	0.382905
1287.000000	0.382918
1288.000000	0.382906
1289.000000	0.382860
1290.000000	0.382749
1291.000000	0.382657
1292.000000	0.382610
1293.000000	0.382620
1294.000000	0.382615
1295.000000	0.382559
1296.000000	0.382506
1297.000000	0.382443
1298.000000	0.382432
1299.000000	0.382484
1300.000000	0.382558
1301.000000	0.382538
1302.000000	0.382454
1303.000000	0.382461
1304.000000	0.382383
1305.000000	0.382344
1306.000000	0.382266
1307.000000	0.382192
1308.000000	0.382161
1309.000000	0.382121
1310.000000	0.382067
1311.000000	0.382070
1312.000000	0.382003
1313.000000	0.381944
1314.000000	0.381887
1315.000000	0.381804
1316.000000	0.381826
1317.000000	0.381771
1318.000000	0.381649
1319.000000	0.381483
1320.000000	0.381307
1321.000000	0.381136
1322.000000	0.380939
1323.000000	0.380813
1324.000000	0.380704
1325.000000	0.380460
1326.000000	0.380196
1327.000000	0.379950
1328.000000	0.379744
1329.000000	0.379453
1330.000000	0.379170
1331.000000	0.378919
1332.000000	0.378699
1333.000000	0.378423
1334.000000	0.378231
1335.000000	0.378048
1336.000000	0.377810
1337.000000	0.377568
1338.000000	0.377301
1339.000000	0.377013
1340.000000	0.376701
1341.000000	0.376446
1342.000000	0.376207
1343.000000	0.375959
1344.000000	0.375661
1345.000000	0.375314
1346.000000	0.375042
1347.000000	0.374615
1348.000000	0.374244
1349.000000	0.373837
1350.000000	0.373460
1351.000000	0.373137
1352.000000	0.372786
1353.000000	0.372428
1354.000000	0.372070
1355.000000	0.371665
1356.000000	0.371338
1357.000000	0.370981
1358.000000	0.370646
1359.000000	0.370310
1360.000000	0.369992
1361.000000	0.369739
1362.000000	0.369460
1363.000000	0.369141
1364.000000	0.368901
1365.000000	0.368662
1366.000000	0.368420
1367.000000	0.368204
1368.000000	0.367972
1369.000000	0.367815
1370.000000	0.367527
1371.000000	0.367187
1372.000000	0.366895
1373.000000	0.366588
1374.000000	0.366321
1375.000000	0.366067
1376.000000	0.365893
1377.000000	0.365691
1378.000000	0.365386
1379.000000	0.365045
1380.000000	0.364703
1381.000000	0.364313
1382.000000	0.363957
1383.000000	0.363657
1384.000000	0.363168
1385.000000	0.362624
1386.000000	0.362192
1387.000000	0.361739
1388.000000	0.361257
1389.000000	0.360835
1390.000000	0.360411
1391.000000	0.359806
1392.000000	0.359247
1393.000000	0.358622
1394.000000	0.357935
1395.000000	0.357269
1396.000000	0.356666
1397.000000	0.355870
1398.000000	0.354960
1399.000000	0.354049
1400.000000	0.352992
1401.000000	0.351937
1402.000000	0.350951
1403.000000	0.349854
1404.000000	0.348731
1405.000000	0.347596
1406.000000	0.346365
1407.000000	0.345100
1408.000000	0.343741
1409.000000	0.342369
1410.000000	0.341044
1411.000000	0.339605
1412.000000	0.338063
1413.000000	0.336548
1414.000000	0.334952
1415.000000	0.333342
1416.000000	0.331766
1417.000000	0.330172
1418.000000	0.328506
1419.000000	0.326880
1420.000000	0.325239
1421.000000	0.323655
1422.000000	0.322047
1423.000000	0.320502
1424.000000	0.318851
1425.000000	0.317125
1426.000000	0.315402
1427.000000	0.313700
1428.000000	0.312057
1429.000000	0.310438
1430.000000	0.308817
1431.000000	0.307256
1432.000000	0.305705
1433.000000	0.304192
1434.000000	0.302691
1435.000000	0.301300
1436.000000	0.299889
1437.000000	0.298464
1438.000000	0.297045
1439.000000	0.295691
1440.000000	0.294352
1441.000000	0.292996
1442.000000	0.291736
1443.000000	0.290496
1444.000000	0.289240
1445.000000	0.288015
1446.000000	0.286891
1447.000000	0.285765
1448.000000	0.284743
1449.000000	0.283841
1450.000000	0.282951
1451.000000	0.282132
1452.000000	0.281284
1453.000000	0.280487
1454.000000	0.279750
1455.000000	0.279027
1456.000000	0.278454
1457.000000	0.277898
1458.000000	0.277320
1459.000000	0.276825
1460.000000	0.276339
1461.000000	0.275844
1462.000000	0.275403
1463.000000	0.274907
1464.000000	0.274425
1465.000000	0.274068
1466.000000	0.273662
1467.000000	0.273315
1468.000000	0.273050
1469.000000	0.272771
1470.000000	0.272495
1471.000000	0.272299
1472.000000	0.272115
1473.000000	0.271989
1474.000000	0.271850
1475.000000	0.271780
1476.000000	0.271753
1477.000000	0.271758
1478.000000	0.271823
1479.000000	0.271850
1480.000000	0.271874
1481.000000	0.271905
1482.000000	0.271956
1483.000000	0.272082
1484.000000	0.272249
1485.000000	0.272425
1486.000000	0.272626
1487.000000	0.272864
1488.000000	0.273147
1489.000000	0.273459
1490.000000	0.273708
1491.000000	0.274027
1492.000000	0.274325
1493.000000	0.274686
1494.000000	0.275072
1495.000000	0.275472
1496.000000	0.275918
1497.000000	0.276351
1498.000000	0.276804
1499.000000	0.277255
1500.000000	0.277714
1501.000000	0.278150
1502.000000	0.278579
1503.000000	0.279043
1504.000000	0.279516
1505.000000	0.279932
1506.000000	0.280381
1507.000000	0.280842
1508.000000	0.281301
1509.000000	0.281801
1510.000000	0.282279
1511.000000	0.282738
1512.000000	0.283137
1513.000000	0.283547
1514.000000	0.283996
1515.000000	0.284375
1516.000000	0.284825
1517.000000	0.285250
1518.000000	0.285612
1519.000000	0.285969
1520.000000	0.286331
1521.000000	0.286643
1522.000000	0.287027
1523.000000	0.287478
1524.000000	0.287831
1525.000000	0.288217
1526.000000	0.288592
1527.000000	0.288877
1528.000000	0.289193
1529.000000	0.289485
1530.000000	0.289643
1531.000000	0.289879
1532.000000	0.290176
1533.000000	0.290417
1534.000000	0.290689
1535.000000	0.290957
1536.000000	0.291121
1537.000000	0.291362
1538.000000	0.291645
1539.000000	0.291853
1540.000000	0.292084
1541.000000	0.292350
1542.000000	0.292561
1543.000000	0.292766
1544.000000	0.292974
1545.000000	0.293173
1546.000000	0.293401
1547.000000	0.293605
1548.000000	0.293780
1549.000000	0.293910
1550.000000	0.293944
1551.000000	0.293992
1552.000000	0.294065
1553.000000	0.294098
1554.000000	0.294159
1555.000000	0.294272
1556.000000	0.294379
1557.000000	0.294466
1558.000000	0.294573
1559.000000	0.294636
1560.000000	0.294679
1561.000000	0.294764
1562.000000	0.294790
1563.000000	0.294815
1564.000000	0.294833
1565.000000	0.294807
1566.000000	0.294765
1567.000000	0.294806
1568.000000	0.294786
1569.000000	0.294817
1570.000000	0.294797
1571.000000	0.294705
1572.000000	0.294655
1573.000000	0.294622
1574.000000	0.294568
1575.000000	0.294534
1576.000000	0.294498
1577.000000	0.294443
1578.000000	0.294355
1579.000000	0.294317
1580.000000	0.294242
1581.000000	0.294186
1582.000000	0.294112
1583.000000	0.294015
1584.000000	0.293882
1585.000000	0.293803
1586.000000	0.293728
1587.000000	0.293638
1588.000000	0.293543
1589.000000	0.293464
1590.000000	0.293366
1591.000000	0.293262
1592.000000	0.293203
1593.000000	0.293208
1594.000000	0.293143
1595.000000	0.293119
1596.000000	0.293057
1597.000000	0.292966
1598.000000	0.292871
1599.000000	0.292796
1600.000000	0.292677
1601.000000	0.292580
1602.000000	0.292498
1603.000000	0.292439
1604.000000	0.292372
1605.000000	0.292364
1606.000000	0.292275
1607.000000	0.292166
1608.000000	0.292096
1609.000000	0.292056
1610.000000	0.291994
1611.000000	0.291980
1612.000000	0.291958
1613.000000	0.292012
1614.000000	0.292001
1615.000000	0.292036
1616.000000	0.292073
1617.000000	0.292022
1618.000000	0.291997
1619.000000	0.291989
1620.000000	0.291965
1621.000000	0.291913
1622.000000	0.291990
1623.000000	0.292105
1624.000000	0.292196
1625.000000	0.292221
1626.000000	0.292243
1627.000000	0.292224
1628.000000	0.292339
1629.000000	0.292518
1630.000000	0.292713
1631.000000	0.292944
1632.000000	0.293103
1633.000000	0.293253
1634.000000	0.293416
1635.000000	0.293603
1636.000000	0.293755
1637.000000	0.293895
1638.000000	0.294049
1639.000000	0.294248
1640.000000	0.294405
1641.000000	0.294631
1642.000000	0.294829
1643.000000	0.295012
1644.000000	0.295215
1645.000000	0.295433
1646.000000	0.295610
1647.000000	0.295792
1648.000000	0.295969
1649.000000	0.296234
1650.000000	0.296477
1651.000000	0.296749
1652.000000	0.297017
1653.000000	0.297211
1654.000000	0.297497
1655.000000	0.297779
1656.000000	0.297991
1657.000000	0.298306
1658.000000	0.298519
1659.000000	0.298739
1660.000000	0.298997
1661.000000	0.299160
1662.000000	0.299375
1663.000000	0.299585
1664.000000	0.299813
1665.000000	0.300053
1666.000000	0.300352
1667.000000	0.300611
1668.000000	0.300880
1669.000000	0.301149
1670.000000	0.301365
1671.000000	0.301664
1672.000000	0.301941
1673.000000	0.302165
1674.000000	0.302414
1675.000000	0.302692
1676.000000	0.302901
1677.000000	0.303086
1678.000000	0.303280
1679.000000	0.303489
1680.000000	0.303638
1681.000000	0.303776
1682.000000	0.303959
1683.000000	0.304120
1684.000000	0.304344
1685.000000	0.304649
1686.000000	0.304849
1687.000000	0.305058
1688.000000	0.305240
1689.000000	0.305427
1690.000000	0.305539
1691.000000	0.305668
1692.000000	0.305819
1693.000000	0.305942
1694.000000	0.306133
1695.000000	0.306430
1696.000000	0.306615
1697.000000	0.306765
1698.000000	0.306917
1699.000000	0.307117
1700.000000	0.307339
1701.000000	0.307632
1702.000000	0.307838
1703.000000	0.307985
1704.000000	0.308152
1705.000000	0.308360
1706.000000	0.308631
1707.000000	0.308864
1708.000000	0.309125
1709.000000	0.309264
1710.000000	0.309359
1711.000000	0.309513
1712.000000	0.309664
1713.000000	0.309830
1714.000000	0.310068
1715.000000	0.310320
1716.000000	0.310609
1717.000000	0.310870
1718.000000	0.311142
1719.000000	0.311347
1720.000000	0.311542
1721.000000	0.311740
1722.000000	0.311897
1723.000000	0.312107
1724.000000	0.312358
1725.000000	0.312637
1726.000000	0.312880
1727.000000	0.313126
1728.000000	0.313349
1729.000000	0.313492
1730.000000	0.313716
1731.000000	0.313915
1732.000000	0.314070
1733.000000	0.314329
1734.000000	0.314492
1735.000000	0.314726
1736.000000	0.314999
1737.000000	0.315215
1738.000000	0.315448
1739.000000	0.315664
1740.000000	0.315824
1741.000000	0.316004
1742.000000	0.316190
1743.000000	0.316472
1744.000000	0.316779
1745.000000	0.317000
1746.000000	0.317235
1747.000000	0.317425
1748.000000	0.317591
1749.000000	0.317839
1750.000000	0.318020
1751.000000	0.318254
1752.000000	0.318571
1753.000000	0.318765
1754.000000	0.318995
1755.000000	0.319249
1756.000000	0.319434
1757.000000	0.319564
1758.000000	0.319753
1759.000000	0.319899
1760.000000	0.320080
1761.000000	0.320292
1762.000000	0.320485
1763.000000	0.320689
1764.000000	0.320898
1765.000000	0.321059
1766.000000	0.321294
1767.000000	0.321511
1768.000000	0.321668
1769.000000	0.321935
1770.000000	0.322196
1771.000000	0.322401
1772.000000	0.322545
1773.000000	0.322603
1774.000000	0.322729
1775.000000	0.322852
1776.000000	0.323027
1777.000000	0.323259
1778.000000	0.323453
1779.000000	0.323607
1780.000000	0.323810
1781.000000	0.323980
1782.000000	0.324249
1783.000000	0.324623
1784.000000	0.325011
1785.000000	0.325339
1786.000000	0.325650
1787.000000	0.326023
1788.000000	0.326431
1789.000000	0.326780
1790.000000	0.326995
1791.000000	0.327201
1792.000000	0.327400
1793.000000	0.327630
1794.000000	0.327958
1795.000000	0.328251
1796.000000	0.328501
1797.000000	0.328753
1798.000000	0.328992
1799.000000	0.329207
1800.000000	0.329428
1801.000000	0.328784
1802.000000	0.329168
1803.000000	0.329676
1804.000000	0.330223
1805.000000	0.331025
1806.000000	0.331496
1807.000000	0.332067
1808.000000	0.332301
1809.000000	0.332018
1810.000000	0.331928
1811.000000	0.331986
1812.000000	0.331932
1813.000000	0.332079
1814.000000	0.332712
1815.000000	0.332915
1816.000000	0.332914
1817.000000	0.332894
1818.000000	0.332888
1819.000000	0.332753
1820.000000	0.332768
1821.000000	0.332903
1822.000000	0.333023
1823.000000	0.333213
1824.000000	0.333168
1825.000000	0.332785
1826.000000	0.332857
1827.000000	0.332980
1828.000000	0.333034
1829.000000	0.333122
1830.000000	0.333067
1831.000000	0.332852
1832.000000	0.331971
1833.000000	0.331837
1834.000000	0.332205
1835.000000	0.332232
1836.000000	0.332276
1837.000000	0.332306
1838.000000	0.332112
1839.000000	0.331716
1840.000000	0.331631
1841.000000	0.331542
1842.000000	0.331382
1843.000000	0.331135
1844.000000	0.330977
1845.000000	0.330698
1846.000000	0.330505
1847.000000	0.330283
1848.000000	0.329917
1849.000000	0.329526
1850.000000	0.329209
1851.000000	0.328756
1852.000000	0.328015
1853.000000	0.327636
1854.000000	0.327227
1855.000000	0.326648
1856.000000	0.326102
1857.000000	0.325483
1858.000000	0.324550
1859.000000	0.323689
1860.000000	0.322776
1861.000000	0.321799
1862.000000	0.320408
1863.000000	0.318464
1864.000000	0.317082
1865.000000	0.315659
1866.000000	0.314325
1867.000000	0.313341
1868.000000	0.312304
1869.000000	0.310728
1870.000000	0.309026
1871.000000	0.307219
1872.000000	0.305481
1873.000000	0.303845
1874.000000	0.302379
1875.000000	0.300664
1876.000000	0.298779
1877.000000	0.296516
1878.000000	0.294090
1879.000000	0.291492
1880.000000	0.288718
1881.000000	0.285860
1882.000000	0.282910
1883.000000	0.279775
1884.000000	0.276812
1885.000000	0.273834
1886.000000	0.270701
1887.000000	0.267510
1888.000000	0.264067
1889.000000	0.260709
1890.000000	0.257378
1891.000000	0.254080
1892.000000	0.250839
1893.000000	0.247264
1894.000000	0.243478
1895.000000	0.239561
1896.000000	0.235572
1897.000000	0.231473
1898.000000	0.227394
1899.000000	0.223553
1900.000000	0.219776
1901.000000	0.215982
1902.000000	0.212137
1903.000000	0.208262
1904.000000	0.204433
1905.000000	0.200537
1906.000000	0.196571
1907.000000	0.192611
1908.000000	0.188703
1909.000000	0.184906
1910.000000	0.181314
1911.000000	0.177686
1912.000000	0.174250
1913.000000	0.171149
1914.000000	0.167896
1915.000000	0.164899
1916.000000	0.162204
1917.000000	0.159400
1918.000000	0.156543
1919.000000	0.153915
1920.000000	0.151447
1921.000000	0.149037
1922.000000	0.146724
1923.000000	0.144640
1924.000000	0.142733
1925.000000	0.141058
1926.000000	0.139728
1927.000000	0.138481
1928.000000	0.137196
1929.000000	0.136001
1930.000000	0.134898
1931.000000	0.133775
1932.000000	0.132890
1933.000000	0.132207
1934.000000	0.131401
1935.000000	0.130730
1936.000000	0.129888
1937.000000	0.128999
1938.000000	0.128550
1939.000000	0.128001
1940.000000	0.127422
1941.000000	0.126988
1942.000000	0.126782
1943.000000	0.126180
1944.000000	0.125794
1945.000000	0.125599
1946.000000	0.125369
1947.000000	0.125232
1948.000000	0.124853
1949.000000	0.124560
1950.000000	0.124275
1951.000000	0.123905
1952.000000	0.123492
1953.000000	0.123235
1954.000000	0.123026
1955.000000	0.122919
1956.000000	0.122907
1957.000000	0.122885
1958.000000	0.122790
1959.000000	0.122417
1960.000000	0.121894
1961.000000	0.121731
1962.000000	0.121578
1963.000000	0.121489
1964.000000	0.121503
1965.000000	0.121716
1966.000000	0.121660
1967.000000	0.121464
1968.000000	0.121396
1969.000000	0.121307
1970.000000	0.121425
1971.000000	0.121646
1972.000000	0.121640
1973.000000	0.121614
1974.000000	0.121432
1975.000000	0.121440
1976.000000	0.121403
1977.000000	0.121799
1978.000000	0.122130
1979.000000	0.122450
1980.000000	0.122869
1981.000000	0.123167
1982.000000	0.123458
1983.000000	0.123777
1984.000000	0.123964
1985.000000	0.123902
1986.000000	0.124171
1987.000000	0.124544
1988.000000	0.124940
1989.000000	0.125683
1990.000000	0.126291
1991.000000	0.126525
1992.000000	0.126993
1993.000000	0.127414
1994.000000	0.127810
1995.000000	0.128386
1996.000000	0.128967
1997.000000	0.129639
1998.000000	0.130435
1999.000000	0.131190
2000.000000	0.132028
2001.000000	0.132846
2002.000000	0.133549
2003.000000	0.134316
2004.000000	0.134962
2005.000000	0.135566
2006.000000	0.136180
2007.000000	0.136711
2008.000000	0.137386
2009.000000	0.138063
2010.000000	0.138863
2011.000000	0.139806
2012.000000	0.140641
2013.000000	0.141430
2014.000000	0.142331
2015.000000	0.143056
2016.000000	0.143657
2017.000000	0.144455
2018.000000	0.145325
2019.000000	0.146250
2020.000000	0.147182
2021.000000	0.148131
2022.000000	0.149083
2023.000000	0.149975
2024.000000	0.150855
2025.000000	0.151821
2026.000000	0.152739
2027.000000	0.153546
2028.000000	0.154540
2029.000000	0.155574
2030.000000	0.156448
2031.000000	0.157195
2032.000000	0.157746
2033.000000	0.158493
2034.000000	0.159262
2035.000000	0.160059
2036.000000	0.160900
2037.000000	0.161998
2038.000000	0.162963
2039.000000	0.163947
2040.000000	0.164959
2041.000000	0.165919
2042.000000	0.166731
2043.000000	0.167482
2044.000000	0.168360
2045.000000	0.169158
2046.000000	0.169943
2047.000000	0.170687
2048.000000	0.171288
2049.000000	0.172147
2050.000000	0.172864
2051.000000	0.173547
2052.000000	0.174360
2053.000000	0.174951
2054.000000	0.175413
2055.000000	0.176167
2056.000000	0.176741
2057.000000	0.177513
2058.000000	0.178324
2059.000000	0.179324
2060.000000	0.180153
2061.000000	0.181065
2062.000000	0.181625
2063.000000	0.181800
2064.000000	0.182291
2065.000000	0.182933
2066.000000	0.183595
2067.000000	0.184648
2068.000000	0.185604
2069.000000	0.186462
2070.000000	0.187332
2071.000000	0.188140
2072.000000	0.189126
2073.000000	0.189901
2074.000000	0.190672
2075.000000	0.191611
2076.000000	0.192636
2077.000000	0.193607
2078.000000	0.194793
2079.000000	0.195723
2080.000000	0.196422
2081.000000	0.197302
2082.000000	0.198250
2083.000000	0.199071
2084.000000	0.199919
2085.000000	0.200979
2086.000000	0.202041
2087.000000	0.203034
2088.000000	0.204155
2089.000000	0.205394
2090.000000	0.206522
2091.000000	0.207662
2092.000000	0.208758
2093.000000	0.209951
2094.000000	0.210860
2095.000000	0.211525
2096.000000	0.212343
2097.000000	0.213002
2098.000000	0.213666
2099.000000	0.214485
2100.000000	0.215501
2101.000000	0.216422
2102.000000	0.217183
2103.000000	0.218020
2104.000000	0.218862
2105.000000	0.219816
2106.000000	0.220923
2107.000000	0.221938
2108.000000	0.223003
2109.000000	0.224007
2110.000000	0.224677
2111.000000	0.225533
2112.000000	0.226506
2113.000000	0.227227
2114.000000	0.227801
2115.000000	0.228815
2116.000000	0.229390
2117.000000	0.229979
2118.000000	0.230578
2119.000000	0.231096
2120.000000	0.231754
2121.000000	0.232468
2122.000000	0.233055
2123.000000	0.233605
2124.000000	0.234288
2125.000000	0.235014
2126.000000	0.235640
2127.000000	0.236456
2128.000000	0.237155
2129.000000	0.237582
2130.000000	0.238077
2131.000000	0.238400
2132.000000	0.238749
2133.000000	0.239040
2134.000000	0.239417
2135.000000	0.239754
2136.000000	0.239920
2137.000000	0.240264
2138.000000	0.240513
2139.000000	0.240941
2140.000000	0.241644
2141.000000	0.242215
2142.000000	0.242917
2143.000000	0.243294
2144.000000	0.243614
2145.000000	0.244019
2146.000000	0.244547
2147.000000	0.244820
2148.000000	0.245019
2149.000000	0.245427
2150.000000	0.245694
2151.000000	0.245851
2152.000000	0.246127
2153.000000	0.246413
2154.000000	0.246664
2155.000000	0.246827
2156.000000	0.247147
2157.000000	0.247682
2158.000000	0.247996
2159.000000	0.248374
2160.000000	0.248650
2161.000000	0.248517
2162.000000	0.248826
2163.000000	0.249299
2164.000000	0.249676
2165.000000	0.250148
2166.000000	0.250869
2167.000000	0.251239
2168.000000	0.251360
2169.000000	0.251647
2170.000000	0.251430
2171.000000	0.251365
2172.000000	0.251128
2173.000000	0.251271
2174.000000	0.251627
2175.000000	0.251884
2176.000000	0.252349
2177.000000	0.252613
2178.000000	0.252712
2179.000000	0.252921
2180.000000	0.253111
2181.000000	0.253565
2182.000000	0.253758
2183.000000	0.253771
2184.000000	0.253877
2185.000000	0.253779
2186.000000	0.253421
2187.000000	0.253208
2188.000000	0.253414
2189.000000	0.253475
2190.000000	0.253399
2191.000000	0.254185
2192.000000	0.254387
2193.000000	0.254262
2194.000000	0.254258
2195.000000	0.254222
2196.000000	0.254129
2197.000000	0.253826
2198.000000	0.253811
2199.000000	0.254014
2200.000000	0.254339
2201.000000	0.254930
2202.000000	0.255577
2203.000000	0.256377
2204.000000	0.256773
2205.000000	0.256844
2206.000000	0.257207
2207.000000	0.256953
2208.000000	0.256476
2209.000000	0.256502
2210.000000	0.256550
2211.000000	0.257186
2212.000000	0.258421
2213.000000	0.258910
2214.000000	0.259191
2215.000000	0.259350
2216.000000	0.258737
2217.000000	0.259052
2218.000000	0.260450
2219.000000	0.260741
2220.000000	0.260853
2221.000000	0.260803
2222.000000	0.259264
2223.000000	0.259017
2224.000000	0.259477
2225.000000	0.260123
2226.000000	0.260860
2227.000000	0.261807
2228.000000	0.262164
2229.000000	0.261477
2230.000000	0.260541
2231.000000	0.260057
2232.000000	0.260267
2233.000000	0.260882
2234.000000	0.261217
2235.000000	0.261864
2236.000000	0.261980
2237.000000	0.261297
2238.000000	0.261142
2239.000000	0.260769
2240.000000	0.261016
2241.000000	0.261947
2242.000000	0.262293
2243.000000	0.263032
2244.000000	0.263282
2245.000000	0.262632
2246.000000	0.262421
2247.000000	0.262223
2248.000000	0.262083
2249.000000	0.262444
2250.000000	0.262017
2251.000000	0.261023
2252.000000	0.260225
2253.000000	0.259314
2254.000000	0.259222
2255.000000	0.260097
2256.000000	0.261383
2257.000000	0.263055
2258.000000	0.263805
2259.000000	0.263466
2260.000000	0.262701
2261.000000	0.261651
2262.000000	0.259389
2263.000000	0.258622
2264.000000	0.258047
2265.000000	0.258132
2266.000000	0.259435
2267.000000	0.259436
2268.000000	0.259420
2269.000000	0.259330
2270.000000	0.258642
2271.000000	0.257907
2272.000000	0.257097
2273.000000	0.256551
2274.000000	0.255500
2275.000000	0.255022
2276.000000	0.255229
2277.000000	0.255376
2278.000000	0.254589
2279.000000	0.253478
2280.000000	0.252628
2281.000000	0.251266
2282.000000	0.250135
2283.000000	0.250393
2284.000000	0.250010
2285.000000	0.248517
2286.000000	0.248253
2287.000000	0.247845
2288.000000	0.246716
2289.000000	0.246478
2290.000000	0.245738
2291.000000	0.244296
2292.000000	0.243397
2293.000000	0.242243
2294.000000	0.241281
2295.000000	0.240278
2296.000000	0.239522
2297.000000	0.238899
2298.000000	0.238504
2299.000000	0.238508
2300.000000	0.237864
2301.000000	0.237199
2302.000000	0.236331
2303.000000	0.234590
2304.000000	0.233719
2305.000000	0.233513
2306.000000	0.232737
2307.000000	0.231916
2308.000000	0.231155
2309.000000	0.230476
2310.000000	0.229402
2311.000000	0.228574
2312.000000	0.227831
2313.000000	0.226158
2314.000000	0.224199
2315.000000	0.222932
2316.000000	0.221612
2317.000000	0.219948
2318.000000	0.219324
2319.000000	0.218583
2320.000000	0.217554
2321.000000	0.217488
2322.000000	0.216886
2323.000000	0.215309
2324.000000	0.213513
2325.000000	0.211195
2326.000000	0.208765
2327.000000	0.206838
2328.000000	0.205344
2329.000000	0.204822
2330.000000	0.204531
2331.000000	0.204592
2332.000000	0.205153
2333.000000	0.204509
2334.000000	0.203051
2335.000000	0.201648
2336.000000	0.198824
2337.000000	0.197156
2338.000000	0.195694
2339.000000	0.194719
2340.000000	0.194545
2341.000000	0.193799
2342.000000	0.193429
2343.000000	0.192243
2344.000000	0.190066
2345.000000	0.188687
2346.000000	0.187830
2347.000000	0.186291
2348.000000	0.184887
2349.000000	0.182982
2350.000000	0.180042
2351.000000	0.177673
2352.000000	0.176423
2353.000000	0.176446
2354.000000	0.175584
2355.000000	0.173923
2356.000000	0.172328
2357.000000	0.169746
2358.000000	0.168738
2359.000000	0.168507
2360.000000	0.167263
2361.000000	0.166955
2362.000000	0.166614
2363.000000	0.166197
2364.000000	0.166149
2365.000000	0.165479
2366.000000	0.164082
2367.000000	0.162187
2368.000000	0.160364
2369.000000	0.158426
2370.000000	0.156265
2371.000000	0.155463
2372.000000	0.156249
2373.000000	0.156412
2374.000000	0.155654
2375.000000	0.155411
2376.000000	0.153971
2377.000000	0.151519
2378.000000	0.151027
2379.000000	0.149683
2380.000000	0.147460
2381.000000	0.147527
2382.000000	0.146648
2383.000000	0.144926
2384.000000	0.144346
2385.000000	0.143139
2386.000000	0.141227
2387.000000	0.139313
2388.000000	0.137105
2389.000000	0.135514
2390.000000	0.135464
2391.000000	0.135971
2392.000000	0.135688
2393.000000	0.134811
2394.000000	0.133907
2395.000000	0.133191
2396.000000	0.133596
2397.000000	0.133352
2398.000000	0.132792
2399.000000	0.133018
2400.000000	0.132333
2401.000000	0.131552
2402.000000	0.130968
2403.000000	0.130236
2404.000000	0.130632
2405.000000	0.129917
2406.000000	0.127040
2407.000000	0.124924
2408.000000	0.124515
2409.000000	0.126936
2410.000000	0.130223
2411.000000	0.133567
2412.000000	0.133278
2413.000000	0.128999
2414.000000	0.127647
2415.000000	0.124238
2416.000000	0.121425
2417.000000	0.120467
2418.000000	0.115994
2419.000000	0.114794
2420.000000	0.115526
2421.000000	0.113034
2422.000000	0.112375
2423.000000	0.112728
2424.000000	0.110850
2425.000000	0.112208
2426.000000	0.113137
2427.000000	0.113367
2428.000000	0.116336
2429.000000	0.118813
2430.000000	0.122491
2431.000000	0.124122
2432.000000	0.124567
2433.000000	0.124529
2434.000000	0.122435
2435.000000	0.121474
2436.000000	0.119418
2437.000000	0.118142
2438.000000	0.120532
2439.000000	0.122286
2440.000000	0.122295
2441.000000	0.120173
2442.000000	0.115430
2443.000000	0.113180
2444.000000	0.113257
2445.000000	0.115693
2446.000000	0.119269
2447.000000	0.119004
2448.000000	0.121531
2449.000000	0.123856
2450.000000	0.122849
2451.000000	0.128853
2452.000000	0.129103
2453.000000	0.125025
2454.000000	0.126458
2455.000000	0.119438
2456.000000	0.114748
2457.000000	0.111412
2458.000000	0.104766
2459.000000	0.106885
2460.000000	0.110215
2461.000000	0.112182
2462.000000	0.116283
2463.000000	0.116619
2464.000000	0.110167
2465.000000	0.105714
2466.000000	0.103637
2467.000000	0.099077
2468.000000	0.096949
2469.000000	0.102252
2470.000000	0.110902
2471.000000	0.119278
2472.000000	0.124266
2473.000000	0.115730
2474.000000	0.106919
2475.000000	0.098002
2476.000000	0.086875
2477.000000	0.091237
2478.000000	0.089555
2479.000000	0.083874
2480.000000	0.094324
2481.000000	0.097291
2482.000000	0.095459
2483.000000	0.104619
2484.000000	0.099445
2485.000000	0.097827
2486.000000	0.104230
2487.000000	0.096555
2488.000000	0.099386
2489.000000	0.094745
2490.000000	0.077661
2491.000000	0.075614
2492.000000	0.070804
2493.000000	0.069648
2494.000000	0.071681
2495.000000	0.074997
2496.000000	0.070640
2497.000000	0.063194
2498.000000	0.062304
2499.000000	0.057844
2500.000000	0.064354
