# Wavelength	Hexa80_00002.asd.rts.txt
350.000000	0.286258
351.000000	0.286544
352.000000	0.282723
353.000000	0.278829
354.000000	0.279621
355.000000	0.283430
356.000000	0.286339
357.000000	0.288387
358.000000	0.286987
359.000000	0.287420
360.000000	0.289164
361.000000	0.289878
362.000000	0.289148
363.000000	0.289163
364.000000	0.290747
365.000000	0.294597
366.000000	0.295510
367.000000	0.293195
368.000000	0.292261
369.000000	0.295520
370.000000	0.299013
371.000000	0.297726
372.000000	0.297668
373.000000	0.298321
374.000000	0.299084
375.000000	0.298513
376.000000	0.297431
377.000000	0.296907
378.000000	0.298900
379.000000	0.298787
380.000000	0.298099
381.000000	0.300668
382.000000	0.300485
383.000000	0.300240
384.000000	0.302087
385.000000	0.302754
386.000000	0.303485
387.000000	0.304587
388.000000	0.304867
389.000000	0.305259
390.000000	0.305706
391.000000	0.305592
392.000000	0.306761
393.000000	0.307537
394.000000	0.306973
395.000000	0.308002
396.000000	0.309299
397.000000	0.309963
398.000000	0.309659
399.000000	0.309560
400.000000	0.310009
401.000000	0.310793
402.000000	0.311940
403.000000	0.312562
404.000000	0.312369
405.000000	0.312929
406.000000	0.313847
407.000000	0.314660
408.000000	0.314591
409.000000	0.314836
410.000000	0.315361
411.000000	0.315396
412.000000	0.315773
413.000000	0.316272
414.000000	0.316587
415.000000	0.317158
416.000000	0.317769
417.000000	0.318250
418.000000	0.318620
419.000000	0.318849
420.000000	0.319100
421.000000	0.319720
422.000000	0.320004
423.000000	0.320176
424.000000	0.320772
425.000000	0.321144
426.000000	0.321398
427.000000	0.321647
428.000000	0.321755
429.000000	0.322142
430.000000	0.322776
431.000000	0.322981
432.000000	0.323158
433.000000	0.323340
434.000000	0.323568
435.000000	0.323817
436.000000	0.324072
437.000000	0.324308
438.000000	0.324617
439.000000	0.324826
440.000000	0.325018
441.000000	0.325350
442.000000	0.325649
443.000000	0.325785
444.000000	0.325874
445.000000	0.326069
446.000000	0.326468
447.000000	0.326857
448.000000	0.327035
449.000000	0.327320
450.000000	0.327852
451.000000	0.328097
452.000000	0.328286
453.000000	0.328468
454.000000	0.328826
455.000000	0.329099
456.000000	0.329435
457.000000	0.329871
458.000000	0.330100
459.000000	0.330321
460.000000	0.330760
461.000000	0.330983
462.000000	0.331272
463.000000	0.331550
464.000000	0.331752
465.000000	0.332106
466.000000	0.332478
467.000000	0.332677
468.000000	0.332957
469.000000	0.333170
470.000000	0.333340
471.000000	0.333569
472.000000	0.333744
473.000000	0.333874
474.000000	0.334199
475.000000	0.334368
476.000000	0.334518
477.000000	0.334845
478.000000	0.335077
479.000000	0.335373
480.000000	0.335586
481.000000	0.335795
482.000000	0.336130
483.000000	0.336395
484.000000	0.336765
485.000000	0.336967
486.000000	0.337136
487.000000	0.337360
488.000000	0.337640
489.000000	0.337982
490.000000	0.338353
491.000000	0.338617
492.000000	0.338900
493.000000	0.339193
494.000000	0.339475
495.000000	0.339764
496.000000	0.340037
497.000000	0.340401
498.000000	0.340690
499.000000	0.340972
500.000000	0.341347
501.000000	0.341648
502.000000	0.341938
503.000000	0.342258
504.000000	0.342540
505.000000	0.342786
506.000000	0.343021
507.000000	0.343270
508.000000	0.343604
509.000000	0.343988
510.000000	0.344372
511.000000	0.344718
512.000000	0.345055
513.000000	0.345398
514.000000	0.345698
515.000000	0.346025
516.000000	0.346386
517.000000	0.346724
518.000000	0.347093
519.000000	0.347424
520.000000	0.347745
521.000000	0.348053
522.000000	0.348351
523.000000	0.348604
524.000000	0.348931
525.000000	0.349297
526.000000	0.349641
527.000000	0.349916
528.000000	0.350153
529.000000	0.350461
530.000000	0.350754
531.000000	0.351088
532.000000	0.351385
533.000000	0.351658
534.000000	0.351950
535.000000	0.352263
536.000000	0.352618
537.000000	0.352970
538.000000	0.353280
539.000000	0.353508
540.000000	0.353804
541.000000	0.354109
542.000000	0.354399
543.000000	0.354658
544.000000	0.354945
545.000000	0.355214
546.000000	0.355548
547.000000	0.355879
548.000000	0.356233
549.000000	0.356567
550.000000	0.356913
551.000000	0.357275
552.000000	0.357585
553.000000	0.357920
554.000000	0.358265
555.000000	0.358615
556.000000	0.358987
557.000000	0.359324
558.000000	0.359734
559.000000	0.360036
560.000000	0.360355
561.000000	0.360765
562.000000	0.361115
563.000000	0.361403
564.000000	0.361727
565.000000	0.362043
566.000000	0.362410
567.000000	0.362771
568.000000	0.363074
569.000000	0.363407
570.000000	0.363734
571.000000	0.364048
572.000000	0.364402
573.000000	0.364764
574.000000	0.365093
575.000000	0.365427
576.000000	0.365815
577.000000	0.366168
578.000000	0.366503
579.000000	0.366859
580.000000	0.367206
581.000000	0.367525
582.000000	0.367835
583.000000	0.368107
584.000000	0.368379
585.000000	0.368730
586.000000	0.369090
587.000000	0.369450
588.000000	0.369822
589.000000	0.370216
590.000000	0.370595
591.000000	0.370935
592.000000	0.371233
593.000000	0.371547
594.000000	0.371870
595.000000	0.372136
596.000000	0.372359
597.000000	0.372597
598.000000	0.372793
599.000000	0.372929
600.000000	0.373159
601.000000	0.373477
602.000000	0.373714
603.000000	0.373886
604.000000	0.374041
605.000000	0.374247
606.000000	0.374406
607.000000	0.374529
608.000000	0.374693
609.000000	0.374861
610.000000	0.375070
611.000000	0.375347
612.000000	0.375539
613.000000	0.375685
614.000000	0.375852
615.000000	0.375926
616.000000	0.375991
617.000000	0.376057
618.000000	0.376196
619.000000	0.376375
620.000000	0.376540
621.000000	0.376716
622.000000	0.376941
623.000000	0.377192
624.000000	0.377435
625.000000	0.377657
626.000000	0.377883
627.000000	0.378149
628.000000	0.378523
629.000000	0.378931
630.000000	0.379202
631.000000	0.379483
632.000000	0.379781
633.000000	0.380079
634.000000	0.380332
635.000000	0.380561
636.000000	0.380756
637.000000	0.380893
638.000000	0.380996
639.000000	0.381099
640.000000	0.381258
641.000000	0.381337
642.000000	0.381434
643.000000	0.381571
644.000000	0.381743
645.000000	0.381851
646.000000	0.381967
647.000000	0.382118
648.000000	0.382269
649.000000	0.382452
650.000000	0.382644
651.000000	0.382828
652.000000	0.382988
653.000000	0.383183
654.000000	0.383394
655.000000	0.383613
656.000000	0.383834
657.000000	0.383998
658.000000	0.384248
659.000000	0.384496
660.000000	0.384692
661.000000	0.384940
662.000000	0.385121
663.000000	0.385293
664.000000	0.385479
665.000000	0.385684
666.000000	0.385885
667.000000	0.386026
668.000000	0.386205
669.000000	0.386405
670.000000	0.386606
671.000000	0.386772
672.000000	0.386937
673.000000	0.387110
674.000000	0.387314
675.000000	0.387503
676.000000	0.387687
677.000000	0.387900
678.000000	0.388049
679.000000	0.388178
680.000000	0.388338
681.000000	0.388514
682.000000	0.388743
683.000000	0.388928
684.000000	0.389135
685.000000	0.389321
686.000000	0.389500
687.000000	0.389636
688.000000	0.389826
689.000000	0.390012
690.000000	0.390195
691.000000	0.390432
692.000000	0.390620
693.000000	0.390815
694.000000	0.391029
695.000000	0.391266
696.000000	0.391489
697.000000	0.391655
698.000000	0.391838
699.000000	0.392037
700.000000	0.392242
701.000000	0.392407
702.000000	0.392596
703.000000	0.392789
704.000000	0.392913
705.000000	0.393093
706.000000	0.393274
707.000000	0.393453
708.000000	0.393610
709.000000	0.393761
710.000000	0.393948
711.000000	0.394146
712.000000	0.394313
713.000000	0.394468
714.000000	0.394624
715.000000	0.394793
716.000000	0.394979
717.000000	0.395147
718.000000	0.395343
719.000000	0.395551
720.000000	0.395763
721.000000	0.395951
722.000000	0.396107
723.000000	0.396292
724.000000	0.396422
725.000000	0.396501
726.000000	0.396647
727.000000	0.396794
728.000000	0.396931
729.000000	0.397069
730.000000	0.397163
731.000000	0.397313
732.000000	0.397463
733.000000	0.397611
734.000000	0.397658
735.000000	0.397689
736.000000	0.397846
737.000000	0.397953
738.000000	0.398003
739.000000	0.398141
740.000000	0.398238
741.000000	0.398324
742.000000	0.398457
743.000000	0.398599
744.000000	0.398721
745.000000	0.398825
746.000000	0.398962
747.000000	0.399067
748.000000	0.399219
749.000000	0.399379
750.000000	0.399479
751.000000	0.399580
752.000000	0.399681
753.000000	0.399794
754.000000	0.399902
755.000000	0.400010
756.000000	0.400125
757.000000	0.400203
758.000000	0.400320
759.000000	0.400478
760.000000	0.400591
761.000000	0.400784
762.000000	0.400930
763.000000	0.401004
764.000000	0.401151
765.000000	0.401234
766.000000	0.401294
767.000000	0.401377
768.000000	0.401458
769.000000	0.401536
770.000000	0.401620
771.000000	0.401719
772.000000	0.401863
773.000000	0.401942
774.000000	0.401986
775.000000	0.402041
776.000000	0.402108
777.000000	0.402163
778.000000	0.402243
779.000000	0.402334
780.000000	0.402426
781.000000	0.402475
782.000000	0.402515
783.000000	0.402642
784.000000	0.402715
785.000000	0.402806
786.000000	0.402860
787.000000	0.402865
788.000000	0.402930
789.000000	0.403015
790.000000	0.403084
791.000000	0.403158
792.000000	0.403189
793.000000	0.403221
794.000000	0.403301
795.000000	0.403415
796.000000	0.403516
797.000000	0.403567
798.000000	0.403553
799.000000	0.403576
800.000000	0.403634
801.000000	0.403693
802.000000	0.403723
803.000000	0.403783
804.000000	0.403911
805.000000	0.403921
806.000000	0.403877
807.000000	0.403905
808.000000	0.403953
809.000000	0.404039
810.000000	0.404130
811.000000	0.404181
812.000000	0.404200
813.000000	0.404203
814.000000	0.404210
815.000000	0.404270
816.000000	0.404225
817.000000	0.404189
818.000000	0.404193
819.000000	0.404220
820.000000	0.404308
821.000000	0.404385
822.000000	0.404431
823.000000	0.404454
824.000000	0.404397
825.000000	0.404360
826.000000	0.404336
827.000000	0.404295
828.000000	0.404279
829.000000	0.404262
830.000000	0.404251
831.000000	0.404289
832.000000	0.404217
833.000000	0.404210
834.000000	0.404263
835.000000	0.404366
836.000000	0.404400
837.000000	0.404369
838.000000	0.404295
839.000000	0.404151
840.000000	0.404026
841.000000	0.403982
842.000000	0.403984
843.000000	0.403938
844.000000	0.403918
845.000000	0.403892
846.000000	0.403811
847.000000	0.403762
848.000000	0.403741
849.000000	0.403763
850.000000	0.403784
851.000000	0.403761
852.000000	0.403725
853.000000	0.403652
854.000000	0.403576
855.000000	0.403627
856.000000	0.403663
857.000000	0.403498
858.000000	0.403376
859.000000	0.403300
860.000000	0.403171
861.000000	0.403132
862.000000	0.403174
863.000000	0.403126
864.000000	0.403061
865.000000	0.403010
866.000000	0.402990
867.000000	0.402886
868.000000	0.402791
869.000000	0.402651
870.000000	0.402515
871.000000	0.402383
872.000000	0.402238
873.000000	0.402035
874.000000	0.401988
875.000000	0.401878
876.000000	0.401725
877.000000	0.401552
878.000000	0.401394
879.000000	0.401253
880.000000	0.400977
881.000000	0.400793
882.000000	0.400752
883.000000	0.400782
884.000000	0.400663
885.000000	0.400464
886.000000	0.400252
887.000000	0.400103
888.000000	0.400001
889.000000	0.399894
890.000000	0.399694
891.000000	0.399593
892.000000	0.399420
893.000000	0.399183
894.000000	0.399047
895.000000	0.398870
896.000000	0.398705
897.000000	0.398530
898.000000	0.398305
899.000000	0.398014
900.000000	0.397759
901.000000	0.397552
902.000000	0.397466
903.000000	0.397397
904.000000	0.397327
905.000000	0.397138
906.000000	0.396990
907.000000	0.396835
908.000000	0.396694
909.000000	0.396434
910.000000	0.396190
911.000000	0.395970
912.000000	0.395775
913.000000	0.395589
914.000000	0.395468
915.000000	0.395429
916.000000	0.395241
917.000000	0.395054
918.000000	0.394894
919.000000	0.394740
920.000000	0.394631
921.000000	0.394476
922.000000	0.394246
923.000000	0.393918
924.000000	0.393554
925.000000	0.393268
926.000000	0.393124
927.000000	0.392926
928.000000	0.392678
929.000000	0.392416
930.000000	0.392201
931.000000	0.392049
932.000000	0.391919
933.000000	0.391773
934.000000	0.391446
935.000000	0.391084
936.000000	0.390837
937.000000	0.390635
938.000000	0.390348
939.000000	0.390138
940.000000	0.389923
941.000000	0.389701
942.000000	0.389423
943.000000	0.389189
944.000000	0.388942
945.000000	0.388902
946.000000	0.388592
947.000000	0.388279
948.000000	0.388232
949.000000	0.387942
950.000000	0.387655
951.000000	0.387409
952.000000	0.387178
953.000000	0.386940
954.000000	0.386783
955.000000	0.386654
956.000000	0.386471
957.000000	0.386291
958.000000	0.386055
959.000000	0.385833
960.000000	0.385604
961.000000	0.385298
962.000000	0.384940
963.000000	0.384743
964.000000	0.384550
965.000000	0.384395
966.000000	0.384182
967.000000	0.384047
968.000000	0.383766
969.000000	0.383390
970.000000	0.383222
971.000000	0.382871
972.000000	0.382604
973.000000	0.382424
974.000000	0.382209
975.000000	0.381908
976.000000	0.381597
977.000000	0.381345
978.000000	0.381130
979.000000	0.381092
980.000000	0.380926
981.000000	0.380787
982.000000	0.380508
983.000000	0.380255
984.000000	0.380135
985.000000	0.379959
986.000000	0.379806
987.000000	0.379771
988.000000	0.379683
989.000000	0.379317
990.000000	0.379120
991.000000	0.379026
992.000000	0.378890
993.000000	0.378806
994.000000	0.378621
995.000000	0.378476
996.000000	0.378240
997.000000	0.378387
998.000000	0.378435
999.000000	0.378285
1000.000000	0.378232
1001.000000	0.378512
1002.000000	0.378273
1003.000000	0.378166
1004.000000	0.378115
1005.000000	0.378239
1006.000000	0.378102
1007.000000	0.378061
1008.000000	0.377774
1009.000000	0.377394
1010.000000	0.376988
1011.000000	0.377001
1012.000000	0.377199
1013.000000	0.377184
1014.000000	0.377183
1015.000000	0.376974
1016.000000	0.377090
1017.000000	0.377174
1018.000000	0.377112
1019.000000	0.377246
1020.000000	0.377824
1021.000000	0.377537
1022.000000	0.377109
1023.000000	0.377185
1024.000000	0.377010
1025.000000	0.376902
1026.000000	0.376942
1027.000000	0.376782
1028.000000	0.376719
1029.000000	0.376663
1030.000000	0.376593
1031.000000	0.376793
1032.000000	0.376837
1033.000000	0.376625
1034.000000	0.376598
1035.000000	0.376712
1036.000000	0.376815
1037.000000	0.376972
1038.000000	0.376989
1039.000000	0.377098
1040.000000	0.377267
1041.000000	0.377408
1042.000000	0.377605
1043.000000	0.377931
1044.000000	0.378236
1045.000000	0.378061
1046.000000	0.377809
1047.000000	0.377885
1048.000000	0.377901
1049.000000	0.377926
1050.000000	0.378287
1051.000000	0.378417
1052.000000	0.378192
1053.000000	0.378204
1054.000000	0.378656
1055.000000	0.378915
1056.000000	0.379102
1057.000000	0.379442
1058.000000	0.379786
1059.000000	0.379705
1060.000000	0.379969
1061.000000	0.380316
1062.000000	0.380392
1063.000000	0.380620
1064.000000	0.380802
1065.000000	0.380830
1066.000000	0.380988
1067.000000	0.381217
1068.000000	0.381336
1069.000000	0.381324
1070.000000	0.381439
1071.000000	0.381657
1072.000000	0.381819
1073.000000	0.382094
1074.000000	0.382401
1075.000000	0.382492
1076.000000	0.382623
1077.000000	0.382677
1078.000000	0.382787
1079.000000	0.382950
1080.000000	0.383213
1081.000000	0.383385
1082.000000	0.383638
1083.000000	0.383939
1084.000000	0.384290
1085.000000	0.384661
1086.000000	0.385142
1087.000000	0.385509
1088.000000	0.385698
1089.000000	0.385891
1090.000000	0.386041
1091.000000	0.386086
1092.000000	0.386203
1093.000000	0.386465
1094.000000	0.386664
1095.000000	0.386800
1096.000000	0.387065
1097.000000	0.387391
1098.000000	0.387681
1099.000000	0.388020
1100.000000	0.388267
1101.000000	0.388375
1102.000000	0.388486
1103.000000	0.388462
1104.000000	0.388611
1105.000000	0.388814
1106.000000	0.389007
1107.000000	0.389238
1108.000000	0.389410
1109.000000	0.389581
1110.000000	0.389791
1111.000000	0.389983
1112.000000	0.390183
1113.000000	0.390411
1114.000000	0.390703
1115.000000	0.390871
1116.000000	0.391023
1117.000000	0.391144
1118.000000	0.391136
1119.000000	0.391143
1120.000000	0.391135
1121.000000	0.391180
1122.000000	0.391370
1123.000000	0.391684
1124.000000	0.391824
1125.000000	0.391988
1126.000000	0.392056
1127.000000	0.392077
1128.000000	0.392067
1129.000000	0.392056
1130.000000	0.392125
1131.000000	0.392226
1132.000000	0.392245
1133.000000	0.392331
1134.000000	0.392457
1135.000000	0.392468
1136.000000	0.392535
1137.000000	0.392744
1138.000000	0.392764
1139.000000	0.392761
1140.000000	0.392861
1141.000000	0.392916
1142.000000	0.392933
1143.000000	0.392855
1144.000000	0.392946
1145.000000	0.392855
1146.000000	0.392677
1147.000000	0.392635
1148.000000	0.392556
1149.000000	0.392539
1150.000000	0.392628
1151.000000	0.392637
1152.000000	0.392587
1153.000000	0.392547
1154.000000	0.392404
1155.000000	0.392308
1156.000000	0.392250
1157.000000	0.392164
1158.000000	0.392041
1159.000000	0.391883
1160.000000	0.391646
1161.000000	0.391463
1162.000000	0.391316
1163.000000	0.391345
1164.000000	0.391339
1165.000000	0.391247
1166.000000	0.391228
1167.000000	0.391176
1168.000000	0.391071
1169.000000	0.390999
1170.000000	0.390939
1171.000000	0.390868
1172.000000	0.390879
1173.000000	0.390921
1174.000000	0.390920
1175.000000	0.390886
1176.000000	0.390824
1177.000000	0.390856
1178.000000	0.390829
1179.000000	0.390737
1180.000000	0.390630
1181.000000	0.390606
1182.000000	0.390529
1183.000000	0.390505
1184.000000	0.390576
1185.000000	0.390577
1186.000000	0.390574
1187.000000	0.390501
1188.000000	0.390398
1189.000000	0.390246
1190.000000	0.390061
1191.000000	0.389931
1192.000000	0.389912
1193.000000	0.389968
1194.000000	0.389945
1195.000000	0.389921
1196.000000	0.389872
1197.000000	0.389790
1198.000000	0.389670
1199.000000	0.389610
1200.000000	0.389565
1201.000000	0.389470
1202.000000	0.389447
1203.000000	0.389409
1204.000000	0.389301
1205.000000	0.389297
1206.000000	0.389241
1207.000000	0.389312
1208.000000	0.389263
1209.000000	0.389246
1210.000000	0.389210
1211.000000	0.389127
1212.000000	0.389059
1213.000000	0.389045
1214.000000	0.389048
1215.000000	0.389041
1216.000000	0.389003
1217.000000	0.388932
1218.000000	0.388849
1219.000000	0.388756
1220.000000	0.388709
1221.000000	0.388666
1222.000000	0.388649
1223.000000	0.388605
1224.000000	0.388571
1225.000000	0.388534
1226.000000	0.388487
1227.000000	0.388412
1228.000000	0.388433
1229.000000	0.388367
1230.000000	0.388251
1231.000000	0.388107
1232.000000	0.388050
1233.000000	0.388077
1234.000000	0.388122
1235.000000	0.388106
1236.000000	0.388006
1237.000000	0.387986
1238.000000	0.387861
1239.000000	0.387811
1240.000000	0.387845
1241.000000	0.387835
1242.000000	0.387858
1243.000000	0.387902
1244.000000	0.387906
1245.000000	0.388022
1246.000000	0.388085
1247.000000	0.388189
1248.000000	0.388376
1249.000000	0.388457
1250.000000	0.388467
1251.000000	0.388517
1252.000000	0.388502
1253.000000	0.388438
1254.000000	0.388418
1255.000000	0.388387
1256.000000	0.388354
1257.000000	0.388380
1258.000000	0.388405
1259.000000	0.388349
1260.000000	0.388350
1261.000000	0.388268
1262.000000	0.388221
1263.000000	0.388230
1264.000000	0.388191
1265.000000	0.388208
1266.000000	0.388239
1267.000000	0.388209
1268.000000	0.388239
1269.000000	0.388207
1270.000000	0.388216
1271.000000	0.388241
1272.000000	0.388259
1273.000000	0.388313
1274.000000	0.388362
1275.000000	0.388356
1276.000000	0.388355
1277.000000	0.388396
1278.000000	0.388301
1279.000000	0.388230
1280.000000	0.388101
1281.000000	0.387971
1282.000000	0.387876
1283.000000	0.387894
1284.000000	0.387860
1285.000000	0.387874
1286.000000	0.387939
1287.000000	0.387986
1288.000000	0.387997
1289.000000	0.387971
1290.000000	0.387827
1291.000000	0.387683
1292.000000	0.387658
1293.000000	0.387645
1294.000000	0.387661
1295.000000	0.387718
1296.000000	0.387665
1297.000000	0.387608
1298.000000	0.387604
1299.000000	0.387540
1300.000000	0.387534
1301.000000	0.387501
1302.000000	0.387392
1303.000000	0.387368
1304.000000	0.387296
1305.000000	0.387294
1306.000000	0.387244
1307.000000	0.387239
1308.000000	0.387226
1309.000000	0.387196
1310.000000	0.387128
1311.000000	0.387082
1312.000000	0.386951
1313.000000	0.386835
1314.000000	0.386752
1315.000000	0.386615
1316.000000	0.386590
1317.000000	0.386610
1318.000000	0.386514
1319.000000	0.386299
1320.000000	0.386119
1321.000000	0.385876
1322.000000	0.385593
1323.000000	0.385449
1324.000000	0.385369
1325.000000	0.385203
1326.000000	0.385003
1327.000000	0.384823
1328.000000	0.384668
1329.000000	0.384402
1330.000000	0.384085
1331.000000	0.383840
1332.000000	0.383648
1333.000000	0.383389
1334.000000	0.383217
1335.000000	0.383027
1336.000000	0.382735
1337.000000	0.382490
1338.000000	0.382232
1339.000000	0.381971
1340.000000	0.381698
1341.000000	0.381461
1342.000000	0.381212
1343.000000	0.380917
1344.000000	0.380547
1345.000000	0.380144
1346.000000	0.379821
1347.000000	0.379387
1348.000000	0.379021
1349.000000	0.378618
1350.000000	0.378234
1351.000000	0.377829
1352.000000	0.377390
1353.000000	0.376961
1354.000000	0.376539
1355.000000	0.376117
1356.000000	0.375789
1357.000000	0.375427
1358.000000	0.375060
1359.000000	0.374696
1360.000000	0.374363
1361.000000	0.374099
1362.000000	0.373804
1363.000000	0.373471
1364.000000	0.373224
1365.000000	0.372962
1366.000000	0.372740
1367.000000	0.372571
1368.000000	0.372399
1369.000000	0.372288
1370.000000	0.372037
1371.000000	0.371732
1372.000000	0.371445
1373.000000	0.371160
1374.000000	0.370885
1375.000000	0.370588
1376.000000	0.370396
1377.000000	0.370150
1378.000000	0.369837
1379.000000	0.369488
1380.000000	0.369133
1381.000000	0.368721
1382.000000	0.368263
1383.000000	0.367867
1384.000000	0.367338
1385.000000	0.366765
1386.000000	0.366293
1387.000000	0.365820
1388.000000	0.365275
1389.000000	0.364752
1390.000000	0.364280
1391.000000	0.363700
1392.000000	0.363181
1393.000000	0.362543
1394.000000	0.361848
1395.000000	0.361161
1396.000000	0.360447
1397.000000	0.359623
1398.000000	0.358758
1399.000000	0.357845
1400.000000	0.356818
1401.000000	0.355740
1402.000000	0.354693
1403.000000	0.353506
1404.000000	0.352356
1405.000000	0.351192
1406.000000	0.349893
1407.000000	0.348626
1408.000000	0.347267
1409.000000	0.345851
1410.000000	0.344510
1411.000000	0.343053
1412.000000	0.341475
1413.000000	0.339920
1414.000000	0.338296
1415.000000	0.336700
1416.000000	0.335116
1417.000000	0.333470
1418.000000	0.331757
1419.000000	0.330077
1420.000000	0.328335
1421.000000	0.326634
1422.000000	0.324961
1423.000000	0.323363
1424.000000	0.321684
1425.000000	0.320003
1426.000000	0.318290
1427.000000	0.316580
1428.000000	0.314923
1429.000000	0.313285
1430.000000	0.311707
1431.000000	0.310123
1432.000000	0.308526
1433.000000	0.306940
1434.000000	0.305394
1435.000000	0.303929
1436.000000	0.302484
1437.000000	0.301088
1438.000000	0.299637
1439.000000	0.298204
1440.000000	0.296826
1441.000000	0.295442
1442.000000	0.294139
1443.000000	0.292847
1444.000000	0.291589
1445.000000	0.290386
1446.000000	0.289238
1447.000000	0.288113
1448.000000	0.287053
1449.000000	0.286052
1450.000000	0.285106
1451.000000	0.284240
1452.000000	0.283367
1453.000000	0.282563
1454.000000	0.281803
1455.000000	0.281076
1456.000000	0.280502
1457.000000	0.279945
1458.000000	0.279372
1459.000000	0.278868
1460.000000	0.278394
1461.000000	0.277934
1462.000000	0.277477
1463.000000	0.276956
1464.000000	0.276487
1465.000000	0.276108
1466.000000	0.275726
1467.000000	0.275417
1468.000000	0.275140
1469.000000	0.274888
1470.000000	0.274598
1471.000000	0.274394
1472.000000	0.274224
1473.000000	0.274045
1474.000000	0.273888
1475.000000	0.273794
1476.000000	0.273707
1477.000000	0.273676
1478.000000	0.273712
1479.000000	0.273725
1480.000000	0.273763
1481.000000	0.273823
1482.000000	0.273952
1483.000000	0.274091
1484.000000	0.274254
1485.000000	0.274441
1486.000000	0.274601
1487.000000	0.274848
1488.000000	0.275198
1489.000000	0.275536
1490.000000	0.275816
1491.000000	0.276149
1492.000000	0.276428
1493.000000	0.276795
1494.000000	0.277205
1495.000000	0.277594
1496.000000	0.278009
1497.000000	0.278426
1498.000000	0.278858
1499.000000	0.279267
1500.000000	0.279692
1501.000000	0.280126
1502.000000	0.280526
1503.000000	0.280969
1504.000000	0.281471
1505.000000	0.281931
1506.000000	0.282385
1507.000000	0.282864
1508.000000	0.283368
1509.000000	0.283879
1510.000000	0.284353
1511.000000	0.284822
1512.000000	0.285217
1513.000000	0.285596
1514.000000	0.286082
1515.000000	0.286520
1516.000000	0.286983
1517.000000	0.287436
1518.000000	0.287819
1519.000000	0.288164
1520.000000	0.288560
1521.000000	0.288923
1522.000000	0.289288
1523.000000	0.289720
1524.000000	0.290089
1525.000000	0.290472
1526.000000	0.290829
1527.000000	0.291128
1528.000000	0.291460
1529.000000	0.291768
1530.000000	0.291999
1531.000000	0.292306
1532.000000	0.292593
1533.000000	0.292827
1534.000000	0.293131
1535.000000	0.293408
1536.000000	0.293590
1537.000000	0.293824
1538.000000	0.294032
1539.000000	0.294169
1540.000000	0.294365
1541.000000	0.294621
1542.000000	0.294819
1543.000000	0.294995
1544.000000	0.295190
1545.000000	0.295375
1546.000000	0.295584
1547.000000	0.295812
1548.000000	0.295990
1549.000000	0.296094
1550.000000	0.296163
1551.000000	0.296262
1552.000000	0.296357
1553.000000	0.296433
1554.000000	0.296543
1555.000000	0.296652
1556.000000	0.296767
1557.000000	0.296890
1558.000000	0.297016
1559.000000	0.297092
1560.000000	0.297150
1561.000000	0.297247
1562.000000	0.297294
1563.000000	0.297341
1564.000000	0.297371
1565.000000	0.297371
1566.000000	0.297304
1567.000000	0.297299
1568.000000	0.297255
1569.000000	0.297216
1570.000000	0.297192
1571.000000	0.297149
1572.000000	0.297108
1573.000000	0.297101
1574.000000	0.297069
1575.000000	0.297033
1576.000000	0.297002
1577.000000	0.296964
1578.000000	0.296888
1579.000000	0.296839
1580.000000	0.296781
1581.000000	0.296764
1582.000000	0.296720
1583.000000	0.296673
1584.000000	0.296573
1585.000000	0.296506
1586.000000	0.296441
1587.000000	0.296354
1588.000000	0.296273
1589.000000	0.296229
1590.000000	0.296133
1591.000000	0.296014
1592.000000	0.295932
1593.000000	0.295880
1594.000000	0.295771
1595.000000	0.295714
1596.000000	0.295609
1597.000000	0.295463
1598.000000	0.295342
1599.000000	0.295235
1600.000000	0.295121
1601.000000	0.295088
1602.000000	0.295013
1603.000000	0.294965
1604.000000	0.294878
1605.000000	0.294769
1606.000000	0.294675
1607.000000	0.294619
1608.000000	0.294549
1609.000000	0.294528
1610.000000	0.294478
1611.000000	0.294428
1612.000000	0.294384
1613.000000	0.294436
1614.000000	0.294438
1615.000000	0.294477
1616.000000	0.294527
1617.000000	0.294513
1618.000000	0.294531
1619.000000	0.294538
1620.000000	0.294584
1621.000000	0.294685
1622.000000	0.294853
1623.000000	0.295044
1624.000000	0.295200
1625.000000	0.295271
1626.000000	0.295324
1627.000000	0.295326
1628.000000	0.295476
1629.000000	0.295712
1630.000000	0.295871
1631.000000	0.295997
1632.000000	0.296110
1633.000000	0.296139
1634.000000	0.296284
1635.000000	0.296565
1636.000000	0.296755
1637.000000	0.296964
1638.000000	0.297121
1639.000000	0.297257
1640.000000	0.297433
1641.000000	0.297670
1642.000000	0.297898
1643.000000	0.298202
1644.000000	0.298414
1645.000000	0.298579
1646.000000	0.298735
1647.000000	0.298858
1648.000000	0.299033
1649.000000	0.299325
1650.000000	0.299587
1651.000000	0.299898
1652.000000	0.300196
1653.000000	0.300441
1654.000000	0.300715
1655.000000	0.300952
1656.000000	0.301111
1657.000000	0.301297
1658.000000	0.301497
1659.000000	0.301768
1660.000000	0.302046
1661.000000	0.302276
1662.000000	0.302518
1663.000000	0.302730
1664.000000	0.302956
1665.000000	0.303190
1666.000000	0.303490
1667.000000	0.303743
1668.000000	0.303982
1669.000000	0.304224
1670.000000	0.304411
1671.000000	0.304639
1672.000000	0.304911
1673.000000	0.305167
1674.000000	0.305409
1675.000000	0.305734
1676.000000	0.305970
1677.000000	0.306172
1678.000000	0.306348
1679.000000	0.306489
1680.000000	0.306650
1681.000000	0.306824
1682.000000	0.307023
1683.000000	0.307253
1684.000000	0.307439
1685.000000	0.307664
1686.000000	0.307855
1687.000000	0.307980
1688.000000	0.308065
1689.000000	0.308170
1690.000000	0.308235
1691.000000	0.308392
1692.000000	0.308545
1693.000000	0.308692
1694.000000	0.308879
1695.000000	0.309125
1696.000000	0.309361
1697.000000	0.309525
1698.000000	0.309680
1699.000000	0.309895
1700.000000	0.310110
1701.000000	0.310410
1702.000000	0.310641
1703.000000	0.310820
1704.000000	0.311061
1705.000000	0.311285
1706.000000	0.311533
1707.000000	0.311758
1708.000000	0.311975
1709.000000	0.312081
1710.000000	0.312151
1711.000000	0.312322
1712.000000	0.312533
1713.000000	0.312709
1714.000000	0.312978
1715.000000	0.313228
1716.000000	0.313414
1717.000000	0.313658
1718.000000	0.313978
1719.000000	0.314194
1720.000000	0.314405
1721.000000	0.314627
1722.000000	0.314795
1723.000000	0.315019
1724.000000	0.315320
1725.000000	0.315608
1726.000000	0.315815
1727.000000	0.316060
1728.000000	0.316270
1729.000000	0.316430
1730.000000	0.316695
1731.000000	0.316953
1732.000000	0.317211
1733.000000	0.317516
1734.000000	0.317712
1735.000000	0.317995
1736.000000	0.318295
1737.000000	0.318544
1738.000000	0.318829
1739.000000	0.319112
1740.000000	0.319345
1741.000000	0.319550
1742.000000	0.319785
1743.000000	0.320062
1744.000000	0.320270
1745.000000	0.320503
1746.000000	0.320807
1747.000000	0.321000
1748.000000	0.321156
1749.000000	0.321310
1750.000000	0.321444
1751.000000	0.321686
1752.000000	0.321979
1753.000000	0.322141
1754.000000	0.322350
1755.000000	0.322556
1756.000000	0.322717
1757.000000	0.322846
1758.000000	0.323048
1759.000000	0.323235
1760.000000	0.323437
1761.000000	0.323679
1762.000000	0.323888
1763.000000	0.324086
1764.000000	0.324292
1765.000000	0.324443
1766.000000	0.324677
1767.000000	0.324891
1768.000000	0.325044
1769.000000	0.325309
1770.000000	0.325575
1771.000000	0.325760
1772.000000	0.325942
1773.000000	0.326077
1774.000000	0.326272
1775.000000	0.326535
1776.000000	0.326732
1777.000000	0.326916
1778.000000	0.327100
1779.000000	0.327179
1780.000000	0.327392
1781.000000	0.327679
1782.000000	0.327895
1783.000000	0.328143
1784.000000	0.328448
1785.000000	0.328657
1786.000000	0.329020
1787.000000	0.329523
1788.000000	0.329929
1789.000000	0.330296
1790.000000	0.330586
1791.000000	0.330858
1792.000000	0.331250
1793.000000	0.331578
1794.000000	0.331896
1795.000000	0.332213
1796.000000	0.332475
1797.000000	0.332720
1798.000000	0.332943
1799.000000	0.333154
1800.000000	0.333374
1801.000000	0.332944
1802.000000	0.333276
1803.000000	0.333251
1804.000000	0.333827
1805.000000	0.335113
1806.000000	0.335746
1807.000000	0.336485
1808.000000	0.336905
1809.000000	0.336793
1810.000000	0.336748
1811.000000	0.336811
1812.000000	0.336880
1813.000000	0.336955
1814.000000	0.337107
1815.000000	0.337209
1816.000000	0.337238
1817.000000	0.337213
1818.000000	0.337105
1819.000000	0.337445
1820.000000	0.337674
1821.000000	0.337764
1822.000000	0.337836
1823.000000	0.337755
1824.000000	0.337748
1825.000000	0.337501
1826.000000	0.337702
1827.000000	0.338294
1828.000000	0.338451
1829.000000	0.338436
1830.000000	0.338394
1831.000000	0.338239
1832.000000	0.337528
1833.000000	0.337323
1834.000000	0.337494
1835.000000	0.337372
1836.000000	0.337117
1837.000000	0.336954
1838.000000	0.336748
1839.000000	0.336284
1840.000000	0.335652
1841.000000	0.335284
1842.000000	0.335088
1843.000000	0.334845
1844.000000	0.334790
1845.000000	0.335140
1846.000000	0.335243
1847.000000	0.335139
1848.000000	0.334954
1849.000000	0.334816
1850.000000	0.334331
1851.000000	0.333963
1852.000000	0.333454
1853.000000	0.333025
1854.000000	0.332562
1855.000000	0.331779
1856.000000	0.330684
1857.000000	0.329658
1858.000000	0.328430
1859.000000	0.327431
1860.000000	0.326577
1861.000000	0.325564
1862.000000	0.324476
1863.000000	0.323470
1864.000000	0.322275
1865.000000	0.320930
1866.000000	0.319537
1867.000000	0.318061
1868.000000	0.316433
1869.000000	0.314427
1870.000000	0.312611
1871.000000	0.310899
1872.000000	0.308985
1873.000000	0.307214
1874.000000	0.305756
1875.000000	0.303974
1876.000000	0.301937
1877.000000	0.299416
1878.000000	0.296846
1879.000000	0.294049
1880.000000	0.291242
1881.000000	0.288557
1882.000000	0.285712
1883.000000	0.282749
1884.000000	0.279712
1885.000000	0.276130
1886.000000	0.272852
1887.000000	0.269635
1888.000000	0.266259
1889.000000	0.263009
1890.000000	0.259888
1891.000000	0.256496
1892.000000	0.252887
1893.000000	0.249218
1894.000000	0.245361
1895.000000	0.241390
1896.000000	0.237449
1897.000000	0.233487
1898.000000	0.229194
1899.000000	0.225418
1900.000000	0.221563
1901.000000	0.217318
1902.000000	0.213219
1903.000000	0.208808
1904.000000	0.204548
1905.000000	0.200679
1906.000000	0.196771
1907.000000	0.193023
1908.000000	0.189480
1909.000000	0.186004
1910.000000	0.182568
1911.000000	0.179273
1912.000000	0.175860
1913.000000	0.172428
1914.000000	0.169069
1915.000000	0.165796
1916.000000	0.162847
1917.000000	0.160016
1918.000000	0.157495
1919.000000	0.155038
1920.000000	0.152523
1921.000000	0.150072
1922.000000	0.147762
1923.000000	0.145517
1924.000000	0.143566
1925.000000	0.141925
1926.000000	0.140238
1927.000000	0.138792
1928.000000	0.137507
1929.000000	0.136414
1930.000000	0.135421
1931.000000	0.134638
1932.000000	0.133927
1933.000000	0.133222
1934.000000	0.132420
1935.000000	0.131747
1936.000000	0.131088
1937.000000	0.130417
1938.000000	0.129889
1939.000000	0.129355
1940.000000	0.128851
1941.000000	0.128346
1942.000000	0.127832
1943.000000	0.127225
1944.000000	0.126538
1945.000000	0.126037
1946.000000	0.125866
1947.000000	0.125585
1948.000000	0.125255
1949.000000	0.124979
1950.000000	0.124630
1951.000000	0.124292
1952.000000	0.124055
1953.000000	0.123798
1954.000000	0.123547
1955.000000	0.123229
1956.000000	0.122973
1957.000000	0.122879
1958.000000	0.122814
1959.000000	0.122847
1960.000000	0.122696
1961.000000	0.122489
1962.000000	0.122325
1963.000000	0.122159
1964.000000	0.121937
1965.000000	0.121914
1966.000000	0.122070
1967.000000	0.122173
1968.000000	0.122232
1969.000000	0.122209
1970.000000	0.122313
1971.000000	0.122384
1972.000000	0.122400
1973.000000	0.122513
1974.000000	0.122775
1975.000000	0.122913
1976.000000	0.123051
1977.000000	0.123338
1978.000000	0.123406
1979.000000	0.123443
1980.000000	0.123739
1981.000000	0.124100
1982.000000	0.124353
1983.000000	0.124866
1984.000000	0.125261
1985.000000	0.125578
1986.000000	0.125803
1987.000000	0.126101
1988.000000	0.126284
1989.000000	0.126264
1990.000000	0.126555
1991.000000	0.126939
1992.000000	0.127514
1993.000000	0.128408
1994.000000	0.129265
1995.000000	0.129991
1996.000000	0.130570
1997.000000	0.131092
1998.000000	0.131231
1999.000000	0.131753
2000.000000	0.132397
2001.000000	0.133253
2002.000000	0.133992
2003.000000	0.134772
2004.000000	0.135426
2005.000000	0.135642
2006.000000	0.136140
2007.000000	0.136890
2008.000000	0.137681
2009.000000	0.138677
2010.000000	0.139732
2011.000000	0.140831
2012.000000	0.141786
2013.000000	0.142789
2014.000000	0.143622
2015.000000	0.144288
2016.000000	0.145110
2017.000000	0.145859
2018.000000	0.146574
2019.000000	0.147363
2020.000000	0.148361
2021.000000	0.149303
2022.000000	0.150358
2023.000000	0.151269
2024.000000	0.152071
2025.000000	0.152901
2026.000000	0.153623
2027.000000	0.154363
2028.000000	0.155185
2029.000000	0.156306
2030.000000	0.157217
2031.000000	0.158089
2032.000000	0.158885
2033.000000	0.159578
2034.000000	0.160452
2035.000000	0.161578
2036.000000	0.162440
2037.000000	0.163418
2038.000000	0.164282
2039.000000	0.164953
2040.000000	0.165677
2041.000000	0.166793
2042.000000	0.167895
2043.000000	0.168972
2044.000000	0.169955
2045.000000	0.170500
2046.000000	0.170901
2047.000000	0.171546
2048.000000	0.172088
2049.000000	0.172965
2050.000000	0.174060
2051.000000	0.174917
2052.000000	0.175785
2053.000000	0.176460
2054.000000	0.177068
2055.000000	0.177633
2056.000000	0.178358
2057.000000	0.179165
2058.000000	0.179943
2059.000000	0.180864
2060.000000	0.181676
2061.000000	0.182420
2062.000000	0.183085
2063.000000	0.183771
2064.000000	0.184311
2065.000000	0.184791
2066.000000	0.185338
2067.000000	0.186053
2068.000000	0.186717
2069.000000	0.187581
2070.000000	0.188675
2071.000000	0.189518
2072.000000	0.190561
2073.000000	0.191528
2074.000000	0.192240
2075.000000	0.193047
2076.000000	0.193785
2077.000000	0.194717
2078.000000	0.195780
2079.000000	0.196749
2080.000000	0.197887
2081.000000	0.198893
2082.000000	0.199834
2083.000000	0.200613
2084.000000	0.201323
2085.000000	0.202427
2086.000000	0.203551
2087.000000	0.204498
2088.000000	0.205559
2089.000000	0.206788
2090.000000	0.207937
2091.000000	0.209146
2092.000000	0.210197
2093.000000	0.211310
2094.000000	0.212184
2095.000000	0.212743
2096.000000	0.213613
2097.000000	0.214544
2098.000000	0.215221
2099.000000	0.216261
2100.000000	0.217190
2101.000000	0.217843
2102.000000	0.218651
2103.000000	0.219502
2104.000000	0.220305
2105.000000	0.221225
2106.000000	0.222382
2107.000000	0.223386
2108.000000	0.224299
2109.000000	0.225281
2110.000000	0.226128
2111.000000	0.226971
2112.000000	0.227806
2113.000000	0.228451
2114.000000	0.229174
2115.000000	0.230062
2116.000000	0.230554
2117.000000	0.231073
2118.000000	0.231744
2119.000000	0.232136
2120.000000	0.232840
2121.000000	0.233905
2122.000000	0.234757
2123.000000	0.235619
2124.000000	0.236400
2125.000000	0.237191
2126.000000	0.237776
2127.000000	0.238086
2128.000000	0.238686
2129.000000	0.239223
2130.000000	0.239862
2131.000000	0.240315
2132.000000	0.241032
2133.000000	0.241861
2134.000000	0.242500
2135.000000	0.243195
2136.000000	0.243661
2137.000000	0.244039
2138.000000	0.244087
2139.000000	0.244238
2140.000000	0.244297
2141.000000	0.244616
2142.000000	0.244886
2143.000000	0.245103
2144.000000	0.245812
2145.000000	0.246288
2146.000000	0.246661
2147.000000	0.247327
2148.000000	0.247392
2149.000000	0.247620
2150.000000	0.247880
2151.000000	0.248114
2152.000000	0.248682
2153.000000	0.249062
2154.000000	0.249288
2155.000000	0.249193
2156.000000	0.249420
2157.000000	0.249682
2158.000000	0.250068
2159.000000	0.250804
2160.000000	0.251346
2161.000000	0.251859
2162.000000	0.252334
2163.000000	0.252713
2164.000000	0.252939
2165.000000	0.252978
2166.000000	0.253162
2167.000000	0.253174
2168.000000	0.252895
2169.000000	0.252887
2170.000000	0.252873
2171.000000	0.253040
2172.000000	0.253445
2173.000000	0.253759
2174.000000	0.254289
2175.000000	0.254448
2176.000000	0.254343
2177.000000	0.254503
2178.000000	0.254671
2179.000000	0.254867
2180.000000	0.255091
2181.000000	0.255623
2182.000000	0.255908
2183.000000	0.255858
2184.000000	0.256399
2185.000000	0.256617
2186.000000	0.256358
2187.000000	0.256412
2188.000000	0.256113
2189.000000	0.256073
2190.000000	0.256187
2191.000000	0.256670
2192.000000	0.256971
2193.000000	0.257372
2194.000000	0.257510
2195.000000	0.257553
2196.000000	0.257695
2197.000000	0.257670
2198.000000	0.257860
2199.000000	0.258448
2200.000000	0.258669
2201.000000	0.258720
2202.000000	0.258923
2203.000000	0.258903
2204.000000	0.258707
2205.000000	0.258336
2206.000000	0.258079
2207.000000	0.258064
2208.000000	0.257758
2209.000000	0.258144
2210.000000	0.259191
2211.000000	0.259399
2212.000000	0.260380
2213.000000	0.260943
2214.000000	0.261022
2215.000000	0.261399
2216.000000	0.261974
2217.000000	0.262499
2218.000000	0.263023
2219.000000	0.263877
2220.000000	0.265246
2221.000000	0.265756
2222.000000	0.266061
2223.000000	0.266134
2224.000000	0.265422
2225.000000	0.265252
2226.000000	0.264619
2227.000000	0.264118
2228.000000	0.264110
2229.000000	0.263667
2230.000000	0.264058
2231.000000	0.264589
2232.000000	0.265298
2233.000000	0.265856
2234.000000	0.265235
2235.000000	0.265520
2236.000000	0.265400
2237.000000	0.264292
2238.000000	0.264273
2239.000000	0.265181
2240.000000	0.265375
2241.000000	0.265540
2242.000000	0.265964
2243.000000	0.266205
2244.000000	0.266508
2245.000000	0.267389
2246.000000	0.267741
2247.000000	0.267571
2248.000000	0.267340
2249.000000	0.267064
2250.000000	0.266430
2251.000000	0.265610
2252.000000	0.265205
2253.000000	0.264976
2254.000000	0.265047
2255.000000	0.265251
2256.000000	0.265928
2257.000000	0.266102
2258.000000	0.265905
2259.000000	0.265889
2260.000000	0.265497
2261.000000	0.265055
2262.000000	0.264718
2263.000000	0.264042
2264.000000	0.262841
2265.000000	0.262285
2266.000000	0.262002
2267.000000	0.261559
2268.000000	0.261316
2269.000000	0.261003
2270.000000	0.260420
2271.000000	0.259981
2272.000000	0.260057
2273.000000	0.259453
2274.000000	0.258170
2275.000000	0.257466
2276.000000	0.256673
2277.000000	0.255873
2278.000000	0.255671
2279.000000	0.255776
2280.000000	0.255004
2281.000000	0.254385
2282.000000	0.254119
2283.000000	0.253294
2284.000000	0.253305
2285.000000	0.253359
2286.000000	0.252879
2287.000000	0.251845
2288.000000	0.250663
2289.000000	0.249589
2290.000000	0.248218
2291.000000	0.248087
2292.000000	0.247803
2293.000000	0.246785
2294.000000	0.245554
2295.000000	0.243718
2296.000000	0.242020
2297.000000	0.239819
2298.000000	0.238380
2299.000000	0.237496
2300.000000	0.236654
2301.000000	0.235976
2302.000000	0.235371
2303.000000	0.234886
2304.000000	0.234297
2305.000000	0.233970
2306.000000	0.233453
2307.000000	0.232763
2308.000000	0.232028
2309.000000	0.231345
2310.000000	0.230462
2311.000000	0.229830
2312.000000	0.229230
2313.000000	0.227856
2314.000000	0.226655
2315.000000	0.225479
2316.000000	0.224303
2317.000000	0.223505
2318.000000	0.222993
2319.000000	0.222323
2320.000000	0.220702
2321.000000	0.219563
2322.000000	0.218496
2323.000000	0.217185
2324.000000	0.216265
2325.000000	0.214673
2326.000000	0.213450
2327.000000	0.212639
2328.000000	0.211335
2329.000000	0.210775
2330.000000	0.209254
2331.000000	0.205893
2332.000000	0.203375
2333.000000	0.201220
2334.000000	0.199079
2335.000000	0.198414
2336.000000	0.199761
2337.000000	0.199540
2338.000000	0.199629
2339.000000	0.198860
2340.000000	0.197138
2341.000000	0.195491
2342.000000	0.193040
2343.000000	0.191488
2344.000000	0.190017
2345.000000	0.188446
2346.000000	0.187727
2347.000000	0.186464
2348.000000	0.184512
2349.000000	0.183565
2350.000000	0.182976
2351.000000	0.181925
2352.000000	0.181397
2353.000000	0.181171
2354.000000	0.179480
2355.000000	0.179455
2356.000000	0.179168
2357.000000	0.176787
2358.000000	0.175576
2359.000000	0.173235
2360.000000	0.170991
2361.000000	0.171377
2362.000000	0.171044
2363.000000	0.170547
2364.000000	0.169512
2365.000000	0.167276
2366.000000	0.165391
2367.000000	0.162201
2368.000000	0.160001
2369.000000	0.158463
2370.000000	0.156306
2371.000000	0.156665
2372.000000	0.156342
2373.000000	0.155419
2374.000000	0.154898
2375.000000	0.154586
2376.000000	0.155399
2377.000000	0.153952
2378.000000	0.153070
2379.000000	0.151869
2380.000000	0.148203
2381.000000	0.147206
2382.000000	0.146298
2383.000000	0.145035
2384.000000	0.144818
2385.000000	0.143744
2386.000000	0.144129
2387.000000	0.143295
2388.000000	0.140589
2389.000000	0.139856
2390.000000	0.137247
2391.000000	0.133705
2392.000000	0.132803
2393.000000	0.131128
2394.000000	0.128197
2395.000000	0.127289
2396.000000	0.127645
2397.000000	0.128552
2398.000000	0.131555
2399.000000	0.132335
2400.000000	0.131279
2401.000000	0.130327
2402.000000	0.129161
2403.000000	0.131294
2404.000000	0.132630
2405.000000	0.132179
2406.000000	0.133390
2407.000000	0.131958
2408.000000	0.130030
2409.000000	0.130804
2410.000000	0.130946
2411.000000	0.130882
2412.000000	0.131641
2413.000000	0.129989
2414.000000	0.127619
2415.000000	0.127049
2416.000000	0.126439
2417.000000	0.128588
2418.000000	0.128914
2419.000000	0.126817
2420.000000	0.126444
2421.000000	0.122340
2422.000000	0.118177
2423.000000	0.116609
2424.000000	0.115359
2425.000000	0.115935
2426.000000	0.119515
2427.000000	0.123238
2428.000000	0.122616
2429.000000	0.120844
2430.000000	0.118256
2431.000000	0.117708
2432.000000	0.121392
2433.000000	0.121986
2434.000000	0.122119
2435.000000	0.122323
2436.000000	0.119083
2437.000000	0.116649
2438.000000	0.116983
2439.000000	0.115150
2440.000000	0.112248
2441.000000	0.115297
2442.000000	0.117065
2443.000000	0.118162
2444.000000	0.119340
2445.000000	0.114979
2446.000000	0.116078
2447.000000	0.114892
2448.000000	0.112384
2449.000000	0.115772
2450.000000	0.112737
2451.000000	0.113631
2452.000000	0.114000
2453.000000	0.112628
2454.000000	0.115704
2455.000000	0.111241
2456.000000	0.111812
2457.000000	0.112887
2458.000000	0.106569
2459.000000	0.105110
2460.000000	0.104513
2461.000000	0.101087
2462.000000	0.102036
2463.000000	0.104162
2464.000000	0.097853
2465.000000	0.094695
2466.000000	0.096159
2467.000000	0.093332
2468.000000	0.094108
2469.000000	0.099437
2470.000000	0.106495
2471.000000	0.114742
2472.000000	0.125790
2473.000000	0.131758
2474.000000	0.124537
2475.000000	0.116909
2476.000000	0.113681
2477.000000	0.113876
2478.000000	0.118895
2479.000000	0.119638
2480.000000	0.115582
2481.000000	0.111492
2482.000000	0.102383
2483.000000	0.100420
2484.000000	0.100780
2485.000000	0.095414
2486.000000	0.099323
2487.000000	0.107875
2488.000000	0.118740
2489.000000	0.132175
2490.000000	0.126967
2491.000000	0.113157
2492.000000	0.105007
2493.000000	0.099485
2494.000000	0.093614
2495.000000	0.080809
2496.000000	0.074603
2497.000000	0.069403
2498.000000	0.073369
2499.000000	0.107091
2500.000000	0.111316
