# Wavelength	hexa10_00002.asd.rts.txt
350.000000	0.192719
351.000000	0.197847
352.000000	0.200962
353.000000	0.201007
354.000000	0.201194
355.000000	0.204349
356.000000	0.203767
357.000000	0.201877
358.000000	0.203881
359.000000	0.204811
360.000000	0.204330
361.000000	0.203223
362.000000	0.204284
363.000000	0.207029
364.000000	0.209428
365.000000	0.208265
366.000000	0.206236
367.000000	0.205439
368.000000	0.208399
369.000000	0.209974
370.000000	0.210184
371.000000	0.210503
372.000000	0.209979
373.000000	0.211333
374.000000	0.215369
375.000000	0.215641
376.000000	0.213742
377.000000	0.211899
378.000000	0.213515
379.000000	0.214417
380.000000	0.214688
381.000000	0.216252
382.000000	0.217163
383.000000	0.217161
384.000000	0.216784
385.000000	0.216978
386.000000	0.219009
387.000000	0.221538
388.000000	0.219698
389.000000	0.219292
390.000000	0.220165
391.000000	0.220074
392.000000	0.221195
393.000000	0.222114
394.000000	0.221912
395.000000	0.222811
396.000000	0.223362
397.000000	0.223393
398.000000	0.224723
399.000000	0.225335
400.000000	0.225359
401.000000	0.225633
402.000000	0.225869
403.000000	0.225982
404.000000	0.226101
405.000000	0.226372
406.000000	0.226944
407.000000	0.227825
408.000000	0.228814
409.000000	0.228944
410.000000	0.228647
411.000000	0.229146
412.000000	0.229333
413.000000	0.229588
414.000000	0.230379
415.000000	0.230639
416.000000	0.230754
417.000000	0.231041
418.000000	0.231431
419.000000	0.231847
420.000000	0.232298
421.000000	0.232860
422.000000	0.233147
423.000000	0.233264
424.000000	0.233547
425.000000	0.234027
426.000000	0.234404
427.000000	0.234531
428.000000	0.234948
429.000000	0.235284
430.000000	0.235447
431.000000	0.235678
432.000000	0.235819
433.000000	0.235940
434.000000	0.236297
435.000000	0.236698
436.000000	0.236982
437.000000	0.237066
438.000000	0.237271
439.000000	0.237489
440.000000	0.237673
441.000000	0.237548
442.000000	0.237608
443.000000	0.237856
444.000000	0.238116
445.000000	0.238294
446.000000	0.238565
447.000000	0.238945
448.000000	0.239148
449.000000	0.239348
450.000000	0.239677
451.000000	0.239971
452.000000	0.240228
453.000000	0.240428
454.000000	0.240771
455.000000	0.240943
456.000000	0.241109
457.000000	0.241424
458.000000	0.241607
459.000000	0.241847
460.000000	0.242322
461.000000	0.242580
462.000000	0.242863
463.000000	0.243147
464.000000	0.243402
465.000000	0.243658
466.000000	0.243904
467.000000	0.244238
468.000000	0.244399
469.000000	0.244430
470.000000	0.244609
471.000000	0.244831
472.000000	0.244968
473.000000	0.245039
474.000000	0.245371
475.000000	0.245603
476.000000	0.245764
477.000000	0.245962
478.000000	0.246091
479.000000	0.246369
480.000000	0.246761
481.000000	0.246912
482.000000	0.247121
483.000000	0.247455
484.000000	0.247762
485.000000	0.247976
486.000000	0.248202
487.000000	0.248212
488.000000	0.248449
489.000000	0.248879
490.000000	0.249129
491.000000	0.249346
492.000000	0.249642
493.000000	0.249957
494.000000	0.250158
495.000000	0.250359
496.000000	0.250611
497.000000	0.250907
498.000000	0.251243
499.000000	0.251619
500.000000	0.251823
501.000000	0.252074
502.000000	0.252415
503.000000	0.252725
504.000000	0.252942
505.000000	0.253144
506.000000	0.253414
507.000000	0.253669
508.000000	0.253961
509.000000	0.254265
510.000000	0.254531
511.000000	0.254808
512.000000	0.255111
513.000000	0.255359
514.000000	0.255662
515.000000	0.256044
516.000000	0.256425
517.000000	0.256711
518.000000	0.257014
519.000000	0.257336
520.000000	0.257617
521.000000	0.257893
522.000000	0.258178
523.000000	0.258415
524.000000	0.258734
525.000000	0.259095
526.000000	0.259413
527.000000	0.259730
528.000000	0.260021
529.000000	0.260298
530.000000	0.260493
531.000000	0.260762
532.000000	0.261082
533.000000	0.261295
534.000000	0.261514
535.000000	0.261762
536.000000	0.262018
537.000000	0.262260
538.000000	0.262517
539.000000	0.262822
540.000000	0.263138
541.000000	0.263424
542.000000	0.263695
543.000000	0.264024
544.000000	0.264342
545.000000	0.264571
546.000000	0.264861
547.000000	0.265175
548.000000	0.265510
549.000000	0.265783
550.000000	0.266078
551.000000	0.266418
552.000000	0.266750
553.000000	0.267040
554.000000	0.267319
555.000000	0.267621
556.000000	0.267956
557.000000	0.268242
558.000000	0.268572
559.000000	0.268915
560.000000	0.269216
561.000000	0.269540
562.000000	0.269858
563.000000	0.270141
564.000000	0.270457
565.000000	0.270772
566.000000	0.271134
567.000000	0.271487
568.000000	0.271794
569.000000	0.272150
570.000000	0.272497
571.000000	0.272811
572.000000	0.273119
573.000000	0.273425
574.000000	0.273705
575.000000	0.273992
576.000000	0.274354
577.000000	0.274688
578.000000	0.274984
579.000000	0.275344
580.000000	0.275687
581.000000	0.275984
582.000000	0.276299
583.000000	0.276584
584.000000	0.276866
585.000000	0.277214
586.000000	0.277553
587.000000	0.277873
588.000000	0.278185
589.000000	0.278517
590.000000	0.278819
591.000000	0.279081
592.000000	0.279414
593.000000	0.279689
594.000000	0.279897
595.000000	0.280154
596.000000	0.280359
597.000000	0.280532
598.000000	0.280652
599.000000	0.280799
600.000000	0.281020
601.000000	0.281257
602.000000	0.281500
603.000000	0.281698
604.000000	0.281858
605.000000	0.282047
606.000000	0.282196
607.000000	0.282323
608.000000	0.282493
609.000000	0.282687
610.000000	0.282926
611.000000	0.283223
612.000000	0.283468
613.000000	0.283677
614.000000	0.283899
615.000000	0.284101
616.000000	0.284222
617.000000	0.284275
618.000000	0.284463
619.000000	0.284613
620.000000	0.284679
621.000000	0.284733
622.000000	0.284822
623.000000	0.284957
624.000000	0.285127
625.000000	0.285298
626.000000	0.285497
627.000000	0.285741
628.000000	0.286036
629.000000	0.286338
630.000000	0.286555
631.000000	0.286841
632.000000	0.287058
633.000000	0.287267
634.000000	0.287525
635.000000	0.287730
636.000000	0.287903
637.000000	0.288046
638.000000	0.288180
639.000000	0.288278
640.000000	0.288404
641.000000	0.288537
642.000000	0.288642
643.000000	0.288750
644.000000	0.288915
645.000000	0.289105
646.000000	0.289316
647.000000	0.289508
648.000000	0.289640
649.000000	0.289806
650.000000	0.290007
651.000000	0.290189
652.000000	0.290328
653.000000	0.290481
654.000000	0.290658
655.000000	0.290825
656.000000	0.290997
657.000000	0.291140
658.000000	0.291290
659.000000	0.291471
660.000000	0.291667
661.000000	0.291840
662.000000	0.291990
663.000000	0.292164
664.000000	0.292337
665.000000	0.292506
666.000000	0.292700
667.000000	0.292911
668.000000	0.293104
669.000000	0.293270
670.000000	0.293420
671.000000	0.293567
672.000000	0.293756
673.000000	0.293954
674.000000	0.294088
675.000000	0.294251
676.000000	0.294431
677.000000	0.294598
678.000000	0.294720
679.000000	0.294867
680.000000	0.295077
681.000000	0.295232
682.000000	0.295415
683.000000	0.295574
684.000000	0.295753
685.000000	0.295906
686.000000	0.296060
687.000000	0.296210
688.000000	0.296353
689.000000	0.296507
690.000000	0.296706
691.000000	0.296865
692.000000	0.296999
693.000000	0.297184
694.000000	0.297386
695.000000	0.297598
696.000000	0.297781
697.000000	0.297896
698.000000	0.298066
699.000000	0.298288
700.000000	0.298533
701.000000	0.298712
702.000000	0.298930
703.000000	0.299185
704.000000	0.299384
705.000000	0.299573
706.000000	0.299734
707.000000	0.299918
708.000000	0.300058
709.000000	0.300146
710.000000	0.300221
711.000000	0.300338
712.000000	0.300456
713.000000	0.300583
714.000000	0.300747
715.000000	0.300875
716.000000	0.301010
717.000000	0.301220
718.000000	0.301433
719.000000	0.301611
720.000000	0.301756
721.000000	0.301917
722.000000	0.302085
723.000000	0.302287
724.000000	0.302400
725.000000	0.302512
726.000000	0.302694
727.000000	0.302843
728.000000	0.302961
729.000000	0.303083
730.000000	0.303186
731.000000	0.303283
732.000000	0.303355
733.000000	0.303438
734.000000	0.303519
735.000000	0.303603
736.000000	0.303774
737.000000	0.303891
738.000000	0.303939
739.000000	0.304024
740.000000	0.304071
741.000000	0.304217
742.000000	0.304343
743.000000	0.304399
744.000000	0.304489
745.000000	0.304569
746.000000	0.304696
747.000000	0.304843
748.000000	0.304970
749.000000	0.305125
750.000000	0.305287
751.000000	0.305379
752.000000	0.305431
753.000000	0.305467
754.000000	0.305483
755.000000	0.305529
756.000000	0.305615
757.000000	0.305691
758.000000	0.305810
759.000000	0.305939
760.000000	0.306003
761.000000	0.306145
762.000000	0.306265
763.000000	0.306326
764.000000	0.306403
765.000000	0.306410
766.000000	0.306411
767.000000	0.306466
768.000000	0.306521
769.000000	0.306587
770.000000	0.306679
771.000000	0.306796
772.000000	0.306943
773.000000	0.307021
774.000000	0.307031
775.000000	0.306986
776.000000	0.306947
777.000000	0.306965
778.000000	0.307140
779.000000	0.307248
780.000000	0.307267
781.000000	0.307333
782.000000	0.307431
783.000000	0.307593
784.000000	0.307670
785.000000	0.307693
786.000000	0.307708
787.000000	0.307731
788.000000	0.307745
789.000000	0.307723
790.000000	0.307688
791.000000	0.307734
792.000000	0.307756
793.000000	0.307776
794.000000	0.307825
795.000000	0.307885
796.000000	0.307891
797.000000	0.307866
798.000000	0.307935
799.000000	0.308004
800.000000	0.308063
801.000000	0.308123
802.000000	0.308158
803.000000	0.308181
804.000000	0.308219
805.000000	0.308177
806.000000	0.308095
807.000000	0.308054
808.000000	0.308010
809.000000	0.308027
810.000000	0.308074
811.000000	0.308126
812.000000	0.308288
813.000000	0.308464
814.000000	0.308586
815.000000	0.308634
816.000000	0.308592
817.000000	0.308505
818.000000	0.308357
819.000000	0.308310
820.000000	0.308322
821.000000	0.308298
822.000000	0.308232
823.000000	0.308271
824.000000	0.308314
825.000000	0.308312
826.000000	0.308341
827.000000	0.308341
828.000000	0.308328
829.000000	0.308341
830.000000	0.308290
831.000000	0.308239
832.000000	0.308159
833.000000	0.308097
834.000000	0.308076
835.000000	0.308115
836.000000	0.308110
837.000000	0.308076
838.000000	0.308026
839.000000	0.307930
840.000000	0.307819
841.000000	0.307722
842.000000	0.307627
843.000000	0.307587
844.000000	0.307652
845.000000	0.307753
846.000000	0.307769
847.000000	0.307765
848.000000	0.307713
849.000000	0.307611
850.000000	0.307477
851.000000	0.307366
852.000000	0.307338
853.000000	0.307342
854.000000	0.307231
855.000000	0.307124
856.000000	0.307017
857.000000	0.306893
858.000000	0.306809
859.000000	0.306709
860.000000	0.306591
861.000000	0.306476
862.000000	0.306395
863.000000	0.306303
864.000000	0.306247
865.000000	0.306196
866.000000	0.306139
867.000000	0.306020
868.000000	0.305994
869.000000	0.305980
870.000000	0.305923
871.000000	0.305788
872.000000	0.305593
873.000000	0.305320
874.000000	0.305086
875.000000	0.304872
876.000000	0.304708
877.000000	0.304558
878.000000	0.304387
879.000000	0.304322
880.000000	0.304237
881.000000	0.303978
882.000000	0.303779
883.000000	0.303658
884.000000	0.303491
885.000000	0.303449
886.000000	0.303316
887.000000	0.303026
888.000000	0.302756
889.000000	0.302534
890.000000	0.302205
891.000000	0.301825
892.000000	0.301706
893.000000	0.301652
894.000000	0.301616
895.000000	0.301468
896.000000	0.301277
897.000000	0.301089
898.000000	0.300928
899.000000	0.300694
900.000000	0.300511
901.000000	0.300371
902.000000	0.300196
903.000000	0.300002
904.000000	0.299837
905.000000	0.299654
906.000000	0.299580
907.000000	0.299476
908.000000	0.299335
909.000000	0.299125
910.000000	0.298877
911.000000	0.298580
912.000000	0.298272
913.000000	0.298144
914.000000	0.297950
915.000000	0.297702
916.000000	0.297445
917.000000	0.297175
918.000000	0.296987
919.000000	0.296893
920.000000	0.296737
921.000000	0.296528
922.000000	0.296297
923.000000	0.296055
924.000000	0.295724
925.000000	0.295430
926.000000	0.295231
927.000000	0.294910
928.000000	0.294617
929.000000	0.294374
930.000000	0.294152
931.000000	0.293856
932.000000	0.293567
933.000000	0.293326
934.000000	0.293027
935.000000	0.292777
936.000000	0.292597
937.000000	0.292361
938.000000	0.292019
939.000000	0.291784
940.000000	0.291557
941.000000	0.291223
942.000000	0.290915
943.000000	0.290672
944.000000	0.290411
945.000000	0.290293
946.000000	0.290005
947.000000	0.289681
948.000000	0.289466
949.000000	0.289145
950.000000	0.288826
951.000000	0.288534
952.000000	0.288320
953.000000	0.288076
954.000000	0.287804
955.000000	0.287455
956.000000	0.287052
957.000000	0.286805
958.000000	0.286608
959.000000	0.286369
960.000000	0.286218
961.000000	0.286028
962.000000	0.285776
963.000000	0.285625
964.000000	0.285344
965.000000	0.285116
966.000000	0.284994
967.000000	0.284920
968.000000	0.284745
969.000000	0.284434
970.000000	0.284145
971.000000	0.283872
972.000000	0.283652
973.000000	0.283418
974.000000	0.283172
975.000000	0.282957
976.000000	0.282815
977.000000	0.282720
978.000000	0.282476
979.000000	0.282378
980.000000	0.282118
981.000000	0.281699
982.000000	0.281552
983.000000	0.281300
984.000000	0.280966
985.000000	0.280869
986.000000	0.280573
987.000000	0.280297
988.000000	0.280111
989.000000	0.279875
990.000000	0.279597
991.000000	0.279366
992.000000	0.279305
993.000000	0.279278
994.000000	0.279119
995.000000	0.278940
996.000000	0.278705
997.000000	0.278760
998.000000	0.278728
999.000000	0.278475
1000.000000	0.278118
1001.000000	0.278683
1002.000000	0.278504
1003.000000	0.278134
1004.000000	0.277837
1005.000000	0.277554
1006.000000	0.277178
1007.000000	0.276718
1008.000000	0.276534
1009.000000	0.276414
1010.000000	0.276182
1011.000000	0.276341
1012.000000	0.276509
1013.000000	0.276331
1014.000000	0.276108
1015.000000	0.275894
1016.000000	0.275869
1017.000000	0.275842
1018.000000	0.275959
1019.000000	0.275987
1020.000000	0.276156
1021.000000	0.275807
1022.000000	0.275263
1023.000000	0.275236
1024.000000	0.275089
1025.000000	0.275158
1026.000000	0.275510
1027.000000	0.275469
1028.000000	0.275315
1029.000000	0.275271
1030.000000	0.275118
1031.000000	0.274883
1032.000000	0.274797
1033.000000	0.274748
1034.000000	0.274742
1035.000000	0.274910
1036.000000	0.275043
1037.000000	0.275160
1038.000000	0.275185
1039.000000	0.275302
1040.000000	0.275397
1041.000000	0.275421
1042.000000	0.275438
1043.000000	0.275489
1044.000000	0.275606
1045.000000	0.275699
1046.000000	0.275680
1047.000000	0.275823
1048.000000	0.276031
1049.000000	0.276118
1050.000000	0.276263
1051.000000	0.276386
1052.000000	0.276300
1053.000000	0.276315
1054.000000	0.276623
1055.000000	0.276818
1056.000000	0.276945
1057.000000	0.277238
1058.000000	0.277480
1059.000000	0.277447
1060.000000	0.277607
1061.000000	0.277891
1062.000000	0.277984
1063.000000	0.278068
1064.000000	0.278250
1065.000000	0.278372
1066.000000	0.278530
1067.000000	0.278872
1068.000000	0.278976
1069.000000	0.278696
1070.000000	0.278826
1071.000000	0.279183
1072.000000	0.279385
1073.000000	0.279742
1074.000000	0.280244
1075.000000	0.280307
1076.000000	0.280393
1077.000000	0.280529
1078.000000	0.280685
1079.000000	0.280872
1080.000000	0.281085
1081.000000	0.281346
1082.000000	0.281783
1083.000000	0.282089
1084.000000	0.282479
1085.000000	0.282745
1086.000000	0.282857
1087.000000	0.283021
1088.000000	0.282969
1089.000000	0.283086
1090.000000	0.283260
1091.000000	0.283453
1092.000000	0.283699
1093.000000	0.284158
1094.000000	0.284354
1095.000000	0.284315
1096.000000	0.284589
1097.000000	0.284949
1098.000000	0.285208
1099.000000	0.285621
1100.000000	0.285872
1101.000000	0.285767
1102.000000	0.285931
1103.000000	0.286200
1104.000000	0.286469
1105.000000	0.286910
1106.000000	0.287174
1107.000000	0.287278
1108.000000	0.287402
1109.000000	0.287541
1110.000000	0.287577
1111.000000	0.287702
1112.000000	0.287854
1113.000000	0.288082
1114.000000	0.288380
1115.000000	0.288604
1116.000000	0.288899
1117.000000	0.289095
1118.000000	0.289156
1119.000000	0.289263
1120.000000	0.289378
1121.000000	0.289486
1122.000000	0.289726
1123.000000	0.289994
1124.000000	0.289967
1125.000000	0.290117
1126.000000	0.290288
1127.000000	0.290382
1128.000000	0.290474
1129.000000	0.290669
1130.000000	0.290806
1131.000000	0.290895
1132.000000	0.290937
1133.000000	0.291024
1134.000000	0.291115
1135.000000	0.291058
1136.000000	0.291111
1137.000000	0.291273
1138.000000	0.291333
1139.000000	0.291428
1140.000000	0.291588
1141.000000	0.291696
1142.000000	0.291829
1143.000000	0.291941
1144.000000	0.292162
1145.000000	0.292278
1146.000000	0.292334
1147.000000	0.292439
1148.000000	0.292462
1149.000000	0.292581
1150.000000	0.292778
1151.000000	0.292924
1152.000000	0.293060
1153.000000	0.293166
1154.000000	0.293180
1155.000000	0.293221
1156.000000	0.293277
1157.000000	0.293323
1158.000000	0.293322
1159.000000	0.293325
1160.000000	0.293281
1161.000000	0.293275
1162.000000	0.293322
1163.000000	0.293510
1164.000000	0.293553
1165.000000	0.293579
1166.000000	0.293659
1167.000000	0.293684
1168.000000	0.293681
1169.000000	0.293750
1170.000000	0.293784
1171.000000	0.293765
1172.000000	0.293825
1173.000000	0.293932
1174.000000	0.293961
1175.000000	0.293937
1176.000000	0.293909
1177.000000	0.293898
1178.000000	0.293909
1179.000000	0.293999
1180.000000	0.293933
1181.000000	0.293846
1182.000000	0.293768
1183.000000	0.293728
1184.000000	0.293701
1185.000000	0.293710
1186.000000	0.293818
1187.000000	0.293840
1188.000000	0.293838
1189.000000	0.293797
1190.000000	0.293760
1191.000000	0.293746
1192.000000	0.293787
1193.000000	0.293912
1194.000000	0.294020
1195.000000	0.294073
1196.000000	0.294061
1197.000000	0.294062
1198.000000	0.294020
1199.000000	0.294035
1200.000000	0.294110
1201.000000	0.294135
1202.000000	0.294100
1203.000000	0.294120
1204.000000	0.294056
1205.000000	0.293998
1206.000000	0.293981
1207.000000	0.294118
1208.000000	0.294089
1209.000000	0.294076
1210.000000	0.294059
1211.000000	0.293978
1212.000000	0.293906
1213.000000	0.293856
1214.000000	0.293872
1215.000000	0.293881
1216.000000	0.293880
1217.000000	0.293963
1218.000000	0.293954
1219.000000	0.293878
1220.000000	0.293838
1221.000000	0.293862
1222.000000	0.293784
1223.000000	0.293781
1224.000000	0.293852
1225.000000	0.293826
1226.000000	0.293847
1227.000000	0.293828
1228.000000	0.293816
1229.000000	0.293785
1230.000000	0.293731
1231.000000	0.293654
1232.000000	0.293651
1233.000000	0.293725
1234.000000	0.293856
1235.000000	0.293865
1236.000000	0.293759
1237.000000	0.293754
1238.000000	0.293638
1239.000000	0.293582
1240.000000	0.293613
1241.000000	0.293648
1242.000000	0.293637
1243.000000	0.293626
1244.000000	0.293651
1245.000000	0.293729
1246.000000	0.293722
1247.000000	0.293751
1248.000000	0.293770
1249.000000	0.293714
1250.000000	0.293724
1251.000000	0.293751
1252.000000	0.293705
1253.000000	0.293682
1254.000000	0.293602
1255.000000	0.293398
1256.000000	0.293318
1257.000000	0.293297
1258.000000	0.293306
1259.000000	0.293305
1260.000000	0.293354
1261.000000	0.293396
1262.000000	0.293418
1263.000000	0.293480
1264.000000	0.293531
1265.000000	0.293545
1266.000000	0.293518
1267.000000	0.293505
1268.000000	0.293492
1269.000000	0.293430
1270.000000	0.293441
1271.000000	0.293424
1272.000000	0.293401
1273.000000	0.293398
1274.000000	0.293345
1275.000000	0.293294
1276.000000	0.293241
1277.000000	0.293263
1278.000000	0.293265
1279.000000	0.293207
1280.000000	0.293067
1281.000000	0.292953
1282.000000	0.292845
1283.000000	0.292822
1284.000000	0.292803
1285.000000	0.292799
1286.000000	0.292826
1287.000000	0.292743
1288.000000	0.292741
1289.000000	0.292720
1290.000000	0.292619
1291.000000	0.292591
1292.000000	0.292634
1293.000000	0.292692
1294.000000	0.292728
1295.000000	0.292767
1296.000000	0.292742
1297.000000	0.292702
1298.000000	0.292753
1299.000000	0.292814
1300.000000	0.292886
1301.000000	0.292903
1302.000000	0.292859
1303.000000	0.292858
1304.000000	0.292809
1305.000000	0.292799
1306.000000	0.292755
1307.000000	0.292732
1308.000000	0.292736
1309.000000	0.292723
1310.000000	0.292700
1311.000000	0.292737
1312.000000	0.292672
1313.000000	0.292578
1314.000000	0.292563
1315.000000	0.292508
1316.000000	0.292474
1317.000000	0.292483
1318.000000	0.292477
1319.000000	0.292416
1320.000000	0.292406
1321.000000	0.292371
1322.000000	0.292278
1323.000000	0.292318
1324.000000	0.292412
1325.000000	0.292430
1326.000000	0.292440
1327.000000	0.292428
1328.000000	0.292430
1329.000000	0.292357
1330.000000	0.292293
1331.000000	0.292217
1332.000000	0.292106
1333.000000	0.292009
1334.000000	0.291983
1335.000000	0.291962
1336.000000	0.291924
1337.000000	0.291900
1338.000000	0.291854
1339.000000	0.291790
1340.000000	0.291753
1341.000000	0.291753
1342.000000	0.291727
1343.000000	0.291725
1344.000000	0.291766
1345.000000	0.291753
1346.000000	0.291829
1347.000000	0.291856
1348.000000	0.291850
1349.000000	0.291819
1350.000000	0.291841
1351.000000	0.291825
1352.000000	0.291762
1353.000000	0.291726
1354.000000	0.291699
1355.000000	0.291628
1356.000000	0.291599
1357.000000	0.291518
1358.000000	0.291404
1359.000000	0.291283
1360.000000	0.291221
1361.000000	0.291257
1362.000000	0.291225
1363.000000	0.291190
1364.000000	0.291162
1365.000000	0.291058
1366.000000	0.291015
1367.000000	0.291011
1368.000000	0.290976
1369.000000	0.291013
1370.000000	0.290974
1371.000000	0.290900
1372.000000	0.290871
1373.000000	0.290876
1374.000000	0.290856
1375.000000	0.290789
1376.000000	0.290825
1377.000000	0.290854
1378.000000	0.290862
1379.000000	0.290853
1380.000000	0.290816
1381.000000	0.290740
1382.000000	0.290657
1383.000000	0.290643
1384.000000	0.290574
1385.000000	0.290517
1386.000000	0.290601
1387.000000	0.290649
1388.000000	0.290650
1389.000000	0.290702
1390.000000	0.290704
1391.000000	0.290663
1392.000000	0.290694
1393.000000	0.290682
1394.000000	0.290684
1395.000000	0.290663
1396.000000	0.290618
1397.000000	0.290573
1398.000000	0.290471
1399.000000	0.290406
1400.000000	0.290337
1401.000000	0.290265
1402.000000	0.290235
1403.000000	0.290178
1404.000000	0.290166
1405.000000	0.290133
1406.000000	0.290074
1407.000000	0.289982
1408.000000	0.289809
1409.000000	0.289712
1410.000000	0.289674
1411.000000	0.289623
1412.000000	0.289587
1413.000000	0.289569
1414.000000	0.289519
1415.000000	0.289485
1416.000000	0.289442
1417.000000	0.289405
1418.000000	0.289366
1419.000000	0.289373
1420.000000	0.289337
1421.000000	0.289357
1422.000000	0.289366
1423.000000	0.289361
1424.000000	0.289294
1425.000000	0.289252
1426.000000	0.289197
1427.000000	0.289150
1428.000000	0.289099
1429.000000	0.289035
1430.000000	0.288964
1431.000000	0.288865
1432.000000	0.288749
1433.000000	0.288668
1434.000000	0.288554
1435.000000	0.288471
1436.000000	0.288410
1437.000000	0.288368
1438.000000	0.288253
1439.000000	0.288148
1440.000000	0.288036
1441.000000	0.287888
1442.000000	0.287807
1443.000000	0.287707
1444.000000	0.287631
1445.000000	0.287531
1446.000000	0.287384
1447.000000	0.287249
1448.000000	0.287095
1449.000000	0.286950
1450.000000	0.286885
1451.000000	0.286823
1452.000000	0.286727
1453.000000	0.286677
1454.000000	0.286603
1455.000000	0.286515
1456.000000	0.286529
1457.000000	0.286586
1458.000000	0.286585
1459.000000	0.286601
1460.000000	0.286632
1461.000000	0.286582
1462.000000	0.286545
1463.000000	0.286490
1464.000000	0.286433
1465.000000	0.286446
1466.000000	0.286454
1467.000000	0.286491
1468.000000	0.286524
1469.000000	0.286551
1470.000000	0.286500
1471.000000	0.286493
1472.000000	0.286482
1473.000000	0.286502
1474.000000	0.286529
1475.000000	0.286525
1476.000000	0.286492
1477.000000	0.286462
1478.000000	0.286452
1479.000000	0.286424
1480.000000	0.286386
1481.000000	0.286341
1482.000000	0.286309
1483.000000	0.286327
1484.000000	0.286381
1485.000000	0.286423
1486.000000	0.286477
1487.000000	0.286521
1488.000000	0.286561
1489.000000	0.286633
1490.000000	0.286626
1491.000000	0.286665
1492.000000	0.286684
1493.000000	0.286699
1494.000000	0.286672
1495.000000	0.286652
1496.000000	0.286645
1497.000000	0.286625
1498.000000	0.286619
1499.000000	0.286572
1500.000000	0.286527
1501.000000	0.286439
1502.000000	0.286362
1503.000000	0.286352
1504.000000	0.286332
1505.000000	0.286325
1506.000000	0.286354
1507.000000	0.286360
1508.000000	0.286415
1509.000000	0.286417
1510.000000	0.286347
1511.000000	0.286315
1512.000000	0.286211
1513.000000	0.286128
1514.000000	0.286109
1515.000000	0.286026
1516.000000	0.285997
1517.000000	0.285966
1518.000000	0.285923
1519.000000	0.285878
1520.000000	0.285887
1521.000000	0.285866
1522.000000	0.285897
1523.000000	0.285997
1524.000000	0.286021
1525.000000	0.286109
1526.000000	0.286160
1527.000000	0.286147
1528.000000	0.286175
1529.000000	0.286154
1530.000000	0.286047
1531.000000	0.286032
1532.000000	0.286058
1533.000000	0.286037
1534.000000	0.286076
1535.000000	0.286094
1536.000000	0.286009
1537.000000	0.286040
1538.000000	0.286106
1539.000000	0.286150
1540.000000	0.286252
1541.000000	0.286347
1542.000000	0.286405
1543.000000	0.286465
1544.000000	0.286518
1545.000000	0.286568
1546.000000	0.286602
1547.000000	0.286612
1548.000000	0.286617
1549.000000	0.286609
1550.000000	0.286556
1551.000000	0.286494
1552.000000	0.286462
1553.000000	0.286414
1554.000000	0.286344
1555.000000	0.286337
1556.000000	0.286331
1557.000000	0.286244
1558.000000	0.286215
1559.000000	0.286182
1560.000000	0.286114
1561.000000	0.286051
1562.000000	0.286014
1563.000000	0.286015
1564.000000	0.286009
1565.000000	0.286026
1566.000000	0.285971
1567.000000	0.285972
1568.000000	0.285954
1569.000000	0.285990
1570.000000	0.285971
1571.000000	0.285889
1572.000000	0.285838
1573.000000	0.285782
1574.000000	0.285759
1575.000000	0.285787
1576.000000	0.285810
1577.000000	0.285825
1578.000000	0.285806
1579.000000	0.285838
1580.000000	0.285843
1581.000000	0.285898
1582.000000	0.285889
1583.000000	0.285820
1584.000000	0.285765
1585.000000	0.285745
1586.000000	0.285753
1587.000000	0.285791
1588.000000	0.285815
1589.000000	0.285850
1590.000000	0.285879
1591.000000	0.285920
1592.000000	0.285992
1593.000000	0.286117
1594.000000	0.286175
1595.000000	0.286292
1596.000000	0.286348
1597.000000	0.286350
1598.000000	0.286367
1599.000000	0.286417
1600.000000	0.286389
1601.000000	0.286406
1602.000000	0.286366
1603.000000	0.286280
1604.000000	0.286205
1605.000000	0.286131
1606.000000	0.286065
1607.000000	0.286057
1608.000000	0.285997
1609.000000	0.285966
1610.000000	0.285899
1611.000000	0.285809
1612.000000	0.285738
1613.000000	0.285766
1614.000000	0.285714
1615.000000	0.285682
1616.000000	0.285668
1617.000000	0.285580
1618.000000	0.285521
1619.000000	0.285480
1620.000000	0.285439
1621.000000	0.285384
1622.000000	0.285448
1623.000000	0.285557
1624.000000	0.285623
1625.000000	0.285625
1626.000000	0.285618
1627.000000	0.285574
1628.000000	0.285617
1629.000000	0.285724
1630.000000	0.285778
1631.000000	0.285773
1632.000000	0.285739
1633.000000	0.285654
1634.000000	0.285615
1635.000000	0.285645
1636.000000	0.285629
1637.000000	0.285631
1638.000000	0.285566
1639.000000	0.285502
1640.000000	0.285391
1641.000000	0.285265
1642.000000	0.285194
1643.000000	0.285156
1644.000000	0.285115
1645.000000	0.285115
1646.000000	0.285047
1647.000000	0.284958
1648.000000	0.284871
1649.000000	0.284832
1650.000000	0.284842
1651.000000	0.284912
1652.000000	0.285002
1653.000000	0.285097
1654.000000	0.285184
1655.000000	0.285249
1656.000000	0.285196
1657.000000	0.285150
1658.000000	0.285126
1659.000000	0.285130
1660.000000	0.285165
1661.000000	0.285167
1662.000000	0.285168
1663.000000	0.285132
1664.000000	0.285141
1665.000000	0.285185
1666.000000	0.285257
1667.000000	0.285288
1668.000000	0.285266
1669.000000	0.285190
1670.000000	0.285129
1671.000000	0.285133
1672.000000	0.285165
1673.000000	0.285198
1674.000000	0.285280
1675.000000	0.285346
1676.000000	0.285382
1677.000000	0.285411
1678.000000	0.285373
1679.000000	0.285371
1680.000000	0.285372
1681.000000	0.285393
1682.000000	0.285408
1683.000000	0.285379
1684.000000	0.285353
1685.000000	0.285362
1686.000000	0.285415
1687.000000	0.285481
1688.000000	0.285473
1689.000000	0.285460
1690.000000	0.285364
1691.000000	0.285310
1692.000000	0.285265
1693.000000	0.285219
1694.000000	0.285126
1695.000000	0.285072
1696.000000	0.285035
1697.000000	0.284940
1698.000000	0.284864
1699.000000	0.284859
1700.000000	0.284871
1701.000000	0.284945
1702.000000	0.284965
1703.000000	0.284947
1704.000000	0.284967
1705.000000	0.284981
1706.000000	0.285022
1707.000000	0.285072
1708.000000	0.285113
1709.000000	0.285079
1710.000000	0.285098
1711.000000	0.285134
1712.000000	0.285165
1713.000000	0.285178
1714.000000	0.285233
1715.000000	0.285299
1716.000000	0.285365
1717.000000	0.285416
1718.000000	0.285450
1719.000000	0.285491
1720.000000	0.285562
1721.000000	0.285623
1722.000000	0.285718
1723.000000	0.285795
1724.000000	0.285868
1725.000000	0.285956
1726.000000	0.285997
1727.000000	0.286008
1728.000000	0.285945
1729.000000	0.285842
1730.000000	0.285801
1731.000000	0.285756
1732.000000	0.285708
1733.000000	0.285714
1734.000000	0.285614
1735.000000	0.285579
1736.000000	0.285552
1737.000000	0.285520
1738.000000	0.285516
1739.000000	0.285534
1740.000000	0.285560
1741.000000	0.285536
1742.000000	0.285535
1743.000000	0.285537
1744.000000	0.285468
1745.000000	0.285441
1746.000000	0.285444
1747.000000	0.285375
1748.000000	0.285321
1749.000000	0.285280
1750.000000	0.285243
1751.000000	0.285367
1752.000000	0.285533
1753.000000	0.285581
1754.000000	0.285680
1755.000000	0.285794
1756.000000	0.285873
1757.000000	0.285974
1758.000000	0.286059
1759.000000	0.286090
1760.000000	0.286128
1761.000000	0.286159
1762.000000	0.286126
1763.000000	0.286045
1764.000000	0.286003
1765.000000	0.285904
1766.000000	0.285842
1767.000000	0.285752
1768.000000	0.285653
1769.000000	0.285598
1770.000000	0.285628
1771.000000	0.285688
1772.000000	0.285724
1773.000000	0.285753
1774.000000	0.285789
1775.000000	0.285840
1776.000000	0.285942
1777.000000	0.286071
1778.000000	0.286148
1779.000000	0.286239
1780.000000	0.286284
1781.000000	0.286246
1782.000000	0.286229
1783.000000	0.286208
1784.000000	0.286301
1785.000000	0.286375
1786.000000	0.286484
1787.000000	0.286679
1788.000000	0.286765
1789.000000	0.286769
1790.000000	0.286774
1791.000000	0.286726
1792.000000	0.286717
1793.000000	0.286678
1794.000000	0.286628
1795.000000	0.286593
1796.000000	0.286564
1797.000000	0.286448
1798.000000	0.286206
1799.000000	0.286089
1800.000000	0.286002
1801.000000	0.286242
1802.000000	0.286299
1803.000000	0.285755
1804.000000	0.285737
1805.000000	0.285716
1806.000000	0.285748
1807.000000	0.286060
1808.000000	0.286163
1809.000000	0.286143
1810.000000	0.286166
1811.000000	0.286022
1812.000000	0.285652
1813.000000	0.285589
1814.000000	0.285560
1815.000000	0.285593
1816.000000	0.286056
1817.000000	0.286026
1818.000000	0.285819
1819.000000	0.285570
1820.000000	0.285633
1821.000000	0.285287
1822.000000	0.285090
1823.000000	0.284937
1824.000000	0.284760
1825.000000	0.284264
1826.000000	0.284250
1827.000000	0.284454
1828.000000	0.284642
1829.000000	0.284876
1830.000000	0.284827
1831.000000	0.284751
1832.000000	0.284290
1833.000000	0.284288
1834.000000	0.284479
1835.000000	0.284579
1836.000000	0.284827
1837.000000	0.284969
1838.000000	0.284891
1839.000000	0.284818
1840.000000	0.284889
1841.000000	0.284839
1842.000000	0.284849
1843.000000	0.284793
1844.000000	0.284962
1845.000000	0.285260
1846.000000	0.285392
1847.000000	0.285420
1848.000000	0.285391
1849.000000	0.285455
1850.000000	0.285294
1851.000000	0.285277
1852.000000	0.285392
1853.000000	0.285461
1854.000000	0.285300
1855.000000	0.285170
1856.000000	0.285014
1857.000000	0.284821
1858.000000	0.284571
1859.000000	0.284315
1860.000000	0.284112
1861.000000	0.283937
1862.000000	0.283781
1863.000000	0.283682
1864.000000	0.283633
1865.000000	0.283604
1866.000000	0.283695
1867.000000	0.283857
1868.000000	0.284033
1869.000000	0.284100
1870.000000	0.284203
1871.000000	0.284052
1872.000000	0.283780
1873.000000	0.283741
1874.000000	0.283704
1875.000000	0.283842
1876.000000	0.284063
1877.000000	0.283906
1878.000000	0.283561
1879.000000	0.283051
1880.000000	0.282552
1881.000000	0.282265
1882.000000	0.282095
1883.000000	0.282038
1884.000000	0.282028
1885.000000	0.281905
1886.000000	0.281626
1887.000000	0.281257
1888.000000	0.280968
1889.000000	0.280644
1890.000000	0.280420
1891.000000	0.280546
1892.000000	0.280500
1893.000000	0.280255
1894.000000	0.279965
1895.000000	0.279617
1896.000000	0.279383
1897.000000	0.279115
1898.000000	0.278701
1899.000000	0.278597
1900.000000	0.278307
1901.000000	0.277838
1902.000000	0.277385
1903.000000	0.277101
1904.000000	0.277013
1905.000000	0.276851
1906.000000	0.276452
1907.000000	0.276094
1908.000000	0.275353
1909.000000	0.274649
1910.000000	0.274285
1911.000000	0.274151
1912.000000	0.273992
1913.000000	0.273779
1914.000000	0.273598
1915.000000	0.273160
1916.000000	0.272867
1917.000000	0.272525
1918.000000	0.272317
1919.000000	0.272001
1920.000000	0.271629
1921.000000	0.271527
1922.000000	0.271643
1923.000000	0.271702
1924.000000	0.271638
1925.000000	0.271402
1926.000000	0.271204
1927.000000	0.270854
1928.000000	0.270542
1929.000000	0.270358
1930.000000	0.270384
1931.000000	0.270162
1932.000000	0.270082
1933.000000	0.270130
1934.000000	0.269997
1935.000000	0.269855
1936.000000	0.269822
1937.000000	0.269782
1938.000000	0.269651
1939.000000	0.269546
1940.000000	0.269443
1941.000000	0.269330
1942.000000	0.269352
1943.000000	0.269338
1944.000000	0.269439
1945.000000	0.269554
1946.000000	0.269611
1947.000000	0.269840
1948.000000	0.269787
1949.000000	0.269854
1950.000000	0.269774
1951.000000	0.269510
1952.000000	0.269020
1953.000000	0.268886
1954.000000	0.268763
1955.000000	0.268930
1956.000000	0.269241
1957.000000	0.269472
1958.000000	0.269763
1959.000000	0.269705
1960.000000	0.269661
1961.000000	0.269745
1962.000000	0.269702
1963.000000	0.269581
1964.000000	0.269603
1965.000000	0.269409
1966.000000	0.268996
1967.000000	0.268583
1968.000000	0.268320
1969.000000	0.268279
1970.000000	0.268507
1971.000000	0.268792
1972.000000	0.268816
1973.000000	0.268728
1974.000000	0.268621
1975.000000	0.268561
1976.000000	0.268404
1977.000000	0.268384
1978.000000	0.268441
1979.000000	0.268620
1980.000000	0.269032
1981.000000	0.269206
1982.000000	0.269103
1983.000000	0.269085
1984.000000	0.268998
1985.000000	0.268662
1986.000000	0.268590
1987.000000	0.268773
1988.000000	0.268985
1989.000000	0.268925
1990.000000	0.268906
1991.000000	0.268879
1992.000000	0.268579
1993.000000	0.268701
1994.000000	0.268943
1995.000000	0.269086
1996.000000	0.269303
1997.000000	0.269419
1998.000000	0.269414
1999.000000	0.269505
2000.000000	0.269588
2001.000000	0.269792
2002.000000	0.270000
2003.000000	0.270246
2004.000000	0.270363
2005.000000	0.270036
2006.000000	0.269872
2007.000000	0.269664
2008.000000	0.269647
2009.000000	0.269936
2010.000000	0.270103
2011.000000	0.270111
2012.000000	0.270142
2013.000000	0.270149
2014.000000	0.269895
2015.000000	0.269835
2016.000000	0.269984
2017.000000	0.269985
2018.000000	0.270005
2019.000000	0.270050
2020.000000	0.269903
2021.000000	0.269912
2022.000000	0.269955
2023.000000	0.270035
2024.000000	0.270323
2025.000000	0.270450
2026.000000	0.270474
2027.000000	0.270270
2028.000000	0.269973
2029.000000	0.269755
2030.000000	0.269640
2031.000000	0.269745
2032.000000	0.269954
2033.000000	0.270115
2034.000000	0.270185
2035.000000	0.270212
2036.000000	0.270180
2037.000000	0.270245
2038.000000	0.270391
2039.000000	0.270608
2040.000000	0.270919
2041.000000	0.271240
2042.000000	0.271332
2043.000000	0.271307
2044.000000	0.271245
2045.000000	0.271070
2046.000000	0.270944
2047.000000	0.270942
2048.000000	0.270993
2049.000000	0.271131
2050.000000	0.271010
2051.000000	0.271014
2052.000000	0.270985
2053.000000	0.270909
2054.000000	0.271168
2055.000000	0.271321
2056.000000	0.271432
2057.000000	0.271538
2058.000000	0.271311
2059.000000	0.271316
2060.000000	0.271326
2061.000000	0.271199
2062.000000	0.271260
2063.000000	0.271755
2064.000000	0.271694
2065.000000	0.271664
2066.000000	0.271515
2067.000000	0.271302
2068.000000	0.271136
2069.000000	0.271207
2070.000000	0.271447
2071.000000	0.271492
2072.000000	0.271662
2073.000000	0.271821
2074.000000	0.271684
2075.000000	0.271708
2076.000000	0.271787
2077.000000	0.271808
2078.000000	0.271902
2079.000000	0.271847
2080.000000	0.271679
2081.000000	0.271627
2082.000000	0.271610
2083.000000	0.271435
2084.000000	0.271378
2085.000000	0.271355
2086.000000	0.271540
2087.000000	0.271801
2088.000000	0.272043
2089.000000	0.272476
2090.000000	0.272549
2091.000000	0.272382
2092.000000	0.272290
2093.000000	0.271981
2094.000000	0.271789
2095.000000	0.271664
2096.000000	0.271551
2097.000000	0.271271
2098.000000	0.271330
2099.000000	0.271464
2100.000000	0.271563
2101.000000	0.271698
2102.000000	0.271930
2103.000000	0.271962
2104.000000	0.272066
2105.000000	0.272158
2106.000000	0.272197
2107.000000	0.272359
2108.000000	0.272555
2109.000000	0.272780
2110.000000	0.272973
2111.000000	0.273120
2112.000000	0.273245
2113.000000	0.273094
2114.000000	0.272872
2115.000000	0.272762
2116.000000	0.272547
2117.000000	0.272476
2118.000000	0.272553
2119.000000	0.272554
2120.000000	0.272734
2121.000000	0.273079
2122.000000	0.273191
2123.000000	0.273411
2124.000000	0.273444
2125.000000	0.273002
2126.000000	0.273053
2127.000000	0.273421
2128.000000	0.273721
2129.000000	0.274119
2130.000000	0.274621
2131.000000	0.274738
2132.000000	0.274523
2133.000000	0.274593
2134.000000	0.274728
2135.000000	0.274699
2136.000000	0.274710
2137.000000	0.274649
2138.000000	0.274446
2139.000000	0.274327
2140.000000	0.274254
2141.000000	0.274142
2142.000000	0.273912
2143.000000	0.273576
2144.000000	0.273308
2145.000000	0.273294
2146.000000	0.273418
2147.000000	0.273950
2148.000000	0.274234
2149.000000	0.274319
2150.000000	0.274068
2151.000000	0.273957
2152.000000	0.273891
2153.000000	0.273553
2154.000000	0.273429
2155.000000	0.273404
2156.000000	0.273216
2157.000000	0.273171
2158.000000	0.273022
2159.000000	0.272632
2160.000000	0.272514
2161.000000	0.272422
2162.000000	0.272526
2163.000000	0.272733
2164.000000	0.272929
2165.000000	0.273334
2166.000000	0.273600
2167.000000	0.273849
2168.000000	0.273871
2169.000000	0.273434
2170.000000	0.273151
2171.000000	0.272978
2172.000000	0.272715
2173.000000	0.272598
2174.000000	0.272801
2175.000000	0.272677
2176.000000	0.272289
2177.000000	0.272292
2178.000000	0.272437
2179.000000	0.272674
2180.000000	0.273109
2181.000000	0.273620
2182.000000	0.273765
2183.000000	0.273836
2184.000000	0.273864
2185.000000	0.274142
2186.000000	0.273918
2187.000000	0.273828
2188.000000	0.273507
2189.000000	0.272632
2190.000000	0.272225
2191.000000	0.272321
2192.000000	0.272205
2193.000000	0.272515
2194.000000	0.272361
2195.000000	0.271720
2196.000000	0.271538
2197.000000	0.271168
2198.000000	0.271285
2199.000000	0.272488
2200.000000	0.272876
2201.000000	0.273212
2202.000000	0.273385
2203.000000	0.272843
2204.000000	0.271976
2205.000000	0.271599
2206.000000	0.271345
2207.000000	0.270958
2208.000000	0.271221
2209.000000	0.271398
2210.000000	0.271330
2211.000000	0.271447
2212.000000	0.272045
2213.000000	0.272255
2214.000000	0.272320
2215.000000	0.272314
2216.000000	0.271955
2217.000000	0.272180
2218.000000	0.272823
2219.000000	0.273382
2220.000000	0.274295
2221.000000	0.274885
2222.000000	0.275146
2223.000000	0.275409
2224.000000	0.275941
2225.000000	0.275827
2226.000000	0.275374
2227.000000	0.274891
2228.000000	0.274117
2229.000000	0.273200
2230.000000	0.272759
2231.000000	0.273108
2232.000000	0.273353
2233.000000	0.273773
2234.000000	0.274074
2235.000000	0.273932
2236.000000	0.273576
2237.000000	0.272883
2238.000000	0.272362
2239.000000	0.271534
2240.000000	0.271040
2241.000000	0.270603
2242.000000	0.270453
2243.000000	0.270211
2244.000000	0.270531
2245.000000	0.271767
2246.000000	0.272254
2247.000000	0.272735
2248.000000	0.273106
2249.000000	0.273155
2250.000000	0.273091
2251.000000	0.272869
2252.000000	0.272538
2253.000000	0.271534
2254.000000	0.270568
2255.000000	0.270313
2256.000000	0.270168
2257.000000	0.271287
2258.000000	0.272329
2259.000000	0.272598
2260.000000	0.273538
2261.000000	0.273558
2262.000000	0.272495
2263.000000	0.272237
2264.000000	0.271967
2265.000000	0.271817
2266.000000	0.272336
2267.000000	0.272223
2268.000000	0.271557
2269.000000	0.271583
2270.000000	0.271566
2271.000000	0.271333
2272.000000	0.271422
2273.000000	0.271702
2274.000000	0.271586
2275.000000	0.272046
2276.000000	0.273617
2277.000000	0.274013
2278.000000	0.273845
2279.000000	0.273254
2280.000000	0.271805
2281.000000	0.271283
2282.000000	0.271227
2283.000000	0.271492
2284.000000	0.272264
2285.000000	0.272362
2286.000000	0.273235
2287.000000	0.273956
2288.000000	0.273566
2289.000000	0.273186
2290.000000	0.271896
2291.000000	0.270979
2292.000000	0.270772
2293.000000	0.270103
2294.000000	0.269878
2295.000000	0.269823
2296.000000	0.269847
2297.000000	0.270143
2298.000000	0.270684
2299.000000	0.271523
2300.000000	0.271652
2301.000000	0.271707
2302.000000	0.271561
2303.000000	0.270615
2304.000000	0.270355
2305.000000	0.270435
2306.000000	0.270528
2307.000000	0.270587
2308.000000	0.271265
2309.000000	0.271981
2310.000000	0.272109
2311.000000	0.271829
2312.000000	0.271393
2313.000000	0.270726
2314.000000	0.269578
2315.000000	0.269084
2316.000000	0.269124
2317.000000	0.268647
2318.000000	0.269358
2319.000000	0.270503
2320.000000	0.270030
2321.000000	0.270117
2322.000000	0.270386
2323.000000	0.269414
2324.000000	0.269677
2325.000000	0.269508
2326.000000	0.268666
2327.000000	0.268920
2328.000000	0.268712
2329.000000	0.268519
2330.000000	0.267514
2331.000000	0.266988
2332.000000	0.267786
2333.000000	0.268227
2334.000000	0.270112
2335.000000	0.271488
2336.000000	0.271938
2337.000000	0.272353
2338.000000	0.272773
2339.000000	0.272321
2340.000000	0.271058
2341.000000	0.270412
2342.000000	0.269831
2343.000000	0.269767
2344.000000	0.270373
2345.000000	0.270217
2346.000000	0.269017
2347.000000	0.268663
2348.000000	0.268609
2349.000000	0.268783
2350.000000	0.268568
2351.000000	0.269845
2352.000000	0.269554
2353.000000	0.269432
2354.000000	0.270216
2355.000000	0.270176
2356.000000	0.269849
2357.000000	0.268997
2358.000000	0.267311
2359.000000	0.265871
2360.000000	0.265258
2361.000000	0.264883
2362.000000	0.264440
2363.000000	0.264789
2364.000000	0.264017
2365.000000	0.263455
2366.000000	0.263487
2367.000000	0.262497
2368.000000	0.263663
2369.000000	0.264828
2370.000000	0.265350
2371.000000	0.266576
2372.000000	0.266132
2373.000000	0.266071
2374.000000	0.265623
2375.000000	0.265125
2376.000000	0.265878
2377.000000	0.264798
2378.000000	0.263952
2379.000000	0.264236
2380.000000	0.263811
2381.000000	0.263015
2382.000000	0.262742
2383.000000	0.262643
2384.000000	0.262289
2385.000000	0.261977
2386.000000	0.261337
2387.000000	0.261363
2388.000000	0.260452
2389.000000	0.260309
2390.000000	0.262113
2391.000000	0.260643
2392.000000	0.258385
2393.000000	0.257216
2394.000000	0.256264
2395.000000	0.258165
2396.000000	0.261561
2397.000000	0.264349
2398.000000	0.267646
2399.000000	0.267428
2400.000000	0.263895
2401.000000	0.263929
2402.000000	0.260795
2403.000000	0.257933
2404.000000	0.259102
2405.000000	0.256794
2406.000000	0.258104
2407.000000	0.260527
2408.000000	0.259649
2409.000000	0.261546
2410.000000	0.261761
2411.000000	0.257985
2412.000000	0.258466
2413.000000	0.259062
2414.000000	0.257615
2415.000000	0.261030
2416.000000	0.264461
2417.000000	0.265798
2418.000000	0.267195
2419.000000	0.266322
2420.000000	0.265864
2421.000000	0.263412
2422.000000	0.258356
2423.000000	0.257855
2424.000000	0.254648
2425.000000	0.250743
2426.000000	0.253658
2427.000000	0.257157
2428.000000	0.263415
2429.000000	0.270109
2430.000000	0.271657
2431.000000	0.272589
2432.000000	0.267627
2433.000000	0.261636
2434.000000	0.259724
2435.000000	0.250421
2436.000000	0.244094
2437.000000	0.249240
2438.000000	0.257652
2439.000000	0.268031
2440.000000	0.277885
2441.000000	0.277157
2442.000000	0.270674
2443.000000	0.268880
2444.000000	0.266797
2445.000000	0.268326
2446.000000	0.271262
2447.000000	0.270259
2448.000000	0.270832
2449.000000	0.267550
2450.000000	0.264457
2451.000000	0.264235
2452.000000	0.263934
2453.000000	0.264945
2454.000000	0.263827
2455.000000	0.261680
2456.000000	0.260217
2457.000000	0.264943
2458.000000	0.270503
2459.000000	0.271338
2460.000000	0.274099
2461.000000	0.271525
2462.000000	0.265980
2463.000000	0.267705
2464.000000	0.266259
2465.000000	0.260412
2466.000000	0.259566
2467.000000	0.258020
2468.000000	0.254844
2469.000000	0.254649
2470.000000	0.258001
2471.000000	0.256079
2472.000000	0.255383
2473.000000	0.255811
2474.000000	0.245729
2475.000000	0.247589
2476.000000	0.246389
2477.000000	0.234942
2478.000000	0.239984
2479.000000	0.240394
2480.000000	0.237966
2481.000000	0.253880
2482.000000	0.260094
2483.000000	0.256654
2484.000000	0.264069
2485.000000	0.267416
2486.000000	0.272219
2487.000000	0.286362
2488.000000	0.296287
2489.000000	0.296793
2490.000000	0.292032
2491.000000	0.297249
2492.000000	0.289035
2493.000000	0.286244
2494.000000	0.287345
2495.000000	0.273672
2496.000000	0.252477
2497.000000	0.219702
2498.000000	0.206889
2499.000000	0.206330
2500.000000	0.208425
