# Wavelength	Hexa80_00001.asd.rts.txt
350.000000	0.273764
351.000000	0.287329
352.000000	0.285198
353.000000	0.280200
354.000000	0.283026
355.000000	0.289132
356.000000	0.291912
357.000000	0.291383
358.000000	0.286421
359.000000	0.287742
360.000000	0.292109
361.000000	0.293146
362.000000	0.292490
363.000000	0.292574
364.000000	0.293950
365.000000	0.295950
366.000000	0.296075
367.000000	0.294373
368.000000	0.293909
369.000000	0.294642
370.000000	0.295652
371.000000	0.295843
372.000000	0.295877
373.000000	0.296364
374.000000	0.297808
375.000000	0.298019
376.000000	0.297804
377.000000	0.297634
378.000000	0.298054
379.000000	0.299540
380.000000	0.300597
381.000000	0.300542
382.000000	0.301189
383.000000	0.301997
384.000000	0.302713
385.000000	0.303422
386.000000	0.304393
387.000000	0.305422
388.000000	0.305226
389.000000	0.305165
390.000000	0.305550
391.000000	0.305961
392.000000	0.306635
393.000000	0.306992
394.000000	0.306947
395.000000	0.308492
396.000000	0.309658
397.000000	0.309691
398.000000	0.309415
399.000000	0.309438
400.000000	0.310076
401.000000	0.311225
402.000000	0.311843
403.000000	0.312083
404.000000	0.312477
405.000000	0.313061
406.000000	0.313857
407.000000	0.314729
408.000000	0.315056
409.000000	0.315254
410.000000	0.315524
411.000000	0.315920
412.000000	0.316296
413.000000	0.316664
414.000000	0.317078
415.000000	0.317447
416.000000	0.317777
417.000000	0.318082
418.000000	0.318352
419.000000	0.318626
420.000000	0.318935
421.000000	0.319288
422.000000	0.319777
423.000000	0.320181
424.000000	0.320369
425.000000	0.320905
426.000000	0.321422
427.000000	0.321616
428.000000	0.321794
429.000000	0.322216
430.000000	0.322812
431.000000	0.323029
432.000000	0.323222
433.000000	0.323427
434.000000	0.323703
435.000000	0.324011
436.000000	0.324311
437.000000	0.324526
438.000000	0.324570
439.000000	0.324632
440.000000	0.324931
441.000000	0.325306
442.000000	0.325586
443.000000	0.325693
444.000000	0.325849
445.000000	0.326126
446.000000	0.326532
447.000000	0.326805
448.000000	0.326997
449.000000	0.327349
450.000000	0.327918
451.000000	0.328146
452.000000	0.328291
453.000000	0.328433
454.000000	0.328788
455.000000	0.329131
456.000000	0.329506
457.000000	0.329814
458.000000	0.330134
459.000000	0.330511
460.000000	0.330961
461.000000	0.331023
462.000000	0.331215
463.000000	0.331536
464.000000	0.331723
465.000000	0.332036
466.000000	0.332363
467.000000	0.332543
468.000000	0.332823
469.000000	0.333077
470.000000	0.333330
471.000000	0.333526
472.000000	0.333678
473.000000	0.333862
474.000000	0.334175
475.000000	0.334322
476.000000	0.334483
477.000000	0.334900
478.000000	0.335080
479.000000	0.335283
480.000000	0.335566
481.000000	0.335758
482.000000	0.336055
483.000000	0.336349
484.000000	0.336713
485.000000	0.336874
486.000000	0.336995
487.000000	0.337235
488.000000	0.337506
489.000000	0.337810
490.000000	0.338168
491.000000	0.338439
492.000000	0.338773
493.000000	0.339163
494.000000	0.339403
495.000000	0.339643
496.000000	0.339947
497.000000	0.340310
498.000000	0.340660
499.000000	0.341025
500.000000	0.341285
501.000000	0.341518
502.000000	0.341809
503.000000	0.342118
504.000000	0.342385
505.000000	0.342616
506.000000	0.342849
507.000000	0.343143
508.000000	0.343476
509.000000	0.343787
510.000000	0.344156
511.000000	0.344484
512.000000	0.344805
513.000000	0.345176
514.000000	0.345525
515.000000	0.345869
516.000000	0.346171
517.000000	0.346525
518.000000	0.346907
519.000000	0.347190
520.000000	0.347525
521.000000	0.347848
522.000000	0.348149
523.000000	0.348476
524.000000	0.348783
525.000000	0.349071
526.000000	0.349426
527.000000	0.349717
528.000000	0.349956
529.000000	0.350249
530.000000	0.350518
531.000000	0.350847
532.000000	0.351161
533.000000	0.351448
534.000000	0.351745
535.000000	0.352055
536.000000	0.352412
537.000000	0.352757
538.000000	0.353062
539.000000	0.353296
540.000000	0.353582
541.000000	0.353878
542.000000	0.354176
543.000000	0.354464
544.000000	0.354794
545.000000	0.355101
546.000000	0.355421
547.000000	0.355752
548.000000	0.356118
549.000000	0.356433
550.000000	0.356749
551.000000	0.357092
552.000000	0.357412
553.000000	0.357737
554.000000	0.358069
555.000000	0.358420
556.000000	0.358832
557.000000	0.359178
558.000000	0.359563
559.000000	0.359899
560.000000	0.360207
561.000000	0.360582
562.000000	0.360946
563.000000	0.361251
564.000000	0.361584
565.000000	0.361902
566.000000	0.362279
567.000000	0.362663
568.000000	0.362991
569.000000	0.363286
570.000000	0.363603
571.000000	0.363946
572.000000	0.364305
573.000000	0.364651
574.000000	0.364983
575.000000	0.365379
576.000000	0.365754
577.000000	0.366069
578.000000	0.366393
579.000000	0.366735
580.000000	0.367074
581.000000	0.367394
582.000000	0.367702
583.000000	0.367969
584.000000	0.368238
585.000000	0.368595
586.000000	0.368954
587.000000	0.369293
588.000000	0.369622
589.000000	0.370034
590.000000	0.370460
591.000000	0.370839
592.000000	0.371148
593.000000	0.371445
594.000000	0.371737
595.000000	0.371993
596.000000	0.372202
597.000000	0.372430
598.000000	0.372636
599.000000	0.372809
600.000000	0.373055
601.000000	0.373338
602.000000	0.373557
603.000000	0.373723
604.000000	0.373874
605.000000	0.374059
606.000000	0.374191
607.000000	0.374293
608.000000	0.374453
609.000000	0.374647
610.000000	0.374885
611.000000	0.375167
612.000000	0.375414
613.000000	0.375618
614.000000	0.375811
615.000000	0.375909
616.000000	0.375994
617.000000	0.376078
618.000000	0.376246
619.000000	0.376435
620.000000	0.376593
621.000000	0.376756
622.000000	0.376915
623.000000	0.377109
624.000000	0.377354
625.000000	0.377570
626.000000	0.377817
627.000000	0.378136
628.000000	0.378544
629.000000	0.378959
630.000000	0.379233
631.000000	0.379554
632.000000	0.379874
633.000000	0.380183
634.000000	0.380449
635.000000	0.380631
636.000000	0.380772
637.000000	0.380882
638.000000	0.380977
639.000000	0.381067
640.000000	0.381207
641.000000	0.381272
642.000000	0.381372
643.000000	0.381521
644.000000	0.381696
645.000000	0.381802
646.000000	0.381917
647.000000	0.382068
648.000000	0.382222
649.000000	0.382389
650.000000	0.382554
651.000000	0.382759
652.000000	0.382953
653.000000	0.383154
654.000000	0.383305
655.000000	0.383508
656.000000	0.383747
657.000000	0.383928
658.000000	0.384169
659.000000	0.384418
660.000000	0.384629
661.000000	0.384844
662.000000	0.385012
663.000000	0.385210
664.000000	0.385455
665.000000	0.385647
666.000000	0.385809
667.000000	0.385955
668.000000	0.386148
669.000000	0.386373
670.000000	0.386603
671.000000	0.386760
672.000000	0.386918
673.000000	0.387095
674.000000	0.387286
675.000000	0.387475
676.000000	0.387673
677.000000	0.387909
678.000000	0.388083
679.000000	0.388233
680.000000	0.388402
681.000000	0.388538
682.000000	0.388733
683.000000	0.388906
684.000000	0.389108
685.000000	0.389276
686.000000	0.389426
687.000000	0.389541
688.000000	0.389720
689.000000	0.389912
690.000000	0.390117
691.000000	0.390356
692.000000	0.390560
693.000000	0.390779
694.000000	0.390960
695.000000	0.391176
696.000000	0.391400
697.000000	0.391574
698.000000	0.391759
699.000000	0.391961
700.000000	0.392181
701.000000	0.392381
702.000000	0.392582
703.000000	0.392766
704.000000	0.392919
705.000000	0.393104
706.000000	0.393278
707.000000	0.393478
708.000000	0.393643
709.000000	0.393793
710.000000	0.393980
711.000000	0.394171
712.000000	0.394335
713.000000	0.394486
714.000000	0.394623
715.000000	0.394777
716.000000	0.394957
717.000000	0.395129
718.000000	0.395324
719.000000	0.395531
720.000000	0.395744
721.000000	0.395902
722.000000	0.396030
723.000000	0.396207
724.000000	0.396341
725.000000	0.396418
726.000000	0.396542
727.000000	0.396647
728.000000	0.396766
729.000000	0.396925
730.000000	0.397072
731.000000	0.397262
732.000000	0.397450
733.000000	0.397648
734.000000	0.397782
735.000000	0.397900
736.000000	0.398126
737.000000	0.398267
738.000000	0.398313
739.000000	0.398430
740.000000	0.398505
741.000000	0.398555
742.000000	0.398662
743.000000	0.398798
744.000000	0.398927
745.000000	0.399034
746.000000	0.399171
747.000000	0.399278
748.000000	0.399455
749.000000	0.399647
750.000000	0.399767
751.000000	0.399870
752.000000	0.399966
753.000000	0.400084
754.000000	0.400238
755.000000	0.400339
756.000000	0.400435
757.000000	0.400539
758.000000	0.400657
759.000000	0.400804
760.000000	0.400901
761.000000	0.401043
762.000000	0.401133
763.000000	0.401181
764.000000	0.401360
765.000000	0.401436
766.000000	0.401486
767.000000	0.401599
768.000000	0.401673
769.000000	0.401719
770.000000	0.401762
771.000000	0.401825
772.000000	0.401971
773.000000	0.402080
774.000000	0.402147
775.000000	0.402207
776.000000	0.402302
777.000000	0.402422
778.000000	0.402519
779.000000	0.402597
780.000000	0.402646
781.000000	0.402618
782.000000	0.402618
783.000000	0.402727
784.000000	0.402769
785.000000	0.402848
786.000000	0.402889
787.000000	0.402873
788.000000	0.402932
789.000000	0.403026
790.000000	0.403116
791.000000	0.403224
792.000000	0.403313
793.000000	0.403358
794.000000	0.403374
795.000000	0.403459
796.000000	0.403533
797.000000	0.403571
798.000000	0.403621
799.000000	0.403702
800.000000	0.403788
801.000000	0.403847
802.000000	0.403872
803.000000	0.403934
804.000000	0.404073
805.000000	0.404083
806.000000	0.404014
807.000000	0.404004
808.000000	0.404034
809.000000	0.404126
810.000000	0.404237
811.000000	0.404310
812.000000	0.404335
813.000000	0.404377
814.000000	0.404429
815.000000	0.404453
816.000000	0.404389
817.000000	0.404362
818.000000	0.404387
819.000000	0.404431
820.000000	0.404519
821.000000	0.404581
822.000000	0.404614
823.000000	0.404641
824.000000	0.404580
825.000000	0.404498
826.000000	0.404467
827.000000	0.404436
828.000000	0.404424
829.000000	0.404415
830.000000	0.404374
831.000000	0.404370
832.000000	0.404306
833.000000	0.404298
834.000000	0.404326
835.000000	0.404385
836.000000	0.404388
837.000000	0.404338
838.000000	0.404268
839.000000	0.404181
840.000000	0.404130
841.000000	0.404118
842.000000	0.404086
843.000000	0.404072
844.000000	0.404074
845.000000	0.404061
846.000000	0.404088
847.000000	0.404071
848.000000	0.404010
849.000000	0.403978
850.000000	0.403997
851.000000	0.403966
852.000000	0.403915
853.000000	0.403908
854.000000	0.403839
855.000000	0.403826
856.000000	0.403775
857.000000	0.403637
858.000000	0.403580
859.000000	0.403552
860.000000	0.403436
861.000000	0.403410
862.000000	0.403465
863.000000	0.403420
864.000000	0.403329
865.000000	0.403260
866.000000	0.403241
867.000000	0.403117
868.000000	0.403012
869.000000	0.402861
870.000000	0.402688
871.000000	0.402520
872.000000	0.402336
873.000000	0.402100
874.000000	0.402044
875.000000	0.401925
876.000000	0.401774
877.000000	0.401634
878.000000	0.401495
879.000000	0.401395
880.000000	0.401177
881.000000	0.400969
882.000000	0.400877
883.000000	0.400881
884.000000	0.400806
885.000000	0.400659
886.000000	0.400426
887.000000	0.400181
888.000000	0.400043
889.000000	0.399916
890.000000	0.399700
891.000000	0.399603
892.000000	0.399540
893.000000	0.399437
894.000000	0.399386
895.000000	0.399213
896.000000	0.398987
897.000000	0.398772
898.000000	0.398609
899.000000	0.398373
900.000000	0.398151
901.000000	0.397970
902.000000	0.397931
903.000000	0.397833
904.000000	0.397677
905.000000	0.397404
906.000000	0.397208
907.000000	0.397002
908.000000	0.396832
909.000000	0.396665
910.000000	0.396550
911.000000	0.396437
912.000000	0.396292
913.000000	0.396106
914.000000	0.395841
915.000000	0.395621
916.000000	0.395455
917.000000	0.395212
918.000000	0.395008
919.000000	0.394906
920.000000	0.394834
921.000000	0.394723
922.000000	0.394536
923.000000	0.394232
924.000000	0.393855
925.000000	0.393519
926.000000	0.393315
927.000000	0.393145
928.000000	0.392942
929.000000	0.392716
930.000000	0.392513
931.000000	0.392337
932.000000	0.392184
933.000000	0.392043
934.000000	0.391762
935.000000	0.391473
936.000000	0.391317
937.000000	0.391187
938.000000	0.390836
939.000000	0.390581
940.000000	0.390387
941.000000	0.390214
942.000000	0.389978
943.000000	0.389789
944.000000	0.389574
945.000000	0.389459
946.000000	0.389220
947.000000	0.388964
948.000000	0.388763
949.000000	0.388469
950.000000	0.388117
951.000000	0.387758
952.000000	0.387597
953.000000	0.387381
954.000000	0.387175
955.000000	0.386959
956.000000	0.386728
957.000000	0.386518
958.000000	0.386282
959.000000	0.386098
960.000000	0.385825
961.000000	0.385602
962.000000	0.385424
963.000000	0.385183
964.000000	0.384920
965.000000	0.384725
966.000000	0.384512
967.000000	0.384344
968.000000	0.384061
969.000000	0.383717
970.000000	0.383584
971.000000	0.383216
972.000000	0.382929
973.000000	0.382735
974.000000	0.382460
975.000000	0.382254
976.000000	0.382094
977.000000	0.381918
978.000000	0.381679
979.000000	0.381604
980.000000	0.381349
981.000000	0.381041
982.000000	0.380927
983.000000	0.380747
984.000000	0.380550
985.000000	0.380516
986.000000	0.380390
987.000000	0.380298
988.000000	0.380151
989.000000	0.379757
990.000000	0.379693
991.000000	0.379695
992.000000	0.379419
993.000000	0.379352
994.000000	0.379164
995.000000	0.378993
996.000000	0.378813
997.000000	0.378851
998.000000	0.378825
999.000000	0.378692
1000.000000	0.378513
1001.000000	0.379068
1002.000000	0.378653
1003.000000	0.378310
1004.000000	0.378187
1005.000000	0.377950
1006.000000	0.377738
1007.000000	0.377829
1008.000000	0.378044
1009.000000	0.377795
1010.000000	0.377248
1011.000000	0.377130
1012.000000	0.377177
1013.000000	0.376710
1014.000000	0.376569
1015.000000	0.376799
1016.000000	0.376712
1017.000000	0.376708
1018.000000	0.377098
1019.000000	0.377262
1020.000000	0.377553
1021.000000	0.377186
1022.000000	0.376483
1023.000000	0.376460
1024.000000	0.376294
1025.000000	0.376316
1026.000000	0.376479
1027.000000	0.376605
1028.000000	0.376411
1029.000000	0.376282
1030.000000	0.376238
1031.000000	0.376216
1032.000000	0.376436
1033.000000	0.376501
1034.000000	0.376612
1035.000000	0.376940
1036.000000	0.377103
1037.000000	0.377143
1038.000000	0.377114
1039.000000	0.377130
1040.000000	0.377169
1041.000000	0.377349
1042.000000	0.377631
1043.000000	0.377783
1044.000000	0.377969
1045.000000	0.378007
1046.000000	0.377687
1047.000000	0.377790
1048.000000	0.378165
1049.000000	0.378251
1050.000000	0.378325
1051.000000	0.378376
1052.000000	0.378139
1053.000000	0.378074
1054.000000	0.378368
1055.000000	0.378670
1056.000000	0.379149
1057.000000	0.379421
1058.000000	0.379577
1059.000000	0.379616
1060.000000	0.379763
1061.000000	0.379900
1062.000000	0.379980
1063.000000	0.380206
1064.000000	0.380453
1065.000000	0.380584
1066.000000	0.380840
1067.000000	0.381270
1068.000000	0.381509
1069.000000	0.381563
1070.000000	0.381707
1071.000000	0.381963
1072.000000	0.382095
1073.000000	0.382124
1074.000000	0.382438
1075.000000	0.382684
1076.000000	0.382944
1077.000000	0.383231
1078.000000	0.383421
1079.000000	0.383509
1080.000000	0.383359
1081.000000	0.383465
1082.000000	0.383763
1083.000000	0.383993
1084.000000	0.384328
1085.000000	0.384689
1086.000000	0.385079
1087.000000	0.385364
1088.000000	0.385555
1089.000000	0.385729
1090.000000	0.385813
1091.000000	0.385716
1092.000000	0.385797
1093.000000	0.386159
1094.000000	0.386380
1095.000000	0.386569
1096.000000	0.386783
1097.000000	0.387007
1098.000000	0.387236
1099.000000	0.387383
1100.000000	0.387644
1101.000000	0.387944
1102.000000	0.388127
1103.000000	0.388237
1104.000000	0.388463
1105.000000	0.388694
1106.000000	0.388879
1107.000000	0.389051
1108.000000	0.389197
1109.000000	0.389371
1110.000000	0.389477
1111.000000	0.389578
1112.000000	0.389709
1113.000000	0.389840
1114.000000	0.389889
1115.000000	0.390047
1116.000000	0.390351
1117.000000	0.390490
1118.000000	0.390525
1119.000000	0.390601
1120.000000	0.390617
1121.000000	0.390682
1122.000000	0.390973
1123.000000	0.391333
1124.000000	0.391457
1125.000000	0.391590
1126.000000	0.391607
1127.000000	0.391600
1128.000000	0.391558
1129.000000	0.391441
1130.000000	0.391550
1131.000000	0.391817
1132.000000	0.391862
1133.000000	0.391986
1134.000000	0.392108
1135.000000	0.391999
1136.000000	0.392033
1137.000000	0.392295
1138.000000	0.392281
1139.000000	0.392165
1140.000000	0.392247
1141.000000	0.392234
1142.000000	0.392288
1143.000000	0.392489
1144.000000	0.392665
1145.000000	0.392634
1146.000000	0.392428
1147.000000	0.392341
1148.000000	0.392046
1149.000000	0.392008
1150.000000	0.392180
1151.000000	0.392190
1152.000000	0.392173
1153.000000	0.392125
1154.000000	0.391876
1155.000000	0.391775
1156.000000	0.391765
1157.000000	0.391723
1158.000000	0.391672
1159.000000	0.391595
1160.000000	0.391478
1161.000000	0.391358
1162.000000	0.391295
1163.000000	0.391350
1164.000000	0.391275
1165.000000	0.391150
1166.000000	0.391096
1167.000000	0.390974
1168.000000	0.390867
1169.000000	0.390841
1170.000000	0.390798
1171.000000	0.390789
1172.000000	0.390784
1173.000000	0.390756
1174.000000	0.390712
1175.000000	0.390637
1176.000000	0.390502
1177.000000	0.390405
1178.000000	0.390326
1179.000000	0.390195
1180.000000	0.390040
1181.000000	0.390029
1182.000000	0.389959
1183.000000	0.389874
1184.000000	0.389902
1185.000000	0.389861
1186.000000	0.389798
1187.000000	0.389741
1188.000000	0.389689
1189.000000	0.389577
1190.000000	0.389516
1191.000000	0.389411
1192.000000	0.389357
1193.000000	0.389394
1194.000000	0.389313
1195.000000	0.389249
1196.000000	0.389145
1197.000000	0.389045
1198.000000	0.388929
1199.000000	0.388873
1200.000000	0.388844
1201.000000	0.388800
1202.000000	0.388787
1203.000000	0.388778
1204.000000	0.388735
1205.000000	0.388744
1206.000000	0.388690
1207.000000	0.388737
1208.000000	0.388687
1209.000000	0.388669
1210.000000	0.388618
1211.000000	0.388519
1212.000000	0.388450
1213.000000	0.388423
1214.000000	0.388409
1215.000000	0.388385
1216.000000	0.388362
1217.000000	0.388337
1218.000000	0.388258
1219.000000	0.388178
1220.000000	0.388126
1221.000000	0.388067
1222.000000	0.387980
1223.000000	0.387953
1224.000000	0.387972
1225.000000	0.387937
1226.000000	0.387929
1227.000000	0.387882
1228.000000	0.387873
1229.000000	0.387810
1230.000000	0.387703
1231.000000	0.387573
1232.000000	0.387564
1233.000000	0.387592
1234.000000	0.387604
1235.000000	0.387585
1236.000000	0.387450
1237.000000	0.387421
1238.000000	0.387345
1239.000000	0.387305
1240.000000	0.387339
1241.000000	0.387324
1242.000000	0.387261
1243.000000	0.387250
1244.000000	0.387268
1245.000000	0.387342
1246.000000	0.387420
1247.000000	0.387539
1248.000000	0.387580
1249.000000	0.387595
1250.000000	0.387629
1251.000000	0.387664
1252.000000	0.387664
1253.000000	0.387699
1254.000000	0.387699
1255.000000	0.387652
1256.000000	0.387608
1257.000000	0.387587
1258.000000	0.387606
1259.000000	0.387535
1260.000000	0.387557
1261.000000	0.387561
1262.000000	0.387567
1263.000000	0.387623
1264.000000	0.387647
1265.000000	0.387715
1266.000000	0.387732
1267.000000	0.387705
1268.000000	0.387715
1269.000000	0.387647
1270.000000	0.387666
1271.000000	0.387682
1272.000000	0.387723
1273.000000	0.387822
1274.000000	0.387833
1275.000000	0.387821
1276.000000	0.387845
1277.000000	0.387860
1278.000000	0.387688
1279.000000	0.387615
1280.000000	0.387504
1281.000000	0.387358
1282.000000	0.387261
1283.000000	0.387287
1284.000000	0.387265
1285.000000	0.387253
1286.000000	0.387278
1287.000000	0.387310
1288.000000	0.387314
1289.000000	0.387223
1290.000000	0.387065
1291.000000	0.386952
1292.000000	0.386890
1293.000000	0.386888
1294.000000	0.386943
1295.000000	0.386974
1296.000000	0.386925
1297.000000	0.386889
1298.000000	0.386890
1299.000000	0.386894
1300.000000	0.386971
1301.000000	0.386973
1302.000000	0.386863
1303.000000	0.386821
1304.000000	0.386707
1305.000000	0.386556
1306.000000	0.386476
1307.000000	0.386500
1308.000000	0.386495
1309.000000	0.386519
1310.000000	0.386507
1311.000000	0.386508
1312.000000	0.386436
1313.000000	0.386364
1314.000000	0.386243
1315.000000	0.386093
1316.000000	0.386047
1317.000000	0.386024
1318.000000	0.385945
1319.000000	0.385773
1320.000000	0.385600
1321.000000	0.385363
1322.000000	0.385092
1323.000000	0.384926
1324.000000	0.384791
1325.000000	0.384550
1326.000000	0.384306
1327.000000	0.384108
1328.000000	0.383944
1329.000000	0.383673
1330.000000	0.383423
1331.000000	0.383177
1332.000000	0.382907
1333.000000	0.382626
1334.000000	0.382442
1335.000000	0.382280
1336.000000	0.382075
1337.000000	0.381870
1338.000000	0.381677
1339.000000	0.381407
1340.000000	0.381071
1341.000000	0.380794
1342.000000	0.380446
1343.000000	0.380103
1344.000000	0.379777
1345.000000	0.379401
1346.000000	0.379146
1347.000000	0.378734
1348.000000	0.378347
1349.000000	0.377945
1350.000000	0.377557
1351.000000	0.377209
1352.000000	0.376826
1353.000000	0.376423
1354.000000	0.376026
1355.000000	0.375609
1356.000000	0.375289
1357.000000	0.374918
1358.000000	0.374550
1359.000000	0.374215
1360.000000	0.373891
1361.000000	0.373614
1362.000000	0.373337
1363.000000	0.373035
1364.000000	0.372805
1365.000000	0.372586
1366.000000	0.372378
1367.000000	0.372194
1368.000000	0.372031
1369.000000	0.371936
1370.000000	0.371711
1371.000000	0.371427
1372.000000	0.371088
1373.000000	0.370729
1374.000000	0.370429
1375.000000	0.370130
1376.000000	0.369953
1377.000000	0.369726
1378.000000	0.369402
1379.000000	0.369034
1380.000000	0.368634
1381.000000	0.368220
1382.000000	0.367769
1383.000000	0.367334
1384.000000	0.366823
1385.000000	0.366332
1386.000000	0.365915
1387.000000	0.365456
1388.000000	0.364967
1389.000000	0.364445
1390.000000	0.363949
1391.000000	0.363405
1392.000000	0.362869
1393.000000	0.362236
1394.000000	0.361555
1395.000000	0.360879
1396.000000	0.360200
1397.000000	0.359386
1398.000000	0.358495
1399.000000	0.357578
1400.000000	0.356521
1401.000000	0.355462
1402.000000	0.354477
1403.000000	0.353342
1404.000000	0.352204
1405.000000	0.351002
1406.000000	0.349670
1407.000000	0.348405
1408.000000	0.347040
1409.000000	0.345608
1410.000000	0.344215
1411.000000	0.342712
1412.000000	0.341106
1413.000000	0.339549
1414.000000	0.337962
1415.000000	0.336325
1416.000000	0.334691
1417.000000	0.333070
1418.000000	0.331388
1419.000000	0.329731
1420.000000	0.328038
1421.000000	0.326396
1422.000000	0.324719
1423.000000	0.323105
1424.000000	0.321395
1425.000000	0.319625
1426.000000	0.317858
1427.000000	0.316113
1428.000000	0.314454
1429.000000	0.312838
1430.000000	0.311195
1431.000000	0.309601
1432.000000	0.308010
1433.000000	0.306418
1434.000000	0.304888
1435.000000	0.303497
1436.000000	0.302071
1437.000000	0.300673
1438.000000	0.299226
1439.000000	0.297799
1440.000000	0.296428
1441.000000	0.295049
1442.000000	0.293747
1443.000000	0.292460
1444.000000	0.291171
1445.000000	0.289981
1446.000000	0.288843
1447.000000	0.287717
1448.000000	0.286728
1449.000000	0.285723
1450.000000	0.284731
1451.000000	0.283934
1452.000000	0.283075
1453.000000	0.282246
1454.000000	0.281541
1455.000000	0.280809
1456.000000	0.280205
1457.000000	0.279669
1458.000000	0.279104
1459.000000	0.278590
1460.000000	0.278082
1461.000000	0.277571
1462.000000	0.277086
1463.000000	0.276589
1464.000000	0.276135
1465.000000	0.275756
1466.000000	0.275381
1467.000000	0.275053
1468.000000	0.274767
1469.000000	0.274528
1470.000000	0.274262
1471.000000	0.274028
1472.000000	0.273786
1473.000000	0.273627
1474.000000	0.273501
1475.000000	0.273405
1476.000000	0.273372
1477.000000	0.273335
1478.000000	0.273293
1479.000000	0.273262
1480.000000	0.273271
1481.000000	0.273326
1482.000000	0.273467
1483.000000	0.273632
1484.000000	0.273865
1485.000000	0.274073
1486.000000	0.274244
1487.000000	0.274494
1488.000000	0.274816
1489.000000	0.275154
1490.000000	0.275424
1491.000000	0.275772
1492.000000	0.276129
1493.000000	0.276492
1494.000000	0.276856
1495.000000	0.277226
1496.000000	0.277578
1497.000000	0.277963
1498.000000	0.278395
1499.000000	0.278819
1500.000000	0.279268
1501.000000	0.279700
1502.000000	0.280095
1503.000000	0.280592
1504.000000	0.281109
1505.000000	0.281571
1506.000000	0.282094
1507.000000	0.282610
1508.000000	0.283094
1509.000000	0.283599
1510.000000	0.284045
1511.000000	0.284456
1512.000000	0.284890
1513.000000	0.285317
1514.000000	0.285768
1515.000000	0.286202
1516.000000	0.286639
1517.000000	0.287027
1518.000000	0.287395
1519.000000	0.287755
1520.000000	0.288136
1521.000000	0.288476
1522.000000	0.288884
1523.000000	0.289350
1524.000000	0.289711
1525.000000	0.290110
1526.000000	0.290488
1527.000000	0.290778
1528.000000	0.291084
1529.000000	0.291368
1530.000000	0.291577
1531.000000	0.291875
1532.000000	0.292207
1533.000000	0.292470
1534.000000	0.292728
1535.000000	0.292977
1536.000000	0.293174
1537.000000	0.293465
1538.000000	0.293743
1539.000000	0.293925
1540.000000	0.294146
1541.000000	0.294386
1542.000000	0.294613
1543.000000	0.294846
1544.000000	0.295028
1545.000000	0.295199
1546.000000	0.295384
1547.000000	0.295529
1548.000000	0.295648
1549.000000	0.295767
1550.000000	0.295851
1551.000000	0.295948
1552.000000	0.296085
1553.000000	0.296198
1554.000000	0.296293
1555.000000	0.296417
1556.000000	0.296520
1557.000000	0.296583
1558.000000	0.296698
1559.000000	0.296791
1560.000000	0.296842
1561.000000	0.296951
1562.000000	0.296976
1563.000000	0.296948
1564.000000	0.296973
1565.000000	0.296995
1566.000000	0.296964
1567.000000	0.297035
1568.000000	0.297037
1569.000000	0.297052
1570.000000	0.297034
1571.000000	0.296970
1572.000000	0.296914
1573.000000	0.296864
1574.000000	0.296790
1575.000000	0.296729
1576.000000	0.296654
1577.000000	0.296523
1578.000000	0.296412
1579.000000	0.296371
1580.000000	0.296271
1581.000000	0.296218
1582.000000	0.296139
1583.000000	0.296018
1584.000000	0.295874
1585.000000	0.295793
1586.000000	0.295701
1587.000000	0.295578
1588.000000	0.295466
1589.000000	0.295369
1590.000000	0.295288
1591.000000	0.295235
1592.000000	0.295187
1593.000000	0.295207
1594.000000	0.295144
1595.000000	0.295073
1596.000000	0.295024
1597.000000	0.294994
1598.000000	0.294927
1599.000000	0.294898
1600.000000	0.294798
1601.000000	0.294693
1602.000000	0.294607
1603.000000	0.294544
1604.000000	0.294458
1605.000000	0.294386
1606.000000	0.294313
1607.000000	0.294289
1608.000000	0.294222
1609.000000	0.294170
1610.000000	0.294127
1611.000000	0.294084
1612.000000	0.294062
1613.000000	0.294195
1614.000000	0.294205
1615.000000	0.294201
1616.000000	0.294240
1617.000000	0.294205
1618.000000	0.294195
1619.000000	0.294208
1620.000000	0.294209
1621.000000	0.294194
1622.000000	0.294300
1623.000000	0.294441
1624.000000	0.294558
1625.000000	0.294604
1626.000000	0.294649
1627.000000	0.294686
1628.000000	0.294802
1629.000000	0.294946
1630.000000	0.295118
1631.000000	0.295281
1632.000000	0.295404
1633.000000	0.295531
1634.000000	0.295678
1635.000000	0.295839
1636.000000	0.296013
1637.000000	0.296234
1638.000000	0.296420
1639.000000	0.296644
1640.000000	0.296855
1641.000000	0.297133
1642.000000	0.297359
1643.000000	0.297596
1644.000000	0.297815
1645.000000	0.297990
1646.000000	0.298155
1647.000000	0.298350
1648.000000	0.298511
1649.000000	0.298709
1650.000000	0.298967
1651.000000	0.299292
1652.000000	0.299586
1653.000000	0.299839
1654.000000	0.300171
1655.000000	0.300488
1656.000000	0.300701
1657.000000	0.301010
1658.000000	0.301231
1659.000000	0.301426
1660.000000	0.301670
1661.000000	0.301869
1662.000000	0.302056
1663.000000	0.302164
1664.000000	0.302372
1665.000000	0.302626
1666.000000	0.302918
1667.000000	0.303201
1668.000000	0.303447
1669.000000	0.303653
1670.000000	0.303836
1671.000000	0.304088
1672.000000	0.304401
1673.000000	0.304706
1674.000000	0.305003
1675.000000	0.305336
1676.000000	0.305548
1677.000000	0.305711
1678.000000	0.305851
1679.000000	0.306000
1680.000000	0.306120
1681.000000	0.306258
1682.000000	0.306498
1683.000000	0.306740
1684.000000	0.306934
1685.000000	0.307178
1686.000000	0.307311
1687.000000	0.307432
1688.000000	0.307598
1689.000000	0.307742
1690.000000	0.307867
1691.000000	0.308086
1692.000000	0.308249
1693.000000	0.308439
1694.000000	0.308651
1695.000000	0.308863
1696.000000	0.309069
1697.000000	0.309238
1698.000000	0.309456
1699.000000	0.309688
1700.000000	0.309894
1701.000000	0.310212
1702.000000	0.310442
1703.000000	0.310631
1704.000000	0.310907
1705.000000	0.311171
1706.000000	0.311459
1707.000000	0.311720
1708.000000	0.311969
1709.000000	0.312147
1710.000000	0.312356
1711.000000	0.312559
1712.000000	0.312748
1713.000000	0.312939
1714.000000	0.313158
1715.000000	0.313388
1716.000000	0.313663
1717.000000	0.313889
1718.000000	0.314056
1719.000000	0.314238
1720.000000	0.314467
1721.000000	0.314655
1722.000000	0.314841
1723.000000	0.315022
1724.000000	0.315166
1725.000000	0.315400
1726.000000	0.315611
1727.000000	0.315817
1728.000000	0.316010
1729.000000	0.316124
1730.000000	0.316292
1731.000000	0.316492
1732.000000	0.316706
1733.000000	0.316975
1734.000000	0.317159
1735.000000	0.317389
1736.000000	0.317603
1737.000000	0.317838
1738.000000	0.318120
1739.000000	0.318405
1740.000000	0.318705
1741.000000	0.318921
1742.000000	0.319114
1743.000000	0.319406
1744.000000	0.319663
1745.000000	0.319905
1746.000000	0.320214
1747.000000	0.320402
1748.000000	0.320558
1749.000000	0.320714
1750.000000	0.320873
1751.000000	0.321130
1752.000000	0.321474
1753.000000	0.321750
1754.000000	0.322045
1755.000000	0.322364
1756.000000	0.322597
1757.000000	0.322765
1758.000000	0.322994
1759.000000	0.323150
1760.000000	0.323371
1761.000000	0.323701
1762.000000	0.323893
1763.000000	0.324020
1764.000000	0.324190
1765.000000	0.324222
1766.000000	0.324405
1767.000000	0.324675
1768.000000	0.324809
1769.000000	0.325018
1770.000000	0.325242
1771.000000	0.325341
1772.000000	0.325512
1773.000000	0.325678
1774.000000	0.325905
1775.000000	0.326241
1776.000000	0.326511
1777.000000	0.326784
1778.000000	0.327025
1779.000000	0.327190
1780.000000	0.327403
1781.000000	0.327594
1782.000000	0.327829
1783.000000	0.328126
1784.000000	0.328452
1785.000000	0.328679
1786.000000	0.328896
1787.000000	0.329250
1788.000000	0.329641
1789.000000	0.329977
1790.000000	0.330367
1791.000000	0.330634
1792.000000	0.330867
1793.000000	0.331139
1794.000000	0.331389
1795.000000	0.331689
1796.000000	0.332060
1797.000000	0.332381
1798.000000	0.332702
1799.000000	0.332952
1800.000000	0.333178
1801.000000	0.332677
1802.000000	0.333082
1803.000000	0.333073
1804.000000	0.333438
1805.000000	0.334088
1806.000000	0.334245
1807.000000	0.334037
1808.000000	0.334192
1809.000000	0.334389
1810.000000	0.334202
1811.000000	0.334268
1812.000000	0.334801
1813.000000	0.334941
1814.000000	0.334692
1815.000000	0.334842
1816.000000	0.335188
1817.000000	0.335328
1818.000000	0.335553
1819.000000	0.335956
1820.000000	0.336029
1821.000000	0.336060
1822.000000	0.336283
1823.000000	0.336563
1824.000000	0.336616
1825.000000	0.336619
1826.000000	0.336740
1827.000000	0.336713
1828.000000	0.336551
1829.000000	0.336542
1830.000000	0.336329
1831.000000	0.336183
1832.000000	0.335760
1833.000000	0.335706
1834.000000	0.336034
1835.000000	0.336058
1836.000000	0.335878
1837.000000	0.335891
1838.000000	0.335974
1839.000000	0.335624
1840.000000	0.335266
1841.000000	0.335025
1842.000000	0.334647
1843.000000	0.333751
1844.000000	0.333447
1845.000000	0.333305
1846.000000	0.333264
1847.000000	0.333342
1848.000000	0.333418
1849.000000	0.333326
1850.000000	0.332939
1851.000000	0.332582
1852.000000	0.331879
1853.000000	0.331397
1854.000000	0.330963
1855.000000	0.330195
1856.000000	0.329125
1857.000000	0.328110
1858.000000	0.327072
1859.000000	0.325984
1860.000000	0.324958
1861.000000	0.324195
1862.000000	0.323079
1863.000000	0.321803
1864.000000	0.320571
1865.000000	0.319226
1866.000000	0.317815
1867.000000	0.316264
1868.000000	0.314976
1869.000000	0.313282
1870.000000	0.311293
1871.000000	0.309404
1872.000000	0.307402
1873.000000	0.305540
1874.000000	0.303917
1875.000000	0.302130
1876.000000	0.300227
1877.000000	0.297718
1878.000000	0.295324
1879.000000	0.292680
1880.000000	0.289861
1881.000000	0.287219
1882.000000	0.284301
1883.000000	0.281197
1884.000000	0.278219
1885.000000	0.275059
1886.000000	0.271781
1887.000000	0.268480
1888.000000	0.264905
1889.000000	0.261282
1890.000000	0.257940
1891.000000	0.254613
1892.000000	0.251409
1893.000000	0.247875
1894.000000	0.244063
1895.000000	0.240118
1896.000000	0.236138
1897.000000	0.231821
1898.000000	0.227434
1899.000000	0.223364
1900.000000	0.219181
1901.000000	0.214996
1902.000000	0.211118
1903.000000	0.207197
1904.000000	0.203391
1905.000000	0.199690
1906.000000	0.195773
1907.000000	0.191720
1908.000000	0.187913
1909.000000	0.184291
1910.000000	0.180645
1911.000000	0.177270
1912.000000	0.173865
1913.000000	0.170445
1914.000000	0.167242
1915.000000	0.164287
1916.000000	0.161521
1917.000000	0.158759
1918.000000	0.156153
1919.000000	0.153615
1920.000000	0.151010
1921.000000	0.148558
1922.000000	0.146388
1923.000000	0.144457
1924.000000	0.142610
1925.000000	0.140968
1926.000000	0.139444
1927.000000	0.137967
1928.000000	0.136531
1929.000000	0.135228
1930.000000	0.134016
1931.000000	0.133054
1932.000000	0.132205
1933.000000	0.131557
1934.000000	0.130892
1935.000000	0.130018
1936.000000	0.129125
1937.000000	0.128401
1938.000000	0.127911
1939.000000	0.127394
1940.000000	0.127012
1941.000000	0.126686
1942.000000	0.126191
1943.000000	0.125524
1944.000000	0.124937
1945.000000	0.124450
1946.000000	0.124175
1947.000000	0.124018
1948.000000	0.123837
1949.000000	0.123570
1950.000000	0.123231
1951.000000	0.122908
1952.000000	0.122601
1953.000000	0.122317
1954.000000	0.121980
1955.000000	0.121828
1956.000000	0.121712
1957.000000	0.121521
1958.000000	0.121617
1959.000000	0.121547
1960.000000	0.121239
1961.000000	0.121170
1962.000000	0.121063
1963.000000	0.120947
1964.000000	0.120866
1965.000000	0.120875
1966.000000	0.120809
1967.000000	0.120646
1968.000000	0.120453
1969.000000	0.120417
1970.000000	0.120412
1971.000000	0.120426
1972.000000	0.120599
1973.000000	0.120638
1974.000000	0.120548
1975.000000	0.120671
1976.000000	0.120931
1977.000000	0.121095
1978.000000	0.121346
1979.000000	0.121769
1980.000000	0.121916
1981.000000	0.122113
1982.000000	0.122484
1983.000000	0.122798
1984.000000	0.123184
1985.000000	0.123840
1986.000000	0.124251
1987.000000	0.124567
1988.000000	0.124985
1989.000000	0.125346
1990.000000	0.125514
1991.000000	0.125849
1992.000000	0.126127
1993.000000	0.126493
1994.000000	0.127184
1995.000000	0.127817
1996.000000	0.128403
1997.000000	0.128937
1998.000000	0.129363
1999.000000	0.129856
2000.000000	0.130298
2001.000000	0.130839
2002.000000	0.131690
2003.000000	0.132512
2004.000000	0.133231
2005.000000	0.134089
2006.000000	0.134899
2007.000000	0.135691
2008.000000	0.136445
2009.000000	0.137241
2010.000000	0.138060
2011.000000	0.138627
2012.000000	0.139454
2013.000000	0.140486
2014.000000	0.141415
2015.000000	0.142380
2016.000000	0.143240
2017.000000	0.143952
2018.000000	0.144793
2019.000000	0.145619
2020.000000	0.146543
2021.000000	0.147499
2022.000000	0.148543
2023.000000	0.149453
2024.000000	0.150323
2025.000000	0.151264
2026.000000	0.152077
2027.000000	0.152997
2028.000000	0.153975
2029.000000	0.155064
2030.000000	0.155933
2031.000000	0.156771
2032.000000	0.157737
2033.000000	0.158644
2034.000000	0.159540
2035.000000	0.160566
2036.000000	0.161449
2037.000000	0.162291
2038.000000	0.163156
2039.000000	0.164028
2040.000000	0.165007
2041.000000	0.165929
2042.000000	0.166751
2043.000000	0.167479
2044.000000	0.168246
2045.000000	0.168785
2046.000000	0.169317
2047.000000	0.169939
2048.000000	0.170470
2049.000000	0.171220
2050.000000	0.171874
2051.000000	0.172648
2052.000000	0.173628
2053.000000	0.174340
2054.000000	0.175174
2055.000000	0.175959
2056.000000	0.176390
2057.000000	0.177023
2058.000000	0.177619
2059.000000	0.178329
2060.000000	0.179160
2061.000000	0.180274
2062.000000	0.181053
2063.000000	0.181823
2064.000000	0.182499
2065.000000	0.183025
2066.000000	0.183694
2067.000000	0.184571
2068.000000	0.185530
2069.000000	0.186515
2070.000000	0.187727
2071.000000	0.188911
2072.000000	0.189968
2073.000000	0.190983
2074.000000	0.191964
2075.000000	0.192846
2076.000000	0.193593
2077.000000	0.194419
2078.000000	0.195147
2079.000000	0.195927
2080.000000	0.196700
2081.000000	0.197650
2082.000000	0.198722
2083.000000	0.199839
2084.000000	0.200984
2085.000000	0.202067
2086.000000	0.202984
2087.000000	0.203820
2088.000000	0.204655
2089.000000	0.205505
2090.000000	0.206466
2091.000000	0.207544
2092.000000	0.208571
2093.000000	0.209785
2094.000000	0.210798
2095.000000	0.211665
2096.000000	0.212653
2097.000000	0.213602
2098.000000	0.214436
2099.000000	0.215499
2100.000000	0.216344
2101.000000	0.217192
2102.000000	0.218048
2103.000000	0.218704
2104.000000	0.219662
2105.000000	0.220466
2106.000000	0.221155
2107.000000	0.222046
2108.000000	0.222972
2109.000000	0.223900
2110.000000	0.224866
2111.000000	0.225763
2112.000000	0.226548
2113.000000	0.227229
2114.000000	0.228072
2115.000000	0.228882
2116.000000	0.229476
2117.000000	0.229904
2118.000000	0.230322
2119.000000	0.230968
2120.000000	0.231783
2121.000000	0.233063
2122.000000	0.233885
2123.000000	0.234675
2124.000000	0.235230
2125.000000	0.235306
2126.000000	0.235719
2127.000000	0.236118
2128.000000	0.236831
2129.000000	0.237716
2130.000000	0.238812
2131.000000	0.239650
2132.000000	0.240315
2133.000000	0.240913
2134.000000	0.241011
2135.000000	0.240925
2136.000000	0.240999
2137.000000	0.241165
2138.000000	0.241212
2139.000000	0.241559
2140.000000	0.242229
2141.000000	0.242746
2142.000000	0.243340
2143.000000	0.243726
2144.000000	0.244262
2145.000000	0.244788
2146.000000	0.245429
2147.000000	0.245923
2148.000000	0.246169
2149.000000	0.246420
2150.000000	0.246717
2151.000000	0.247037
2152.000000	0.247437
2153.000000	0.247689
2154.000000	0.247995
2155.000000	0.248114
2156.000000	0.248527
2157.000000	0.249365
2158.000000	0.249726
2159.000000	0.250034
2160.000000	0.250294
2161.000000	0.250123
2162.000000	0.250365
2163.000000	0.250800
2164.000000	0.250975
2165.000000	0.251160
2166.000000	0.251305
2167.000000	0.251233
2168.000000	0.251284
2169.000000	0.251502
2170.000000	0.251724
2171.000000	0.252050
2172.000000	0.252539
2173.000000	0.252934
2174.000000	0.253446
2175.000000	0.253746
2176.000000	0.253882
2177.000000	0.254170
2178.000000	0.254574
2179.000000	0.254843
2180.000000	0.254939
2181.000000	0.255398
2182.000000	0.255603
2183.000000	0.255453
2184.000000	0.255742
2185.000000	0.255617
2186.000000	0.254781
2187.000000	0.254741
2188.000000	0.254386
2189.000000	0.254108
2190.000000	0.254447
2191.000000	0.254921
2192.000000	0.255268
2193.000000	0.255853
2194.000000	0.256190
2195.000000	0.256429
2196.000000	0.256504
2197.000000	0.256146
2198.000000	0.256384
2199.000000	0.256894
2200.000000	0.257434
2201.000000	0.258635
2202.000000	0.259433
2203.000000	0.260061
2204.000000	0.259804
2205.000000	0.259904
2206.000000	0.260210
2207.000000	0.259679
2208.000000	0.260326
2209.000000	0.260675
2210.000000	0.261053
2211.000000	0.261812
2212.000000	0.262281
2213.000000	0.262419
2214.000000	0.261955
2215.000000	0.261830
2216.000000	0.261513
2217.000000	0.261637
2218.000000	0.261986
2219.000000	0.262610
2220.000000	0.263800
2221.000000	0.264433
2222.000000	0.265036
2223.000000	0.265576
2224.000000	0.265907
2225.000000	0.266049
2226.000000	0.266105
2227.000000	0.265527
2228.000000	0.265301
2229.000000	0.264884
2230.000000	0.264638
2231.000000	0.265169
2232.000000	0.265107
2233.000000	0.264875
2234.000000	0.264834
2235.000000	0.265455
2236.000000	0.265378
2237.000000	0.264914
2238.000000	0.264896
2239.000000	0.264352
2240.000000	0.264470
2241.000000	0.265970
2242.000000	0.266174
2243.000000	0.265907
2244.000000	0.265703
2245.000000	0.264559
2246.000000	0.264115
2247.000000	0.263861
2248.000000	0.263909
2249.000000	0.264812
2250.000000	0.264734
2251.000000	0.264377
2252.000000	0.264323
2253.000000	0.263290
2254.000000	0.262330
2255.000000	0.262726
2256.000000	0.262999
2257.000000	0.263541
2258.000000	0.264620
2259.000000	0.264270
2260.000000	0.263988
2261.000000	0.263237
2262.000000	0.261613
2263.000000	0.260567
2264.000000	0.258967
2265.000000	0.258648
2266.000000	0.259770
2267.000000	0.259686
2268.000000	0.259919
2269.000000	0.259965
2270.000000	0.258786
2271.000000	0.258426
2272.000000	0.258967
2273.000000	0.258703
2274.000000	0.258252
2275.000000	0.257582
2276.000000	0.256427
2277.000000	0.255181
2278.000000	0.254731
2279.000000	0.254364
2280.000000	0.254582
2281.000000	0.255114
2282.000000	0.254619
2283.000000	0.254399
2284.000000	0.253441
2285.000000	0.251891
2286.000000	0.251241
2287.000000	0.250109
2288.000000	0.249407
2289.000000	0.249330
2290.000000	0.248388
2291.000000	0.247647
2292.000000	0.246998
2293.000000	0.245492
2294.000000	0.243990
2295.000000	0.242132
2296.000000	0.240891
2297.000000	0.239406
2298.000000	0.238435
2299.000000	0.238362
2300.000000	0.237805
2301.000000	0.236975
2302.000000	0.236390
2303.000000	0.235992
2304.000000	0.235225
2305.000000	0.234700
2306.000000	0.233892
2307.000000	0.232566
2308.000000	0.231376
2309.000000	0.230763
2310.000000	0.229403
2311.000000	0.228600
2312.000000	0.227782
2313.000000	0.226352
2314.000000	0.225360
2315.000000	0.224648
2316.000000	0.224467
2317.000000	0.224252
2318.000000	0.223671
2319.000000	0.222858
2320.000000	0.221146
2321.000000	0.219791
2322.000000	0.218193
2323.000000	0.216177
2324.000000	0.214970
2325.000000	0.212874
2326.000000	0.211234
2327.000000	0.210293
2328.000000	0.208443
2329.000000	0.207932
2330.000000	0.207449
2331.000000	0.206137
2332.000000	0.205494
2333.000000	0.204614
2334.000000	0.203385
2335.000000	0.202381
2336.000000	0.201084
2337.000000	0.199794
2338.000000	0.198753
2339.000000	0.197223
2340.000000	0.195212
2341.000000	0.193969
2342.000000	0.192612
2343.000000	0.191134
2344.000000	0.190441
2345.000000	0.189077
2346.000000	0.187045
2347.000000	0.185478
2348.000000	0.184032
2349.000000	0.182295
2350.000000	0.180960
2351.000000	0.179989
2352.000000	0.179239
2353.000000	0.179000
2354.000000	0.177843
2355.000000	0.176425
2356.000000	0.174231
2357.000000	0.171334
2358.000000	0.169576
2359.000000	0.167724
2360.000000	0.166721
2361.000000	0.166649
2362.000000	0.166280
2363.000000	0.165949
2364.000000	0.165005
2365.000000	0.164126
2366.000000	0.162558
2367.000000	0.161202
2368.000000	0.160384
2369.000000	0.159356
2370.000000	0.159615
2371.000000	0.160093
2372.000000	0.159989
2373.000000	0.159239
2374.000000	0.156868
2375.000000	0.154753
2376.000000	0.152669
2377.000000	0.150842
2378.000000	0.150116
2379.000000	0.149223
2380.000000	0.148043
2381.000000	0.147121
2382.000000	0.146492
2383.000000	0.145004
2384.000000	0.144987
2385.000000	0.144667
2386.000000	0.143180
2387.000000	0.143226
2388.000000	0.143135
2389.000000	0.141977
2390.000000	0.140706
2391.000000	0.139016
2392.000000	0.134805
2393.000000	0.133455
2394.000000	0.135546
2395.000000	0.137578
2396.000000	0.141292
2397.000000	0.142614
2398.000000	0.140723
2399.000000	0.136798
2400.000000	0.131991
2401.000000	0.129804
2402.000000	0.129686
2403.000000	0.128971
2404.000000	0.127236
2405.000000	0.124419
2406.000000	0.121100
2407.000000	0.121017
2408.000000	0.123088
2409.000000	0.127776
2410.000000	0.132928
2411.000000	0.134168
2412.000000	0.134002
2413.000000	0.131332
2414.000000	0.127675
2415.000000	0.126473
2416.000000	0.126532
2417.000000	0.125317
2418.000000	0.124400
2419.000000	0.124350
2420.000000	0.122592
2421.000000	0.121347
2422.000000	0.120729
2423.000000	0.117508
2424.000000	0.114698
2425.000000	0.115550
2426.000000	0.119852
2427.000000	0.127864
2428.000000	0.134083
2429.000000	0.137670
2430.000000	0.137808
2431.000000	0.131798
2432.000000	0.128106
2433.000000	0.125244
2434.000000	0.124239
2435.000000	0.126745
2436.000000	0.124983
2437.000000	0.123295
2438.000000	0.120087
2439.000000	0.115643
2440.000000	0.114405
2441.000000	0.113702
2442.000000	0.115732
2443.000000	0.115485
2444.000000	0.114997
2445.000000	0.115467
2446.000000	0.114319
2447.000000	0.115031
2448.000000	0.113220
2449.000000	0.111688
2450.000000	0.109951
2451.000000	0.107705
2452.000000	0.109579
2453.000000	0.112048
2454.000000	0.113622
2455.000000	0.115649
2456.000000	0.114903
2457.000000	0.113607
2458.000000	0.115285
2459.000000	0.117189
2460.000000	0.125490
2461.000000	0.131197
2462.000000	0.132888
2463.000000	0.133908
2464.000000	0.122530
2465.000000	0.109279
2466.000000	0.101711
2467.000000	0.097315
2468.000000	0.093177
2469.000000	0.093817
2470.000000	0.093281
2471.000000	0.090686
2472.000000	0.101655
2473.000000	0.113520
2474.000000	0.125239
2475.000000	0.136867
2476.000000	0.138615
2477.000000	0.131834
2478.000000	0.126825
2479.000000	0.124646
2480.000000	0.118473
2481.000000	0.129131
2482.000000	0.135884
2483.000000	0.135166
2484.000000	0.139079
2485.000000	0.129239
2486.000000	0.131479
2487.000000	0.138063
2488.000000	0.135053
2489.000000	0.132337
2490.000000	0.116615
2491.000000	0.093932
2492.000000	0.081188
2493.000000	0.076603
2494.000000	0.073696
2495.000000	0.077028
2496.000000	0.075891
2497.000000	0.070015
2498.000000	0.070578
2499.000000	0.080051
2500.000000	0.079590
