# Wavelength	Hexaidrite_00001.asd.rts.txt
350.000000	0.765556
351.000000	0.772453
352.000000	0.769295
353.000000	0.766456
354.000000	0.773269
355.000000	0.771138
356.000000	0.769929
357.000000	0.773541
358.000000	0.769516
359.000000	0.766297
360.000000	0.764443
361.000000	0.762165
362.000000	0.765167
363.000000	0.767576
364.000000	0.765438
365.000000	0.768323
366.000000	0.768250
367.000000	0.764367
368.000000	0.763753
369.000000	0.765644
370.000000	0.767770
371.000000	0.767555
372.000000	0.765736
373.000000	0.764448
374.000000	0.765970
375.000000	0.767050
376.000000	0.766350
377.000000	0.764944
378.000000	0.767427
379.000000	0.768322
380.000000	0.767593
381.000000	0.769213
382.000000	0.770161
383.000000	0.769281
384.000000	0.767497
385.000000	0.767399
386.000000	0.768951
387.000000	0.770885
388.000000	0.769171
389.000000	0.767807
390.000000	0.768043
391.000000	0.769101
392.000000	0.769120
393.000000	0.768804
394.000000	0.768951
395.000000	0.769468
396.000000	0.769919
397.000000	0.770046
398.000000	0.770170
399.000000	0.770031
400.000000	0.770057
401.000000	0.770483
402.000000	0.770550
403.000000	0.770629
404.000000	0.771336
405.000000	0.771059
406.000000	0.771057
407.000000	0.771718
408.000000	0.771386
409.000000	0.771038
410.000000	0.771055
411.000000	0.771422
412.000000	0.771519
413.000000	0.771640
414.000000	0.772132
415.000000	0.771808
416.000000	0.771706
417.000000	0.772285
418.000000	0.772459
419.000000	0.772387
420.000000	0.772321
421.000000	0.772615
422.000000	0.772992
423.000000	0.773144
424.000000	0.773062
425.000000	0.773147
426.000000	0.773182
427.000000	0.772986
428.000000	0.772927
429.000000	0.773180
430.000000	0.773609
431.000000	0.773574
432.000000	0.773633
433.000000	0.773692
434.000000	0.773714
435.000000	0.773524
436.000000	0.773377
437.000000	0.773471
438.000000	0.773773
439.000000	0.773778
440.000000	0.773649
441.000000	0.773852
442.000000	0.773965
443.000000	0.773844
444.000000	0.774039
445.000000	0.774020
446.000000	0.774166
447.000000	0.774439
448.000000	0.774540
449.000000	0.774552
450.000000	0.774576
451.000000	0.774467
452.000000	0.774487
453.000000	0.774526
454.000000	0.774744
455.000000	0.774800
456.000000	0.774930
457.000000	0.775039
458.000000	0.775098
459.000000	0.775077
460.000000	0.775080
461.000000	0.774890
462.000000	0.774972
463.000000	0.775066
464.000000	0.775189
465.000000	0.775358
466.000000	0.775375
467.000000	0.775306
468.000000	0.775380
469.000000	0.775305
470.000000	0.775245
471.000000	0.775455
472.000000	0.775529
473.000000	0.775380
474.000000	0.775602
475.000000	0.775492
476.000000	0.775372
477.000000	0.775650
478.000000	0.775503
479.000000	0.775536
480.000000	0.775810
481.000000	0.775635
482.000000	0.775690
483.000000	0.775929
484.000000	0.776055
485.000000	0.775862
486.000000	0.775801
487.000000	0.775718
488.000000	0.775740
489.000000	0.775885
490.000000	0.776018
491.000000	0.775954
492.000000	0.775929
493.000000	0.775856
494.000000	0.775775
495.000000	0.775771
496.000000	0.775759
497.000000	0.775725
498.000000	0.775604
499.000000	0.775586
500.000000	0.775611
501.000000	0.775611
502.000000	0.775652
503.000000	0.775602
504.000000	0.775615
505.000000	0.775645
506.000000	0.775633
507.000000	0.775544
508.000000	0.775558
509.000000	0.775626
510.000000	0.775651
511.000000	0.775613
512.000000	0.775583
513.000000	0.775547
514.000000	0.775512
515.000000	0.775539
516.000000	0.775509
517.000000	0.775376
518.000000	0.775385
519.000000	0.775442
520.000000	0.775401
521.000000	0.775324
522.000000	0.775259
523.000000	0.775186
524.000000	0.775128
525.000000	0.775063
526.000000	0.775078
527.000000	0.775089
528.000000	0.775033
529.000000	0.775004
530.000000	0.774869
531.000000	0.774855
532.000000	0.774849
533.000000	0.774853
534.000000	0.774889
535.000000	0.774923
536.000000	0.774977
537.000000	0.774993
538.000000	0.774962
539.000000	0.774868
540.000000	0.774824
541.000000	0.774795
542.000000	0.774818
543.000000	0.774800
544.000000	0.774850
545.000000	0.774827
546.000000	0.774787
547.000000	0.774763
548.000000	0.774814
549.000000	0.774754
550.000000	0.774748
551.000000	0.774798
552.000000	0.774736
553.000000	0.774723
554.000000	0.774724
555.000000	0.774736
556.000000	0.774865
557.000000	0.774816
558.000000	0.774816
559.000000	0.774760
560.000000	0.774664
561.000000	0.774681
562.000000	0.774612
563.000000	0.774469
564.000000	0.774409
565.000000	0.774295
566.000000	0.774236
567.000000	0.774260
568.000000	0.774278
569.000000	0.774163
570.000000	0.774084
571.000000	0.774068
572.000000	0.774094
573.000000	0.774026
574.000000	0.773875
575.000000	0.773857
576.000000	0.773853
577.000000	0.773774
578.000000	0.773737
579.000000	0.773729
580.000000	0.773712
581.000000	0.773673
582.000000	0.773650
583.000000	0.773590
584.000000	0.773537
585.000000	0.773590
586.000000	0.773569
587.000000	0.773520
588.000000	0.773538
589.000000	0.773626
590.000000	0.773704
591.000000	0.773735
592.000000	0.773796
593.000000	0.773901
594.000000	0.773994
595.000000	0.773951
596.000000	0.773894
597.000000	0.773920
598.000000	0.773856
599.000000	0.773681
600.000000	0.773604
601.000000	0.773592
602.000000	0.773647
603.000000	0.773695
604.000000	0.773745
605.000000	0.773869
606.000000	0.773985
607.000000	0.774077
608.000000	0.774159
609.000000	0.774244
610.000000	0.774350
611.000000	0.774476
612.000000	0.774521
613.000000	0.774487
614.000000	0.774487
615.000000	0.774512
616.000000	0.774479
617.000000	0.774296
618.000000	0.774106
619.000000	0.774016
620.000000	0.773878
621.000000	0.773609
622.000000	0.773221
623.000000	0.772790
624.000000	0.772424
625.000000	0.772356
626.000000	0.772337
627.000000	0.772256
628.000000	0.772205
629.000000	0.772350
630.000000	0.772326
631.000000	0.772202
632.000000	0.772023
633.000000	0.771933
634.000000	0.772007
635.000000	0.772137
636.000000	0.772394
637.000000	0.772746
638.000000	0.773109
639.000000	0.773446
640.000000	0.773806
641.000000	0.773895
642.000000	0.774019
643.000000	0.774190
644.000000	0.774335
645.000000	0.774404
646.000000	0.774423
647.000000	0.774373
648.000000	0.774381
649.000000	0.774422
650.000000	0.774435
651.000000	0.774467
652.000000	0.774395
653.000000	0.774332
654.000000	0.774282
655.000000	0.774283
656.000000	0.774335
657.000000	0.774290
658.000000	0.774253
659.000000	0.774229
660.000000	0.774180
661.000000	0.774124
662.000000	0.774023
663.000000	0.774010
664.000000	0.774050
665.000000	0.774102
666.000000	0.774112
667.000000	0.773990
668.000000	0.773983
669.000000	0.774009
670.000000	0.774020
671.000000	0.774031
672.000000	0.774088
673.000000	0.774154
674.000000	0.774179
675.000000	0.774138
676.000000	0.774080
677.000000	0.774109
678.000000	0.774141
679.000000	0.774158
680.000000	0.774183
681.000000	0.774220
682.000000	0.774380
683.000000	0.774499
684.000000	0.774695
685.000000	0.774825
686.000000	0.774957
687.000000	0.775089
688.000000	0.775212
689.000000	0.775323
690.000000	0.775490
691.000000	0.775625
692.000000	0.775651
693.000000	0.775748
694.000000	0.775966
695.000000	0.776193
696.000000	0.776400
697.000000	0.776601
698.000000	0.776817
699.000000	0.777043
700.000000	0.777269
701.000000	0.777377
702.000000	0.777571
703.000000	0.777813
704.000000	0.777864
705.000000	0.777984
706.000000	0.778121
707.000000	0.778332
708.000000	0.778571
709.000000	0.778779
710.000000	0.778969
711.000000	0.779152
712.000000	0.779337
713.000000	0.779570
714.000000	0.779808
715.000000	0.779960
716.000000	0.780097
717.000000	0.780288
718.000000	0.780381
719.000000	0.780448
720.000000	0.780602
721.000000	0.780779
722.000000	0.780845
723.000000	0.780948
724.000000	0.781170
725.000000	0.781282
726.000000	0.781445
727.000000	0.781563
728.000000	0.781711
729.000000	0.781856
730.000000	0.781867
731.000000	0.781999
732.000000	0.782162
733.000000	0.782360
734.000000	0.782413
735.000000	0.782337
736.000000	0.782442
737.000000	0.782508
738.000000	0.782497
739.000000	0.782625
740.000000	0.782631
741.000000	0.782695
742.000000	0.782765
743.000000	0.782768
744.000000	0.782822
745.000000	0.782814
746.000000	0.782859
747.000000	0.782885
748.000000	0.782986
749.000000	0.783157
750.000000	0.783282
751.000000	0.783317
752.000000	0.783384
753.000000	0.783513
754.000000	0.783592
755.000000	0.783601
756.000000	0.783611
757.000000	0.783593
758.000000	0.783615
759.000000	0.783738
760.000000	0.783828
761.000000	0.784064
762.000000	0.784216
763.000000	0.784229
764.000000	0.784355
765.000000	0.784472
766.000000	0.784564
767.000000	0.784623
768.000000	0.784705
769.000000	0.784754
770.000000	0.784783
771.000000	0.784880
772.000000	0.785060
773.000000	0.785134
774.000000	0.785178
775.000000	0.785183
776.000000	0.785182
777.000000	0.785166
778.000000	0.785183
779.000000	0.785250
780.000000	0.785349
781.000000	0.785377
782.000000	0.785379
783.000000	0.785553
784.000000	0.785648
785.000000	0.785732
786.000000	0.785769
787.000000	0.785755
788.000000	0.785799
789.000000	0.785840
790.000000	0.785797
791.000000	0.785709
792.000000	0.785687
793.000000	0.785732
794.000000	0.785828
795.000000	0.785927
796.000000	0.785991
797.000000	0.786008
798.000000	0.786017
799.000000	0.786141
800.000000	0.786296
801.000000	0.786362
802.000000	0.786398
803.000000	0.786412
804.000000	0.786472
805.000000	0.786436
806.000000	0.786348
807.000000	0.786422
808.000000	0.786560
809.000000	0.786690
810.000000	0.786743
811.000000	0.786671
812.000000	0.786622
813.000000	0.786508
814.000000	0.786390
815.000000	0.786515
816.000000	0.786579
817.000000	0.786694
818.000000	0.786795
819.000000	0.786835
820.000000	0.786855
821.000000	0.786765
822.000000	0.786657
823.000000	0.786662
824.000000	0.786657
825.000000	0.786731
826.000000	0.786831
827.000000	0.786876
828.000000	0.786944
829.000000	0.787060
830.000000	0.786944
831.000000	0.786766
832.000000	0.786539
833.000000	0.786545
834.000000	0.786702
835.000000	0.786911
836.000000	0.786872
837.000000	0.786763
838.000000	0.786678
839.000000	0.786543
840.000000	0.786495
841.000000	0.786578
842.000000	0.786685
843.000000	0.786769
844.000000	0.786866
845.000000	0.786929
846.000000	0.787011
847.000000	0.787073
848.000000	0.787164
849.000000	0.787388
850.000000	0.787480
851.000000	0.787451
852.000000	0.787456
853.000000	0.787545
854.000000	0.787453
855.000000	0.787496
856.000000	0.787607
857.000000	0.787406
858.000000	0.787344
859.000000	0.787416
860.000000	0.787400
861.000000	0.787465
862.000000	0.787707
863.000000	0.787962
864.000000	0.788109
865.000000	0.788217
866.000000	0.788362
867.000000	0.788386
868.000000	0.788435
869.000000	0.788414
870.000000	0.788418
871.000000	0.788291
872.000000	0.788294
873.000000	0.788404
874.000000	0.788542
875.000000	0.788565
876.000000	0.788514
877.000000	0.788358
878.000000	0.788259
879.000000	0.788361
880.000000	0.788351
881.000000	0.788337
882.000000	0.788276
883.000000	0.788266
884.000000	0.788279
885.000000	0.788399
886.000000	0.788412
887.000000	0.788339
888.000000	0.788449
889.000000	0.788683
890.000000	0.788715
891.000000	0.788724
892.000000	0.788671
893.000000	0.788571
894.000000	0.788675
895.000000	0.788602
896.000000	0.788419
897.000000	0.788252
898.000000	0.788219
899.000000	0.788179
900.000000	0.788222
901.000000	0.788294
902.000000	0.788468
903.000000	0.788529
904.000000	0.788570
905.000000	0.788524
906.000000	0.788799
907.000000	0.788885
908.000000	0.788800
909.000000	0.788698
910.000000	0.788666
911.000000	0.788720
912.000000	0.788846
913.000000	0.788788
914.000000	0.788820
915.000000	0.789033
916.000000	0.788953
917.000000	0.788817
918.000000	0.788837
919.000000	0.789015
920.000000	0.789073
921.000000	0.789097
922.000000	0.789118
923.000000	0.789067
924.000000	0.788949
925.000000	0.788844
926.000000	0.788866
927.000000	0.788876
928.000000	0.788926
929.000000	0.788914
930.000000	0.788756
931.000000	0.788689
932.000000	0.788644
933.000000	0.788578
934.000000	0.788229
935.000000	0.787933
936.000000	0.787822
937.000000	0.787662
938.000000	0.787425
939.000000	0.787357
940.000000	0.787224
941.000000	0.786955
942.000000	0.786702
943.000000	0.786578
944.000000	0.786363
945.000000	0.786387
946.000000	0.786055
947.000000	0.785676
948.000000	0.785516
949.000000	0.785098
950.000000	0.784695
951.000000	0.784341
952.000000	0.784109
953.000000	0.783621
954.000000	0.783036
955.000000	0.782412
956.000000	0.782028
957.000000	0.781636
958.000000	0.781178
959.000000	0.780941
960.000000	0.780518
961.000000	0.779993
962.000000	0.779461
963.000000	0.779123
964.000000	0.778721
965.000000	0.778339
966.000000	0.777789
967.000000	0.777200
968.000000	0.776780
969.000000	0.776365
970.000000	0.775983
971.000000	0.775838
972.000000	0.775901
973.000000	0.775850
974.000000	0.775554
975.000000	0.775262
976.000000	0.775082
977.000000	0.774987
978.000000	0.774748
979.000000	0.774718
980.000000	0.774465
981.000000	0.774462
982.000000	0.774400
983.000000	0.774305
984.000000	0.774351
985.000000	0.774437
986.000000	0.774487
987.000000	0.774617
988.000000	0.774604
989.000000	0.774462
990.000000	0.774497
991.000000	0.774631
992.000000	0.774818
993.000000	0.775246
994.000000	0.775281
995.000000	0.775312
996.000000	0.775452
997.000000	0.775825
998.000000	0.776067
999.000000	0.776243
1000.000000	0.776473
1001.000000	0.776256
1002.000000	0.776184
1003.000000	0.776344
1004.000000	0.776368
1005.000000	0.776372
1006.000000	0.776223
1007.000000	0.776176
1008.000000	0.775885
1009.000000	0.775695
1010.000000	0.775717
1011.000000	0.776412
1012.000000	0.777167
1013.000000	0.777125
1014.000000	0.777272
1015.000000	0.777376
1016.000000	0.777448
1017.000000	0.777677
1018.000000	0.778470
1019.000000	0.779173
1020.000000	0.780419
1021.000000	0.780290
1022.000000	0.780101
1023.000000	0.780632
1024.000000	0.780428
1025.000000	0.780941
1026.000000	0.781881
1027.000000	0.781925
1028.000000	0.782014
1029.000000	0.782420
1030.000000	0.782583
1031.000000	0.782881
1032.000000	0.783363
1033.000000	0.783657
1034.000000	0.784066
1035.000000	0.784681
1036.000000	0.785252
1037.000000	0.786002
1038.000000	0.786182
1039.000000	0.786283
1040.000000	0.786738
1041.000000	0.786872
1042.000000	0.786942
1043.000000	0.787670
1044.000000	0.788410
1045.000000	0.788635
1046.000000	0.788708
1047.000000	0.789123
1048.000000	0.789355
1049.000000	0.789543
1050.000000	0.790126
1051.000000	0.790398
1052.000000	0.790080
1053.000000	0.790029
1054.000000	0.790638
1055.000000	0.791048
1056.000000	0.791454
1057.000000	0.792018
1058.000000	0.792164
1059.000000	0.791704
1060.000000	0.791825
1061.000000	0.792222
1062.000000	0.792518
1063.000000	0.793217
1064.000000	0.793585
1065.000000	0.793486
1066.000000	0.793656
1067.000000	0.793840
1068.000000	0.793905
1069.000000	0.793855
1070.000000	0.793814
1071.000000	0.793845
1072.000000	0.793882
1073.000000	0.793957
1074.000000	0.794263
1075.000000	0.794490
1076.000000	0.794634
1077.000000	0.794511
1078.000000	0.794242
1079.000000	0.794088
1080.000000	0.793864
1081.000000	0.793725
1082.000000	0.793988
1083.000000	0.794008
1084.000000	0.794016
1085.000000	0.794053
1086.000000	0.794003
1087.000000	0.793993
1088.000000	0.793724
1089.000000	0.793553
1090.000000	0.793473
1091.000000	0.793110
1092.000000	0.792773
1093.000000	0.792920
1094.000000	0.792722
1095.000000	0.792161
1096.000000	0.792086
1097.000000	0.792237
1098.000000	0.792189
1099.000000	0.792157
1100.000000	0.792188
1101.000000	0.791974
1102.000000	0.791770
1103.000000	0.791641
1104.000000	0.791514
1105.000000	0.791299
1106.000000	0.791050
1107.000000	0.790614
1108.000000	0.790267
1109.000000	0.789998
1110.000000	0.789766
1111.000000	0.789638
1112.000000	0.789742
1113.000000	0.789687
1114.000000	0.789693
1115.000000	0.789511
1116.000000	0.789200
1117.000000	0.788971
1118.000000	0.788662
1119.000000	0.788235
1120.000000	0.787825
1121.000000	0.787392
1122.000000	0.786990
1123.000000	0.787075
1124.000000	0.786897
1125.000000	0.786741
1126.000000	0.786531
1127.000000	0.786185
1128.000000	0.785750
1129.000000	0.785264
1130.000000	0.784913
1131.000000	0.784723
1132.000000	0.784104
1133.000000	0.783428
1134.000000	0.782914
1135.000000	0.782139
1136.000000	0.781366
1137.000000	0.780854
1138.000000	0.779955
1139.000000	0.778857
1140.000000	0.778062
1141.000000	0.777300
1142.000000	0.776370
1143.000000	0.775287
1144.000000	0.774407
1145.000000	0.773106
1146.000000	0.771610
1147.000000	0.770170
1148.000000	0.768454
1149.000000	0.767005
1150.000000	0.765645
1151.000000	0.764282
1152.000000	0.762939
1153.000000	0.761540
1154.000000	0.760000
1155.000000	0.758412
1156.000000	0.756733
1157.000000	0.755204
1158.000000	0.753558
1159.000000	0.751990
1160.000000	0.750461
1161.000000	0.749007
1162.000000	0.747682
1163.000000	0.746672
1164.000000	0.745469
1165.000000	0.744340
1166.000000	0.743367
1167.000000	0.742331
1168.000000	0.741295
1169.000000	0.740423
1170.000000	0.739641
1171.000000	0.738940
1172.000000	0.738316
1173.000000	0.737787
1174.000000	0.737199
1175.000000	0.736539
1176.000000	0.735791
1177.000000	0.735209
1178.000000	0.734583
1179.000000	0.733855
1180.000000	0.733040
1181.000000	0.732379
1182.000000	0.731671
1183.000000	0.731133
1184.000000	0.730683
1185.000000	0.730104
1186.000000	0.729590
1187.000000	0.728929
1188.000000	0.728103
1189.000000	0.727307
1190.000000	0.726623
1191.000000	0.725878
1192.000000	0.725258
1193.000000	0.724817
1194.000000	0.724143
1195.000000	0.723577
1196.000000	0.722986
1197.000000	0.722421
1198.000000	0.721938
1199.000000	0.721458
1200.000000	0.720936
1201.000000	0.720489
1202.000000	0.720057
1203.000000	0.719692
1204.000000	0.719414
1205.000000	0.719172
1206.000000	0.718747
1207.000000	0.718430
1208.000000	0.718069
1209.000000	0.717711
1210.000000	0.717448
1211.000000	0.717315
1212.000000	0.717055
1213.000000	0.716877
1214.000000	0.716658
1215.000000	0.716345
1216.000000	0.716051
1217.000000	0.715652
1218.000000	0.715266
1219.000000	0.714934
1220.000000	0.714652
1221.000000	0.714384
1222.000000	0.714128
1223.000000	0.713866
1224.000000	0.713604
1225.000000	0.713245
1226.000000	0.712982
1227.000000	0.712717
1228.000000	0.712526
1229.000000	0.712267
1230.000000	0.711967
1231.000000	0.711636
1232.000000	0.711522
1233.000000	0.711562
1234.000000	0.711683
1235.000000	0.711650
1236.000000	0.711410
1237.000000	0.711340
1238.000000	0.711094
1239.000000	0.710973
1240.000000	0.710999
1241.000000	0.710995
1242.000000	0.710975
1243.000000	0.710946
1244.000000	0.710932
1245.000000	0.711100
1246.000000	0.711116
1247.000000	0.711281
1248.000000	0.711519
1249.000000	0.711674
1250.000000	0.711922
1251.000000	0.712104
1252.000000	0.712189
1253.000000	0.712250
1254.000000	0.712277
1255.000000	0.712179
1256.000000	0.712198
1257.000000	0.712279
1258.000000	0.712427
1259.000000	0.712494
1260.000000	0.712699
1261.000000	0.712884
1262.000000	0.713009
1263.000000	0.713222
1264.000000	0.713330
1265.000000	0.713365
1266.000000	0.713387
1267.000000	0.713504
1268.000000	0.713636
1269.000000	0.713649
1270.000000	0.713836
1271.000000	0.713920
1272.000000	0.714045
1273.000000	0.714415
1274.000000	0.714646
1275.000000	0.714768
1276.000000	0.714931
1277.000000	0.715131
1278.000000	0.714992
1279.000000	0.714963
1280.000000	0.714872
1281.000000	0.714714
1282.000000	0.714594
1283.000000	0.714693
1284.000000	0.714762
1285.000000	0.714755
1286.000000	0.714725
1287.000000	0.714673
1288.000000	0.714639
1289.000000	0.714485
1290.000000	0.714257
1291.000000	0.714073
1292.000000	0.713847
1293.000000	0.713592
1294.000000	0.713365
1295.000000	0.713143
1296.000000	0.712804
1297.000000	0.712433
1298.000000	0.712131
1299.000000	0.711757
1300.000000	0.711357
1301.000000	0.710843
1302.000000	0.710190
1303.000000	0.709639
1304.000000	0.708945
1305.000000	0.708378
1306.000000	0.707692
1307.000000	0.707004
1308.000000	0.706340
1309.000000	0.705612
1310.000000	0.704848
1311.000000	0.704169
1312.000000	0.703284
1313.000000	0.702359
1314.000000	0.701425
1315.000000	0.700290
1316.000000	0.699375
1317.000000	0.698494
1318.000000	0.697452
1319.000000	0.696283
1320.000000	0.695060
1321.000000	0.693755
1322.000000	0.692402
1323.000000	0.691152
1324.000000	0.689995
1325.000000	0.688609
1326.000000	0.687140
1327.000000	0.685698
1328.000000	0.684232
1329.000000	0.682584
1330.000000	0.680877
1331.000000	0.679215
1332.000000	0.677562
1333.000000	0.675877
1334.000000	0.674383
1335.000000	0.672799
1336.000000	0.671130
1337.000000	0.669390
1338.000000	0.667516
1339.000000	0.665577
1340.000000	0.663600
1341.000000	0.661666
1342.000000	0.659738
1343.000000	0.657801
1344.000000	0.655854
1345.000000	0.653759
1346.000000	0.651811
1347.000000	0.649715
1348.000000	0.647618
1349.000000	0.645546
1350.000000	0.643532
1351.000000	0.641433
1352.000000	0.639259
1353.000000	0.637133
1354.000000	0.635124
1355.000000	0.633084
1356.000000	0.631137
1357.000000	0.629095
1358.000000	0.627022
1359.000000	0.624960
1360.000000	0.622976
1361.000000	0.621200
1362.000000	0.619310
1363.000000	0.617354
1364.000000	0.615521
1365.000000	0.613648
1366.000000	0.611860
1367.000000	0.610166
1368.000000	0.608381
1369.000000	0.606746
1370.000000	0.604919
1371.000000	0.603021
1372.000000	0.601121
1373.000000	0.599183
1374.000000	0.597318
1375.000000	0.595376
1376.000000	0.593542
1377.000000	0.591638
1378.000000	0.589480
1379.000000	0.587178
1380.000000	0.584800
1381.000000	0.582249
1382.000000	0.579632
1383.000000	0.576984
1384.000000	0.574060
1385.000000	0.570980
1386.000000	0.567926
1387.000000	0.564880
1388.000000	0.561617
1389.000000	0.558235
1390.000000	0.554923
1391.000000	0.551303
1392.000000	0.547622
1393.000000	0.543756
1394.000000	0.539799
1395.000000	0.535715
1396.000000	0.531565
1397.000000	0.527085
1398.000000	0.522365
1399.000000	0.517625
1400.000000	0.512628
1401.000000	0.507592
1402.000000	0.502641
1403.000000	0.497421
1404.000000	0.492260
1405.000000	0.486980
1406.000000	0.481529
1407.000000	0.476284
1408.000000	0.470824
1409.000000	0.465307
1410.000000	0.459995
1411.000000	0.454437
1412.000000	0.448893
1413.000000	0.443528
1414.000000	0.438044
1415.000000	0.432770
1416.000000	0.427539
1417.000000	0.422254
1418.000000	0.417071
1419.000000	0.411950
1420.000000	0.406901
1421.000000	0.402124
1422.000000	0.397430
1423.000000	0.392995
1424.000000	0.388559
1425.000000	0.384184
1426.000000	0.379972
1427.000000	0.375844
1428.000000	0.371979
1429.000000	0.368304
1430.000000	0.364732
1431.000000	0.361388
1432.000000	0.358111
1433.000000	0.354963
1434.000000	0.351892
1435.000000	0.349011
1436.000000	0.346193
1437.000000	0.343453
1438.000000	0.340754
1439.000000	0.338168
1440.000000	0.335727
1441.000000	0.333374
1442.000000	0.331123
1443.000000	0.328944
1444.000000	0.326846
1445.000000	0.324814
1446.000000	0.322915
1447.000000	0.321108
1448.000000	0.319424
1449.000000	0.317840
1450.000000	0.316338
1451.000000	0.314983
1452.000000	0.313640
1453.000000	0.312409
1454.000000	0.311261
1455.000000	0.310149
1456.000000	0.309264
1457.000000	0.308452
1458.000000	0.307635
1459.000000	0.306924
1460.000000	0.306207
1461.000000	0.305464
1462.000000	0.304751
1463.000000	0.303978
1464.000000	0.303277
1465.000000	0.302717
1466.000000	0.302193
1467.000000	0.301771
1468.000000	0.301407
1469.000000	0.301100
1470.000000	0.300794
1471.000000	0.300655
1472.000000	0.300649
1473.000000	0.300744
1474.000000	0.300931
1475.000000	0.301261
1476.000000	0.301681
1477.000000	0.302172
1478.000000	0.302787
1479.000000	0.303468
1480.000000	0.304222
1481.000000	0.305041
1482.000000	0.306013
1483.000000	0.307028
1484.000000	0.308134
1485.000000	0.309220
1486.000000	0.310361
1487.000000	0.311477
1488.000000	0.312594
1489.000000	0.313729
1490.000000	0.314763
1491.000000	0.315877
1492.000000	0.316974
1493.000000	0.318093
1494.000000	0.319217
1495.000000	0.320307
1496.000000	0.321404
1497.000000	0.322464
1498.000000	0.323515
1499.000000	0.324541
1500.000000	0.325560
1501.000000	0.326533
1502.000000	0.327477
1503.000000	0.328455
1504.000000	0.329393
1505.000000	0.330284
1506.000000	0.331210
1507.000000	0.332050
1508.000000	0.332878
1509.000000	0.333712
1510.000000	0.334451
1511.000000	0.335229
1512.000000	0.335946
1513.000000	0.336586
1514.000000	0.337288
1515.000000	0.337895
1516.000000	0.338525
1517.000000	0.339166
1518.000000	0.339697
1519.000000	0.340144
1520.000000	0.340624
1521.000000	0.341053
1522.000000	0.341539
1523.000000	0.342052
1524.000000	0.342441
1525.000000	0.342876
1526.000000	0.343257
1527.000000	0.343627
1528.000000	0.344068
1529.000000	0.344398
1530.000000	0.344643
1531.000000	0.345005
1532.000000	0.345348
1533.000000	0.345615
1534.000000	0.345887
1535.000000	0.346104
1536.000000	0.346238
1537.000000	0.346471
1538.000000	0.346657
1539.000000	0.346742
1540.000000	0.346861
1541.000000	0.346969
1542.000000	0.347112
1543.000000	0.347279
1544.000000	0.347382
1545.000000	0.347522
1546.000000	0.347639
1547.000000	0.347661
1548.000000	0.347703
1549.000000	0.347712
1550.000000	0.347642
1551.000000	0.347621
1552.000000	0.347646
1553.000000	0.347601
1554.000000	0.347550
1555.000000	0.347578
1556.000000	0.347561
1557.000000	0.347486
1558.000000	0.347460
1559.000000	0.347377
1560.000000	0.347307
1561.000000	0.347305
1562.000000	0.347255
1563.000000	0.347244
1564.000000	0.347208
1565.000000	0.347124
1566.000000	0.347008
1567.000000	0.346975
1568.000000	0.346927
1569.000000	0.346943
1570.000000	0.346953
1571.000000	0.346963
1572.000000	0.346935
1573.000000	0.346916
1574.000000	0.346858
1575.000000	0.346765
1576.000000	0.346732
1577.000000	0.346702
1578.000000	0.346637
1579.000000	0.346655
1580.000000	0.346610
1581.000000	0.346587
1582.000000	0.346539
1583.000000	0.346456
1584.000000	0.346354
1585.000000	0.346300
1586.000000	0.346270
1587.000000	0.346239
1588.000000	0.346231
1589.000000	0.346262
1590.000000	0.346296
1591.000000	0.346380
1592.000000	0.346444
1593.000000	0.346544
1594.000000	0.346590
1595.000000	0.346646
1596.000000	0.346736
1597.000000	0.346853
1598.000000	0.346973
1599.000000	0.347173
1600.000000	0.347279
1601.000000	0.347419
1602.000000	0.347565
1603.000000	0.347687
1604.000000	0.347865
1605.000000	0.348122
1606.000000	0.348344
1607.000000	0.348659
1608.000000	0.348909
1609.000000	0.349180
1610.000000	0.349417
1611.000000	0.349628
1612.000000	0.349880
1613.000000	0.350234
1614.000000	0.350543
1615.000000	0.350938
1616.000000	0.351325
1617.000000	0.351640
1618.000000	0.351995
1619.000000	0.352315
1620.000000	0.352706
1621.000000	0.353177
1622.000000	0.353716
1623.000000	0.354303
1624.000000	0.354857
1625.000000	0.355265
1626.000000	0.355715
1627.000000	0.356180
1628.000000	0.356749
1629.000000	0.357376
1630.000000	0.358014
1631.000000	0.358634
1632.000000	0.359238
1633.000000	0.359841
1634.000000	0.360507
1635.000000	0.361256
1636.000000	0.361967
1637.000000	0.362737
1638.000000	0.363448
1639.000000	0.364164
1640.000000	0.364916
1641.000000	0.365749
1642.000000	0.366545
1643.000000	0.367401
1644.000000	0.368216
1645.000000	0.369000
1646.000000	0.369745
1647.000000	0.370522
1648.000000	0.371248
1649.000000	0.372014
1650.000000	0.372806
1651.000000	0.373629
1652.000000	0.374491
1653.000000	0.375316
1654.000000	0.376190
1655.000000	0.377066
1656.000000	0.377809
1657.000000	0.378610
1658.000000	0.379350
1659.000000	0.380112
1660.000000	0.380921
1661.000000	0.381631
1662.000000	0.382410
1663.000000	0.383205
1664.000000	0.383956
1665.000000	0.384709
1666.000000	0.385525
1667.000000	0.386231
1668.000000	0.386981
1669.000000	0.387770
1670.000000	0.388421
1671.000000	0.389127
1672.000000	0.389869
1673.000000	0.390537
1674.000000	0.391222
1675.000000	0.391993
1676.000000	0.392677
1677.000000	0.393269
1678.000000	0.393843
1679.000000	0.394402
1680.000000	0.394905
1681.000000	0.395451
1682.000000	0.396057
1683.000000	0.396630
1684.000000	0.397216
1685.000000	0.397859
1686.000000	0.398346
1687.000000	0.398873
1688.000000	0.399409
1689.000000	0.399860
1690.000000	0.400338
1691.000000	0.400938
1692.000000	0.401416
1693.000000	0.401905
1694.000000	0.402410
1695.000000	0.402931
1696.000000	0.403389
1697.000000	0.403792
1698.000000	0.404215
1699.000000	0.404682
1700.000000	0.405153
1701.000000	0.405720
1702.000000	0.406151
1703.000000	0.406520
1704.000000	0.406964
1705.000000	0.407402
1706.000000	0.407859
1707.000000	0.408312
1708.000000	0.408729
1709.000000	0.409092
1710.000000	0.409523
1711.000000	0.409997
1712.000000	0.410531
1713.000000	0.411024
1714.000000	0.411556
1715.000000	0.412132
1716.000000	0.412782
1717.000000	0.413320
1718.000000	0.413766
1719.000000	0.414279
1720.000000	0.414788
1721.000000	0.415353
1722.000000	0.416058
1723.000000	0.416687
1724.000000	0.417303
1725.000000	0.417958
1726.000000	0.418492
1727.000000	0.419122
1728.000000	0.419741
1729.000000	0.420259
1730.000000	0.420921
1731.000000	0.421597
1732.000000	0.422273
1733.000000	0.422991
1734.000000	0.423611
1735.000000	0.424258
1736.000000	0.424817
1737.000000	0.425433
1738.000000	0.426153
1739.000000	0.426772
1740.000000	0.427320
1741.000000	0.427863
1742.000000	0.428374
1743.000000	0.429001
1744.000000	0.429640
1745.000000	0.430219
1746.000000	0.430835
1747.000000	0.431300
1748.000000	0.431732
1749.000000	0.432133
1750.000000	0.432526
1751.000000	0.433122
1752.000000	0.433740
1753.000000	0.434129
1754.000000	0.434616
1755.000000	0.435086
1756.000000	0.435515
1757.000000	0.435997
1758.000000	0.436461
1759.000000	0.436827
1760.000000	0.437224
1761.000000	0.437567
1762.000000	0.437958
1763.000000	0.438412
1764.000000	0.438844
1765.000000	0.439242
1766.000000	0.439702
1767.000000	0.440051
1768.000000	0.440428
1769.000000	0.441010
1770.000000	0.441564
1771.000000	0.442040
1772.000000	0.442540
1773.000000	0.442969
1774.000000	0.443478
1775.000000	0.444094
1776.000000	0.444714
1777.000000	0.445379
1778.000000	0.445909
1779.000000	0.446353
1780.000000	0.446885
1781.000000	0.447306
1782.000000	0.447859
1783.000000	0.448581
1784.000000	0.449307
1785.000000	0.449920
1786.000000	0.450630
1787.000000	0.451495
1788.000000	0.452286
1789.000000	0.453011
1790.000000	0.453748
1791.000000	0.454375
1792.000000	0.455070
1793.000000	0.455726
1794.000000	0.456325
1795.000000	0.456973
1796.000000	0.457612
1797.000000	0.458238
1798.000000	0.458844
1799.000000	0.459463
1800.000000	0.460175
1801.000000	0.458806
1802.000000	0.459568
1803.000000	0.460107
1804.000000	0.460879
1805.000000	0.461808
1806.000000	0.462598
1807.000000	0.463611
1808.000000	0.464167
1809.000000	0.464345
1810.000000	0.464604
1811.000000	0.464957
1812.000000	0.465060
1813.000000	0.465522
1814.000000	0.466552
1815.000000	0.467069
1816.000000	0.467407
1817.000000	0.467578
1818.000000	0.467535
1819.000000	0.467778
1820.000000	0.467963
1821.000000	0.468054
1822.000000	0.468188
1823.000000	0.468230
1824.000000	0.468142
1825.000000	0.467925
1826.000000	0.467847
1827.000000	0.467546
1828.000000	0.467302
1829.000000	0.467088
1830.000000	0.466832
1831.000000	0.466679
1832.000000	0.466604
1833.000000	0.466357
1834.000000	0.466219
1835.000000	0.465836
1836.000000	0.465054
1837.000000	0.464387
1838.000000	0.463450
1839.000000	0.462649
1840.000000	0.461969
1841.000000	0.461030
1842.000000	0.460010
1843.000000	0.458840
1844.000000	0.457748
1845.000000	0.456507
1846.000000	0.455244
1847.000000	0.453836
1848.000000	0.452272
1849.000000	0.450771
1850.000000	0.448660
1851.000000	0.446667
1852.000000	0.444610
1853.000000	0.442454
1854.000000	0.439823
1855.000000	0.437282
1856.000000	0.434716
1857.000000	0.431862
1858.000000	0.428747
1859.000000	0.425510
1860.000000	0.422039
1861.000000	0.418412
1862.000000	0.414735
1863.000000	0.411158
1864.000000	0.407347
1865.000000	0.403544
1866.000000	0.399223
1867.000000	0.394538
1868.000000	0.389623
1869.000000	0.384209
1870.000000	0.378649
1871.000000	0.373231
1872.000000	0.367662
1873.000000	0.361995
1874.000000	0.356291
1875.000000	0.350522
1876.000000	0.344511
1877.000000	0.337984
1878.000000	0.331599
1879.000000	0.325044
1880.000000	0.318275
1881.000000	0.311790
1882.000000	0.305066
1883.000000	0.298081
1884.000000	0.291312
1885.000000	0.284192
1886.000000	0.277233
1887.000000	0.270342
1888.000000	0.263490
1889.000000	0.256334
1890.000000	0.249442
1891.000000	0.242488
1892.000000	0.235477
1893.000000	0.228647
1894.000000	0.221643
1895.000000	0.214778
1896.000000	0.208109
1897.000000	0.201374
1898.000000	0.194668
1899.000000	0.188451
1900.000000	0.182108
1901.000000	0.176047
1902.000000	0.170273
1903.000000	0.164585
1904.000000	0.159305
1905.000000	0.153923
1906.000000	0.148646
1907.000000	0.143427
1908.000000	0.138666
1909.000000	0.133895
1910.000000	0.129399
1911.000000	0.125379
1912.000000	0.121130
1913.000000	0.117120
1914.000000	0.113723
1915.000000	0.110396
1916.000000	0.107500
1917.000000	0.104753
1918.000000	0.102358
1919.000000	0.099922
1920.000000	0.097835
1921.000000	0.096017
1922.000000	0.094529
1923.000000	0.093092
1924.000000	0.091784
1925.000000	0.090728
1926.000000	0.089497
1927.000000	0.088663
1928.000000	0.087975
1929.000000	0.087442
1930.000000	0.087010
1931.000000	0.087081
1932.000000	0.087060
1933.000000	0.087182
1934.000000	0.087222
1935.000000	0.086979
1936.000000	0.087014
1937.000000	0.086919
1938.000000	0.086575
1939.000000	0.086210
1940.000000	0.085802
1941.000000	0.085141
1942.000000	0.084596
1943.000000	0.084408
1944.000000	0.084204
1945.000000	0.083933
1946.000000	0.083749
1947.000000	0.083221
1948.000000	0.082670
1949.000000	0.082355
1950.000000	0.081773
1951.000000	0.081210
1952.000000	0.080714
1953.000000	0.080134
1954.000000	0.079338
1955.000000	0.078818
1956.000000	0.078307
1957.000000	0.077672
1958.000000	0.077181
1959.000000	0.076651
1960.000000	0.076042
1961.000000	0.075736
1962.000000	0.075505
1963.000000	0.075462
1964.000000	0.075414
1965.000000	0.075356
1966.000000	0.075182
1967.000000	0.074998
1968.000000	0.074820
1969.000000	0.074690
1970.000000	0.074708
1971.000000	0.074572
1972.000000	0.074434
1973.000000	0.074316
1974.000000	0.074070
1975.000000	0.074104
1976.000000	0.074260
1977.000000	0.074571
1978.000000	0.075132
1979.000000	0.075715
1980.000000	0.076269
1981.000000	0.076728
1982.000000	0.077044
1983.000000	0.077407
1984.000000	0.077690
1985.000000	0.077807
1986.000000	0.078177
1987.000000	0.078605
1988.000000	0.079129
1989.000000	0.079764
1990.000000	0.080502
1991.000000	0.081383
1992.000000	0.082062
1993.000000	0.082847
1994.000000	0.083738
1995.000000	0.084317
1996.000000	0.085063
1997.000000	0.085836
1998.000000	0.086569
1999.000000	0.087400
2000.000000	0.088381
2001.000000	0.089307
2002.000000	0.090117
2003.000000	0.091237
2004.000000	0.092144
2005.000000	0.093059
2006.000000	0.094302
2007.000000	0.095381
2008.000000	0.096500
2009.000000	0.097701
2010.000000	0.098842
2011.000000	0.099867
2012.000000	0.101025
2013.000000	0.102195
2014.000000	0.103449
2015.000000	0.104769
2016.000000	0.105820
2017.000000	0.106788
2018.000000	0.107805
2019.000000	0.108915
2020.000000	0.110165
2021.000000	0.111552
2022.000000	0.113274
2023.000000	0.114756
2024.000000	0.116285
2025.000000	0.117732
2026.000000	0.119019
2027.000000	0.120230
2028.000000	0.121672
2029.000000	0.123132
2030.000000	0.124656
2031.000000	0.126116
2032.000000	0.127425
2033.000000	0.128759
2034.000000	0.130099
2035.000000	0.131591
2036.000000	0.132789
2037.000000	0.133913
2038.000000	0.135009
2039.000000	0.135906
2040.000000	0.136886
2041.000000	0.138015
2042.000000	0.139302
2043.000000	0.140778
2044.000000	0.142207
2045.000000	0.143583
2046.000000	0.144914
2047.000000	0.146174
2048.000000	0.147185
2049.000000	0.148465
2050.000000	0.149726
2051.000000	0.150918
2052.000000	0.152086
2053.000000	0.153223
2054.000000	0.154438
2055.000000	0.155626
2056.000000	0.156702
2057.000000	0.157893
2058.000000	0.159197
2059.000000	0.160385
2060.000000	0.161555
2061.000000	0.162833
2062.000000	0.163983
2063.000000	0.165006
2064.000000	0.165997
2065.000000	0.167079
2066.000000	0.168177
2067.000000	0.169307
2068.000000	0.170531
2069.000000	0.172085
2070.000000	0.173544
2071.000000	0.174974
2072.000000	0.176418
2073.000000	0.177617
2074.000000	0.178843
2075.000000	0.180202
2076.000000	0.181547
2077.000000	0.183040
2078.000000	0.184839
2079.000000	0.186328
2080.000000	0.187779
2081.000000	0.189247
2082.000000	0.190582
2083.000000	0.191945
2084.000000	0.193400
2085.000000	0.194788
2086.000000	0.196354
2087.000000	0.197832
2088.000000	0.199324
2089.000000	0.200998
2090.000000	0.202563
2091.000000	0.204067
2092.000000	0.205651
2093.000000	0.207383
2094.000000	0.208867
2095.000000	0.210405
2096.000000	0.211738
2097.000000	0.212720
2098.000000	0.213754
2099.000000	0.214821
2100.000000	0.215928
2101.000000	0.217093
2102.000000	0.218367
2103.000000	0.219751
2104.000000	0.221028
2105.000000	0.222403
2106.000000	0.223931
2107.000000	0.225352
2108.000000	0.226726
2109.000000	0.228107
2110.000000	0.229356
2111.000000	0.230642
2112.000000	0.231947
2113.000000	0.232984
2114.000000	0.233895
2115.000000	0.234787
2116.000000	0.235381
2117.000000	0.235995
2118.000000	0.237066
2119.000000	0.237857
2120.000000	0.238777
2121.000000	0.239910
2122.000000	0.240897
2123.000000	0.241742
2124.000000	0.242696
2125.000000	0.243738
2126.000000	0.244591
2127.000000	0.245328
2128.000000	0.246267
2129.000000	0.247126
2130.000000	0.248159
2131.000000	0.248876
2132.000000	0.249514
2133.000000	0.250210
2134.000000	0.250570
2135.000000	0.250912
2136.000000	0.251645
2137.000000	0.252292
2138.000000	0.252935
2139.000000	0.253466
2140.000000	0.254148
2141.000000	0.254537
2142.000000	0.254476
2143.000000	0.254627
2144.000000	0.255004
2145.000000	0.255362
2146.000000	0.255828
2147.000000	0.256586
2148.000000	0.256869
2149.000000	0.257137
2150.000000	0.257682
2151.000000	0.257928
2152.000000	0.258328
2153.000000	0.258740
2154.000000	0.259047
2155.000000	0.259218
2156.000000	0.259411
2157.000000	0.259605
2158.000000	0.259931
2159.000000	0.260235
2160.000000	0.260759
2161.000000	0.261687
2162.000000	0.262224
2163.000000	0.262579
2164.000000	0.262820
2165.000000	0.262786
2166.000000	0.262682
2167.000000	0.262797
2168.000000	0.263068
2169.000000	0.263145
2170.000000	0.263145
2171.000000	0.263267
2172.000000	0.263290
2173.000000	0.263452
2174.000000	0.263868
2175.000000	0.264090
2176.000000	0.264270
2177.000000	0.264384
2178.000000	0.264555
2179.000000	0.264629
2180.000000	0.264444
2181.000000	0.264631
2182.000000	0.264506
2183.000000	0.264189
2184.000000	0.264360
2185.000000	0.264057
2186.000000	0.263789
2187.000000	0.264432
2188.000000	0.264679
2189.000000	0.264535
2190.000000	0.264632
2191.000000	0.264807
2192.000000	0.264912
2193.000000	0.265238
2194.000000	0.265303
2195.000000	0.264956
2196.000000	0.265211
2197.000000	0.265673
2198.000000	0.266104
2199.000000	0.267011
2200.000000	0.267894
2201.000000	0.268840
2202.000000	0.269711
2203.000000	0.270738
2204.000000	0.271544
2205.000000	0.271316
2206.000000	0.270518
2207.000000	0.269900
2208.000000	0.269334
2209.000000	0.268944
2210.000000	0.269306
2211.000000	0.269724
2212.000000	0.269808
2213.000000	0.270069
2214.000000	0.270222
2215.000000	0.270889
2216.000000	0.272232
2217.000000	0.273031
2218.000000	0.273872
2219.000000	0.274593
2220.000000	0.274744
2221.000000	0.275008
2222.000000	0.275575
2223.000000	0.275867
2224.000000	0.275876
2225.000000	0.276127
2226.000000	0.275717
2227.000000	0.275228
2228.000000	0.275245
2229.000000	0.274722
2230.000000	0.275055
2231.000000	0.275719
2232.000000	0.275301
2233.000000	0.275419
2234.000000	0.274972
2235.000000	0.274723
2236.000000	0.274992
2237.000000	0.275826
2238.000000	0.276235
2239.000000	0.276951
2240.000000	0.277264
2241.000000	0.277364
2242.000000	0.277300
2243.000000	0.276770
2244.000000	0.276741
2245.000000	0.276729
2246.000000	0.276813
2247.000000	0.277087
2248.000000	0.277415
2249.000000	0.277920
2250.000000	0.278186
2251.000000	0.278442
2252.000000	0.279367
2253.000000	0.279076
2254.000000	0.278227
2255.000000	0.277692
2256.000000	0.276032
2257.000000	0.274624
2258.000000	0.273717
2259.000000	0.272877
2260.000000	0.272565
2261.000000	0.271973
2262.000000	0.271874
2263.000000	0.271335
2264.000000	0.269966
2265.000000	0.269808
2266.000000	0.270390
2267.000000	0.270453
2268.000000	0.271344
2269.000000	0.270993
2270.000000	0.269569
2271.000000	0.268434
2272.000000	0.266711
2273.000000	0.265686
2274.000000	0.264803
2275.000000	0.264273
2276.000000	0.264355
2277.000000	0.264054
2278.000000	0.263403
2279.000000	0.262714
2280.000000	0.261076
2281.000000	0.259545
2282.000000	0.258433
2283.000000	0.256778
2284.000000	0.255927
2285.000000	0.254990
2286.000000	0.254375
2287.000000	0.253970
2288.000000	0.253594
2289.000000	0.253062
2290.000000	0.251617
2291.000000	0.251064
2292.000000	0.250130
2293.000000	0.248496
2294.000000	0.247036
2295.000000	0.245484
2296.000000	0.243666
2297.000000	0.241381
2298.000000	0.239820
2299.000000	0.238313
2300.000000	0.236980
2301.000000	0.236731
2302.000000	0.235329
2303.000000	0.232983
2304.000000	0.231464
2305.000000	0.229781
2306.000000	0.227741
2307.000000	0.225984
2308.000000	0.224395
2309.000000	0.221349
2310.000000	0.219658
2311.000000	0.218289
2312.000000	0.216306
2313.000000	0.214828
2314.000000	0.213112
2315.000000	0.211155
2316.000000	0.209999
2317.000000	0.209061
2318.000000	0.207837
2319.000000	0.207168
2320.000000	0.205847
2321.000000	0.204499
2322.000000	0.203440
2323.000000	0.201040
2324.000000	0.198889
2325.000000	0.196941
2326.000000	0.195056
2327.000000	0.194183
2328.000000	0.192914
2329.000000	0.190990
2330.000000	0.188055
2331.000000	0.184776
2332.000000	0.182347
2333.000000	0.179612
2334.000000	0.177808
2335.000000	0.176637
2336.000000	0.176021
2337.000000	0.174670
2338.000000	0.173888
2339.000000	0.172389
2340.000000	0.169904
2341.000000	0.167712
2342.000000	0.165584
2343.000000	0.163256
2344.000000	0.160365
2345.000000	0.158395
2346.000000	0.157327
2347.000000	0.155605
2348.000000	0.154044
2349.000000	0.152086
2350.000000	0.149291
2351.000000	0.146555
2352.000000	0.144363
2353.000000	0.142622
2354.000000	0.141760
2355.000000	0.141164
2356.000000	0.140098
2357.000000	0.139311
2358.000000	0.138337
2359.000000	0.136203
2360.000000	0.134668
2361.000000	0.132595
2362.000000	0.130304
2363.000000	0.129577
2364.000000	0.127274
2365.000000	0.126261
2366.000000	0.125775
2367.000000	0.122579
2368.000000	0.120900
2369.000000	0.119075
2370.000000	0.116569
2371.000000	0.116352
2372.000000	0.116019
2373.000000	0.114860
2374.000000	0.111905
2375.000000	0.108172
2376.000000	0.106382
2377.000000	0.105831
2378.000000	0.107511
2379.000000	0.109518
2380.000000	0.109003
2381.000000	0.107503
2382.000000	0.105284
2383.000000	0.103053
2384.000000	0.101920
2385.000000	0.101703
2386.000000	0.101731
2387.000000	0.100358
2388.000000	0.099375
2389.000000	0.099337
2390.000000	0.098801
2391.000000	0.100005
2392.000000	0.099836
2393.000000	0.095679
2394.000000	0.092234
2395.000000	0.089288
2396.000000	0.087363
2397.000000	0.088862
2398.000000	0.089726
2399.000000	0.090622
2400.000000	0.092130
2401.000000	0.091185
2402.000000	0.090341
2403.000000	0.088947
2404.000000	0.085685
2405.000000	0.083752
2406.000000	0.084363
2407.000000	0.083525
2408.000000	0.082991
2409.000000	0.084504
2410.000000	0.083966
2411.000000	0.084468
2412.000000	0.083840
2413.000000	0.081864
2414.000000	0.082001
2415.000000	0.081101
2416.000000	0.082174
2417.000000	0.085055
2418.000000	0.084296
2419.000000	0.082584
2420.000000	0.081595
2421.000000	0.078939
2422.000000	0.075837
2423.000000	0.073576
2424.000000	0.074661
2425.000000	0.075351
2426.000000	0.074112
2427.000000	0.075247
2428.000000	0.074501
2429.000000	0.074345
2430.000000	0.075110
2431.000000	0.072980
2432.000000	0.072771
2433.000000	0.073206
2434.000000	0.073626
2435.000000	0.078009
2436.000000	0.079603
2437.000000	0.075740
2438.000000	0.073345
2439.000000	0.071856
2440.000000	0.071461
2441.000000	0.075284
2442.000000	0.083622
2443.000000	0.086185
2444.000000	0.085285
2445.000000	0.084720
2446.000000	0.078773
2447.000000	0.079488
2448.000000	0.077935
2449.000000	0.074644
2450.000000	0.075091
2451.000000	0.070039
2452.000000	0.070924
2453.000000	0.074351
2454.000000	0.075240
2455.000000	0.077912
2456.000000	0.079586
2457.000000	0.075629
2458.000000	0.071863
2459.000000	0.072204
2460.000000	0.067481
2461.000000	0.065057
2462.000000	0.063576
2463.000000	0.057263
2464.000000	0.058694
2465.000000	0.059417
2466.000000	0.056113
2467.000000	0.056926
2468.000000	0.055939
2469.000000	0.055977
2470.000000	0.063362
2471.000000	0.069739
2472.000000	0.067658
2473.000000	0.066616
2474.000000	0.065354
2475.000000	0.066827
2476.000000	0.068761
2477.000000	0.067287
2478.000000	0.071635
2479.000000	0.060998
2480.000000	0.048857
2481.000000	0.047749
2482.000000	0.043014
2483.000000	0.044217
2484.000000	0.051906
2485.000000	0.052492
2486.000000	0.046065
2487.000000	0.039876
2488.000000	0.032043
2489.000000	0.042969
2490.000000	0.050497
2491.000000	0.050819
2492.000000	0.050298
2493.000000	0.032207
2494.000000	0.024795
2495.000000	0.026399
2496.000000	0.026899
2497.000000	0.030382
2498.000000	0.029125
2499.000000	0.030860
2500.000000	0.029832
