# Wavelength	hexa40_00000.asd.rts.txt
350.000000	0.197123
351.000000	0.196754
352.000000	0.202820
353.000000	0.208124
354.000000	0.210281
355.000000	0.208570
356.000000	0.202783
357.000000	0.198247
358.000000	0.201367
359.000000	0.200339
360.000000	0.199207
361.000000	0.203535
362.000000	0.204928
363.000000	0.205384
364.000000	0.206054
365.000000	0.205652
366.000000	0.205430
367.000000	0.205515
368.000000	0.205618
369.000000	0.207987
370.000000	0.210509
371.000000	0.210278
372.000000	0.209594
373.000000	0.209227
374.000000	0.209776
375.000000	0.210285
376.000000	0.210561
377.000000	0.211081
378.000000	0.213461
379.000000	0.213824
380.000000	0.212737
381.000000	0.212900
382.000000	0.214067
383.000000	0.214636
384.000000	0.214188
385.000000	0.214950
386.000000	0.216509
387.000000	0.218073
388.000000	0.217954
389.000000	0.218086
390.000000	0.218369
391.000000	0.217945
392.000000	0.219105
393.000000	0.220075
394.000000	0.219625
395.000000	0.220074
396.000000	0.220115
397.000000	0.219753
398.000000	0.221062
399.000000	0.221997
400.000000	0.222264
401.000000	0.222152
402.000000	0.222117
403.000000	0.222480
404.000000	0.223370
405.000000	0.223767
406.000000	0.223925
407.000000	0.224268
408.000000	0.225513
409.000000	0.225836
410.000000	0.225440
411.000000	0.225647
412.000000	0.225858
413.000000	0.226206
414.000000	0.226867
415.000000	0.227312
416.000000	0.227680
417.000000	0.228081
418.000000	0.228463
419.000000	0.228577
420.000000	0.228693
421.000000	0.229574
422.000000	0.229963
423.000000	0.229963
424.000000	0.230158
425.000000	0.230462
426.000000	0.230764
427.000000	0.230991
428.000000	0.231310
429.000000	0.231596
430.000000	0.231848
431.000000	0.232234
432.000000	0.232449
433.000000	0.232516
434.000000	0.232715
435.000000	0.233056
436.000000	0.233279
437.000000	0.233235
438.000000	0.233659
439.000000	0.233951
440.000000	0.233944
441.000000	0.234067
442.000000	0.234210
443.000000	0.234353
444.000000	0.234683
445.000000	0.234878
446.000000	0.235097
447.000000	0.235408
448.000000	0.235641
449.000000	0.235783
450.000000	0.235948
451.000000	0.236570
452.000000	0.236951
453.000000	0.236945
454.000000	0.237239
455.000000	0.237525
456.000000	0.237844
457.000000	0.238160
458.000000	0.238274
459.000000	0.238446
460.000000	0.238897
461.000000	0.239054
462.000000	0.239333
463.000000	0.239736
464.000000	0.239990
465.000000	0.240165
466.000000	0.240301
467.000000	0.240579
468.000000	0.240791
469.000000	0.240918
470.000000	0.241141
471.000000	0.241296
472.000000	0.241457
473.000000	0.241697
474.000000	0.241930
475.000000	0.242139
476.000000	0.242420
477.000000	0.242646
478.000000	0.242779
479.000000	0.243049
480.000000	0.243422
481.000000	0.243481
482.000000	0.243642
483.000000	0.244045
484.000000	0.244334
485.000000	0.244449
486.000000	0.244571
487.000000	0.244695
488.000000	0.244952
489.000000	0.245308
490.000000	0.245582
491.000000	0.245793
492.000000	0.246028
493.000000	0.246257
494.000000	0.246478
495.000000	0.246747
496.000000	0.247050
497.000000	0.247350
498.000000	0.247687
499.000000	0.248077
500.000000	0.248311
501.000000	0.248556
502.000000	0.248830
503.000000	0.249011
504.000000	0.249288
505.000000	0.249556
506.000000	0.249721
507.000000	0.249987
508.000000	0.250325
509.000000	0.250656
510.000000	0.250963
511.000000	0.251293
512.000000	0.251649
513.000000	0.251933
514.000000	0.252260
515.000000	0.252623
516.000000	0.252919
517.000000	0.253164
518.000000	0.253444
519.000000	0.253733
520.000000	0.254004
521.000000	0.254294
522.000000	0.254604
523.000000	0.254847
524.000000	0.255210
525.000000	0.255605
526.000000	0.255839
527.000000	0.256147
528.000000	0.256469
529.000000	0.256743
530.000000	0.256952
531.000000	0.257234
532.000000	0.257558
533.000000	0.257784
534.000000	0.258046
535.000000	0.258350
536.000000	0.258613
537.000000	0.258868
538.000000	0.259141
539.000000	0.259447
540.000000	0.259784
541.000000	0.260083
542.000000	0.260329
543.000000	0.260605
544.000000	0.260919
545.000000	0.261195
546.000000	0.261420
547.000000	0.261731
548.000000	0.262105
549.000000	0.262309
550.000000	0.262599
551.000000	0.262983
552.000000	0.263339
553.000000	0.263644
554.000000	0.263939
555.000000	0.264270
556.000000	0.264649
557.000000	0.264972
558.000000	0.265325
559.000000	0.265685
560.000000	0.265981
561.000000	0.266292
562.000000	0.266623
563.000000	0.266908
564.000000	0.267218
565.000000	0.267534
566.000000	0.267894
567.000000	0.268254
568.000000	0.268572
569.000000	0.268886
570.000000	0.269220
571.000000	0.269565
572.000000	0.269906
573.000000	0.270253
574.000000	0.270567
575.000000	0.270858
576.000000	0.271213
577.000000	0.271529
578.000000	0.271802
579.000000	0.272177
580.000000	0.272512
581.000000	0.272768
582.000000	0.273081
583.000000	0.273386
584.000000	0.273679
585.000000	0.273983
586.000000	0.274328
587.000000	0.274682
588.000000	0.275011
589.000000	0.275382
590.000000	0.275735
591.000000	0.276044
592.000000	0.276391
593.000000	0.276694
594.000000	0.276941
595.000000	0.277203
596.000000	0.277422
597.000000	0.277620
598.000000	0.277756
599.000000	0.277883
600.000000	0.278089
601.000000	0.278338
602.000000	0.278512
603.000000	0.278678
604.000000	0.278888
605.000000	0.279139
606.000000	0.279321
607.000000	0.279451
608.000000	0.279621
609.000000	0.279808
610.000000	0.280015
611.000000	0.280241
612.000000	0.280429
613.000000	0.280561
614.000000	0.280683
615.000000	0.280850
616.000000	0.280994
617.000000	0.281088
618.000000	0.281244
619.000000	0.281389
620.000000	0.281480
621.000000	0.281556
622.000000	0.281690
623.000000	0.281865
624.000000	0.282052
625.000000	0.282234
626.000000	0.282447
627.000000	0.282708
628.000000	0.283010
629.000000	0.283319
630.000000	0.283539
631.000000	0.283815
632.000000	0.284048
633.000000	0.284260
634.000000	0.284471
635.000000	0.284673
636.000000	0.284834
637.000000	0.284935
638.000000	0.285064
639.000000	0.285184
640.000000	0.285321
641.000000	0.285383
642.000000	0.285484
643.000000	0.285630
644.000000	0.285800
645.000000	0.285977
646.000000	0.286171
647.000000	0.286354
648.000000	0.286498
649.000000	0.286659
650.000000	0.286847
651.000000	0.287077
652.000000	0.287252
653.000000	0.287427
654.000000	0.287642
655.000000	0.287831
656.000000	0.288020
657.000000	0.288186
658.000000	0.288356
659.000000	0.288543
660.000000	0.288728
661.000000	0.288881
662.000000	0.289009
663.000000	0.289164
664.000000	0.289322
665.000000	0.289478
666.000000	0.289658
667.000000	0.289855
668.000000	0.290012
669.000000	0.290178
670.000000	0.290377
671.000000	0.290545
672.000000	0.290754
673.000000	0.290975
674.000000	0.291112
675.000000	0.291268
676.000000	0.291443
677.000000	0.291625
678.000000	0.291769
679.000000	0.291930
680.000000	0.292141
681.000000	0.292317
682.000000	0.292509
683.000000	0.292663
684.000000	0.292841
685.000000	0.293011
686.000000	0.293187
687.000000	0.293346
688.000000	0.293495
689.000000	0.293645
690.000000	0.293829
691.000000	0.293995
692.000000	0.294152
693.000000	0.294355
694.000000	0.294546
695.000000	0.294759
696.000000	0.294960
697.000000	0.295100
698.000000	0.295265
699.000000	0.295469
700.000000	0.295697
701.000000	0.295850
702.000000	0.296030
703.000000	0.296233
704.000000	0.296362
705.000000	0.296511
706.000000	0.296655
707.000000	0.296817
708.000000	0.297003
709.000000	0.297172
710.000000	0.297316
711.000000	0.297481
712.000000	0.297603
713.000000	0.297704
714.000000	0.297871
715.000000	0.298018
716.000000	0.298164
717.000000	0.298348
718.000000	0.298544
719.000000	0.298740
720.000000	0.298934
721.000000	0.299087
722.000000	0.299226
723.000000	0.299407
724.000000	0.299536
725.000000	0.299638
726.000000	0.299783
727.000000	0.299897
728.000000	0.300004
729.000000	0.300129
730.000000	0.300237
731.000000	0.300377
732.000000	0.300496
733.000000	0.300616
734.000000	0.300733
735.000000	0.300806
736.000000	0.300944
737.000000	0.301051
738.000000	0.301095
739.000000	0.301195
740.000000	0.301278
741.000000	0.301408
742.000000	0.301540
743.000000	0.301635
744.000000	0.301745
745.000000	0.301820
746.000000	0.301904
747.000000	0.301971
748.000000	0.302063
749.000000	0.302173
750.000000	0.302265
751.000000	0.302373
752.000000	0.302474
753.000000	0.302578
754.000000	0.302691
755.000000	0.302808
756.000000	0.302904
757.000000	0.302920
758.000000	0.302974
759.000000	0.303061
760.000000	0.303109
761.000000	0.303209
762.000000	0.303331
763.000000	0.303438
764.000000	0.303562
765.000000	0.303643
766.000000	0.303706
767.000000	0.303777
768.000000	0.303823
769.000000	0.303884
770.000000	0.303975
771.000000	0.304059
772.000000	0.304195
773.000000	0.304285
774.000000	0.304315
775.000000	0.304338
776.000000	0.304383
777.000000	0.304449
778.000000	0.304548
779.000000	0.304571
780.000000	0.304541
781.000000	0.304582
782.000000	0.304656
783.000000	0.304807
784.000000	0.304902
785.000000	0.304923
786.000000	0.304950
787.000000	0.305001
788.000000	0.304976
789.000000	0.304934
790.000000	0.304921
791.000000	0.305021
792.000000	0.305115
793.000000	0.305188
794.000000	0.305250
795.000000	0.305297
796.000000	0.305315
797.000000	0.305317
798.000000	0.305350
799.000000	0.305412
800.000000	0.305470
801.000000	0.305492
802.000000	0.305503
803.000000	0.305496
804.000000	0.305503
805.000000	0.305506
806.000000	0.305470
807.000000	0.305457
808.000000	0.305430
809.000000	0.305523
810.000000	0.305641
811.000000	0.305692
812.000000	0.305775
813.000000	0.305854
814.000000	0.305889
815.000000	0.305858
816.000000	0.305804
817.000000	0.305761
818.000000	0.305679
819.000000	0.305705
820.000000	0.305753
821.000000	0.305742
822.000000	0.305763
823.000000	0.305838
824.000000	0.305869
825.000000	0.305862
826.000000	0.305893
827.000000	0.305899
828.000000	0.305874
829.000000	0.305805
830.000000	0.305660
831.000000	0.305551
832.000000	0.305490
833.000000	0.305468
834.000000	0.305461
835.000000	0.305475
836.000000	0.305472
837.000000	0.305460
838.000000	0.305462
839.000000	0.305467
840.000000	0.305430
841.000000	0.305346
842.000000	0.305201
843.000000	0.305123
844.000000	0.305111
845.000000	0.305115
846.000000	0.305105
847.000000	0.305070
848.000000	0.304972
849.000000	0.304828
850.000000	0.304710
851.000000	0.304633
852.000000	0.304634
853.000000	0.304680
854.000000	0.304654
855.000000	0.304625
856.000000	0.304537
857.000000	0.304430
858.000000	0.304370
859.000000	0.304294
860.000000	0.304159
861.000000	0.304082
862.000000	0.304080
863.000000	0.304044
864.000000	0.303952
865.000000	0.303830
866.000000	0.303729
867.000000	0.303665
868.000000	0.303599
869.000000	0.303491
870.000000	0.303410
871.000000	0.303259
872.000000	0.303043
873.000000	0.302770
874.000000	0.302658
875.000000	0.302537
876.000000	0.302428
877.000000	0.302337
878.000000	0.302140
879.000000	0.302009
880.000000	0.301885
881.000000	0.301698
882.000000	0.301570
883.000000	0.301471
884.000000	0.301264
885.000000	0.301165
886.000000	0.301083
887.000000	0.300973
888.000000	0.300837
889.000000	0.300683
890.000000	0.300394
891.000000	0.300069
892.000000	0.299851
893.000000	0.299678
894.000000	0.299590
895.000000	0.299438
896.000000	0.299259
897.000000	0.299104
898.000000	0.299000
899.000000	0.298781
900.000000	0.298601
901.000000	0.298475
902.000000	0.298343
903.000000	0.298252
904.000000	0.298180
905.000000	0.297987
906.000000	0.297743
907.000000	0.297509
908.000000	0.297336
909.000000	0.297087
910.000000	0.296868
911.000000	0.296672
912.000000	0.296491
913.000000	0.296328
914.000000	0.296132
915.000000	0.295939
916.000000	0.295687
917.000000	0.295479
918.000000	0.295285
919.000000	0.295059
920.000000	0.294869
921.000000	0.294650
922.000000	0.294418
923.000000	0.294199
924.000000	0.293989
925.000000	0.293762
926.000000	0.293536
927.000000	0.293290
928.000000	0.293063
929.000000	0.292834
930.000000	0.292573
931.000000	0.292309
932.000000	0.292087
933.000000	0.291905
934.000000	0.291602
935.000000	0.291311
936.000000	0.291077
937.000000	0.290805
938.000000	0.290469
939.000000	0.290275
940.000000	0.290112
941.000000	0.289861
942.000000	0.289659
943.000000	0.289526
944.000000	0.289346
945.000000	0.289225
946.000000	0.289017
947.000000	0.288827
948.000000	0.288692
949.000000	0.288305
950.000000	0.287970
951.000000	0.287731
952.000000	0.287473
953.000000	0.287205
954.000000	0.286911
955.000000	0.286536
956.000000	0.286188
957.000000	0.285979
958.000000	0.285788
959.000000	0.285552
960.000000	0.285415
961.000000	0.285237
962.000000	0.284987
963.000000	0.284839
964.000000	0.284594
965.000000	0.284398
966.000000	0.284255
967.000000	0.284064
968.000000	0.283770
969.000000	0.283439
970.000000	0.283278
971.000000	0.283016
972.000000	0.282806
973.000000	0.282615
974.000000	0.282343
975.000000	0.282125
976.000000	0.281936
977.000000	0.281732
978.000000	0.281549
979.000000	0.281413
980.000000	0.281102
981.000000	0.280801
982.000000	0.280650
983.000000	0.280359
984.000000	0.279993
985.000000	0.279845
986.000000	0.279678
987.000000	0.279608
988.000000	0.279550
989.000000	0.279223
990.000000	0.278995
991.000000	0.278868
992.000000	0.278762
993.000000	0.278683
994.000000	0.278465
995.000000	0.278278
996.000000	0.278145
997.000000	0.278144
998.000000	0.277964
999.000000	0.277670
1000.000000	0.277682
1001.000000	0.278131
1002.000000	0.277830
1003.000000	0.277354
1004.000000	0.277020
1005.000000	0.276634
1006.000000	0.276455
1007.000000	0.276562
1008.000000	0.276421
1009.000000	0.276177
1010.000000	0.276025
1011.000000	0.275973
1012.000000	0.275873
1013.000000	0.275825
1014.000000	0.275868
1015.000000	0.275626
1016.000000	0.275535
1017.000000	0.275600
1018.000000	0.275487
1019.000000	0.275511
1020.000000	0.275930
1021.000000	0.275667
1022.000000	0.275196
1023.000000	0.275216
1024.000000	0.275020
1025.000000	0.275002
1026.000000	0.275355
1027.000000	0.275445
1028.000000	0.275409
1029.000000	0.275434
1030.000000	0.275249
1031.000000	0.274982
1032.000000	0.274957
1033.000000	0.274943
1034.000000	0.275019
1035.000000	0.275488
1036.000000	0.275643
1037.000000	0.275589
1038.000000	0.275579
1039.000000	0.275619
1040.000000	0.275652
1041.000000	0.275742
1042.000000	0.275783
1043.000000	0.275713
1044.000000	0.275706
1045.000000	0.275725
1046.000000	0.275771
1047.000000	0.275933
1048.000000	0.276292
1049.000000	0.276316
1050.000000	0.276222
1051.000000	0.276241
1052.000000	0.275971
1053.000000	0.275953
1054.000000	0.276503
1055.000000	0.276708
1056.000000	0.276749
1057.000000	0.276976
1058.000000	0.277202
1059.000000	0.276931
1060.000000	0.276933
1061.000000	0.277214
1062.000000	0.277198
1063.000000	0.277240
1064.000000	0.277492
1065.000000	0.277856
1066.000000	0.278104
1067.000000	0.278533
1068.000000	0.278747
1069.000000	0.278574
1070.000000	0.278735
1071.000000	0.279155
1072.000000	0.279379
1073.000000	0.279646
1074.000000	0.280027
1075.000000	0.280115
1076.000000	0.280151
1077.000000	0.280358
1078.000000	0.280521
1079.000000	0.280710
1080.000000	0.280990
1081.000000	0.281211
1082.000000	0.281487
1083.000000	0.281722
1084.000000	0.281953
1085.000000	0.282226
1086.000000	0.282478
1087.000000	0.282749
1088.000000	0.282961
1089.000000	0.283215
1090.000000	0.283506
1091.000000	0.283702
1092.000000	0.283904
1093.000000	0.284146
1094.000000	0.284274
1095.000000	0.284132
1096.000000	0.284368
1097.000000	0.284795
1098.000000	0.285048
1099.000000	0.285366
1100.000000	0.285647
1101.000000	0.285733
1102.000000	0.285876
1103.000000	0.286028
1104.000000	0.286254
1105.000000	0.286507
1106.000000	0.286703
1107.000000	0.286912
1108.000000	0.287090
1109.000000	0.287295
1110.000000	0.287351
1111.000000	0.287495
1112.000000	0.287674
1113.000000	0.287870
1114.000000	0.288093
1115.000000	0.288257
1116.000000	0.288437
1117.000000	0.288598
1118.000000	0.288658
1119.000000	0.288759
1120.000000	0.288958
1121.000000	0.289043
1122.000000	0.289148
1123.000000	0.289380
1124.000000	0.289378
1125.000000	0.289462
1126.000000	0.289552
1127.000000	0.289595
1128.000000	0.289619
1129.000000	0.289609
1130.000000	0.289770
1131.000000	0.290044
1132.000000	0.290148
1133.000000	0.290379
1134.000000	0.290478
1135.000000	0.290305
1136.000000	0.290308
1137.000000	0.290381
1138.000000	0.290391
1139.000000	0.290499
1140.000000	0.290616
1141.000000	0.290635
1142.000000	0.290726
1143.000000	0.290820
1144.000000	0.290982
1145.000000	0.291048
1146.000000	0.291043
1147.000000	0.291102
1148.000000	0.291072
1149.000000	0.291089
1150.000000	0.291150
1151.000000	0.291246
1152.000000	0.291274
1153.000000	0.291384
1154.000000	0.291602
1155.000000	0.291659
1156.000000	0.291621
1157.000000	0.291670
1158.000000	0.291671
1159.000000	0.291651
1160.000000	0.291648
1161.000000	0.291642
1162.000000	0.291608
1163.000000	0.291743
1164.000000	0.291770
1165.000000	0.291815
1166.000000	0.291834
1167.000000	0.291760
1168.000000	0.291680
1169.000000	0.291608
1170.000000	0.291601
1171.000000	0.291615
1172.000000	0.291670
1173.000000	0.291808
1174.000000	0.291840
1175.000000	0.291786
1176.000000	0.291744
1177.000000	0.291751
1178.000000	0.291731
1179.000000	0.291689
1180.000000	0.291622
1181.000000	0.291623
1182.000000	0.291571
1183.000000	0.291551
1184.000000	0.291559
1185.000000	0.291565
1186.000000	0.291554
1187.000000	0.291562
1188.000000	0.291620
1189.000000	0.291589
1190.000000	0.291554
1191.000000	0.291539
1192.000000	0.291568
1193.000000	0.291679
1194.000000	0.291750
1195.000000	0.291795
1196.000000	0.291805
1197.000000	0.291807
1198.000000	0.291816
1199.000000	0.291808
1200.000000	0.291786
1201.000000	0.291717
1202.000000	0.291648
1203.000000	0.291601
1204.000000	0.291560
1205.000000	0.291530
1206.000000	0.291456
1207.000000	0.291451
1208.000000	0.291380
1209.000000	0.291315
1210.000000	0.291279
1211.000000	0.291235
1212.000000	0.291209
1213.000000	0.291248
1214.000000	0.291282
1215.000000	0.291308
1216.000000	0.291335
1217.000000	0.291322
1218.000000	0.291336
1219.000000	0.291399
1220.000000	0.291481
1221.000000	0.291529
1222.000000	0.291550
1223.000000	0.291493
1224.000000	0.291435
1225.000000	0.291375
1226.000000	0.291372
1227.000000	0.291382
1228.000000	0.291388
1229.000000	0.291328
1230.000000	0.291202
1231.000000	0.291074
1232.000000	0.291006
1233.000000	0.291004
1234.000000	0.291022
1235.000000	0.291006
1236.000000	0.290901
1237.000000	0.290891
1238.000000	0.290882
1239.000000	0.290836
1240.000000	0.290792
1241.000000	0.290774
1242.000000	0.290771
1243.000000	0.290733
1244.000000	0.290747
1245.000000	0.290823
1246.000000	0.290800
1247.000000	0.290880
1248.000000	0.291008
1249.000000	0.291087
1250.000000	0.291112
1251.000000	0.291101
1252.000000	0.291078
1253.000000	0.291030
1254.000000	0.290968
1255.000000	0.290883
1256.000000	0.290837
1257.000000	0.290805
1258.000000	0.290812
1259.000000	0.290787
1260.000000	0.290817
1261.000000	0.290836
1262.000000	0.290830
1263.000000	0.290855
1264.000000	0.290874
1265.000000	0.290893
1266.000000	0.290857
1267.000000	0.290812
1268.000000	0.290790
1269.000000	0.290657
1270.000000	0.290632
1271.000000	0.290666
1272.000000	0.290653
1273.000000	0.290710
1274.000000	0.290694
1275.000000	0.290671
1276.000000	0.290645
1277.000000	0.290691
1278.000000	0.290690
1279.000000	0.290657
1280.000000	0.290540
1281.000000	0.290445
1282.000000	0.290371
1283.000000	0.290384
1284.000000	0.290424
1285.000000	0.290415
1286.000000	0.290378
1287.000000	0.290327
1288.000000	0.290295
1289.000000	0.290221
1290.000000	0.290133
1291.000000	0.290089
1292.000000	0.290088
1293.000000	0.290075
1294.000000	0.290014
1295.000000	0.289996
1296.000000	0.289979
1297.000000	0.289924
1298.000000	0.289952
1299.000000	0.290000
1300.000000	0.289992
1301.000000	0.289946
1302.000000	0.289869
1303.000000	0.289852
1304.000000	0.289809
1305.000000	0.289834
1306.000000	0.289836
1307.000000	0.289908
1308.000000	0.289957
1309.000000	0.289958
1310.000000	0.289982
1311.000000	0.290065
1312.000000	0.290048
1313.000000	0.290014
1314.000000	0.290024
1315.000000	0.289956
1316.000000	0.289941
1317.000000	0.289959
1318.000000	0.289937
1319.000000	0.289901
1320.000000	0.289868
1321.000000	0.289788
1322.000000	0.289708
1323.000000	0.289680
1324.000000	0.289694
1325.000000	0.289630
1326.000000	0.289551
1327.000000	0.289494
1328.000000	0.289426
1329.000000	0.289300
1330.000000	0.289188
1331.000000	0.289079
1332.000000	0.288963
1333.000000	0.288846
1334.000000	0.288803
1335.000000	0.288786
1336.000000	0.288768
1337.000000	0.288715
1338.000000	0.288658
1339.000000	0.288522
1340.000000	0.288343
1341.000000	0.288157
1342.000000	0.287953
1343.000000	0.287801
1344.000000	0.287685
1345.000000	0.287570
1346.000000	0.287558
1347.000000	0.287457
1348.000000	0.287356
1349.000000	0.287216
1350.000000	0.287129
1351.000000	0.287070
1352.000000	0.286979
1353.000000	0.286906
1354.000000	0.286859
1355.000000	0.286764
1356.000000	0.286727
1357.000000	0.286684
1358.000000	0.286591
1359.000000	0.286509
1360.000000	0.286446
1361.000000	0.286401
1362.000000	0.286377
1363.000000	0.286400
1364.000000	0.286384
1365.000000	0.286351
1366.000000	0.286302
1367.000000	0.286217
1368.000000	0.286091
1369.000000	0.286119
1370.000000	0.286053
1371.000000	0.285975
1372.000000	0.285918
1373.000000	0.285797
1374.000000	0.285727
1375.000000	0.285665
1376.000000	0.285691
1377.000000	0.285705
1378.000000	0.285674
1379.000000	0.285635
1380.000000	0.285573
1381.000000	0.285442
1382.000000	0.285330
1383.000000	0.285280
1384.000000	0.285056
1385.000000	0.284854
1386.000000	0.284776
1387.000000	0.284645
1388.000000	0.284554
1389.000000	0.284484
1390.000000	0.284356
1391.000000	0.284163
1392.000000	0.283982
1393.000000	0.283802
1394.000000	0.283657
1395.000000	0.283518
1396.000000	0.283410
1397.000000	0.283215
1398.000000	0.282928
1399.000000	0.282691
1400.000000	0.282425
1401.000000	0.282148
1402.000000	0.281935
1403.000000	0.281665
1404.000000	0.281401
1405.000000	0.281125
1406.000000	0.280808
1407.000000	0.280514
1408.000000	0.280165
1409.000000	0.279829
1410.000000	0.279554
1411.000000	0.279243
1412.000000	0.278867
1413.000000	0.278486
1414.000000	0.278081
1415.000000	0.277654
1416.000000	0.277232
1417.000000	0.276791
1418.000000	0.276238
1419.000000	0.275724
1420.000000	0.275191
1421.000000	0.274679
1422.000000	0.274198
1423.000000	0.273768
1424.000000	0.273232
1425.000000	0.272722
1426.000000	0.272233
1427.000000	0.271726
1428.000000	0.271258
1429.000000	0.270809
1430.000000	0.270354
1431.000000	0.269900
1432.000000	0.269427
1433.000000	0.268969
1434.000000	0.268509
1435.000000	0.268107
1436.000000	0.267707
1437.000000	0.267323
1438.000000	0.266898
1439.000000	0.266473
1440.000000	0.266085
1441.000000	0.265724
1442.000000	0.265374
1443.000000	0.264985
1444.000000	0.264658
1445.000000	0.264323
1446.000000	0.263998
1447.000000	0.263721
1448.000000	0.263413
1449.000000	0.263112
1450.000000	0.262824
1451.000000	0.262570
1452.000000	0.262318
1453.000000	0.262051
1454.000000	0.261780
1455.000000	0.261547
1456.000000	0.261428
1457.000000	0.261327
1458.000000	0.261209
1459.000000	0.261106
1460.000000	0.260940
1461.000000	0.260744
1462.000000	0.260593
1463.000000	0.260394
1464.000000	0.260231
1465.000000	0.260169
1466.000000	0.260076
1467.000000	0.259999
1468.000000	0.259908
1469.000000	0.259802
1470.000000	0.259671
1471.000000	0.259565
1472.000000	0.259424
1473.000000	0.259351
1474.000000	0.259293
1475.000000	0.259227
1476.000000	0.259208
1477.000000	0.259205
1478.000000	0.259182
1479.000000	0.259157
1480.000000	0.259152
1481.000000	0.259125
1482.000000	0.259111
1483.000000	0.259141
1484.000000	0.259165
1485.000000	0.259226
1486.000000	0.259324
1487.000000	0.259423
1488.000000	0.259578
1489.000000	0.259715
1490.000000	0.259734
1491.000000	0.259838
1492.000000	0.259922
1493.000000	0.260037
1494.000000	0.260173
1495.000000	0.260289
1496.000000	0.260398
1497.000000	0.260516
1498.000000	0.260653
1499.000000	0.260784
1500.000000	0.260918
1501.000000	0.261057
1502.000000	0.261191
1503.000000	0.261360
1504.000000	0.261541
1505.000000	0.261661
1506.000000	0.261789
1507.000000	0.261886
1508.000000	0.261982
1509.000000	0.262109
1510.000000	0.262177
1511.000000	0.262276
1512.000000	0.262365
1513.000000	0.262419
1514.000000	0.262538
1515.000000	0.262635
1516.000000	0.262749
1517.000000	0.262845
1518.000000	0.262920
1519.000000	0.262977
1520.000000	0.263052
1521.000000	0.263134
1522.000000	0.263276
1523.000000	0.263437
1524.000000	0.263526
1525.000000	0.263641
1526.000000	0.263708
1527.000000	0.263773
1528.000000	0.263897
1529.000000	0.263972
1530.000000	0.263994
1531.000000	0.264076
1532.000000	0.264175
1533.000000	0.264261
1534.000000	0.264403
1535.000000	0.264546
1536.000000	0.264569
1537.000000	0.264650
1538.000000	0.264727
1539.000000	0.264705
1540.000000	0.264771
1541.000000	0.264915
1542.000000	0.265060
1543.000000	0.265226
1544.000000	0.265346
1545.000000	0.265422
1546.000000	0.265472
1547.000000	0.265536
1548.000000	0.265611
1549.000000	0.265660
1550.000000	0.265697
1551.000000	0.265711
1552.000000	0.265729
1553.000000	0.265749
1554.000000	0.265749
1555.000000	0.265769
1556.000000	0.265815
1557.000000	0.265850
1558.000000	0.265896
1559.000000	0.265914
1560.000000	0.265916
1561.000000	0.265942
1562.000000	0.265918
1563.000000	0.265880
1564.000000	0.265897
1565.000000	0.265904
1566.000000	0.265889
1567.000000	0.266010
1568.000000	0.266035
1569.000000	0.266064
1570.000000	0.266074
1571.000000	0.266036
1572.000000	0.266001
1573.000000	0.265954
1574.000000	0.265919
1575.000000	0.265916
1576.000000	0.265893
1577.000000	0.265854
1578.000000	0.265785
1579.000000	0.265731
1580.000000	0.265675
1581.000000	0.265651
1582.000000	0.265639
1583.000000	0.265627
1584.000000	0.265592
1585.000000	0.265650
1586.000000	0.265662
1587.000000	0.265640
1588.000000	0.265619
1589.000000	0.265595
1590.000000	0.265557
1591.000000	0.265533
1592.000000	0.265511
1593.000000	0.265505
1594.000000	0.265459
1595.000000	0.265446
1596.000000	0.265418
1597.000000	0.265380
1598.000000	0.265330
1599.000000	0.265293
1600.000000	0.265240
1601.000000	0.265242
1602.000000	0.265211
1603.000000	0.265199
1604.000000	0.265163
1605.000000	0.265124
1606.000000	0.265064
1607.000000	0.265037
1608.000000	0.264977
1609.000000	0.264914
1610.000000	0.264851
1611.000000	0.264814
1612.000000	0.264744
1613.000000	0.264749
1614.000000	0.264689
1615.000000	0.264631
1616.000000	0.264601
1617.000000	0.264508
1618.000000	0.264441
1619.000000	0.264354
1620.000000	0.264333
1621.000000	0.264378
1622.000000	0.264471
1623.000000	0.264605
1624.000000	0.264701
1625.000000	0.264688
1626.000000	0.264696
1627.000000	0.264717
1628.000000	0.264790
1629.000000	0.264892
1630.000000	0.264972
1631.000000	0.265007
1632.000000	0.265020
1633.000000	0.265016
1634.000000	0.265032
1635.000000	0.265084
1636.000000	0.265106
1637.000000	0.265142
1638.000000	0.265128
1639.000000	0.265116
1640.000000	0.265110
1641.000000	0.265120
1642.000000	0.265177
1643.000000	0.265309
1644.000000	0.265389
1645.000000	0.265489
1646.000000	0.265516
1647.000000	0.265493
1648.000000	0.265514
1649.000000	0.265603
1650.000000	0.265696
1651.000000	0.265875
1652.000000	0.266002
1653.000000	0.266052
1654.000000	0.266156
1655.000000	0.266213
1656.000000	0.266215
1657.000000	0.266284
1658.000000	0.266324
1659.000000	0.266406
1660.000000	0.266498
1661.000000	0.266537
1662.000000	0.266569
1663.000000	0.266553
1664.000000	0.266584
1665.000000	0.266604
1666.000000	0.266729
1667.000000	0.266844
1668.000000	0.266962
1669.000000	0.267128
1670.000000	0.267193
1671.000000	0.267303
1672.000000	0.267433
1673.000000	0.267504
1674.000000	0.267639
1675.000000	0.267778
1676.000000	0.267880
1677.000000	0.267972
1678.000000	0.268029
1679.000000	0.268104
1680.000000	0.268103
1681.000000	0.268088
1682.000000	0.268101
1683.000000	0.268132
1684.000000	0.268201
1685.000000	0.268282
1686.000000	0.268329
1687.000000	0.268370
1688.000000	0.268333
1689.000000	0.268294
1690.000000	0.268266
1691.000000	0.268291
1692.000000	0.268353
1693.000000	0.268411
1694.000000	0.268363
1695.000000	0.268369
1696.000000	0.268386
1697.000000	0.268341
1698.000000	0.268342
1699.000000	0.268380
1700.000000	0.268352
1701.000000	0.268466
1702.000000	0.268601
1703.000000	0.268637
1704.000000	0.268733
1705.000000	0.268807
1706.000000	0.268819
1707.000000	0.268907
1708.000000	0.269034
1709.000000	0.269085
1710.000000	0.269225
1711.000000	0.269341
1712.000000	0.269453
1713.000000	0.269522
1714.000000	0.269590
1715.000000	0.269677
1716.000000	0.269745
1717.000000	0.269814
1718.000000	0.269901
1719.000000	0.269942
1720.000000	0.270007
1721.000000	0.270019
1722.000000	0.269973
1723.000000	0.269984
1724.000000	0.269979
1725.000000	0.270053
1726.000000	0.270158
1727.000000	0.270210
1728.000000	0.270226
1729.000000	0.270176
1730.000000	0.270166
1731.000000	0.270170
1732.000000	0.270163
1733.000000	0.270240
1734.000000	0.270252
1735.000000	0.270295
1736.000000	0.270335
1737.000000	0.270407
1738.000000	0.270522
1739.000000	0.270607
1740.000000	0.270693
1741.000000	0.270761
1742.000000	0.270800
1743.000000	0.270923
1744.000000	0.271082
1745.000000	0.271149
1746.000000	0.271197
1747.000000	0.271241
1748.000000	0.271237
1749.000000	0.271241
1750.000000	0.271237
1751.000000	0.271298
1752.000000	0.271427
1753.000000	0.271471
1754.000000	0.271565
1755.000000	0.271646
1756.000000	0.271741
1757.000000	0.271887
1758.000000	0.272034
1759.000000	0.272206
1760.000000	0.272315
1761.000000	0.272361
1762.000000	0.272410
1763.000000	0.272431
1764.000000	0.272453
1765.000000	0.272464
1766.000000	0.272466
1767.000000	0.272378
1768.000000	0.272283
1769.000000	0.272253
1770.000000	0.272238
1771.000000	0.272164
1772.000000	0.272137
1773.000000	0.272069
1774.000000	0.272103
1775.000000	0.272256
1776.000000	0.272369
1777.000000	0.272529
1778.000000	0.272598
1779.000000	0.272561
1780.000000	0.272670
1781.000000	0.272778
1782.000000	0.272905
1783.000000	0.273164
1784.000000	0.273333
1785.000000	0.273456
1786.000000	0.273607
1787.000000	0.273762
1788.000000	0.273916
1789.000000	0.274014
1790.000000	0.274069
1791.000000	0.274126
1792.000000	0.274250
1793.000000	0.274324
1794.000000	0.274434
1795.000000	0.274512
1796.000000	0.274483
1797.000000	0.274508
1798.000000	0.274533
1799.000000	0.274580
1800.000000	0.274736
1801.000000	0.274319
1802.000000	0.274545
1803.000000	0.274985
1804.000000	0.275192
1805.000000	0.275296
1806.000000	0.275529
1807.000000	0.275764
1808.000000	0.275880
1809.000000	0.276066
1810.000000	0.276242
1811.000000	0.276170
1812.000000	0.275809
1813.000000	0.275712
1814.000000	0.275651
1815.000000	0.275569
1816.000000	0.275393
1817.000000	0.275352
1818.000000	0.275390
1819.000000	0.275612
1820.000000	0.276029
1821.000000	0.276332
1822.000000	0.276302
1823.000000	0.275883
1824.000000	0.275602
1825.000000	0.274888
1826.000000	0.274710
1827.000000	0.274642
1828.000000	0.274733
1829.000000	0.275121
1830.000000	0.275360
1831.000000	0.275391
1832.000000	0.275218
1833.000000	0.275284
1834.000000	0.275356
1835.000000	0.275327
1836.000000	0.275307
1837.000000	0.275301
1838.000000	0.275123
1839.000000	0.274804
1840.000000	0.274562
1841.000000	0.274521
1842.000000	0.274406
1843.000000	0.274064
1844.000000	0.274028
1845.000000	0.274195
1846.000000	0.274236
1847.000000	0.274125
1848.000000	0.274193
1849.000000	0.274143
1850.000000	0.273915
1851.000000	0.273809
1852.000000	0.273635
1853.000000	0.273533
1854.000000	0.273366
1855.000000	0.273171
1856.000000	0.272855
1857.000000	0.272687
1858.000000	0.272443
1859.000000	0.271941
1860.000000	0.271627
1861.000000	0.271377
1862.000000	0.271008
1863.000000	0.270649
1864.000000	0.270436
1865.000000	0.270250
1866.000000	0.269928
1867.000000	0.269626
1868.000000	0.269386
1869.000000	0.268662
1870.000000	0.268247
1871.000000	0.268119
1872.000000	0.267840
1873.000000	0.267551
1874.000000	0.267481
1875.000000	0.267072
1876.000000	0.266271
1877.000000	0.265152
1878.000000	0.264165
1879.000000	0.263071
1880.000000	0.262054
1881.000000	0.261235
1882.000000	0.260350
1883.000000	0.259441
1884.000000	0.258565
1885.000000	0.257556
1886.000000	0.256398
1887.000000	0.255140
1888.000000	0.253838
1889.000000	0.252423
1890.000000	0.251292
1891.000000	0.250280
1892.000000	0.249006
1893.000000	0.247531
1894.000000	0.246147
1895.000000	0.244738
1896.000000	0.243440
1897.000000	0.242136
1898.000000	0.240865
1899.000000	0.239663
1900.000000	0.238304
1901.000000	0.236871
1902.000000	0.235275
1903.000000	0.233651
1904.000000	0.232188
1905.000000	0.230732
1906.000000	0.229158
1907.000000	0.227668
1908.000000	0.226053
1909.000000	0.224387
1910.000000	0.222898
1911.000000	0.221497
1912.000000	0.220226
1913.000000	0.218922
1914.000000	0.217408
1915.000000	0.215811
1916.000000	0.214433
1917.000000	0.213121
1918.000000	0.212040
1919.000000	0.211020
1920.000000	0.209950
1921.000000	0.208827
1922.000000	0.207767
1923.000000	0.206781
1924.000000	0.205755
1925.000000	0.204817
1926.000000	0.204034
1927.000000	0.203332
1928.000000	0.202594
1929.000000	0.202016
1930.000000	0.201441
1931.000000	0.200841
1932.000000	0.200325
1933.000000	0.199906
1934.000000	0.199642
1935.000000	0.199424
1936.000000	0.199210
1937.000000	0.198937
1938.000000	0.198610
1939.000000	0.198267
1940.000000	0.197843
1941.000000	0.197342
1942.000000	0.197149
1943.000000	0.197043
1944.000000	0.196985
1945.000000	0.197015
1946.000000	0.196942
1947.000000	0.196842
1948.000000	0.196642
1949.000000	0.196583
1950.000000	0.196579
1951.000000	0.196338
1952.000000	0.195998
1953.000000	0.195643
1954.000000	0.195435
1955.000000	0.195241
1956.000000	0.195073
1957.000000	0.195123
1958.000000	0.195039
1959.000000	0.194736
1960.000000	0.194712
1961.000000	0.194833
1962.000000	0.194767
1963.000000	0.194657
1964.000000	0.194706
1965.000000	0.194443
1966.000000	0.194061
1967.000000	0.194161
1968.000000	0.194230
1969.000000	0.194299
1970.000000	0.194449
1971.000000	0.194315
1972.000000	0.194159
1973.000000	0.194034
1974.000000	0.193991
1975.000000	0.194101
1976.000000	0.194339
1977.000000	0.194607
1978.000000	0.194807
1979.000000	0.195042
1980.000000	0.195077
1981.000000	0.195049
1982.000000	0.195289
1983.000000	0.195488
1984.000000	0.195499
1985.000000	0.195444
1986.000000	0.195420
1987.000000	0.195204
1988.000000	0.195261
1989.000000	0.195712
1990.000000	0.196223
1991.000000	0.196653
1992.000000	0.197029
1993.000000	0.197357
1994.000000	0.197519
1995.000000	0.197701
1996.000000	0.198055
1997.000000	0.198331
1998.000000	0.198591
1999.000000	0.198877
2000.000000	0.199201
2001.000000	0.199453
2002.000000	0.199788
2003.000000	0.200270
2004.000000	0.200684
2005.000000	0.200823
2006.000000	0.201164
2007.000000	0.201326
2008.000000	0.201609
2009.000000	0.202095
2010.000000	0.202550
2011.000000	0.202853
2012.000000	0.203211
2013.000000	0.203644
2014.000000	0.203780
2015.000000	0.204069
2016.000000	0.204454
2017.000000	0.204794
2018.000000	0.205079
2019.000000	0.205420
2020.000000	0.205714
2021.000000	0.206134
2022.000000	0.206769
2023.000000	0.207269
2024.000000	0.207710
2025.000000	0.208258
2026.000000	0.208840
2027.000000	0.209061
2028.000000	0.209435
2029.000000	0.209862
2030.000000	0.210021
2031.000000	0.210230
2032.000000	0.210648
2033.000000	0.211257
2034.000000	0.211680
2035.000000	0.212247
2036.000000	0.212598
2037.000000	0.212818
2038.000000	0.213149
2039.000000	0.213487
2040.000000	0.213979
2041.000000	0.214624
2042.000000	0.215026
2043.000000	0.215412
2044.000000	0.215674
2045.000000	0.215752
2046.000000	0.215958
2047.000000	0.216300
2048.000000	0.216831
2049.000000	0.217292
2050.000000	0.217530
2051.000000	0.217841
2052.000000	0.218039
2053.000000	0.218206
2054.000000	0.218658
2055.000000	0.218931
2056.000000	0.219168
2057.000000	0.219431
2058.000000	0.219710
2059.000000	0.220136
2060.000000	0.220400
2061.000000	0.220665
2062.000000	0.220826
2063.000000	0.220812
2064.000000	0.220904
2065.000000	0.221134
2066.000000	0.221358
2067.000000	0.221887
2068.000000	0.222382
2069.000000	0.222677
2070.000000	0.223280
2071.000000	0.223607
2072.000000	0.223897
2073.000000	0.224381
2074.000000	0.224661
2075.000000	0.224931
2076.000000	0.225150
2077.000000	0.225367
2078.000000	0.225452
2079.000000	0.225616
2080.000000	0.225785
2081.000000	0.226172
2082.000000	0.226708
2083.000000	0.227226
2084.000000	0.227972
2085.000000	0.228654
2086.000000	0.228971
2087.000000	0.229494
2088.000000	0.229827
2089.000000	0.229976
2090.000000	0.230313
2091.000000	0.230736
2092.000000	0.231100
2093.000000	0.231584
2094.000000	0.232003
2095.000000	0.232396
2096.000000	0.232869
2097.000000	0.233393
2098.000000	0.233664
2099.000000	0.234104
2100.000000	0.234587
2101.000000	0.234946
2102.000000	0.235219
2103.000000	0.235381
2104.000000	0.235604
2105.000000	0.235853
2106.000000	0.236170
2107.000000	0.236472
2108.000000	0.236709
2109.000000	0.237037
2110.000000	0.237265
2111.000000	0.237552
2112.000000	0.237946
2113.000000	0.238007
2114.000000	0.238240
2115.000000	0.238391
2116.000000	0.238524
2117.000000	0.238876
2118.000000	0.238961
2119.000000	0.239029
2120.000000	0.239169
2121.000000	0.239172
2122.000000	0.239406
2123.000000	0.239813
2124.000000	0.240197
2125.000000	0.240735
2126.000000	0.241079
2127.000000	0.241445
2128.000000	0.241811
2129.000000	0.242015
2130.000000	0.242172
2131.000000	0.242383
2132.000000	0.242661
2133.000000	0.242815
2134.000000	0.243080
2135.000000	0.243261
2136.000000	0.243117
2137.000000	0.243173
2138.000000	0.243237
2139.000000	0.243406
2140.000000	0.243777
2141.000000	0.243954
2142.000000	0.244085
2143.000000	0.244026
2144.000000	0.243810
2145.000000	0.243835
2146.000000	0.244018
2147.000000	0.244453
2148.000000	0.244588
2149.000000	0.244868
2150.000000	0.244787
2151.000000	0.244599
2152.000000	0.244559
2153.000000	0.244457
2154.000000	0.244396
2155.000000	0.244410
2156.000000	0.244303
2157.000000	0.244210
2158.000000	0.244155
2159.000000	0.244054
2160.000000	0.244162
2161.000000	0.244332
2162.000000	0.244527
2163.000000	0.244898
2164.000000	0.245038
2165.000000	0.245039
2166.000000	0.245095
2167.000000	0.245248
2168.000000	0.245026
2169.000000	0.244855
2170.000000	0.245157
2171.000000	0.245220
2172.000000	0.245082
2173.000000	0.245274
2174.000000	0.245719
2175.000000	0.245874
2176.000000	0.246136
2177.000000	0.246351
2178.000000	0.246426
2179.000000	0.246551
2180.000000	0.246754
2181.000000	0.246946
2182.000000	0.246567
2183.000000	0.246138
2184.000000	0.246170
2185.000000	0.246149
2186.000000	0.246439
2187.000000	0.247259
2188.000000	0.247615
2189.000000	0.247485
2190.000000	0.247384
2191.000000	0.247384
2192.000000	0.247196
2193.000000	0.247065
2194.000000	0.246566
2195.000000	0.245618
2196.000000	0.245096
2197.000000	0.244154
2198.000000	0.243955
2199.000000	0.244501
2200.000000	0.245056
2201.000000	0.246652
2202.000000	0.247321
2203.000000	0.247751
2204.000000	0.247565
2205.000000	0.246206
2206.000000	0.245012
2207.000000	0.243971
2208.000000	0.243675
2209.000000	0.244209
2210.000000	0.244974
2211.000000	0.245737
2212.000000	0.246355
2213.000000	0.246756
2214.000000	0.246902
2215.000000	0.246870
2216.000000	0.246306
2217.000000	0.246515
2218.000000	0.246912
2219.000000	0.247106
2220.000000	0.247830
2221.000000	0.248235
2222.000000	0.248090
2223.000000	0.248130
2224.000000	0.248169
2225.000000	0.248764
2226.000000	0.248605
2227.000000	0.247546
2228.000000	0.247011
2229.000000	0.246177
2230.000000	0.245890
2231.000000	0.246851
2232.000000	0.247668
2233.000000	0.248407
2234.000000	0.249184
2235.000000	0.249703
2236.000000	0.249850
2237.000000	0.249835
2238.000000	0.249507
2239.000000	0.248269
2240.000000	0.248105
2241.000000	0.248378
2242.000000	0.248271
2243.000000	0.248447
2244.000000	0.248519
2245.000000	0.247951
2246.000000	0.247955
2247.000000	0.248548
2248.000000	0.248848
2249.000000	0.249294
2250.000000	0.249727
2251.000000	0.249223
2252.000000	0.249082
2253.000000	0.248624
2254.000000	0.248045
2255.000000	0.247608
2256.000000	0.247963
2257.000000	0.249114
2258.000000	0.249438
2259.000000	0.250031
2260.000000	0.249966
2261.000000	0.249585
2262.000000	0.248173
2263.000000	0.247948
2264.000000	0.248348
2265.000000	0.248238
2266.000000	0.248573
2267.000000	0.248098
2268.000000	0.246350
2269.000000	0.245835
2270.000000	0.245787
2271.000000	0.245207
2272.000000	0.244926
2273.000000	0.244814
2274.000000	0.243924
2275.000000	0.244073
2276.000000	0.245597
2277.000000	0.245934
2278.000000	0.245819
2279.000000	0.246159
2280.000000	0.244955
2281.000000	0.244376
2282.000000	0.245136
2283.000000	0.244136
2284.000000	0.244026
2285.000000	0.244078
2286.000000	0.242637
2287.000000	0.242180
2288.000000	0.241655
2289.000000	0.240457
2290.000000	0.240001
2291.000000	0.240168
2292.000000	0.240063
2293.000000	0.239889
2294.000000	0.239563
2295.000000	0.238774
2296.000000	0.238404
2297.000000	0.237953
2298.000000	0.238156
2299.000000	0.239163
2300.000000	0.239535
2301.000000	0.240044
2302.000000	0.240048
2303.000000	0.239395
2304.000000	0.238902
2305.000000	0.238266
2306.000000	0.237949
2307.000000	0.237537
2308.000000	0.237547
2309.000000	0.238047
2310.000000	0.237726
2311.000000	0.237158
2312.000000	0.236094
2313.000000	0.234635
2314.000000	0.233265
2315.000000	0.232525
2316.000000	0.232827
2317.000000	0.232697
2318.000000	0.233468
2319.000000	0.234138
2320.000000	0.233758
2321.000000	0.234159
2322.000000	0.233621
2323.000000	0.232996
2324.000000	0.232630
2325.000000	0.230894
2326.000000	0.229751
2327.000000	0.229042
2328.000000	0.228131
2329.000000	0.228588
2330.000000	0.228796
2331.000000	0.228837
2332.000000	0.228987
2333.000000	0.228471
2334.000000	0.227973
2335.000000	0.227443
2336.000000	0.226028
2337.000000	0.224883
2338.000000	0.223558
2339.000000	0.222968
2340.000000	0.222803
2341.000000	0.222676
2342.000000	0.223284
2343.000000	0.222978
2344.000000	0.222149
2345.000000	0.221254
2346.000000	0.220070
2347.000000	0.219250
2348.000000	0.218726
2349.000000	0.217171
2350.000000	0.215882
2351.000000	0.215463
2352.000000	0.215182
2353.000000	0.215757
2354.000000	0.216530
2355.000000	0.216152
2356.000000	0.214817
2357.000000	0.214259
2358.000000	0.214686
2359.000000	0.215197
2360.000000	0.215560
2361.000000	0.215291
2362.000000	0.212571
2363.000000	0.210867
2364.000000	0.210160
2365.000000	0.208405
2366.000000	0.208962
2367.000000	0.208921
2368.000000	0.208321
2369.000000	0.208971
2370.000000	0.207529
2371.000000	0.206788
2372.000000	0.206077
2373.000000	0.205055
2374.000000	0.206227
2375.000000	0.205828
2376.000000	0.205788
2377.000000	0.206371
2378.000000	0.205393
2379.000000	0.204968
2380.000000	0.203565
2381.000000	0.202020
2382.000000	0.201279
2383.000000	0.200456
2384.000000	0.199887
2385.000000	0.199943
2386.000000	0.200515
2387.000000	0.201318
2388.000000	0.202181
2389.000000	0.201369
2390.000000	0.200273
2391.000000	0.199476
2392.000000	0.199880
2393.000000	0.202109
2394.000000	0.203761
2395.000000	0.204135
2396.000000	0.203362
2397.000000	0.201058
2398.000000	0.197990
2399.000000	0.195922
2400.000000	0.192954
2401.000000	0.191791
2402.000000	0.191922
2403.000000	0.190350
2404.000000	0.189683
2405.000000	0.188630
2406.000000	0.189125
2407.000000	0.191162
2408.000000	0.192787
2409.000000	0.194529
2410.000000	0.193644
2411.000000	0.190470
2412.000000	0.187812
2413.000000	0.186678
2414.000000	0.186676
2415.000000	0.186973
2416.000000	0.187102
2417.000000	0.187580
2418.000000	0.187296
2419.000000	0.187204
2420.000000	0.188878
2421.000000	0.188078
2422.000000	0.186656
2423.000000	0.187358
2424.000000	0.187142
2425.000000	0.186192
2426.000000	0.187491
2427.000000	0.190094
2428.000000	0.192846
2429.000000	0.196087
2430.000000	0.195194
2431.000000	0.194357
2432.000000	0.194139
2433.000000	0.191576
2434.000000	0.193738
2435.000000	0.194817
2436.000000	0.192012
2437.000000	0.192480
2438.000000	0.192434
2439.000000	0.187592
2440.000000	0.181578
2441.000000	0.178648
2442.000000	0.177518
2443.000000	0.178518
2444.000000	0.181953
2445.000000	0.184715
2446.000000	0.187445
2447.000000	0.189240
2448.000000	0.191143
2449.000000	0.190044
2450.000000	0.182074
2451.000000	0.178498
2452.000000	0.179440
2453.000000	0.176380
2454.000000	0.177611
2455.000000	0.178421
2456.000000	0.175357
2457.000000	0.178341
2458.000000	0.183472
2459.000000	0.184566
2460.000000	0.181795
2461.000000	0.179085
2462.000000	0.173913
2463.000000	0.169853
2464.000000	0.172239
2465.000000	0.175049
2466.000000	0.178292
2467.000000	0.179428
2468.000000	0.172754
2469.000000	0.168259
2470.000000	0.166835
2471.000000	0.162747
2472.000000	0.169351
2473.000000	0.169432
2474.000000	0.161120
2475.000000	0.167722
2476.000000	0.163082
2477.000000	0.154219
2478.000000	0.152850
2479.000000	0.142284
2480.000000	0.144613
2481.000000	0.157164
2482.000000	0.163583
2483.000000	0.174008
2484.000000	0.181238
2485.000000	0.184811
2486.000000	0.187500
2487.000000	0.186590
2488.000000	0.178772
2489.000000	0.168129
2490.000000	0.166176
2491.000000	0.160150
2492.000000	0.157919
2493.000000	0.159610
2494.000000	0.167141
2495.000000	0.191484
2496.000000	0.194653
2497.000000	0.188551
2498.000000	0.175552
2499.000000	0.139988
2500.000000	0.125877
