# Wavelength	Hexa60_00001.asd.rts.txt
350.000000	0.214434
351.000000	0.218096
352.000000	0.220273
353.000000	0.219103
354.000000	0.217495
355.000000	0.219649
356.000000	0.221411
357.000000	0.222322
358.000000	0.220212
359.000000	0.222347
360.000000	0.224614
361.000000	0.221559
362.000000	0.220817
363.000000	0.222936
364.000000	0.226249
365.000000	0.227863
366.000000	0.228713
367.000000	0.228618
368.000000	0.226996
369.000000	0.228655
370.000000	0.231037
371.000000	0.230155
372.000000	0.230469
373.000000	0.231343
374.000000	0.232140
375.000000	0.231485
376.000000	0.231790
377.000000	0.233025
378.000000	0.233129
379.000000	0.232959
380.000000	0.233021
381.000000	0.234245
382.000000	0.233387
383.000000	0.232854
384.000000	0.234371
385.000000	0.235293
386.000000	0.235820
387.000000	0.236260
388.000000	0.236641
389.000000	0.237268
390.000000	0.238114
391.000000	0.238696
392.000000	0.238557
393.000000	0.238655
394.000000	0.239614
395.000000	0.240534
396.000000	0.241248
397.000000	0.241603
398.000000	0.241341
399.000000	0.242178
400.000000	0.243493
401.000000	0.243594
402.000000	0.244027
403.000000	0.244515
404.000000	0.244818
405.000000	0.245402
406.000000	0.245994
407.000000	0.246462
408.000000	0.246774
409.000000	0.247044
410.000000	0.247297
411.000000	0.247469
412.000000	0.247873
413.000000	0.248341
414.000000	0.248676
415.000000	0.249022
416.000000	0.249414
417.000000	0.249828
418.000000	0.250110
419.000000	0.250420
420.000000	0.250796
421.000000	0.251164
422.000000	0.251651
423.000000	0.252059
424.000000	0.252238
425.000000	0.252511
426.000000	0.252894
427.000000	0.253287
428.000000	0.253412
429.000000	0.253670
430.000000	0.254127
431.000000	0.254386
432.000000	0.254637
433.000000	0.254857
434.000000	0.255055
435.000000	0.255278
436.000000	0.255536
437.000000	0.255778
438.000000	0.255813
439.000000	0.255891
440.000000	0.256225
441.000000	0.256639
442.000000	0.256809
443.000000	0.256797
444.000000	0.257137
445.000000	0.257405
446.000000	0.257726
447.000000	0.258116
448.000000	0.258301
449.000000	0.258502
450.000000	0.258867
451.000000	0.259170
452.000000	0.259360
453.000000	0.259471
454.000000	0.259898
455.000000	0.260304
456.000000	0.260662
457.000000	0.260879
458.000000	0.261102
459.000000	0.261425
460.000000	0.261879
461.000000	0.262021
462.000000	0.262223
463.000000	0.262487
464.000000	0.262657
465.000000	0.262914
466.000000	0.263169
467.000000	0.263308
468.000000	0.263495
469.000000	0.263697
470.000000	0.263992
471.000000	0.264177
472.000000	0.264353
473.000000	0.264616
474.000000	0.264845
475.000000	0.265038
476.000000	0.265322
477.000000	0.265600
478.000000	0.265674
479.000000	0.265844
480.000000	0.266207
481.000000	0.266411
482.000000	0.266665
483.000000	0.266955
484.000000	0.267273
485.000000	0.267473
486.000000	0.267689
487.000000	0.267934
488.000000	0.268107
489.000000	0.268281
490.000000	0.268627
491.000000	0.268934
492.000000	0.269254
493.000000	0.269545
494.000000	0.269772
495.000000	0.270013
496.000000	0.270285
497.000000	0.270594
498.000000	0.270925
499.000000	0.271305
500.000000	0.271599
501.000000	0.271838
502.000000	0.272099
503.000000	0.272386
504.000000	0.272683
505.000000	0.272954
506.000000	0.273187
507.000000	0.273440
508.000000	0.273751
509.000000	0.274084
510.000000	0.274405
511.000000	0.274729
512.000000	0.275067
513.000000	0.275367
514.000000	0.275675
515.000000	0.276022
516.000000	0.276362
517.000000	0.276676
518.000000	0.276994
519.000000	0.277260
520.000000	0.277541
521.000000	0.277831
522.000000	0.278138
523.000000	0.278483
524.000000	0.278815
525.000000	0.279108
526.000000	0.279394
527.000000	0.279658
528.000000	0.279900
529.000000	0.280179
530.000000	0.280458
531.000000	0.280786
532.000000	0.281089
533.000000	0.281355
534.000000	0.281674
535.000000	0.282032
536.000000	0.282350
537.000000	0.282681
538.000000	0.282996
539.000000	0.283238
540.000000	0.283532
541.000000	0.283842
542.000000	0.284152
543.000000	0.284437
544.000000	0.284726
545.000000	0.284982
546.000000	0.285312
547.000000	0.285635
548.000000	0.285961
549.000000	0.286257
550.000000	0.286565
551.000000	0.286898
552.000000	0.287206
553.000000	0.287517
554.000000	0.287834
555.000000	0.288167
556.000000	0.288514
557.000000	0.288828
558.000000	0.289200
559.000000	0.289505
560.000000	0.289794
561.000000	0.290148
562.000000	0.290505
563.000000	0.290814
564.000000	0.291166
565.000000	0.291539
566.000000	0.291927
567.000000	0.292280
568.000000	0.292567
569.000000	0.292888
570.000000	0.293207
571.000000	0.293514
572.000000	0.293845
573.000000	0.294159
574.000000	0.294453
575.000000	0.294794
576.000000	0.295143
577.000000	0.295453
578.000000	0.295767
579.000000	0.296117
580.000000	0.296463
581.000000	0.296776
582.000000	0.297052
583.000000	0.297340
584.000000	0.297642
585.000000	0.297940
586.000000	0.298287
587.000000	0.298655
588.000000	0.299002
589.000000	0.299368
590.000000	0.299731
591.000000	0.300066
592.000000	0.300355
593.000000	0.300626
594.000000	0.300886
595.000000	0.301128
596.000000	0.301367
597.000000	0.301620
598.000000	0.301806
599.000000	0.301989
600.000000	0.302241
601.000000	0.302501
602.000000	0.302667
603.000000	0.302814
604.000000	0.302992
605.000000	0.303166
606.000000	0.303305
607.000000	0.303440
608.000000	0.303635
609.000000	0.303816
610.000000	0.304022
611.000000	0.304295
612.000000	0.304520
613.000000	0.304711
614.000000	0.304910
615.000000	0.305049
616.000000	0.305131
617.000000	0.305174
618.000000	0.305326
619.000000	0.305505
620.000000	0.305648
621.000000	0.305773
622.000000	0.305984
623.000000	0.306229
624.000000	0.306446
625.000000	0.306657
626.000000	0.306880
627.000000	0.307139
628.000000	0.307471
629.000000	0.307824
630.000000	0.308062
631.000000	0.308302
632.000000	0.308585
633.000000	0.308867
634.000000	0.309078
635.000000	0.309270
636.000000	0.309435
637.000000	0.309546
638.000000	0.309620
639.000000	0.309672
640.000000	0.309778
641.000000	0.309892
642.000000	0.310034
643.000000	0.310175
644.000000	0.310283
645.000000	0.310409
646.000000	0.310543
647.000000	0.310650
648.000000	0.310793
649.000000	0.310958
650.000000	0.311117
651.000000	0.311273
652.000000	0.311446
653.000000	0.311653
654.000000	0.311824
655.000000	0.312015
656.000000	0.312226
657.000000	0.312393
658.000000	0.312565
659.000000	0.312746
660.000000	0.312927
661.000000	0.313139
662.000000	0.313321
663.000000	0.313504
664.000000	0.313664
665.000000	0.313821
666.000000	0.313994
667.000000	0.314167
668.000000	0.314377
669.000000	0.314603
670.000000	0.314819
671.000000	0.314964
672.000000	0.315134
673.000000	0.315334
674.000000	0.315517
675.000000	0.315675
676.000000	0.315838
677.000000	0.316052
678.000000	0.316229
679.000000	0.316381
680.000000	0.316533
681.000000	0.316663
682.000000	0.316840
683.000000	0.317007
684.000000	0.317221
685.000000	0.317406
686.000000	0.317574
687.000000	0.317714
688.000000	0.317872
689.000000	0.318027
690.000000	0.318195
691.000000	0.318375
692.000000	0.318531
693.000000	0.318720
694.000000	0.318921
695.000000	0.319154
696.000000	0.319381
697.000000	0.319547
698.000000	0.319752
699.000000	0.319976
700.000000	0.320192
701.000000	0.320362
702.000000	0.320552
703.000000	0.320751
704.000000	0.320894
705.000000	0.321039
706.000000	0.321167
707.000000	0.321329
708.000000	0.321479
709.000000	0.321613
710.000000	0.321759
711.000000	0.321913
712.000000	0.322063
713.000000	0.322217
714.000000	0.322345
715.000000	0.322495
716.000000	0.322675
717.000000	0.322845
718.000000	0.323051
719.000000	0.323260
720.000000	0.323457
721.000000	0.323645
722.000000	0.323807
723.000000	0.323990
724.000000	0.324128
725.000000	0.324201
726.000000	0.324319
727.000000	0.324460
728.000000	0.324560
729.000000	0.324666
730.000000	0.324773
731.000000	0.324928
732.000000	0.325069
733.000000	0.325212
734.000000	0.325336
735.000000	0.325448
736.000000	0.325639
737.000000	0.325754
738.000000	0.325820
739.000000	0.325947
740.000000	0.326024
741.000000	0.326084
742.000000	0.326168
743.000000	0.326269
744.000000	0.326417
745.000000	0.326510
746.000000	0.326598
747.000000	0.326676
748.000000	0.326789
749.000000	0.326917
750.000000	0.327009
751.000000	0.327109
752.000000	0.327188
753.000000	0.327253
754.000000	0.327312
755.000000	0.327409
756.000000	0.327547
757.000000	0.327662
758.000000	0.327780
759.000000	0.327917
760.000000	0.328012
761.000000	0.328144
762.000000	0.328233
763.000000	0.328269
764.000000	0.328365
765.000000	0.328401
766.000000	0.328444
767.000000	0.328555
768.000000	0.328662
769.000000	0.328752
770.000000	0.328839
771.000000	0.328953
772.000000	0.329105
773.000000	0.329189
774.000000	0.329214
775.000000	0.329235
776.000000	0.329299
777.000000	0.329400
778.000000	0.329457
779.000000	0.329525
780.000000	0.329613
781.000000	0.329663
782.000000	0.329699
783.000000	0.329782
784.000000	0.329789
785.000000	0.329843
786.000000	0.329873
787.000000	0.329855
788.000000	0.329883
789.000000	0.329950
790.000000	0.330012
791.000000	0.330056
792.000000	0.330055
793.000000	0.330030
794.000000	0.330022
795.000000	0.330066
796.000000	0.330086
797.000000	0.330078
798.000000	0.330121
799.000000	0.330181
800.000000	0.330229
801.000000	0.330245
802.000000	0.330258
803.000000	0.330280
804.000000	0.330337
805.000000	0.330336
806.000000	0.330279
807.000000	0.330284
808.000000	0.330351
809.000000	0.330445
810.000000	0.330573
811.000000	0.330707
812.000000	0.330756
813.000000	0.330785
814.000000	0.330807
815.000000	0.330811
816.000000	0.330731
817.000000	0.330660
818.000000	0.330605
819.000000	0.330573
820.000000	0.330591
821.000000	0.330605
822.000000	0.330612
823.000000	0.330651
824.000000	0.330634
825.000000	0.330579
826.000000	0.330541
827.000000	0.330500
828.000000	0.330476
829.000000	0.330417
830.000000	0.330368
831.000000	0.330392
832.000000	0.330375
833.000000	0.330368
834.000000	0.330363
835.000000	0.330381
836.000000	0.330398
837.000000	0.330351
838.000000	0.330267
839.000000	0.330194
840.000000	0.330149
841.000000	0.330144
842.000000	0.330135
843.000000	0.330108
844.000000	0.330100
845.000000	0.330094
846.000000	0.330092
847.000000	0.330079
848.000000	0.330039
849.000000	0.330012
850.000000	0.330052
851.000000	0.330012
852.000000	0.329919
853.000000	0.329926
854.000000	0.329868
855.000000	0.329814
856.000000	0.329692
857.000000	0.329517
858.000000	0.329437
859.000000	0.329404
860.000000	0.329305
861.000000	0.329255
862.000000	0.329253
863.000000	0.329175
864.000000	0.329102
865.000000	0.329012
866.000000	0.328904
867.000000	0.328731
868.000000	0.328639
869.000000	0.328549
870.000000	0.328425
871.000000	0.328288
872.000000	0.328163
873.000000	0.328023
874.000000	0.327985
875.000000	0.327846
876.000000	0.327655
877.000000	0.327486
878.000000	0.327295
879.000000	0.327143
880.000000	0.326930
881.000000	0.326781
882.000000	0.326660
883.000000	0.326568
884.000000	0.326438
885.000000	0.326221
886.000000	0.325983
887.000000	0.325813
888.000000	0.325748
889.000000	0.325657
890.000000	0.325465
891.000000	0.325363
892.000000	0.325204
893.000000	0.324995
894.000000	0.324865
895.000000	0.324692
896.000000	0.324501
897.000000	0.324311
898.000000	0.324132
899.000000	0.323943
900.000000	0.323738
901.000000	0.323521
902.000000	0.323455
903.000000	0.323289
904.000000	0.323067
905.000000	0.322807
906.000000	0.322660
907.000000	0.322495
908.000000	0.322314
909.000000	0.322084
910.000000	0.321887
911.000000	0.321683
912.000000	0.321447
913.000000	0.321238
914.000000	0.321039
915.000000	0.320879
916.000000	0.320642
917.000000	0.320415
918.000000	0.320247
919.000000	0.320134
920.000000	0.320073
921.000000	0.319981
922.000000	0.319795
923.000000	0.319463
924.000000	0.319166
925.000000	0.318952
926.000000	0.318809
927.000000	0.318525
928.000000	0.318231
929.000000	0.317947
930.000000	0.317675
931.000000	0.317469
932.000000	0.317287
933.000000	0.317087
934.000000	0.316719
935.000000	0.316426
936.000000	0.316229
937.000000	0.315980
938.000000	0.315678
939.000000	0.315464
940.000000	0.315279
941.000000	0.315116
942.000000	0.314860
943.000000	0.314670
944.000000	0.314495
945.000000	0.314310
946.000000	0.314145
947.000000	0.313995
948.000000	0.313769
949.000000	0.313464
950.000000	0.313148
951.000000	0.312818
952.000000	0.312532
953.000000	0.312278
954.000000	0.312038
955.000000	0.311755
956.000000	0.311596
957.000000	0.311370
958.000000	0.311116
959.000000	0.311058
960.000000	0.310923
961.000000	0.310783
962.000000	0.310621
963.000000	0.310368
964.000000	0.310109
965.000000	0.309914
966.000000	0.309685
967.000000	0.309407
968.000000	0.309083
969.000000	0.308740
970.000000	0.308533
971.000000	0.308291
972.000000	0.308108
973.000000	0.307930
974.000000	0.307707
975.000000	0.307477
976.000000	0.307282
977.000000	0.307126
978.000000	0.306930
979.000000	0.306888
980.000000	0.306666
981.000000	0.306300
982.000000	0.306063
983.000000	0.305869
984.000000	0.305734
985.000000	0.305636
986.000000	0.305458
987.000000	0.305318
988.000000	0.305131
989.000000	0.304661
990.000000	0.304461
991.000000	0.304431
992.000000	0.304323
993.000000	0.304165
994.000000	0.303890
995.000000	0.303709
996.000000	0.303596
997.000000	0.303530
998.000000	0.303484
999.000000	0.303446
1000.000000	0.303176
1001.000000	0.303640
1002.000000	0.303288
1003.000000	0.303178
1004.000000	0.303051
1005.000000	0.303021
1006.000000	0.302819
1007.000000	0.302720
1008.000000	0.302360
1009.000000	0.301917
1010.000000	0.301810
1011.000000	0.301845
1012.000000	0.301781
1013.000000	0.301573
1014.000000	0.301483
1015.000000	0.301281
1016.000000	0.301310
1017.000000	0.301379
1018.000000	0.301244
1019.000000	0.301207
1020.000000	0.301328
1021.000000	0.301021
1022.000000	0.300676
1023.000000	0.300765
1024.000000	0.300703
1025.000000	0.301034
1026.000000	0.301308
1027.000000	0.301195
1028.000000	0.301071
1029.000000	0.300829
1030.000000	0.300543
1031.000000	0.300484
1032.000000	0.300752
1033.000000	0.300911
1034.000000	0.301006
1035.000000	0.301270
1036.000000	0.301454
1037.000000	0.301495
1038.000000	0.301377
1039.000000	0.301334
1040.000000	0.301319
1041.000000	0.301009
1042.000000	0.300975
1043.000000	0.301227
1044.000000	0.301389
1045.000000	0.301568
1046.000000	0.301604
1047.000000	0.301722
1048.000000	0.301825
1049.000000	0.301882
1050.000000	0.301929
1051.000000	0.301948
1052.000000	0.301794
1053.000000	0.301779
1054.000000	0.301966
1055.000000	0.302225
1056.000000	0.302705
1057.000000	0.303065
1058.000000	0.303105
1059.000000	0.303192
1060.000000	0.303363
1061.000000	0.303419
1062.000000	0.303632
1063.000000	0.303777
1064.000000	0.303966
1065.000000	0.304044
1066.000000	0.304201
1067.000000	0.304433
1068.000000	0.304617
1069.000000	0.304644
1070.000000	0.304801
1071.000000	0.305126
1072.000000	0.305345
1073.000000	0.305623
1074.000000	0.305954
1075.000000	0.305988
1076.000000	0.306095
1077.000000	0.306214
1078.000000	0.306317
1079.000000	0.306442
1080.000000	0.306679
1081.000000	0.306844
1082.000000	0.306984
1083.000000	0.307246
1084.000000	0.307662
1085.000000	0.307991
1086.000000	0.308365
1087.000000	0.308654
1088.000000	0.308736
1089.000000	0.308903
1090.000000	0.309013
1091.000000	0.309169
1092.000000	0.309407
1093.000000	0.309745
1094.000000	0.309900
1095.000000	0.309858
1096.000000	0.310112
1097.000000	0.310422
1098.000000	0.310702
1099.000000	0.311193
1100.000000	0.311461
1101.000000	0.311443
1102.000000	0.311558
1103.000000	0.311620
1104.000000	0.311784
1105.000000	0.312095
1106.000000	0.312244
1107.000000	0.312264
1108.000000	0.312331
1109.000000	0.312391
1110.000000	0.312410
1111.000000	0.312540
1112.000000	0.312794
1113.000000	0.312985
1114.000000	0.313194
1115.000000	0.313379
1116.000000	0.313582
1117.000000	0.313738
1118.000000	0.313848
1119.000000	0.313922
1120.000000	0.313943
1121.000000	0.314007
1122.000000	0.314116
1123.000000	0.314436
1124.000000	0.314697
1125.000000	0.314922
1126.000000	0.315122
1127.000000	0.315264
1128.000000	0.315355
1129.000000	0.315374
1130.000000	0.315498
1131.000000	0.315669
1132.000000	0.315762
1133.000000	0.315932
1134.000000	0.316039
1135.000000	0.316016
1136.000000	0.316035
1137.000000	0.316041
1138.000000	0.316028
1139.000000	0.316064
1140.000000	0.316188
1141.000000	0.316324
1142.000000	0.316432
1143.000000	0.316504
1144.000000	0.316672
1145.000000	0.316718
1146.000000	0.316640
1147.000000	0.316641
1148.000000	0.316570
1149.000000	0.316546
1150.000000	0.316545
1151.000000	0.316560
1152.000000	0.316504
1153.000000	0.316555
1154.000000	0.316651
1155.000000	0.316681
1156.000000	0.316735
1157.000000	0.316782
1158.000000	0.316752
1159.000000	0.316721
1160.000000	0.316682
1161.000000	0.316648
1162.000000	0.316615
1163.000000	0.316728
1164.000000	0.316782
1165.000000	0.316807
1166.000000	0.316830
1167.000000	0.316781
1168.000000	0.316719
1169.000000	0.316670
1170.000000	0.316642
1171.000000	0.316630
1172.000000	0.316658
1173.000000	0.316713
1174.000000	0.316704
1175.000000	0.316627
1176.000000	0.316564
1177.000000	0.316572
1178.000000	0.316527
1179.000000	0.316436
1180.000000	0.316351
1181.000000	0.316322
1182.000000	0.316282
1183.000000	0.316332
1184.000000	0.316412
1185.000000	0.316407
1186.000000	0.316350
1187.000000	0.316314
1188.000000	0.316255
1189.000000	0.316180
1190.000000	0.316141
1191.000000	0.316112
1192.000000	0.316180
1193.000000	0.316261
1194.000000	0.316253
1195.000000	0.316257
1196.000000	0.316199
1197.000000	0.316138
1198.000000	0.316088
1199.000000	0.316058
1200.000000	0.316006
1201.000000	0.315949
1202.000000	0.315936
1203.000000	0.315907
1204.000000	0.315818
1205.000000	0.315786
1206.000000	0.315714
1207.000000	0.315717
1208.000000	0.315659
1209.000000	0.315631
1210.000000	0.315611
1211.000000	0.315591
1212.000000	0.315570
1213.000000	0.315620
1214.000000	0.315626
1215.000000	0.315564
1216.000000	0.315533
1217.000000	0.315461
1218.000000	0.315409
1219.000000	0.315404
1220.000000	0.315433
1221.000000	0.315432
1222.000000	0.315425
1223.000000	0.315387
1224.000000	0.315368
1225.000000	0.315366
1226.000000	0.315425
1227.000000	0.315460
1228.000000	0.315474
1229.000000	0.315416
1230.000000	0.315247
1231.000000	0.315115
1232.000000	0.315082
1233.000000	0.315103
1234.000000	0.315134
1235.000000	0.315140
1236.000000	0.315067
1237.000000	0.315062
1238.000000	0.315028
1239.000000	0.314999
1240.000000	0.314974
1241.000000	0.314976
1242.000000	0.314977
1243.000000	0.315022
1244.000000	0.315091
1245.000000	0.315190
1246.000000	0.315193
1247.000000	0.315228
1248.000000	0.315335
1249.000000	0.315406
1250.000000	0.315511
1251.000000	0.315619
1252.000000	0.315614
1253.000000	0.315522
1254.000000	0.315466
1255.000000	0.315334
1256.000000	0.315279
1257.000000	0.315310
1258.000000	0.315321
1259.000000	0.315274
1260.000000	0.315283
1261.000000	0.315255
1262.000000	0.315210
1263.000000	0.315195
1264.000000	0.315140
1265.000000	0.315135
1266.000000	0.315117
1267.000000	0.315111
1268.000000	0.315161
1269.000000	0.315110
1270.000000	0.315107
1271.000000	0.315180
1272.000000	0.315226
1273.000000	0.315264
1274.000000	0.315244
1275.000000	0.315200
1276.000000	0.315107
1277.000000	0.315118
1278.000000	0.315081
1279.000000	0.315035
1280.000000	0.314918
1281.000000	0.314806
1282.000000	0.314719
1283.000000	0.314742
1284.000000	0.314777
1285.000000	0.314788
1286.000000	0.314790
1287.000000	0.314827
1288.000000	0.314844
1289.000000	0.314824
1290.000000	0.314790
1291.000000	0.314729
1292.000000	0.314686
1293.000000	0.314675
1294.000000	0.314633
1295.000000	0.314623
1296.000000	0.314587
1297.000000	0.314495
1298.000000	0.314480
1299.000000	0.314446
1300.000000	0.314458
1301.000000	0.314514
1302.000000	0.314441
1303.000000	0.314426
1304.000000	0.314362
1305.000000	0.314254
1306.000000	0.314211
1307.000000	0.314307
1308.000000	0.314338
1309.000000	0.314363
1310.000000	0.314383
1311.000000	0.314412
1312.000000	0.314352
1313.000000	0.314350
1314.000000	0.314286
1315.000000	0.314202
1316.000000	0.314226
1317.000000	0.314236
1318.000000	0.314233
1319.000000	0.314134
1320.000000	0.314019
1321.000000	0.313924
1322.000000	0.313771
1323.000000	0.313641
1324.000000	0.313577
1325.000000	0.313436
1326.000000	0.313279
1327.000000	0.313188
1328.000000	0.313111
1329.000000	0.312939
1330.000000	0.312718
1331.000000	0.312563
1332.000000	0.312442
1333.000000	0.312296
1334.000000	0.312249
1335.000000	0.312185
1336.000000	0.312057
1337.000000	0.311935
1338.000000	0.311788
1339.000000	0.311638
1340.000000	0.311438
1341.000000	0.311280
1342.000000	0.311133
1343.000000	0.310944
1344.000000	0.310773
1345.000000	0.310582
1346.000000	0.310444
1347.000000	0.310237
1348.000000	0.310026
1349.000000	0.309786
1350.000000	0.309598
1351.000000	0.309420
1352.000000	0.309245
1353.000000	0.309093
1354.000000	0.308940
1355.000000	0.308725
1356.000000	0.308607
1357.000000	0.308499
1358.000000	0.308381
1359.000000	0.308256
1360.000000	0.308123
1361.000000	0.308017
1362.000000	0.307867
1363.000000	0.307641
1364.000000	0.307513
1365.000000	0.307387
1366.000000	0.307264
1367.000000	0.307162
1368.000000	0.307091
1369.000000	0.307097
1370.000000	0.306921
1371.000000	0.306738
1372.000000	0.306603
1373.000000	0.306410
1374.000000	0.306278
1375.000000	0.306127
1376.000000	0.306031
1377.000000	0.305965
1378.000000	0.305837
1379.000000	0.305641
1380.000000	0.305428
1381.000000	0.305165
1382.000000	0.304865
1383.000000	0.304669
1384.000000	0.304425
1385.000000	0.304132
1386.000000	0.303923
1387.000000	0.303675
1388.000000	0.303351
1389.000000	0.303087
1390.000000	0.302868
1391.000000	0.302583
1392.000000	0.302360
1393.000000	0.302054
1394.000000	0.301716
1395.000000	0.301371
1396.000000	0.300983
1397.000000	0.300584
1398.000000	0.300180
1399.000000	0.299724
1400.000000	0.299214
1401.000000	0.298666
1402.000000	0.298123
1403.000000	0.297502
1404.000000	0.296941
1405.000000	0.296366
1406.000000	0.295797
1407.000000	0.295233
1408.000000	0.294564
1409.000000	0.293924
1410.000000	0.293254
1411.000000	0.292500
1412.000000	0.291745
1413.000000	0.290999
1414.000000	0.290212
1415.000000	0.289415
1416.000000	0.288610
1417.000000	0.287827
1418.000000	0.287051
1419.000000	0.286324
1420.000000	0.285569
1421.000000	0.284877
1422.000000	0.284188
1423.000000	0.283546
1424.000000	0.282800
1425.000000	0.282047
1426.000000	0.281307
1427.000000	0.280576
1428.000000	0.279866
1429.000000	0.279157
1430.000000	0.278478
1431.000000	0.277816
1432.000000	0.277166
1433.000000	0.276597
1434.000000	0.276018
1435.000000	0.275513
1436.000000	0.274976
1437.000000	0.274443
1438.000000	0.273879
1439.000000	0.273314
1440.000000	0.272793
1441.000000	0.272312
1442.000000	0.271838
1443.000000	0.271325
1444.000000	0.270833
1445.000000	0.270372
1446.000000	0.269909
1447.000000	0.269460
1448.000000	0.269057
1449.000000	0.268660
1450.000000	0.268281
1451.000000	0.267993
1452.000000	0.267663
1453.000000	0.267330
1454.000000	0.267063
1455.000000	0.266810
1456.000000	0.266624
1457.000000	0.266489
1458.000000	0.266306
1459.000000	0.266104
1460.000000	0.265954
1461.000000	0.265795
1462.000000	0.265649
1463.000000	0.265494
1464.000000	0.265329
1465.000000	0.265221
1466.000000	0.265064
1467.000000	0.264947
1468.000000	0.264900
1469.000000	0.264841
1470.000000	0.264770
1471.000000	0.264767
1472.000000	0.264751
1473.000000	0.264804
1474.000000	0.264866
1475.000000	0.264966
1476.000000	0.265085
1477.000000	0.265224
1478.000000	0.265402
1479.000000	0.265546
1480.000000	0.265695
1481.000000	0.265835
1482.000000	0.265992
1483.000000	0.266190
1484.000000	0.266410
1485.000000	0.266611
1486.000000	0.266813
1487.000000	0.267037
1488.000000	0.267273
1489.000000	0.267545
1490.000000	0.267743
1491.000000	0.268013
1492.000000	0.268288
1493.000000	0.268574
1494.000000	0.268871
1495.000000	0.269130
1496.000000	0.269369
1497.000000	0.269617
1498.000000	0.269875
1499.000000	0.270113
1500.000000	0.270359
1501.000000	0.270575
1502.000000	0.270768
1503.000000	0.271018
1504.000000	0.271250
1505.000000	0.271422
1506.000000	0.271630
1507.000000	0.271832
1508.000000	0.272057
1509.000000	0.272289
1510.000000	0.272431
1511.000000	0.272529
1512.000000	0.272595
1513.000000	0.272674
1514.000000	0.272818
1515.000000	0.272913
1516.000000	0.273002
1517.000000	0.273055
1518.000000	0.273077
1519.000000	0.273093
1520.000000	0.273145
1521.000000	0.273174
1522.000000	0.273264
1523.000000	0.273413
1524.000000	0.273499
1525.000000	0.273620
1526.000000	0.273696
1527.000000	0.273702
1528.000000	0.273753
1529.000000	0.273796
1530.000000	0.273752
1531.000000	0.273785
1532.000000	0.273829
1533.000000	0.273789
1534.000000	0.273823
1535.000000	0.273891
1536.000000	0.273892
1537.000000	0.274000
1538.000000	0.274068
1539.000000	0.274025
1540.000000	0.274023
1541.000000	0.274028
1542.000000	0.274040
1543.000000	0.274094
1544.000000	0.274133
1545.000000	0.274189
1546.000000	0.274225
1547.000000	0.274219
1548.000000	0.274231
1549.000000	0.274218
1550.000000	0.274190
1551.000000	0.274195
1552.000000	0.274225
1553.000000	0.274259
1554.000000	0.274327
1555.000000	0.274430
1556.000000	0.274500
1557.000000	0.274559
1558.000000	0.274624
1559.000000	0.274624
1560.000000	0.274614
1561.000000	0.274656
1562.000000	0.274615
1563.000000	0.274538
1564.000000	0.274501
1565.000000	0.274435
1566.000000	0.274335
1567.000000	0.274329
1568.000000	0.274284
1569.000000	0.274268
1570.000000	0.274235
1571.000000	0.274160
1572.000000	0.274140
1573.000000	0.274148
1574.000000	0.274144
1575.000000	0.274195
1576.000000	0.274231
1577.000000	0.274238
1578.000000	0.274225
1579.000000	0.274278
1580.000000	0.274271
1581.000000	0.274268
1582.000000	0.274236
1583.000000	0.274165
1584.000000	0.274064
1585.000000	0.273987
1586.000000	0.273947
1587.000000	0.273906
1588.000000	0.273879
1589.000000	0.273890
1590.000000	0.273889
1591.000000	0.273909
1592.000000	0.273933
1593.000000	0.273983
1594.000000	0.274013
1595.000000	0.274082
1596.000000	0.274134
1597.000000	0.274208
1598.000000	0.274257
1599.000000	0.274337
1600.000000	0.274338
1601.000000	0.274362
1602.000000	0.274355
1603.000000	0.274301
1604.000000	0.274278
1605.000000	0.274267
1606.000000	0.274268
1607.000000	0.274350
1608.000000	0.274374
1609.000000	0.274443
1610.000000	0.274450
1611.000000	0.274407
1612.000000	0.274400
1613.000000	0.274476
1614.000000	0.274492
1615.000000	0.274548
1616.000000	0.274626
1617.000000	0.274641
1618.000000	0.274688
1619.000000	0.274734
1620.000000	0.274824
1621.000000	0.274950
1622.000000	0.275143
1623.000000	0.275418
1624.000000	0.275581
1625.000000	0.275580
1626.000000	0.275641
1627.000000	0.275682
1628.000000	0.275806
1629.000000	0.275995
1630.000000	0.276172
1631.000000	0.276315
1632.000000	0.276425
1633.000000	0.276555
1634.000000	0.276675
1635.000000	0.276767
1636.000000	0.276905
1637.000000	0.277112
1638.000000	0.277224
1639.000000	0.277346
1640.000000	0.277489
1641.000000	0.277653
1642.000000	0.277798
1643.000000	0.278034
1644.000000	0.278170
1645.000000	0.278213
1646.000000	0.278264
1647.000000	0.278312
1648.000000	0.278358
1649.000000	0.278448
1650.000000	0.278600
1651.000000	0.278833
1652.000000	0.279042
1653.000000	0.279248
1654.000000	0.279458
1655.000000	0.279589
1656.000000	0.279721
1657.000000	0.279950
1658.000000	0.280105
1659.000000	0.280318
1660.000000	0.280515
1661.000000	0.280612
1662.000000	0.280721
1663.000000	0.280792
1664.000000	0.280902
1665.000000	0.280988
1666.000000	0.281203
1667.000000	0.281448
1668.000000	0.281612
1669.000000	0.281781
1670.000000	0.281869
1671.000000	0.281956
1672.000000	0.282117
1673.000000	0.282267
1674.000000	0.282381
1675.000000	0.282563
1676.000000	0.282654
1677.000000	0.282741
1678.000000	0.282851
1679.000000	0.282931
1680.000000	0.282981
1681.000000	0.283102
1682.000000	0.283235
1683.000000	0.283337
1684.000000	0.283468
1685.000000	0.283581
1686.000000	0.283625
1687.000000	0.283684
1688.000000	0.283668
1689.000000	0.283666
1690.000000	0.283673
1691.000000	0.283732
1692.000000	0.283801
1693.000000	0.283870
1694.000000	0.283912
1695.000000	0.284018
1696.000000	0.284125
1697.000000	0.284168
1698.000000	0.284222
1699.000000	0.284337
1700.000000	0.284455
1701.000000	0.284643
1702.000000	0.284748
1703.000000	0.284854
1704.000000	0.285060
1705.000000	0.285208
1706.000000	0.285407
1707.000000	0.285557
1708.000000	0.285607
1709.000000	0.285630
1710.000000	0.285720
1711.000000	0.285789
1712.000000	0.285857
1713.000000	0.285888
1714.000000	0.285897
1715.000000	0.285969
1716.000000	0.286071
1717.000000	0.286153
1718.000000	0.286288
1719.000000	0.286317
1720.000000	0.286295
1721.000000	0.286310
1722.000000	0.286278
1723.000000	0.286317
1724.000000	0.286434
1725.000000	0.286549
1726.000000	0.286618
1727.000000	0.286705
1728.000000	0.286739
1729.000000	0.286766
1730.000000	0.286926
1731.000000	0.287021
1732.000000	0.287106
1733.000000	0.287255
1734.000000	0.287282
1735.000000	0.287371
1736.000000	0.287488
1737.000000	0.287574
1738.000000	0.287654
1739.000000	0.287769
1740.000000	0.287887
1741.000000	0.287978
1742.000000	0.288090
1743.000000	0.288224
1744.000000	0.288340
1745.000000	0.288388
1746.000000	0.288413
1747.000000	0.288441
1748.000000	0.288444
1749.000000	0.288509
1750.000000	0.288538
1751.000000	0.288645
1752.000000	0.288808
1753.000000	0.288857
1754.000000	0.288955
1755.000000	0.289046
1756.000000	0.289116
1757.000000	0.289197
1758.000000	0.289304
1759.000000	0.289380
1760.000000	0.289480
1761.000000	0.289609
1762.000000	0.289688
1763.000000	0.289752
1764.000000	0.289827
1765.000000	0.289834
1766.000000	0.289912
1767.000000	0.289996
1768.000000	0.289996
1769.000000	0.290040
1770.000000	0.290137
1771.000000	0.290176
1772.000000	0.290223
1773.000000	0.290284
1774.000000	0.290333
1775.000000	0.290373
1776.000000	0.290469
1777.000000	0.290585
1778.000000	0.290675
1779.000000	0.290767
1780.000000	0.290852
1781.000000	0.290885
1782.000000	0.290964
1783.000000	0.291093
1784.000000	0.291241
1785.000000	0.291339
1786.000000	0.291457
1787.000000	0.291678
1788.000000	0.291850
1789.000000	0.291956
1790.000000	0.292013
1791.000000	0.292067
1792.000000	0.292230
1793.000000	0.292327
1794.000000	0.292428
1795.000000	0.292524
1796.000000	0.292567
1797.000000	0.292584
1798.000000	0.292537
1799.000000	0.292547
1800.000000	0.292594
1801.000000	0.292506
1802.000000	0.292562
1803.000000	0.292611
1804.000000	0.292825
1805.000000	0.293560
1806.000000	0.293762
1807.000000	0.293758
1808.000000	0.293741
1809.000000	0.293497
1810.000000	0.293126
1811.000000	0.293050
1812.000000	0.293138
1813.000000	0.293122
1814.000000	0.293337
1815.000000	0.293269
1816.000000	0.292889
1817.000000	0.292666
1818.000000	0.292373
1819.000000	0.292408
1820.000000	0.292526
1821.000000	0.292546
1822.000000	0.292546
1823.000000	0.292387
1824.000000	0.292302
1825.000000	0.292147
1826.000000	0.292155
1827.000000	0.292145
1828.000000	0.292207
1829.000000	0.292234
1830.000000	0.292130
1831.000000	0.292080
1832.000000	0.291960
1833.000000	0.291843
1834.000000	0.291712
1835.000000	0.291737
1836.000000	0.291745
1837.000000	0.291735
1838.000000	0.291902
1839.000000	0.291661
1840.000000	0.291277
1841.000000	0.291093
1842.000000	0.290895
1843.000000	0.290574
1844.000000	0.290493
1845.000000	0.290602
1846.000000	0.290533
1847.000000	0.290281
1848.000000	0.290129
1849.000000	0.289966
1850.000000	0.289679
1851.000000	0.289529
1852.000000	0.289458
1853.000000	0.289360
1854.000000	0.289204
1855.000000	0.288837
1856.000000	0.288316
1857.000000	0.287749
1858.000000	0.287049
1859.000000	0.286243
1860.000000	0.285479
1861.000000	0.284946
1862.000000	0.284281
1863.000000	0.283676
1864.000000	0.283072
1865.000000	0.282551
1866.000000	0.281796
1867.000000	0.280964
1868.000000	0.279964
1869.000000	0.278761
1870.000000	0.277706
1871.000000	0.276722
1872.000000	0.275799
1873.000000	0.274819
1874.000000	0.273842
1875.000000	0.272721
1876.000000	0.271318
1877.000000	0.269753
1878.000000	0.268204
1879.000000	0.266716
1880.000000	0.265408
1881.000000	0.263911
1882.000000	0.262059
1883.000000	0.260237
1884.000000	0.258558
1885.000000	0.256833
1886.000000	0.254809
1887.000000	0.252774
1888.000000	0.250449
1889.000000	0.247942
1890.000000	0.245529
1891.000000	0.243414
1892.000000	0.241296
1893.000000	0.238846
1894.000000	0.236430
1895.000000	0.233913
1896.000000	0.231418
1897.000000	0.228893
1898.000000	0.226301
1899.000000	0.223614
1900.000000	0.220860
1901.000000	0.218090
1902.000000	0.215430
1903.000000	0.212782
1904.000000	0.210258
1905.000000	0.207812
1906.000000	0.205145
1907.000000	0.202343
1908.000000	0.199790
1909.000000	0.197401
1910.000000	0.194793
1911.000000	0.192627
1912.000000	0.190536
1913.000000	0.188203
1914.000000	0.186136
1915.000000	0.184078
1916.000000	0.182151
1917.000000	0.180276
1918.000000	0.178595
1919.000000	0.176949
1920.000000	0.175305
1921.000000	0.173881
1922.000000	0.172629
1923.000000	0.171442
1924.000000	0.170733
1925.000000	0.170187
1926.000000	0.169698
1927.000000	0.169533
1928.000000	0.169217
1929.000000	0.168916
1930.000000	0.168552
1931.000000	0.168302
1932.000000	0.168131
1933.000000	0.168096
1934.000000	0.168092
1935.000000	0.168146
1936.000000	0.168102
1937.000000	0.167956
1938.000000	0.167892
1939.000000	0.167703
1940.000000	0.167406
1941.000000	0.167042
1942.000000	0.166871
1943.000000	0.166551
1944.000000	0.166165
1945.000000	0.165907
1946.000000	0.165614
1947.000000	0.165251
1948.000000	0.164910
1949.000000	0.164772
1950.000000	0.164451
1951.000000	0.163946
1952.000000	0.163372
1953.000000	0.162722
1954.000000	0.161877
1955.000000	0.161383
1956.000000	0.160890
1957.000000	0.160436
1958.000000	0.160402
1959.000000	0.160108
1960.000000	0.159679
1961.000000	0.159527
1962.000000	0.159352
1963.000000	0.159147
1964.000000	0.158929
1965.000000	0.158888
1966.000000	0.158832
1967.000000	0.158613
1968.000000	0.158586
1969.000000	0.158526
1970.000000	0.158421
1971.000000	0.158488
1972.000000	0.158447
1973.000000	0.158322
1974.000000	0.158243
1975.000000	0.158264
1976.000000	0.158224
1977.000000	0.158280
1978.000000	0.158553
1979.000000	0.158830
1980.000000	0.159050
1981.000000	0.159225
1982.000000	0.159340
1983.000000	0.159580
1984.000000	0.159937
1985.000000	0.160524
1986.000000	0.160914
1987.000000	0.161369
1988.000000	0.161867
1989.000000	0.162089
1990.000000	0.162417
1991.000000	0.162787
1992.000000	0.163058
1993.000000	0.163526
1994.000000	0.163901
1995.000000	0.164330
1996.000000	0.164851
1997.000000	0.165498
1998.000000	0.166393
1999.000000	0.167190
2000.000000	0.168094
2001.000000	0.168901
2002.000000	0.169486
2003.000000	0.170029
2004.000000	0.170713
2005.000000	0.171289
2006.000000	0.172020
2007.000000	0.172742
2008.000000	0.173471
2009.000000	0.174135
2010.000000	0.174969
2011.000000	0.175801
2012.000000	0.176666
2013.000000	0.177645
2014.000000	0.178380
2015.000000	0.179157
2016.000000	0.179974
2017.000000	0.180533
2018.000000	0.181320
2019.000000	0.182163
2020.000000	0.182933
2021.000000	0.183739
2022.000000	0.184548
2023.000000	0.185319
2024.000000	0.186110
2025.000000	0.186912
2026.000000	0.187598
2027.000000	0.188369
2028.000000	0.189193
2029.000000	0.189987
2030.000000	0.190797
2031.000000	0.191644
2032.000000	0.192286
2033.000000	0.192938
2034.000000	0.193553
2035.000000	0.194108
2036.000000	0.194685
2037.000000	0.195342
2038.000000	0.196065
2039.000000	0.196934
2040.000000	0.197724
2041.000000	0.198432
2042.000000	0.199203
2043.000000	0.199893
2044.000000	0.200649
2045.000000	0.201391
2046.000000	0.202024
2047.000000	0.202675
2048.000000	0.203191
2049.000000	0.203804
2050.000000	0.204257
2051.000000	0.204685
2052.000000	0.204878
2053.000000	0.205277
2054.000000	0.205883
2055.000000	0.206548
2056.000000	0.207523
2057.000000	0.208542
2058.000000	0.209269
2059.000000	0.209956
2060.000000	0.210534
2061.000000	0.210856
2062.000000	0.211249
2063.000000	0.211669
2064.000000	0.212006
2065.000000	0.212323
2066.000000	0.212720
2067.000000	0.213351
2068.000000	0.214055
2069.000000	0.214660
2070.000000	0.215626
2071.000000	0.216231
2072.000000	0.216849
2073.000000	0.217410
2074.000000	0.217711
2075.000000	0.218181
2076.000000	0.218552
2077.000000	0.219053
2078.000000	0.219822
2079.000000	0.220294
2080.000000	0.220658
2081.000000	0.221193
2082.000000	0.221705
2083.000000	0.222148
2084.000000	0.222768
2085.000000	0.223219
2086.000000	0.223903
2087.000000	0.224586
2088.000000	0.225189
2089.000000	0.225980
2090.000000	0.226584
2091.000000	0.226995
2092.000000	0.227518
2093.000000	0.228081
2094.000000	0.228661
2095.000000	0.229288
2096.000000	0.229870
2097.000000	0.230479
2098.000000	0.230904
2099.000000	0.231263
2100.000000	0.231732
2101.000000	0.232054
2102.000000	0.232417
2103.000000	0.232820
2104.000000	0.233060
2105.000000	0.233394
2106.000000	0.233810
2107.000000	0.234149
2108.000000	0.234354
2109.000000	0.234802
2110.000000	0.235067
2111.000000	0.235505
2112.000000	0.236182
2113.000000	0.236669
2114.000000	0.236952
2115.000000	0.237487
2116.000000	0.237618
2117.000000	0.237455
2118.000000	0.237807
2119.000000	0.238124
2120.000000	0.238462
2121.000000	0.239153
2122.000000	0.239544
2123.000000	0.239541
2124.000000	0.239906
2125.000000	0.240440
2126.000000	0.240851
2127.000000	0.241501
2128.000000	0.242029
2129.000000	0.242499
2130.000000	0.242695
2131.000000	0.242624
2132.000000	0.242331
2133.000000	0.242066
2134.000000	0.242043
2135.000000	0.242055
2136.000000	0.242139
2137.000000	0.242163
2138.000000	0.242076
2139.000000	0.242083
2140.000000	0.242085
2141.000000	0.242213
2142.000000	0.242393
2143.000000	0.242457
2144.000000	0.242893
2145.000000	0.243201
2146.000000	0.243504
2147.000000	0.243942
2148.000000	0.243956
2149.000000	0.243800
2150.000000	0.243906
2151.000000	0.243732
2152.000000	0.243806
2153.000000	0.244066
2154.000000	0.244227
2155.000000	0.244267
2156.000000	0.244545
2157.000000	0.245129
2158.000000	0.245423
2159.000000	0.245953
2160.000000	0.246082
2161.000000	0.245462
2162.000000	0.245575
2163.000000	0.245968
2164.000000	0.245931
2165.000000	0.246049
2166.000000	0.246210
2167.000000	0.245642
2168.000000	0.245171
2169.000000	0.245036
2170.000000	0.245002
2171.000000	0.245027
2172.000000	0.245228
2173.000000	0.245310
2174.000000	0.245402
2175.000000	0.245473
2176.000000	0.245524
2177.000000	0.245596
2178.000000	0.245758
2179.000000	0.245969
2180.000000	0.245999
2181.000000	0.246523
2182.000000	0.246881
2183.000000	0.247238
2184.000000	0.248236
2185.000000	0.248412
2186.000000	0.248245
2187.000000	0.248309
2188.000000	0.247435
2189.000000	0.246544
2190.000000	0.246493
2191.000000	0.246914
2192.000000	0.246843
2193.000000	0.247359
2194.000000	0.247110
2195.000000	0.245515
2196.000000	0.245068
2197.000000	0.245070
2198.000000	0.245076
2199.000000	0.245800
2200.000000	0.246385
2201.000000	0.247136
2202.000000	0.247438
2203.000000	0.247476
2204.000000	0.247331
2205.000000	0.246636
2206.000000	0.246394
2207.000000	0.246067
2208.000000	0.246149
2209.000000	0.246183
2210.000000	0.245582
2211.000000	0.244891
2212.000000	0.244931
2213.000000	0.245393
2214.000000	0.246318
2215.000000	0.246994
2216.000000	0.248454
2217.000000	0.249197
2218.000000	0.249243
2219.000000	0.249746
2220.000000	0.250674
2221.000000	0.250739
2222.000000	0.250114
2223.000000	0.250066
2224.000000	0.249767
2225.000000	0.249697
2226.000000	0.249936
2227.000000	0.250446
2228.000000	0.250988
2229.000000	0.250772
2230.000000	0.250728
2231.000000	0.251029
2232.000000	0.250423
2233.000000	0.250062
2234.000000	0.249779
2235.000000	0.249355
2236.000000	0.248919
2237.000000	0.248477
2238.000000	0.248031
2239.000000	0.246980
2240.000000	0.247002
2241.000000	0.247911
2242.000000	0.248313
2243.000000	0.249137
2244.000000	0.249940
2245.000000	0.250080
2246.000000	0.250702
2247.000000	0.252386
2248.000000	0.252982
2249.000000	0.253351
2250.000000	0.253242
2251.000000	0.252190
2252.000000	0.250717
2253.000000	0.249380
2254.000000	0.247739
2255.000000	0.247481
2256.000000	0.247950
2257.000000	0.248039
2258.000000	0.249557
2259.000000	0.250099
2260.000000	0.249428
2261.000000	0.248992
2262.000000	0.247954
2263.000000	0.247647
2264.000000	0.247281
2265.000000	0.247709
2266.000000	0.249745
2267.000000	0.249975
2268.000000	0.249715
2269.000000	0.249414
2270.000000	0.247639
2271.000000	0.246635
2272.000000	0.246361
2273.000000	0.245827
2274.000000	0.244682
2275.000000	0.244707
2276.000000	0.245647
2277.000000	0.245875
2278.000000	0.246377
2279.000000	0.246872
2280.000000	0.246092
2281.000000	0.245595
2282.000000	0.245326
2283.000000	0.245084
2284.000000	0.244824
2285.000000	0.243890
2286.000000	0.243385
2287.000000	0.242508
2288.000000	0.241971
2289.000000	0.242081
2290.000000	0.241100
2291.000000	0.240776
2292.000000	0.240901
2293.000000	0.240246
2294.000000	0.239920
2295.000000	0.239961
2296.000000	0.239700
2297.000000	0.239167
2298.000000	0.239065
2299.000000	0.239420
2300.000000	0.239092
2301.000000	0.238426
2302.000000	0.237866
2303.000000	0.236672
2304.000000	0.236095
2305.000000	0.236299
2306.000000	0.236076
2307.000000	0.235635
2308.000000	0.235480
2309.000000	0.235417
2310.000000	0.234025
2311.000000	0.233521
2312.000000	0.232825
2313.000000	0.231788
2314.000000	0.232159
2315.000000	0.231106
2316.000000	0.230919
2317.000000	0.230690
2318.000000	0.229004
2319.000000	0.228842
2320.000000	0.227572
2321.000000	0.226257
2322.000000	0.225477
2323.000000	0.223980
2324.000000	0.223084
2325.000000	0.222157
2326.000000	0.221042
2327.000000	0.220357
2328.000000	0.219709
2329.000000	0.219070
2330.000000	0.218773
2331.000000	0.217431
2332.000000	0.216217
2333.000000	0.215409
2334.000000	0.214204
2335.000000	0.214394
2336.000000	0.215623
2337.000000	0.215965
2338.000000	0.217331
2339.000000	0.217257
2340.000000	0.215853
2341.000000	0.214893
2342.000000	0.213154
2343.000000	0.212035
2344.000000	0.211717
2345.000000	0.210717
2346.000000	0.209475
2347.000000	0.208154
2348.000000	0.206523
2349.000000	0.204716
2350.000000	0.202648
2351.000000	0.201292
2352.000000	0.200658
2353.000000	0.199396
2354.000000	0.198381
2355.000000	0.197448
2356.000000	0.196619
2357.000000	0.195777
2358.000000	0.194634
2359.000000	0.195028
2360.000000	0.194631
2361.000000	0.193119
2362.000000	0.191596
2363.000000	0.189673
2364.000000	0.186957
2365.000000	0.185198
2366.000000	0.185484
2367.000000	0.185517
2368.000000	0.186474
2369.000000	0.187244
2370.000000	0.185854
2371.000000	0.185477
2372.000000	0.185462
2373.000000	0.184307
2374.000000	0.182383
2375.000000	0.180010
2376.000000	0.177364
2377.000000	0.174353
2378.000000	0.174429
2379.000000	0.175118
2380.000000	0.174498
2381.000000	0.177014
2382.000000	0.177813
2383.000000	0.176951
2384.000000	0.177478
2385.000000	0.174661
2386.000000	0.172721
2387.000000	0.172140
2388.000000	0.170230
2389.000000	0.171119
2390.000000	0.170664
2391.000000	0.169779
2392.000000	0.170118
2393.000000	0.168094
2394.000000	0.167974
2395.000000	0.167242
2396.000000	0.165219
2397.000000	0.166463
2398.000000	0.167090
2399.000000	0.166431
2400.000000	0.166333
2401.000000	0.165456
2402.000000	0.166145
2403.000000	0.168847
2404.000000	0.169745
2405.000000	0.169439
2406.000000	0.168707
2407.000000	0.165383
2408.000000	0.163950
2409.000000	0.165118
2410.000000	0.163912
2411.000000	0.164696
2412.000000	0.165454
2413.000000	0.162861
2414.000000	0.161208
2415.000000	0.160466
2416.000000	0.162633
2417.000000	0.164916
2418.000000	0.165130
2419.000000	0.165334
2420.000000	0.163951
2421.000000	0.163145
2422.000000	0.164218
2423.000000	0.165528
2424.000000	0.165631
2425.000000	0.162407
2426.000000	0.158914
2427.000000	0.157358
2428.000000	0.154856
2429.000000	0.158026
2430.000000	0.164217
2431.000000	0.164552
2432.000000	0.163220
2433.000000	0.160489
2434.000000	0.154312
2435.000000	0.150072
2436.000000	0.150399
2437.000000	0.152219
2438.000000	0.154887
2439.000000	0.158970
2440.000000	0.162090
2441.000000	0.161736
2442.000000	0.162381
2443.000000	0.162163
2444.000000	0.161044
2445.000000	0.164613
2446.000000	0.165352
2447.000000	0.161607
2448.000000	0.158475
2449.000000	0.151848
2450.000000	0.146550
2451.000000	0.149384
2452.000000	0.153775
2453.000000	0.156193
2454.000000	0.157080
2455.000000	0.156841
2456.000000	0.150878
2457.000000	0.148194
2458.000000	0.150799
2459.000000	0.146782
2460.000000	0.149556
2461.000000	0.151037
2462.000000	0.142428
2463.000000	0.140197
2464.000000	0.142401
2465.000000	0.144530
2466.000000	0.149124
2467.000000	0.154808
2468.000000	0.155249
2469.000000	0.151880
2470.000000	0.153832
2471.000000	0.153846
2472.000000	0.150264
2473.000000	0.149727
2474.000000	0.147349
2475.000000	0.150204
2476.000000	0.150887
2477.000000	0.145849
2478.000000	0.145435
2479.000000	0.135886
2480.000000	0.128857
2481.000000	0.130900
2482.000000	0.123445
2483.000000	0.117375
2484.000000	0.115430
2485.000000	0.115102
2486.000000	0.120435
2487.000000	0.127557
2488.000000	0.141045
2489.000000	0.149547
2490.000000	0.149885
2491.000000	0.151233
2492.000000	0.147247
2493.000000	0.138382
2494.000000	0.138994
2495.000000	0.144610
2496.000000	0.145157
2497.000000	0.141198
2498.000000	0.138356
2499.000000	0.140279
2500.000000	0.135172
