# Wavelength	Hexa70_00002.asd.rts.txt
350.000000	0.228243
351.000000	0.234904
352.000000	0.231730
353.000000	0.226868
354.000000	0.227820
355.000000	0.233187
356.000000	0.238137
357.000000	0.241293
358.000000	0.238923
359.000000	0.239767
360.000000	0.242908
361.000000	0.244598
362.000000	0.242431
363.000000	0.240712
364.000000	0.241595
365.000000	0.243840
366.000000	0.244536
367.000000	0.243482
368.000000	0.243451
369.000000	0.245093
370.000000	0.246804
371.000000	0.246732
372.000000	0.247785
373.000000	0.249279
374.000000	0.250682
375.000000	0.250780
376.000000	0.249834
377.000000	0.248696
378.000000	0.249180
379.000000	0.250433
380.000000	0.251501
381.000000	0.252280
382.000000	0.251724
383.000000	0.251232
384.000000	0.252034
385.000000	0.253374
386.000000	0.254520
387.000000	0.255276
388.000000	0.255510
389.000000	0.256242
390.000000	0.257119
391.000000	0.257119
392.000000	0.257811
393.000000	0.258450
394.000000	0.258488
395.000000	0.258997
396.000000	0.260076
397.000000	0.261198
398.000000	0.260979
399.000000	0.261185
400.000000	0.261944
401.000000	0.262559
402.000000	0.263031
403.000000	0.263295
404.000000	0.263570
405.000000	0.264434
406.000000	0.265149
407.000000	0.265472
408.000000	0.265858
409.000000	0.265994
410.000000	0.266152
411.000000	0.266881
412.000000	0.267218
413.000000	0.267411
414.000000	0.267913
415.000000	0.268459
416.000000	0.268973
417.000000	0.269418
418.000000	0.269819
419.000000	0.269973
420.000000	0.270043
421.000000	0.270518
422.000000	0.270968
423.000000	0.271328
424.000000	0.271734
425.000000	0.272127
426.000000	0.272485
427.000000	0.272764
428.000000	0.272883
429.000000	0.273176
430.000000	0.273648
431.000000	0.273842
432.000000	0.274064
433.000000	0.274332
434.000000	0.274668
435.000000	0.274864
436.000000	0.275025
437.000000	0.275259
438.000000	0.275543
439.000000	0.275731
440.000000	0.275896
441.000000	0.276168
442.000000	0.276439
443.000000	0.276597
444.000000	0.276710
445.000000	0.276924
446.000000	0.277317
447.000000	0.277714
448.000000	0.278029
449.000000	0.278346
450.000000	0.278688
451.000000	0.278772
452.000000	0.278912
453.000000	0.279179
454.000000	0.279659
455.000000	0.280007
456.000000	0.280334
457.000000	0.280719
458.000000	0.281041
459.000000	0.281338
460.000000	0.281688
461.000000	0.281934
462.000000	0.282180
463.000000	0.282333
464.000000	0.282529
465.000000	0.282842
466.000000	0.283146
467.000000	0.283332
468.000000	0.283610
469.000000	0.283866
470.000000	0.284111
471.000000	0.284317
472.000000	0.284445
473.000000	0.284562
474.000000	0.284905
475.000000	0.285113
476.000000	0.285284
477.000000	0.285623
478.000000	0.285763
479.000000	0.285939
480.000000	0.286207
481.000000	0.286465
482.000000	0.286795
483.000000	0.287042
484.000000	0.287402
485.000000	0.287649
486.000000	0.287880
487.000000	0.288103
488.000000	0.288285
489.000000	0.288490
490.000000	0.288818
491.000000	0.289144
492.000000	0.289499
493.000000	0.289789
494.000000	0.290038
495.000000	0.290337
496.000000	0.290677
497.000000	0.290955
498.000000	0.291240
499.000000	0.291598
500.000000	0.291864
501.000000	0.292152
502.000000	0.292503
503.000000	0.292826
504.000000	0.293065
505.000000	0.293285
506.000000	0.293565
507.000000	0.293866
508.000000	0.294199
509.000000	0.294524
510.000000	0.294882
511.000000	0.295179
512.000000	0.295461
513.000000	0.295814
514.000000	0.296171
515.000000	0.296544
516.000000	0.296889
517.000000	0.297199
518.000000	0.297545
519.000000	0.297875
520.000000	0.298192
521.000000	0.298484
522.000000	0.298772
523.000000	0.299114
524.000000	0.299449
525.000000	0.299751
526.000000	0.300063
527.000000	0.300310
528.000000	0.300536
529.000000	0.300854
530.000000	0.301153
531.000000	0.301507
532.000000	0.301845
533.000000	0.302105
534.000000	0.302406
535.000000	0.302753
536.000000	0.303083
537.000000	0.303430
538.000000	0.303739
539.000000	0.303927
540.000000	0.304192
541.000000	0.304491
542.000000	0.304792
543.000000	0.305066
544.000000	0.305376
545.000000	0.305676
546.000000	0.305998
547.000000	0.306336
548.000000	0.306702
549.000000	0.307010
550.000000	0.307345
551.000000	0.307712
552.000000	0.308039
553.000000	0.308364
554.000000	0.308688
555.000000	0.309022
556.000000	0.309421
557.000000	0.309777
558.000000	0.310167
559.000000	0.310471
560.000000	0.310801
561.000000	0.311210
562.000000	0.311546
563.000000	0.311832
564.000000	0.312156
565.000000	0.312479
566.000000	0.312845
567.000000	0.313209
568.000000	0.313526
569.000000	0.313841
570.000000	0.314171
571.000000	0.314510
572.000000	0.314862
573.000000	0.315214
574.000000	0.315559
575.000000	0.315953
576.000000	0.316315
577.000000	0.316633
578.000000	0.316982
579.000000	0.317348
580.000000	0.317704
581.000000	0.318031
582.000000	0.318318
583.000000	0.318624
584.000000	0.318954
585.000000	0.319283
586.000000	0.319618
587.000000	0.319959
588.000000	0.320307
589.000000	0.320673
590.000000	0.321063
591.000000	0.321462
592.000000	0.321796
593.000000	0.322116
594.000000	0.322425
595.000000	0.322690
596.000000	0.322888
597.000000	0.323066
598.000000	0.323191
599.000000	0.323286
600.000000	0.323475
601.000000	0.323735
602.000000	0.323905
603.000000	0.324071
604.000000	0.324279
605.000000	0.324467
606.000000	0.324630
607.000000	0.324778
608.000000	0.324934
609.000000	0.325186
610.000000	0.325494
611.000000	0.325786
612.000000	0.326078
613.000000	0.326339
614.000000	0.326583
615.000000	0.326768
616.000000	0.326880
617.000000	0.326934
618.000000	0.327094
619.000000	0.327251
620.000000	0.327369
621.000000	0.327508
622.000000	0.327669
623.000000	0.327842
624.000000	0.328019
625.000000	0.328192
626.000000	0.328417
627.000000	0.328712
628.000000	0.329029
629.000000	0.329417
630.000000	0.329730
631.000000	0.330040
632.000000	0.330332
633.000000	0.330618
634.000000	0.330881
635.000000	0.331069
636.000000	0.331236
637.000000	0.331385
638.000000	0.331476
639.000000	0.331558
640.000000	0.331702
641.000000	0.331822
642.000000	0.331940
643.000000	0.332077
644.000000	0.332250
645.000000	0.332406
646.000000	0.332537
647.000000	0.332625
648.000000	0.332751
649.000000	0.332907
650.000000	0.333071
651.000000	0.333263
652.000000	0.333434
653.000000	0.333627
654.000000	0.333826
655.000000	0.334034
656.000000	0.334242
657.000000	0.334394
658.000000	0.334613
659.000000	0.334855
660.000000	0.335072
661.000000	0.335277
662.000000	0.335463
663.000000	0.335675
664.000000	0.335871
665.000000	0.336067
666.000000	0.336258
667.000000	0.336410
668.000000	0.336589
669.000000	0.336800
670.000000	0.337028
671.000000	0.337211
672.000000	0.337390
673.000000	0.337569
674.000000	0.337747
675.000000	0.337926
676.000000	0.338119
677.000000	0.338350
678.000000	0.338533
679.000000	0.338689
680.000000	0.338851
681.000000	0.339004
682.000000	0.339212
683.000000	0.339394
684.000000	0.339585
685.000000	0.339744
686.000000	0.339904
687.000000	0.340061
688.000000	0.340245
689.000000	0.340440
690.000000	0.340663
691.000000	0.340876
692.000000	0.341042
693.000000	0.341226
694.000000	0.341416
695.000000	0.341640
696.000000	0.341864
697.000000	0.342039
698.000000	0.342268
699.000000	0.342511
700.000000	0.342728
701.000000	0.342914
702.000000	0.343088
703.000000	0.343242
704.000000	0.343394
705.000000	0.343566
706.000000	0.343715
707.000000	0.343878
708.000000	0.344059
709.000000	0.344231
710.000000	0.344396
711.000000	0.344587
712.000000	0.344760
713.000000	0.344922
714.000000	0.345088
715.000000	0.345268
716.000000	0.345468
717.000000	0.345657
718.000000	0.345846
719.000000	0.346027
720.000000	0.346198
721.000000	0.346329
722.000000	0.346436
723.000000	0.346587
724.000000	0.346704
725.000000	0.346790
726.000000	0.346945
727.000000	0.347115
728.000000	0.347238
729.000000	0.347351
730.000000	0.347447
731.000000	0.347616
732.000000	0.347782
733.000000	0.347948
734.000000	0.348073
735.000000	0.348183
736.000000	0.348383
737.000000	0.348510
738.000000	0.348583
739.000000	0.348738
740.000000	0.348863
741.000000	0.348954
742.000000	0.349081
743.000000	0.349223
744.000000	0.349356
745.000000	0.349437
746.000000	0.349526
747.000000	0.349606
748.000000	0.349776
749.000000	0.349976
750.000000	0.350109
751.000000	0.350173
752.000000	0.350245
753.000000	0.350353
754.000000	0.350454
755.000000	0.350548
756.000000	0.350647
757.000000	0.350716
758.000000	0.350812
759.000000	0.350946
760.000000	0.351036
761.000000	0.351139
762.000000	0.351232
763.000000	0.351309
764.000000	0.351460
765.000000	0.351554
766.000000	0.351629
767.000000	0.351731
768.000000	0.351798
769.000000	0.351890
770.000000	0.352029
771.000000	0.352163
772.000000	0.352323
773.000000	0.352412
774.000000	0.352457
775.000000	0.352522
776.000000	0.352603
777.000000	0.352674
778.000000	0.352781
779.000000	0.352855
780.000000	0.352891
781.000000	0.352923
782.000000	0.352938
783.000000	0.353017
784.000000	0.353049
785.000000	0.353129
786.000000	0.353161
787.000000	0.353124
788.000000	0.353181
789.000000	0.353270
790.000000	0.353344
791.000000	0.353408
792.000000	0.353481
793.000000	0.353547
794.000000	0.353610
795.000000	0.353742
796.000000	0.353846
797.000000	0.353888
798.000000	0.353906
799.000000	0.353926
800.000000	0.353940
801.000000	0.353939
802.000000	0.353942
803.000000	0.354005
804.000000	0.354145
805.000000	0.354146
806.000000	0.354090
807.000000	0.354109
808.000000	0.354178
809.000000	0.354241
810.000000	0.354286
811.000000	0.354301
812.000000	0.354319
813.000000	0.354356
814.000000	0.354404
815.000000	0.354460
816.000000	0.354443
817.000000	0.354408
818.000000	0.354344
819.000000	0.354362
820.000000	0.354432
821.000000	0.354471
822.000000	0.354502
823.000000	0.354504
824.000000	0.354434
825.000000	0.354396
826.000000	0.354405
827.000000	0.354392
828.000000	0.354377
829.000000	0.354420
830.000000	0.354429
831.000000	0.354464
832.000000	0.354463
833.000000	0.354441
834.000000	0.354410
835.000000	0.354408
836.000000	0.354369
837.000000	0.354320
838.000000	0.354277
839.000000	0.354193
840.000000	0.354094
841.000000	0.354039
842.000000	0.354025
843.000000	0.354033
844.000000	0.354055
845.000000	0.354064
846.000000	0.354103
847.000000	0.354100
848.000000	0.354032
849.000000	0.353945
850.000000	0.353896
851.000000	0.353818
852.000000	0.353738
853.000000	0.353688
854.000000	0.353592
855.000000	0.353565
856.000000	0.353529
857.000000	0.353403
858.000000	0.353349
859.000000	0.353316
860.000000	0.353162
861.000000	0.353109
862.000000	0.353144
863.000000	0.353079
864.000000	0.352954
865.000000	0.352828
866.000000	0.352763
867.000000	0.352737
868.000000	0.352645
869.000000	0.352449
870.000000	0.352284
871.000000	0.352106
872.000000	0.351962
873.000000	0.351830
874.000000	0.351822
875.000000	0.351723
876.000000	0.351575
877.000000	0.351442
878.000000	0.351288
879.000000	0.351197
880.000000	0.351046
881.000000	0.350863
882.000000	0.350753
883.000000	0.350668
884.000000	0.350436
885.000000	0.350192
886.000000	0.349946
887.000000	0.349748
888.000000	0.349653
889.000000	0.349551
890.000000	0.349346
891.000000	0.349212
892.000000	0.349008
893.000000	0.348791
894.000000	0.348704
895.000000	0.348531
896.000000	0.348322
897.000000	0.348115
898.000000	0.347940
899.000000	0.347783
900.000000	0.347639
901.000000	0.347476
902.000000	0.347388
903.000000	0.347276
904.000000	0.347119
905.000000	0.346827
906.000000	0.346639
907.000000	0.346448
908.000000	0.346281
909.000000	0.346113
910.000000	0.345930
911.000000	0.345734
912.000000	0.345549
913.000000	0.345353
914.000000	0.345205
915.000000	0.345138
916.000000	0.344973
917.000000	0.344761
918.000000	0.344561
919.000000	0.344396
920.000000	0.344320
921.000000	0.344153
922.000000	0.343897
923.000000	0.343619
924.000000	0.343344
925.000000	0.343095
926.000000	0.342897
927.000000	0.342644
928.000000	0.342355
929.000000	0.342081
930.000000	0.341872
931.000000	0.341673
932.000000	0.341504
933.000000	0.341345
934.000000	0.341013
935.000000	0.340737
936.000000	0.340577
937.000000	0.340379
938.000000	0.339978
939.000000	0.339704
940.000000	0.339473
941.000000	0.339155
942.000000	0.338914
943.000000	0.338722
944.000000	0.338440
945.000000	0.338278
946.000000	0.338092
947.000000	0.337927
948.000000	0.337766
949.000000	0.337470
950.000000	0.337124
951.000000	0.336764
952.000000	0.336507
953.000000	0.336289
954.000000	0.336096
955.000000	0.335845
956.000000	0.335596
957.000000	0.335370
958.000000	0.335137
959.000000	0.334990
960.000000	0.334899
961.000000	0.334762
962.000000	0.334533
963.000000	0.334304
964.000000	0.334095
965.000000	0.333879
966.000000	0.333539
967.000000	0.333350
968.000000	0.333099
969.000000	0.332795
970.000000	0.332660
971.000000	0.332392
972.000000	0.332113
973.000000	0.331831
974.000000	0.331592
975.000000	0.331285
976.000000	0.330996
977.000000	0.330793
978.000000	0.330603
979.000000	0.330578
980.000000	0.330398
981.000000	0.330163
982.000000	0.330060
983.000000	0.329804
984.000000	0.329524
985.000000	0.329596
986.000000	0.329441
987.000000	0.329243
988.000000	0.329040
989.000000	0.328680
990.000000	0.328396
991.000000	0.328234
992.000000	0.328192
993.000000	0.328111
994.000000	0.327904
995.000000	0.327756
996.000000	0.327596
997.000000	0.327608
998.000000	0.327553
999.000000	0.327403
1000.000000	0.327213
1001.000000	0.327534
1002.000000	0.327387
1003.000000	0.327248
1004.000000	0.327084
1005.000000	0.326950
1006.000000	0.326666
1007.000000	0.326320
1008.000000	0.326015
1009.000000	0.325893
1010.000000	0.325671
1011.000000	0.325563
1012.000000	0.325816
1013.000000	0.325609
1014.000000	0.325268
1015.000000	0.325216
1016.000000	0.325195
1017.000000	0.325219
1018.000000	0.325449
1019.000000	0.325589
1020.000000	0.326056
1021.000000	0.325681
1022.000000	0.324909
1023.000000	0.324773
1024.000000	0.324311
1025.000000	0.324267
1026.000000	0.324712
1027.000000	0.324829
1028.000000	0.324950
1029.000000	0.325065
1030.000000	0.325022
1031.000000	0.325208
1032.000000	0.325231
1033.000000	0.325160
1034.000000	0.325208
1035.000000	0.325317
1036.000000	0.325316
1037.000000	0.325320
1038.000000	0.325297
1039.000000	0.325202
1040.000000	0.325411
1041.000000	0.325690
1042.000000	0.325822
1043.000000	0.325958
1044.000000	0.326078
1045.000000	0.326006
1046.000000	0.325931
1047.000000	0.326076
1048.000000	0.326279
1049.000000	0.326343
1050.000000	0.326588
1051.000000	0.326634
1052.000000	0.326226
1053.000000	0.326216
1054.000000	0.326713
1055.000000	0.326982
1056.000000	0.327310
1057.000000	0.327695
1058.000000	0.327818
1059.000000	0.327501
1060.000000	0.327644
1061.000000	0.327972
1062.000000	0.328262
1063.000000	0.328646
1064.000000	0.328897
1065.000000	0.328925
1066.000000	0.329119
1067.000000	0.329405
1068.000000	0.329505
1069.000000	0.329392
1070.000000	0.329496
1071.000000	0.329684
1072.000000	0.329804
1073.000000	0.330005
1074.000000	0.330418
1075.000000	0.330587
1076.000000	0.330757
1077.000000	0.330967
1078.000000	0.331108
1079.000000	0.331365
1080.000000	0.331714
1081.000000	0.331919
1082.000000	0.332257
1083.000000	0.332522
1084.000000	0.332628
1085.000000	0.332890
1086.000000	0.333304
1087.000000	0.333568
1088.000000	0.333690
1089.000000	0.333825
1090.000000	0.333812
1091.000000	0.333835
1092.000000	0.334141
1093.000000	0.334523
1094.000000	0.334766
1095.000000	0.335018
1096.000000	0.335282
1097.000000	0.335422
1098.000000	0.335665
1099.000000	0.335933
1100.000000	0.336266
1101.000000	0.336656
1102.000000	0.336875
1103.000000	0.337052
1104.000000	0.337252
1105.000000	0.337281
1106.000000	0.337385
1107.000000	0.337464
1108.000000	0.337614
1109.000000	0.337891
1110.000000	0.338110
1111.000000	0.338314
1112.000000	0.338625
1113.000000	0.338794
1114.000000	0.338816
1115.000000	0.338957
1116.000000	0.339120
1117.000000	0.339286
1118.000000	0.339543
1119.000000	0.339595
1120.000000	0.339462
1121.000000	0.339511
1122.000000	0.339676
1123.000000	0.339945
1124.000000	0.340111
1125.000000	0.340325
1126.000000	0.340479
1127.000000	0.340533
1128.000000	0.340553
1129.000000	0.340620
1130.000000	0.340696
1131.000000	0.340667
1132.000000	0.340745
1133.000000	0.341009
1134.000000	0.341175
1135.000000	0.341274
1136.000000	0.341348
1137.000000	0.341388
1138.000000	0.341397
1139.000000	0.341447
1140.000000	0.341565
1141.000000	0.341647
1142.000000	0.341743
1143.000000	0.341824
1144.000000	0.341976
1145.000000	0.341970
1146.000000	0.341883
1147.000000	0.341882
1148.000000	0.341764
1149.000000	0.341765
1150.000000	0.341875
1151.000000	0.341947
1152.000000	0.341984
1153.000000	0.342019
1154.000000	0.342004
1155.000000	0.341987
1156.000000	0.341973
1157.000000	0.341951
1158.000000	0.341866
1159.000000	0.341806
1160.000000	0.341708
1161.000000	0.341642
1162.000000	0.341662
1163.000000	0.341805
1164.000000	0.341794
1165.000000	0.341728
1166.000000	0.341701
1167.000000	0.341558
1168.000000	0.341481
1169.000000	0.341477
1170.000000	0.341483
1171.000000	0.341567
1172.000000	0.341601
1173.000000	0.341604
1174.000000	0.341593
1175.000000	0.341489
1176.000000	0.341403
1177.000000	0.341417
1178.000000	0.341408
1179.000000	0.341390
1180.000000	0.341310
1181.000000	0.341296
1182.000000	0.341250
1183.000000	0.341223
1184.000000	0.341268
1185.000000	0.341253
1186.000000	0.341232
1187.000000	0.341197
1188.000000	0.341130
1189.000000	0.341046
1190.000000	0.341022
1191.000000	0.340967
1192.000000	0.340968
1193.000000	0.341050
1194.000000	0.341030
1195.000000	0.341037
1196.000000	0.341028
1197.000000	0.341015
1198.000000	0.341040
1199.000000	0.341030
1200.000000	0.340975
1201.000000	0.340926
1202.000000	0.340911
1203.000000	0.340862
1204.000000	0.340827
1205.000000	0.340864
1206.000000	0.340815
1207.000000	0.340816
1208.000000	0.340773
1209.000000	0.340765
1210.000000	0.340756
1211.000000	0.340756
1212.000000	0.340718
1213.000000	0.340720
1214.000000	0.340706
1215.000000	0.340623
1216.000000	0.340569
1217.000000	0.340504
1218.000000	0.340413
1219.000000	0.340319
1220.000000	0.340293
1221.000000	0.340227
1222.000000	0.340154
1223.000000	0.340145
1224.000000	0.340119
1225.000000	0.340027
1226.000000	0.340014
1227.000000	0.339969
1228.000000	0.339924
1229.000000	0.339860
1230.000000	0.339792
1231.000000	0.339699
1232.000000	0.339717
1233.000000	0.339760
1234.000000	0.339808
1235.000000	0.339810
1236.000000	0.339664
1237.000000	0.339659
1238.000000	0.339666
1239.000000	0.339655
1240.000000	0.339678
1241.000000	0.339707
1242.000000	0.339716
1243.000000	0.339749
1244.000000	0.339837
1245.000000	0.339948
1246.000000	0.339957
1247.000000	0.339986
1248.000000	0.340030
1249.000000	0.340055
1250.000000	0.340047
1251.000000	0.340031
1252.000000	0.340005
1253.000000	0.339979
1254.000000	0.339918
1255.000000	0.339852
1256.000000	0.339782
1257.000000	0.339675
1258.000000	0.339654
1259.000000	0.339620
1260.000000	0.339623
1261.000000	0.339587
1262.000000	0.339559
1263.000000	0.339566
1264.000000	0.339540
1265.000000	0.339565
1266.000000	0.339590
1267.000000	0.339590
1268.000000	0.339600
1269.000000	0.339544
1270.000000	0.339569
1271.000000	0.339574
1272.000000	0.339567
1273.000000	0.339594
1274.000000	0.339626
1275.000000	0.339653
1276.000000	0.339750
1277.000000	0.339824
1278.000000	0.339774
1279.000000	0.339735
1280.000000	0.339594
1281.000000	0.339513
1282.000000	0.339555
1283.000000	0.339586
1284.000000	0.339524
1285.000000	0.339516
1286.000000	0.339499
1287.000000	0.339434
1288.000000	0.339477
1289.000000	0.339473
1290.000000	0.339329
1291.000000	0.339224
1292.000000	0.339148
1293.000000	0.339140
1294.000000	0.339167
1295.000000	0.339184
1296.000000	0.339179
1297.000000	0.339133
1298.000000	0.339116
1299.000000	0.339104
1300.000000	0.339119
1301.000000	0.339086
1302.000000	0.339005
1303.000000	0.339019
1304.000000	0.338967
1305.000000	0.338959
1306.000000	0.338936
1307.000000	0.338950
1308.000000	0.338982
1309.000000	0.339050
1310.000000	0.339034
1311.000000	0.339038
1312.000000	0.338927
1313.000000	0.338773
1314.000000	0.338691
1315.000000	0.338619
1316.000000	0.338615
1317.000000	0.338629
1318.000000	0.338555
1319.000000	0.338415
1320.000000	0.338332
1321.000000	0.338202
1322.000000	0.338010
1323.000000	0.337885
1324.000000	0.337811
1325.000000	0.337652
1326.000000	0.337509
1327.000000	0.337393
1328.000000	0.337279
1329.000000	0.337097
1330.000000	0.336916
1331.000000	0.336765
1332.000000	0.336648
1333.000000	0.336488
1334.000000	0.336430
1335.000000	0.336335
1336.000000	0.336150
1337.000000	0.335988
1338.000000	0.335795
1339.000000	0.335581
1340.000000	0.335377
1341.000000	0.335210
1342.000000	0.335028
1343.000000	0.334830
1344.000000	0.334612
1345.000000	0.334379
1346.000000	0.334183
1347.000000	0.333895
1348.000000	0.333649
1349.000000	0.333313
1350.000000	0.333043
1351.000000	0.332835
1352.000000	0.332551
1353.000000	0.332268
1354.000000	0.332036
1355.000000	0.331714
1356.000000	0.331457
1357.000000	0.331244
1358.000000	0.331021
1359.000000	0.330771
1360.000000	0.330556
1361.000000	0.330432
1362.000000	0.330248
1363.000000	0.330003
1364.000000	0.329850
1365.000000	0.329691
1366.000000	0.329530
1367.000000	0.329394
1368.000000	0.329262
1369.000000	0.329199
1370.000000	0.329027
1371.000000	0.328802
1372.000000	0.328590
1373.000000	0.328312
1374.000000	0.328057
1375.000000	0.327804
1376.000000	0.327645
1377.000000	0.327542
1378.000000	0.327396
1379.000000	0.327185
1380.000000	0.326963
1381.000000	0.326717
1382.000000	0.326418
1383.000000	0.326163
1384.000000	0.325866
1385.000000	0.325541
1386.000000	0.325313
1387.000000	0.325122
1388.000000	0.324902
1389.000000	0.324653
1390.000000	0.324389
1391.000000	0.324068
1392.000000	0.323768
1393.000000	0.323398
1394.000000	0.323021
1395.000000	0.322645
1396.000000	0.322262
1397.000000	0.321757
1398.000000	0.321175
1399.000000	0.320611
1400.000000	0.319950
1401.000000	0.319278
1402.000000	0.318704
1403.000000	0.317963
1404.000000	0.317174
1405.000000	0.316374
1406.000000	0.315527
1407.000000	0.314722
1408.000000	0.313845
1409.000000	0.312963
1410.000000	0.312094
1411.000000	0.311106
1412.000000	0.310048
1413.000000	0.309017
1414.000000	0.307949
1415.000000	0.306900
1416.000000	0.305888
1417.000000	0.304871
1418.000000	0.303789
1419.000000	0.302725
1420.000000	0.301618
1421.000000	0.300570
1422.000000	0.299517
1423.000000	0.298496
1424.000000	0.297360
1425.000000	0.296205
1426.000000	0.295079
1427.000000	0.293958
1428.000000	0.292909
1429.000000	0.291896
1430.000000	0.290834
1431.000000	0.289793
1432.000000	0.288735
1433.000000	0.287683
1434.000000	0.286640
1435.000000	0.285670
1436.000000	0.284676
1437.000000	0.283683
1438.000000	0.282664
1439.000000	0.281652
1440.000000	0.280705
1441.000000	0.279771
1442.000000	0.278904
1443.000000	0.278049
1444.000000	0.277206
1445.000000	0.276414
1446.000000	0.275662
1447.000000	0.274917
1448.000000	0.274227
1449.000000	0.273583
1450.000000	0.272971
1451.000000	0.272444
1452.000000	0.271896
1453.000000	0.271355
1454.000000	0.270826
1455.000000	0.270291
1456.000000	0.269890
1457.000000	0.269535
1458.000000	0.269159
1459.000000	0.268794
1460.000000	0.268411
1461.000000	0.268025
1462.000000	0.267660
1463.000000	0.267302
1464.000000	0.266991
1465.000000	0.266732
1466.000000	0.266442
1467.000000	0.266188
1468.000000	0.265989
1469.000000	0.265855
1470.000000	0.265704
1471.000000	0.265596
1472.000000	0.265471
1473.000000	0.265371
1474.000000	0.265280
1475.000000	0.265213
1476.000000	0.265208
1477.000000	0.265229
1478.000000	0.265247
1479.000000	0.265256
1480.000000	0.265246
1481.000000	0.265257
1482.000000	0.265290
1483.000000	0.265397
1484.000000	0.265565
1485.000000	0.265737
1486.000000	0.265911
1487.000000	0.266105
1488.000000	0.266358
1489.000000	0.266605
1490.000000	0.266765
1491.000000	0.267005
1492.000000	0.267217
1493.000000	0.267461
1494.000000	0.267717
1495.000000	0.267970
1496.000000	0.268221
1497.000000	0.268506
1498.000000	0.268824
1499.000000	0.269137
1500.000000	0.269484
1501.000000	0.269792
1502.000000	0.270090
1503.000000	0.270442
1504.000000	0.270777
1505.000000	0.271099
1506.000000	0.271446
1507.000000	0.271729
1508.000000	0.272041
1509.000000	0.272407
1510.000000	0.272704
1511.000000	0.273018
1512.000000	0.273313
1513.000000	0.273558
1514.000000	0.273829
1515.000000	0.274062
1516.000000	0.274339
1517.000000	0.274600
1518.000000	0.274840
1519.000000	0.275055
1520.000000	0.275242
1521.000000	0.275379
1522.000000	0.275584
1523.000000	0.275858
1524.000000	0.276066
1525.000000	0.276303
1526.000000	0.276483
1527.000000	0.276618
1528.000000	0.276845
1529.000000	0.277075
1530.000000	0.277221
1531.000000	0.277464
1532.000000	0.277725
1533.000000	0.277898
1534.000000	0.278121
1535.000000	0.278343
1536.000000	0.278445
1537.000000	0.278601
1538.000000	0.278760
1539.000000	0.278840
1540.000000	0.278938
1541.000000	0.279092
1542.000000	0.279264
1543.000000	0.279428
1544.000000	0.279607
1545.000000	0.279779
1546.000000	0.279895
1547.000000	0.280007
1548.000000	0.280107
1549.000000	0.280169
1550.000000	0.280258
1551.000000	0.280357
1552.000000	0.280416
1553.000000	0.280463
1554.000000	0.280501
1555.000000	0.280533
1556.000000	0.280592
1557.000000	0.280658
1558.000000	0.280741
1559.000000	0.280787
1560.000000	0.280818
1561.000000	0.280885
1562.000000	0.280919
1563.000000	0.280963
1564.000000	0.281013
1565.000000	0.281070
1566.000000	0.281034
1567.000000	0.281042
1568.000000	0.281028
1569.000000	0.281021
1570.000000	0.281014
1571.000000	0.281016
1572.000000	0.280964
1573.000000	0.280865
1574.000000	0.280821
1575.000000	0.280801
1576.000000	0.280745
1577.000000	0.280709
1578.000000	0.280623
1579.000000	0.280507
1580.000000	0.280430
1581.000000	0.280434
1582.000000	0.280370
1583.000000	0.280271
1584.000000	0.280167
1585.000000	0.280084
1586.000000	0.280042
1587.000000	0.280058
1588.000000	0.280029
1589.000000	0.279998
1590.000000	0.279968
1591.000000	0.279937
1592.000000	0.279904
1593.000000	0.279910
1594.000000	0.279872
1595.000000	0.279861
1596.000000	0.279812
1597.000000	0.279749
1598.000000	0.279688
1599.000000	0.279625
1600.000000	0.279525
1601.000000	0.279485
1602.000000	0.279424
1603.000000	0.279377
1604.000000	0.279311
1605.000000	0.279255
1606.000000	0.279189
1607.000000	0.279149
1608.000000	0.279082
1609.000000	0.279037
1610.000000	0.278994
1611.000000	0.278964
1612.000000	0.278945
1613.000000	0.279043
1614.000000	0.279066
1615.000000	0.279104
1616.000000	0.279150
1617.000000	0.279164
1618.000000	0.279149
1619.000000	0.279081
1620.000000	0.279065
1621.000000	0.279030
1622.000000	0.279116
1623.000000	0.279273
1624.000000	0.279385
1625.000000	0.279434
1626.000000	0.279458
1627.000000	0.279446
1628.000000	0.279529
1629.000000	0.279622
1630.000000	0.279750
1631.000000	0.279896
1632.000000	0.279992
1633.000000	0.280087
1634.000000	0.280204
1635.000000	0.280346
1636.000000	0.280472
1637.000000	0.280637
1638.000000	0.280743
1639.000000	0.280856
1640.000000	0.280973
1641.000000	0.281125
1642.000000	0.281270
1643.000000	0.281461
1644.000000	0.281608
1645.000000	0.281741
1646.000000	0.281827
1647.000000	0.281894
1648.000000	0.281967
1649.000000	0.282075
1650.000000	0.282256
1651.000000	0.282519
1652.000000	0.282763
1653.000000	0.283018
1654.000000	0.283247
1655.000000	0.283397
1656.000000	0.283516
1657.000000	0.283694
1658.000000	0.283814
1659.000000	0.283982
1660.000000	0.284151
1661.000000	0.284207
1662.000000	0.284348
1663.000000	0.284498
1664.000000	0.284627
1665.000000	0.284757
1666.000000	0.284995
1667.000000	0.285201
1668.000000	0.285411
1669.000000	0.285672
1670.000000	0.285834
1671.000000	0.286026
1672.000000	0.286222
1673.000000	0.286384
1674.000000	0.286570
1675.000000	0.286748
1676.000000	0.286940
1677.000000	0.287088
1678.000000	0.287174
1679.000000	0.287295
1680.000000	0.287416
1681.000000	0.287553
1682.000000	0.287681
1683.000000	0.287779
1684.000000	0.287855
1685.000000	0.287947
1686.000000	0.288069
1687.000000	0.288210
1688.000000	0.288276
1689.000000	0.288379
1690.000000	0.288444
1691.000000	0.288557
1692.000000	0.288730
1693.000000	0.288890
1694.000000	0.289036
1695.000000	0.289264
1696.000000	0.289381
1697.000000	0.289465
1698.000000	0.289548
1699.000000	0.289685
1700.000000	0.289857
1701.000000	0.290071
1702.000000	0.290180
1703.000000	0.290259
1704.000000	0.290358
1705.000000	0.290489
1706.000000	0.290689
1707.000000	0.290859
1708.000000	0.291034
1709.000000	0.291127
1710.000000	0.291244
1711.000000	0.291369
1712.000000	0.291504
1713.000000	0.291598
1714.000000	0.291670
1715.000000	0.291814
1716.000000	0.291990
1717.000000	0.292147
1718.000000	0.292348
1719.000000	0.292480
1720.000000	0.292588
1721.000000	0.292715
1722.000000	0.292799
1723.000000	0.292985
1724.000000	0.293283
1725.000000	0.293505
1726.000000	0.293692
1727.000000	0.293848
1728.000000	0.293856
1729.000000	0.293905
1730.000000	0.294086
1731.000000	0.294249
1732.000000	0.294437
1733.000000	0.294637
1734.000000	0.294726
1735.000000	0.294878
1736.000000	0.295015
1737.000000	0.295138
1738.000000	0.295291
1739.000000	0.295453
1740.000000	0.295562
1741.000000	0.295727
1742.000000	0.295967
1743.000000	0.296195
1744.000000	0.296415
1745.000000	0.296578
1746.000000	0.296719
1747.000000	0.296868
1748.000000	0.296951
1749.000000	0.297008
1750.000000	0.297069
1751.000000	0.297216
1752.000000	0.297422
1753.000000	0.297536
1754.000000	0.297688
1755.000000	0.297809
1756.000000	0.297930
1757.000000	0.298085
1758.000000	0.298245
1759.000000	0.298392
1760.000000	0.298523
1761.000000	0.298623
1762.000000	0.298712
1763.000000	0.298788
1764.000000	0.298877
1765.000000	0.298893
1766.000000	0.299027
1767.000000	0.299180
1768.000000	0.299260
1769.000000	0.299461
1770.000000	0.299650
1771.000000	0.299756
1772.000000	0.299846
1773.000000	0.299884
1774.000000	0.299987
1775.000000	0.300104
1776.000000	0.300262
1777.000000	0.300496
1778.000000	0.300636
1779.000000	0.300707
1780.000000	0.300841
1781.000000	0.300931
1782.000000	0.301078
1783.000000	0.301320
1784.000000	0.301529
1785.000000	0.301665
1786.000000	0.301890
1787.000000	0.302205
1788.000000	0.302501
1789.000000	0.302824
1790.000000	0.303087
1791.000000	0.303270
1792.000000	0.303494
1793.000000	0.303682
1794.000000	0.303809
1795.000000	0.303991
1796.000000	0.304189
1797.000000	0.304332
1798.000000	0.304432
1799.000000	0.304561
1800.000000	0.304706
1801.000000	0.304648
1802.000000	0.304720
1803.000000	0.304332
1804.000000	0.304567
1805.000000	0.305098
1806.000000	0.305450
1807.000000	0.306100
1808.000000	0.306513
1809.000000	0.306841
1810.000000	0.306788
1811.000000	0.306937
1812.000000	0.307229
1813.000000	0.307273
1814.000000	0.307125
1815.000000	0.307127
1816.000000	0.307118
1817.000000	0.306948
1818.000000	0.306701
1819.000000	0.306844
1820.000000	0.306804
1821.000000	0.306472
1822.000000	0.306440
1823.000000	0.306538
1824.000000	0.306447
1825.000000	0.306256
1826.000000	0.306265
1827.000000	0.306120
1828.000000	0.306086
1829.000000	0.306320
1830.000000	0.306388
1831.000000	0.306359
1832.000000	0.306059
1833.000000	0.306164
1834.000000	0.306642
1835.000000	0.306635
1836.000000	0.306467
1837.000000	0.306334
1838.000000	0.305776
1839.000000	0.305173
1840.000000	0.304888
1841.000000	0.305028
1842.000000	0.304861
1843.000000	0.304408
1844.000000	0.304352
1845.000000	0.304352
1846.000000	0.304377
1847.000000	0.304458
1848.000000	0.304718
1849.000000	0.304502
1850.000000	0.304212
1851.000000	0.304111
1852.000000	0.303965
1853.000000	0.303757
1854.000000	0.303591
1855.000000	0.303142
1856.000000	0.302352
1857.000000	0.301587
1858.000000	0.300949
1859.000000	0.300147
1860.000000	0.299332
1861.000000	0.298763
1862.000000	0.297957
1863.000000	0.297048
1864.000000	0.296258
1865.000000	0.295504
1866.000000	0.294598
1867.000000	0.293645
1868.000000	0.292718
1869.000000	0.291378
1870.000000	0.290002
1871.000000	0.288978
1872.000000	0.287959
1873.000000	0.286818
1874.000000	0.285902
1875.000000	0.284719
1876.000000	0.283199
1877.000000	0.281127
1878.000000	0.279184
1879.000000	0.277094
1880.000000	0.275127
1881.000000	0.273217
1882.000000	0.271463
1883.000000	0.269694
1884.000000	0.267739
1885.000000	0.265466
1886.000000	0.263233
1887.000000	0.260887
1888.000000	0.258309
1889.000000	0.255793
1890.000000	0.253105
1891.000000	0.250526
1892.000000	0.247903
1893.000000	0.244958
1894.000000	0.242148
1895.000000	0.239245
1896.000000	0.236382
1897.000000	0.233297
1898.000000	0.230347
1899.000000	0.227603
1900.000000	0.224722
1901.000000	0.221818
1902.000000	0.218695
1903.000000	0.215531
1904.000000	0.212448
1905.000000	0.209162
1906.000000	0.205990
1907.000000	0.203035
1908.000000	0.200046
1909.000000	0.196925
1910.000000	0.194169
1911.000000	0.191424
1912.000000	0.188644
1913.000000	0.186009
1914.000000	0.183333
1915.000000	0.180684
1916.000000	0.178281
1917.000000	0.175942
1918.000000	0.173858
1919.000000	0.171718
1920.000000	0.169539
1921.000000	0.167555
1922.000000	0.165533
1923.000000	0.163784
1924.000000	0.162377
1925.000000	0.161076
1926.000000	0.160075
1927.000000	0.159175
1928.000000	0.158215
1929.000000	0.157354
1930.000000	0.156492
1931.000000	0.155580
1932.000000	0.154799
1933.000000	0.154026
1934.000000	0.153171
1935.000000	0.152520
1936.000000	0.152056
1937.000000	0.151554
1938.000000	0.151246
1939.000000	0.150972
1940.000000	0.150780
1941.000000	0.150457
1942.000000	0.150251
1943.000000	0.149855
1944.000000	0.149353
1945.000000	0.148838
1946.000000	0.148222
1947.000000	0.147785
1948.000000	0.147318
1949.000000	0.147022
1950.000000	0.146860
1951.000000	0.146662
1952.000000	0.146589
1953.000000	0.146639
1954.000000	0.146475
1955.000000	0.146292
1956.000000	0.146027
1957.000000	0.145797
1958.000000	0.145527
1959.000000	0.145292
1960.000000	0.145253
1961.000000	0.145004
1962.000000	0.144837
1963.000000	0.144742
1964.000000	0.144747
1965.000000	0.144639
1966.000000	0.144663
1967.000000	0.144807
1968.000000	0.144827
1969.000000	0.144813
1970.000000	0.144987
1971.000000	0.144966
1972.000000	0.144944
1973.000000	0.144909
1974.000000	0.144832
1975.000000	0.144870
1976.000000	0.144988
1977.000000	0.145152
1978.000000	0.145416
1979.000000	0.145761
1980.000000	0.145804
1981.000000	0.145973
1982.000000	0.146163
1983.000000	0.146295
1984.000000	0.146529
1985.000000	0.147009
1986.000000	0.147220
1987.000000	0.147333
1988.000000	0.147550
1989.000000	0.147856
1990.000000	0.148404
1991.000000	0.148974
1992.000000	0.149633
1993.000000	0.150094
1994.000000	0.150360
1995.000000	0.150693
1996.000000	0.151028
1997.000000	0.151515
1998.000000	0.152153
1999.000000	0.152866
2000.000000	0.153764
2001.000000	0.154612
2002.000000	0.155344
2003.000000	0.155916
2004.000000	0.156366
2005.000000	0.156653
2006.000000	0.157163
2007.000000	0.157849
2008.000000	0.158522
2009.000000	0.159378
2010.000000	0.160155
2011.000000	0.160773
2012.000000	0.161464
2013.000000	0.162178
2014.000000	0.162767
2015.000000	0.163539
2016.000000	0.164212
2017.000000	0.164894
2018.000000	0.165694
2019.000000	0.166207
2020.000000	0.166882
2021.000000	0.167602
2022.000000	0.168249
2023.000000	0.169009
2024.000000	0.169984
2025.000000	0.170835
2026.000000	0.171628
2027.000000	0.172312
2028.000000	0.173113
2029.000000	0.173938
2030.000000	0.174574
2031.000000	0.175389
2032.000000	0.176080
2033.000000	0.176679
2034.000000	0.177287
2035.000000	0.177921
2036.000000	0.178555
2037.000000	0.179251
2038.000000	0.179968
2039.000000	0.180779
2040.000000	0.181678
2041.000000	0.182477
2042.000000	0.183155
2043.000000	0.183822
2044.000000	0.184234
2045.000000	0.184436
2046.000000	0.184812
2047.000000	0.185357
2048.000000	0.185984
2049.000000	0.186763
2050.000000	0.187581
2051.000000	0.188278
2052.000000	0.188882
2053.000000	0.189433
2054.000000	0.190062
2055.000000	0.190881
2056.000000	0.191456
2057.000000	0.192079
2058.000000	0.192699
2059.000000	0.193139
2060.000000	0.193584
2061.000000	0.193971
2062.000000	0.194471
2063.000000	0.194946
2064.000000	0.195458
2065.000000	0.196288
2066.000000	0.196926
2067.000000	0.197711
2068.000000	0.198405
2069.000000	0.199099
2070.000000	0.199844
2071.000000	0.200550
2072.000000	0.201357
2073.000000	0.202165
2074.000000	0.202923
2075.000000	0.203627
2076.000000	0.204286
2077.000000	0.204907
2078.000000	0.205444
2079.000000	0.205990
2080.000000	0.206461
2081.000000	0.207044
2082.000000	0.207627
2083.000000	0.208356
2084.000000	0.209267
2085.000000	0.210178
2086.000000	0.211102
2087.000000	0.211949
2088.000000	0.212637
2089.000000	0.213361
2090.000000	0.214140
2091.000000	0.214975
2092.000000	0.215889
2093.000000	0.217047
2094.000000	0.217851
2095.000000	0.218605
2096.000000	0.219258
2097.000000	0.219539
2098.000000	0.219936
2099.000000	0.220409
2100.000000	0.221011
2101.000000	0.221815
2102.000000	0.222446
2103.000000	0.223188
2104.000000	0.224079
2105.000000	0.224837
2106.000000	0.225495
2107.000000	0.226321
2108.000000	0.227159
2109.000000	0.228018
2110.000000	0.228957
2111.000000	0.229696
2112.000000	0.230381
2113.000000	0.230649
2114.000000	0.230880
2115.000000	0.231234
2116.000000	0.231442
2117.000000	0.231850
2118.000000	0.232464
2119.000000	0.233081
2120.000000	0.233785
2121.000000	0.234760
2122.000000	0.235384
2123.000000	0.235990
2124.000000	0.236308
2125.000000	0.236230
2126.000000	0.236397
2127.000000	0.236438
2128.000000	0.236747
2129.000000	0.237280
2130.000000	0.237640
2131.000000	0.237990
2132.000000	0.238325
2133.000000	0.238730
2134.000000	0.239302
2135.000000	0.239733
2136.000000	0.240055
2137.000000	0.240358
2138.000000	0.240454
2139.000000	0.240776
2140.000000	0.241215
2141.000000	0.241621
2142.000000	0.242157
2143.000000	0.242305
2144.000000	0.242319
2145.000000	0.242591
2146.000000	0.242796
2147.000000	0.243412
2148.000000	0.244129
2149.000000	0.244964
2150.000000	0.245357
2151.000000	0.245602
2152.000000	0.245896
2153.000000	0.245797
2154.000000	0.245839
2155.000000	0.245950
2156.000000	0.245980
2157.000000	0.245864
2158.000000	0.246046
2159.000000	0.246490
2160.000000	0.246788
2161.000000	0.247287
2162.000000	0.247521
2163.000000	0.247226
2164.000000	0.247236
2165.000000	0.247395
2166.000000	0.247264
2167.000000	0.247478
2168.000000	0.248174
2169.000000	0.248607
2170.000000	0.249136
2171.000000	0.249328
2172.000000	0.249328
2173.000000	0.249258
2174.000000	0.248865
2175.000000	0.248604
2176.000000	0.248256
2177.000000	0.248105
2178.000000	0.248000
2179.000000	0.248208
2180.000000	0.248773
2181.000000	0.249335
2182.000000	0.249731
2183.000000	0.249867
2184.000000	0.250038
2185.000000	0.249619
2186.000000	0.248739
2187.000000	0.248384
2188.000000	0.248436
2189.000000	0.248610
2190.000000	0.248919
2191.000000	0.249973
2192.000000	0.250193
2193.000000	0.249694
2194.000000	0.249400
2195.000000	0.248830
2196.000000	0.248522
2197.000000	0.248070
2198.000000	0.248117
2199.000000	0.248959
2200.000000	0.249394
2201.000000	0.249851
2202.000000	0.250429
2203.000000	0.250971
2204.000000	0.250854
2205.000000	0.251254
2206.000000	0.251732
2207.000000	0.251361
2208.000000	0.250721
2209.000000	0.250066
2210.000000	0.249757
2211.000000	0.249692
2212.000000	0.250520
2213.000000	0.250903
2214.000000	0.251091
2215.000000	0.251603
2216.000000	0.252403
2217.000000	0.253060
2218.000000	0.253952
2219.000000	0.254496
2220.000000	0.254652
2221.000000	0.255006
2222.000000	0.255389
2223.000000	0.255637
2224.000000	0.255890
2225.000000	0.256205
2226.000000	0.255885
2227.000000	0.256211
2228.000000	0.256120
2229.000000	0.254896
2230.000000	0.254510
2231.000000	0.254261
2232.000000	0.254942
2233.000000	0.256110
2234.000000	0.255907
2235.000000	0.255540
2236.000000	0.254856
2237.000000	0.252982
2238.000000	0.252232
2239.000000	0.251343
2240.000000	0.251560
2241.000000	0.252999
2242.000000	0.253696
2243.000000	0.255326
2244.000000	0.255959
2245.000000	0.255255
2246.000000	0.255357
2247.000000	0.255360
2248.000000	0.255512
2249.000000	0.256432
2250.000000	0.256629
2251.000000	0.255890
2252.000000	0.255947
2253.000000	0.255412
2254.000000	0.255207
2255.000000	0.255923
2256.000000	0.256309
2257.000000	0.257002
2258.000000	0.257629
2259.000000	0.257433
2260.000000	0.257079
2261.000000	0.256463
2262.000000	0.255174
2263.000000	0.254520
2264.000000	0.253744
2265.000000	0.253409
2266.000000	0.253864
2267.000000	0.253681
2268.000000	0.253429
2269.000000	0.253219
2270.000000	0.252741
2271.000000	0.251917
2272.000000	0.250928
2273.000000	0.250357
2274.000000	0.249378
2275.000000	0.249011
2276.000000	0.249279
2277.000000	0.249462
2278.000000	0.249090
2279.000000	0.248811
2280.000000	0.249080
2281.000000	0.248387
2282.000000	0.248400
2283.000000	0.248554
2284.000000	0.247224
2285.000000	0.246527
2286.000000	0.246131
2287.000000	0.245402
2288.000000	0.245225
2289.000000	0.244854
2290.000000	0.243577
2291.000000	0.242693
2292.000000	0.242052
2293.000000	0.240434
2294.000000	0.239444
2295.000000	0.238766
2296.000000	0.238007
2297.000000	0.237292
2298.000000	0.236857
2299.000000	0.236500
2300.000000	0.236334
2301.000000	0.236682
2302.000000	0.236467
2303.000000	0.236175
2304.000000	0.235348
2305.000000	0.233672
2306.000000	0.232549
2307.000000	0.231190
2308.000000	0.230747
2309.000000	0.229943
2310.000000	0.229391
2311.000000	0.229296
2312.000000	0.228404
2313.000000	0.227350
2314.000000	0.226310
2315.000000	0.224969
2316.000000	0.223863
2317.000000	0.223073
2318.000000	0.222716
2319.000000	0.222552
2320.000000	0.222104
2321.000000	0.222056
2322.000000	0.221747
2323.000000	0.220802
2324.000000	0.220088
2325.000000	0.219286
2326.000000	0.217531
2327.000000	0.215714
2328.000000	0.214493
2329.000000	0.213516
2330.000000	0.213204
2331.000000	0.213227
2332.000000	0.212674
2333.000000	0.211170
2334.000000	0.208795
2335.000000	0.207720
2336.000000	0.206577
2337.000000	0.206081
2338.000000	0.207268
2339.000000	0.207153
2340.000000	0.206030
2341.000000	0.205396
2342.000000	0.204771
2343.000000	0.203537
2344.000000	0.202463
2345.000000	0.201080
2346.000000	0.199108
2347.000000	0.197231
2348.000000	0.195177
2349.000000	0.193530
2350.000000	0.191829
2351.000000	0.190833
2352.000000	0.191896
2353.000000	0.192513
2354.000000	0.192635
2355.000000	0.191994
2356.000000	0.189075
2357.000000	0.186969
2358.000000	0.185153
2359.000000	0.184326
2360.000000	0.184510
2361.000000	0.184019
2362.000000	0.183964
2363.000000	0.182815
2364.000000	0.181034
2365.000000	0.180347
2366.000000	0.179045
2367.000000	0.177535
2368.000000	0.177337
2369.000000	0.177062
2370.000000	0.175810
2371.000000	0.174404
2372.000000	0.172451
2373.000000	0.170075
2374.000000	0.168828
2375.000000	0.169103
2376.000000	0.169202
2377.000000	0.167400
2378.000000	0.165927
2379.000000	0.164845
2380.000000	0.162507
2381.000000	0.162500
2382.000000	0.162298
2383.000000	0.160673
2384.000000	0.162007
2385.000000	0.163856
2386.000000	0.164845
2387.000000	0.164211
2388.000000	0.162991
2389.000000	0.161307
2390.000000	0.158818
2391.000000	0.159330
2392.000000	0.159327
2393.000000	0.159343
2394.000000	0.160031
2395.000000	0.160365
2396.000000	0.162249
2397.000000	0.162561
2398.000000	0.162986
2399.000000	0.161340
2400.000000	0.156316
2401.000000	0.152544
2402.000000	0.149710
2403.000000	0.147799
2404.000000	0.147610
2405.000000	0.148552
2406.000000	0.148543
2407.000000	0.148595
2408.000000	0.149684
2409.000000	0.148997
2410.000000	0.147721
2411.000000	0.147246
2412.000000	0.145836
2413.000000	0.143708
2414.000000	0.142774
2415.000000	0.142499
2416.000000	0.141838
2417.000000	0.143093
2418.000000	0.144367
2419.000000	0.144537
2420.000000	0.145621
2421.000000	0.144927
2422.000000	0.143825
2423.000000	0.143418
2424.000000	0.140324
2425.000000	0.139816
2426.000000	0.143038
2427.000000	0.144891
2428.000000	0.147910
2429.000000	0.149880
2430.000000	0.148647
2431.000000	0.146773
2432.000000	0.145827
2433.000000	0.145098
2434.000000	0.143454
2435.000000	0.145082
2436.000000	0.149411
2437.000000	0.151029
2438.000000	0.151502
2439.000000	0.149109
2440.000000	0.141911
2441.000000	0.137098
2442.000000	0.135996
2443.000000	0.138164
2444.000000	0.138636
2445.000000	0.137214
2446.000000	0.137574
2447.000000	0.137291
2448.000000	0.137794
2449.000000	0.138010
2450.000000	0.141000
2451.000000	0.143347
2452.000000	0.147898
2453.000000	0.155427
2454.000000	0.153848
2455.000000	0.148220
2456.000000	0.138703
2457.000000	0.132236
2458.000000	0.132280
2459.000000	0.132473
2460.000000	0.135654
2461.000000	0.136460
2462.000000	0.139011
2463.000000	0.145010
2464.000000	0.146067
2465.000000	0.141903
2466.000000	0.134942
2467.000000	0.128303
2468.000000	0.127207
2469.000000	0.132225
2470.000000	0.138791
2471.000000	0.138875
2472.000000	0.136693
2473.000000	0.135026
2474.000000	0.128128
2475.000000	0.135456
2476.000000	0.139260
2477.000000	0.131905
2478.000000	0.138931
2479.000000	0.130837
2480.000000	0.119371
2481.000000	0.126370
2482.000000	0.122904
2483.000000	0.125595
2484.000000	0.135323
2485.000000	0.132569
2486.000000	0.128137
2487.000000	0.122349
2488.000000	0.122258
2489.000000	0.117716
2490.000000	0.113432
2491.000000	0.096306
2492.000000	0.091157
2493.000000	0.104893
2494.000000	0.113852
2495.000000	0.132187
2496.000000	0.133840
2497.000000	0.109246
2498.000000	0.106650
2499.000000	0.120912
2500.000000	0.123915
