# Wavelength	Hexa70_00001.asd.rts.txt
350.000000	0.237824
351.000000	0.237027
352.000000	0.231459
353.000000	0.228719
354.000000	0.233054
355.000000	0.236244
356.000000	0.238075
357.000000	0.239564
358.000000	0.238324
359.000000	0.239434
360.000000	0.241892
361.000000	0.243009
362.000000	0.242532
363.000000	0.243119
364.000000	0.245623
365.000000	0.249196
366.000000	0.250233
367.000000	0.248456
368.000000	0.247086
369.000000	0.246784
370.000000	0.247942
371.000000	0.250250
372.000000	0.250016
373.000000	0.249570
374.000000	0.250935
375.000000	0.251767
376.000000	0.251525
377.000000	0.250797
378.000000	0.251699
379.000000	0.251550
380.000000	0.251363
381.000000	0.253621
382.000000	0.253879
383.000000	0.252823
384.000000	0.252246
385.000000	0.254447
386.000000	0.255962
387.000000	0.256161
388.000000	0.256970
389.000000	0.257594
390.000000	0.258109
391.000000	0.258492
392.000000	0.258435
393.000000	0.258553
394.000000	0.259307
395.000000	0.260436
396.000000	0.261507
397.000000	0.262115
398.000000	0.261787
399.000000	0.262059
400.000000	0.262862
401.000000	0.263297
402.000000	0.263637
403.000000	0.263851
404.000000	0.264153
405.000000	0.265167
406.000000	0.265984
407.000000	0.266347
408.000000	0.266991
409.000000	0.267217
410.000000	0.267172
411.000000	0.267431
412.000000	0.267988
413.000000	0.268616
414.000000	0.269092
415.000000	0.269403
416.000000	0.269755
417.000000	0.270232
418.000000	0.270658
419.000000	0.270954
420.000000	0.271199
421.000000	0.271608
422.000000	0.272146
423.000000	0.272610
424.000000	0.272877
425.000000	0.273159
426.000000	0.273533
427.000000	0.273944
428.000000	0.274067
429.000000	0.274274
430.000000	0.274679
431.000000	0.275066
432.000000	0.275348
433.000000	0.275528
434.000000	0.275783
435.000000	0.276018
436.000000	0.276256
437.000000	0.276496
438.000000	0.276699
439.000000	0.276819
440.000000	0.276983
441.000000	0.277278
442.000000	0.277543
443.000000	0.277704
444.000000	0.277927
445.000000	0.278052
446.000000	0.278324
447.000000	0.278797
448.000000	0.279003
449.000000	0.279297
450.000000	0.279853
451.000000	0.280043
452.000000	0.280217
453.000000	0.280453
454.000000	0.280805
455.000000	0.281128
456.000000	0.281509
457.000000	0.281902
458.000000	0.282148
459.000000	0.282345
460.000000	0.282633
461.000000	0.282778
462.000000	0.283038
463.000000	0.283327
464.000000	0.283508
465.000000	0.283837
466.000000	0.284204
467.000000	0.284418
468.000000	0.284623
469.000000	0.284815
470.000000	0.285123
471.000000	0.285285
472.000000	0.285443
473.000000	0.285728
474.000000	0.286054
475.000000	0.286213
476.000000	0.286360
477.000000	0.286655
478.000000	0.286806
479.000000	0.287053
480.000000	0.287418
481.000000	0.287613
482.000000	0.287840
483.000000	0.288068
484.000000	0.288400
485.000000	0.288629
486.000000	0.288859
487.000000	0.289085
488.000000	0.289317
489.000000	0.289590
490.000000	0.289924
491.000000	0.290194
492.000000	0.290505
493.000000	0.290837
494.000000	0.291094
495.000000	0.291393
496.000000	0.291755
497.000000	0.292110
498.000000	0.292426
499.000000	0.292760
500.000000	0.293047
501.000000	0.293325
502.000000	0.293637
503.000000	0.293928
504.000000	0.294232
505.000000	0.294494
506.000000	0.294693
507.000000	0.294968
508.000000	0.295337
509.000000	0.295724
510.000000	0.296028
511.000000	0.296308
512.000000	0.296627
513.000000	0.296992
514.000000	0.297363
515.000000	0.297731
516.000000	0.298029
517.000000	0.298375
518.000000	0.298758
519.000000	0.299064
520.000000	0.299382
521.000000	0.299676
522.000000	0.299954
523.000000	0.300267
524.000000	0.300597
525.000000	0.300921
526.000000	0.301260
527.000000	0.301573
528.000000	0.301844
529.000000	0.302124
530.000000	0.302383
531.000000	0.302710
532.000000	0.303040
533.000000	0.303318
534.000000	0.303606
535.000000	0.303910
536.000000	0.304237
537.000000	0.304556
538.000000	0.304860
539.000000	0.305141
540.000000	0.305417
541.000000	0.305702
542.000000	0.306035
543.000000	0.306344
544.000000	0.306669
545.000000	0.306962
546.000000	0.307264
547.000000	0.307592
548.000000	0.307964
549.000000	0.308294
550.000000	0.308619
551.000000	0.308970
552.000000	0.309309
553.000000	0.309622
554.000000	0.309936
555.000000	0.310278
556.000000	0.310644
557.000000	0.310979
558.000000	0.311374
559.000000	0.311670
560.000000	0.311996
561.000000	0.312417
562.000000	0.312796
563.000000	0.313105
564.000000	0.313436
565.000000	0.313766
566.000000	0.314161
567.000000	0.314576
568.000000	0.314946
569.000000	0.315248
570.000000	0.315576
571.000000	0.315933
572.000000	0.316272
573.000000	0.316619
574.000000	0.316963
575.000000	0.317347
576.000000	0.317724
577.000000	0.318054
578.000000	0.318386
579.000000	0.318720
580.000000	0.319064
581.000000	0.319402
582.000000	0.319687
583.000000	0.319983
584.000000	0.320316
585.000000	0.320698
586.000000	0.321051
587.000000	0.321380
588.000000	0.321715
589.000000	0.322084
590.000000	0.322473
591.000000	0.322853
592.000000	0.323152
593.000000	0.323453
594.000000	0.323764
595.000000	0.324021
596.000000	0.324249
597.000000	0.324484
598.000000	0.324652
599.000000	0.324799
600.000000	0.325029
601.000000	0.325303
602.000000	0.325481
603.000000	0.325643
604.000000	0.325844
605.000000	0.326062
606.000000	0.326206
607.000000	0.326307
608.000000	0.326478
609.000000	0.326675
610.000000	0.326908
611.000000	0.327179
612.000000	0.327421
613.000000	0.327626
614.000000	0.327822
615.000000	0.327949
616.000000	0.328032
617.000000	0.328094
618.000000	0.328282
619.000000	0.328486
620.000000	0.328660
621.000000	0.328849
622.000000	0.329046
623.000000	0.329246
624.000000	0.329447
625.000000	0.329651
626.000000	0.329867
627.000000	0.330106
628.000000	0.330390
629.000000	0.330717
630.000000	0.330952
631.000000	0.331207
632.000000	0.331508
633.000000	0.331813
634.000000	0.332058
635.000000	0.332265
636.000000	0.332463
637.000000	0.332641
638.000000	0.332776
639.000000	0.332888
640.000000	0.333031
641.000000	0.333105
642.000000	0.333244
643.000000	0.333426
644.000000	0.333588
645.000000	0.333727
646.000000	0.333873
647.000000	0.334018
648.000000	0.334178
649.000000	0.334340
650.000000	0.334490
651.000000	0.334694
652.000000	0.334882
653.000000	0.335074
654.000000	0.335238
655.000000	0.335419
656.000000	0.335630
657.000000	0.335818
658.000000	0.336046
659.000000	0.336281
660.000000	0.336490
661.000000	0.336710
662.000000	0.336884
663.000000	0.337080
664.000000	0.337312
665.000000	0.337500
666.000000	0.337663
667.000000	0.337809
668.000000	0.337975
669.000000	0.338176
670.000000	0.338393
671.000000	0.338510
672.000000	0.338660
673.000000	0.338853
674.000000	0.339033
675.000000	0.339217
676.000000	0.339416
677.000000	0.339649
678.000000	0.339837
679.000000	0.339995
680.000000	0.340157
681.000000	0.340304
682.000000	0.340523
683.000000	0.340737
684.000000	0.340957
685.000000	0.341135
686.000000	0.341306
687.000000	0.341468
688.000000	0.341641
689.000000	0.341807
690.000000	0.341990
691.000000	0.342188
692.000000	0.342355
693.000000	0.342550
694.000000	0.342747
695.000000	0.342947
696.000000	0.343139
697.000000	0.343309
698.000000	0.343514
699.000000	0.343738
700.000000	0.343971
701.000000	0.344202
702.000000	0.344432
703.000000	0.344635
704.000000	0.344809
705.000000	0.344979
706.000000	0.345126
707.000000	0.345316
708.000000	0.345488
709.000000	0.345653
710.000000	0.345841
711.000000	0.346005
712.000000	0.346163
713.000000	0.346335
714.000000	0.346470
715.000000	0.346635
716.000000	0.346831
717.000000	0.347000
718.000000	0.347182
719.000000	0.347368
720.000000	0.347557
721.000000	0.347711
722.000000	0.347841
723.000000	0.348012
724.000000	0.348144
725.000000	0.348210
726.000000	0.348336
727.000000	0.348513
728.000000	0.348667
729.000000	0.348801
730.000000	0.348887
731.000000	0.349058
732.000000	0.349228
733.000000	0.349384
734.000000	0.349471
735.000000	0.349534
736.000000	0.349700
737.000000	0.349828
738.000000	0.349920
739.000000	0.350071
740.000000	0.350156
741.000000	0.350246
742.000000	0.350368
743.000000	0.350488
744.000000	0.350602
745.000000	0.350711
746.000000	0.350847
747.000000	0.350942
748.000000	0.351096
749.000000	0.351266
750.000000	0.351369
751.000000	0.351434
752.000000	0.351491
753.000000	0.351567
754.000000	0.351656
755.000000	0.351778
756.000000	0.351932
757.000000	0.352060
758.000000	0.352209
759.000000	0.352383
760.000000	0.352503
761.000000	0.352652
762.000000	0.352760
763.000000	0.352822
764.000000	0.352960
765.000000	0.352995
766.000000	0.353015
767.000000	0.353111
768.000000	0.353167
769.000000	0.353240
770.000000	0.353360
771.000000	0.353502
772.000000	0.353682
773.000000	0.353785
774.000000	0.353817
775.000000	0.353877
776.000000	0.353956
777.000000	0.354018
778.000000	0.354090
779.000000	0.354146
780.000000	0.354189
781.000000	0.354227
782.000000	0.354251
783.000000	0.354353
784.000000	0.354417
785.000000	0.354438
786.000000	0.354441
787.000000	0.354446
788.000000	0.354475
789.000000	0.354535
790.000000	0.354613
791.000000	0.354731
792.000000	0.354815
793.000000	0.354866
794.000000	0.354912
795.000000	0.354987
796.000000	0.355058
797.000000	0.355098
798.000000	0.355103
799.000000	0.355118
800.000000	0.355147
801.000000	0.355177
802.000000	0.355168
803.000000	0.355200
804.000000	0.355319
805.000000	0.355331
806.000000	0.355306
807.000000	0.355361
808.000000	0.355456
809.000000	0.355595
810.000000	0.355721
811.000000	0.355778
812.000000	0.355797
813.000000	0.355799
814.000000	0.355805
815.000000	0.355864
816.000000	0.355818
817.000000	0.355748
818.000000	0.355677
819.000000	0.355686
820.000000	0.355740
821.000000	0.355762
822.000000	0.355804
823.000000	0.355820
824.000000	0.355773
825.000000	0.355774
826.000000	0.355754
827.000000	0.355690
828.000000	0.355628
829.000000	0.355576
830.000000	0.355515
831.000000	0.355493
832.000000	0.355401
833.000000	0.355371
834.000000	0.355396
835.000000	0.355475
836.000000	0.355524
837.000000	0.355535
838.000000	0.355511
839.000000	0.355413
840.000000	0.355306
841.000000	0.355260
842.000000	0.355263
843.000000	0.355242
844.000000	0.355229
845.000000	0.355225
846.000000	0.355296
847.000000	0.355302
848.000000	0.355234
849.000000	0.355173
850.000000	0.355201
851.000000	0.355158
852.000000	0.355066
853.000000	0.355084
854.000000	0.355012
855.000000	0.354964
856.000000	0.354895
857.000000	0.354688
858.000000	0.354532
859.000000	0.354429
860.000000	0.354331
861.000000	0.354282
862.000000	0.354308
863.000000	0.354326
864.000000	0.354301
865.000000	0.354249
866.000000	0.354203
867.000000	0.354128
868.000000	0.354022
869.000000	0.353834
870.000000	0.353650
871.000000	0.353513
872.000000	0.353406
873.000000	0.353250
874.000000	0.353122
875.000000	0.352956
876.000000	0.352804
877.000000	0.352671
878.000000	0.352482
879.000000	0.352330
880.000000	0.352116
881.000000	0.351910
882.000000	0.351786
883.000000	0.351747
884.000000	0.351676
885.000000	0.351568
886.000000	0.351377
887.000000	0.351148
888.000000	0.350990
889.000000	0.350819
890.000000	0.350573
891.000000	0.350450
892.000000	0.350344
893.000000	0.350172
894.000000	0.350033
895.000000	0.349852
896.000000	0.349662
897.000000	0.349463
898.000000	0.349254
899.000000	0.349069
900.000000	0.348945
901.000000	0.348841
902.000000	0.348772
903.000000	0.348684
904.000000	0.348561
905.000000	0.348313
906.000000	0.348203
907.000000	0.348090
908.000000	0.347961
909.000000	0.347752
910.000000	0.347522
911.000000	0.347299
912.000000	0.347116
913.000000	0.346957
914.000000	0.346802
915.000000	0.346660
916.000000	0.346374
917.000000	0.346098
918.000000	0.345845
919.000000	0.345604
920.000000	0.345499
921.000000	0.345314
922.000000	0.345036
923.000000	0.344724
924.000000	0.344425
925.000000	0.344185
926.000000	0.344004
927.000000	0.343671
928.000000	0.343384
929.000000	0.343134
930.000000	0.342868
931.000000	0.342692
932.000000	0.342537
933.000000	0.342357
934.000000	0.342029
935.000000	0.341754
936.000000	0.341576
937.000000	0.341348
938.000000	0.340981
939.000000	0.340779
940.000000	0.340683
941.000000	0.340577
942.000000	0.340216
943.000000	0.339892
944.000000	0.339658
945.000000	0.339523
946.000000	0.339333
947.000000	0.339152
948.000000	0.338998
949.000000	0.338749
950.000000	0.338469
951.000000	0.338171
952.000000	0.337954
953.000000	0.337769
954.000000	0.337650
955.000000	0.337502
956.000000	0.337201
957.000000	0.336955
958.000000	0.336721
959.000000	0.336509
960.000000	0.336359
961.000000	0.336158
962.000000	0.335875
963.000000	0.335652
964.000000	0.335425
965.000000	0.335217
966.000000	0.334944
967.000000	0.334788
968.000000	0.334505
969.000000	0.334128
970.000000	0.333940
971.000000	0.333713
972.000000	0.333472
973.000000	0.333189
974.000000	0.332960
975.000000	0.332703
976.000000	0.332481
977.000000	0.332336
978.000000	0.332168
979.000000	0.332161
980.000000	0.331968
981.000000	0.331641
982.000000	0.331413
983.000000	0.331187
984.000000	0.330982
985.000000	0.330786
986.000000	0.330579
987.000000	0.330452
988.000000	0.330301
989.000000	0.330007
990.000000	0.329847
991.000000	0.329752
992.000000	0.329633
993.000000	0.329639
994.000000	0.329440
995.000000	0.329208
996.000000	0.329029
997.000000	0.328950
998.000000	0.328830
999.000000	0.328698
1000.000000	0.328564
1001.000000	0.329017
1002.000000	0.328689
1003.000000	0.328386
1004.000000	0.328185
1005.000000	0.327852
1006.000000	0.327523
1007.000000	0.327358
1008.000000	0.327244
1009.000000	0.327005
1010.000000	0.326642
1011.000000	0.326699
1012.000000	0.326855
1013.000000	0.326447
1014.000000	0.326295
1015.000000	0.326363
1016.000000	0.326320
1017.000000	0.326377
1018.000000	0.326647
1019.000000	0.326725
1020.000000	0.326842
1021.000000	0.326388
1022.000000	0.325657
1023.000000	0.325530
1024.000000	0.325166
1025.000000	0.325204
1026.000000	0.325514
1027.000000	0.325588
1028.000000	0.325599
1029.000000	0.325808
1030.000000	0.325895
1031.000000	0.325991
1032.000000	0.326131
1033.000000	0.325886
1034.000000	0.325785
1035.000000	0.325747
1036.000000	0.325782
1037.000000	0.325788
1038.000000	0.325748
1039.000000	0.325831
1040.000000	0.326091
1041.000000	0.326031
1042.000000	0.326154
1043.000000	0.326556
1044.000000	0.326638
1045.000000	0.326558
1046.000000	0.326607
1047.000000	0.326750
1048.000000	0.326767
1049.000000	0.326821
1050.000000	0.327137
1051.000000	0.327204
1052.000000	0.326868
1053.000000	0.326888
1054.000000	0.327287
1055.000000	0.327589
1056.000000	0.328050
1057.000000	0.328485
1058.000000	0.328617
1059.000000	0.328490
1060.000000	0.328652
1061.000000	0.328876
1062.000000	0.329111
1063.000000	0.329481
1064.000000	0.329749
1065.000000	0.329843
1066.000000	0.330052
1067.000000	0.330336
1068.000000	0.330494
1069.000000	0.330488
1070.000000	0.330595
1071.000000	0.330754
1072.000000	0.330893
1073.000000	0.331064
1074.000000	0.331429
1075.000000	0.331721
1076.000000	0.331892
1077.000000	0.332059
1078.000000	0.332295
1079.000000	0.332458
1080.000000	0.332575
1081.000000	0.332774
1082.000000	0.333109
1083.000000	0.333314
1084.000000	0.333532
1085.000000	0.333782
1086.000000	0.333954
1087.000000	0.334190
1088.000000	0.334407
1089.000000	0.334613
1090.000000	0.334803
1091.000000	0.334887
1092.000000	0.335189
1093.000000	0.335575
1094.000000	0.335753
1095.000000	0.335801
1096.000000	0.335993
1097.000000	0.336100
1098.000000	0.336294
1099.000000	0.336546
1100.000000	0.336865
1101.000000	0.337209
1102.000000	0.337424
1103.000000	0.337587
1104.000000	0.337860
1105.000000	0.338099
1106.000000	0.338290
1107.000000	0.338568
1108.000000	0.338717
1109.000000	0.338730
1110.000000	0.338752
1111.000000	0.338876
1112.000000	0.339029
1113.000000	0.339268
1114.000000	0.339667
1115.000000	0.339880
1116.000000	0.340089
1117.000000	0.340244
1118.000000	0.340262
1119.000000	0.340290
1120.000000	0.340268
1121.000000	0.340336
1122.000000	0.340572
1123.000000	0.340861
1124.000000	0.340942
1125.000000	0.341125
1126.000000	0.341264
1127.000000	0.341314
1128.000000	0.341341
1129.000000	0.341430
1130.000000	0.341532
1131.000000	0.341575
1132.000000	0.341630
1133.000000	0.341817
1134.000000	0.341952
1135.000000	0.341947
1136.000000	0.342021
1137.000000	0.342180
1138.000000	0.342223
1139.000000	0.342316
1140.000000	0.342452
1141.000000	0.342531
1142.000000	0.342588
1143.000000	0.342567
1144.000000	0.342669
1145.000000	0.342604
1146.000000	0.342462
1147.000000	0.342438
1148.000000	0.342355
1149.000000	0.342360
1150.000000	0.342477
1151.000000	0.342529
1152.000000	0.342542
1153.000000	0.342544
1154.000000	0.342442
1155.000000	0.342407
1156.000000	0.342394
1157.000000	0.342397
1158.000000	0.342415
1159.000000	0.342393
1160.000000	0.342352
1161.000000	0.342274
1162.000000	0.342199
1163.000000	0.342259
1164.000000	0.342153
1165.000000	0.342039
1166.000000	0.342025
1167.000000	0.341982
1168.000000	0.341935
1169.000000	0.342016
1170.000000	0.342004
1171.000000	0.341948
1172.000000	0.341966
1173.000000	0.341961
1174.000000	0.341957
1175.000000	0.341965
1176.000000	0.341915
1177.000000	0.341931
1178.000000	0.341901
1179.000000	0.341809
1180.000000	0.341688
1181.000000	0.341596
1182.000000	0.341518
1183.000000	0.341559
1184.000000	0.341672
1185.000000	0.341686
1186.000000	0.341731
1187.000000	0.341706
1188.000000	0.341577
1189.000000	0.341491
1190.000000	0.341489
1191.000000	0.341418
1192.000000	0.341406
1193.000000	0.341460
1194.000000	0.341374
1195.000000	0.341342
1196.000000	0.341310
1197.000000	0.341251
1198.000000	0.341195
1199.000000	0.341160
1200.000000	0.341091
1201.000000	0.341059
1202.000000	0.341054
1203.000000	0.341064
1204.000000	0.341017
1205.000000	0.340974
1206.000000	0.340947
1207.000000	0.341011
1208.000000	0.340991
1209.000000	0.341058
1210.000000	0.341072
1211.000000	0.341024
1212.000000	0.340988
1213.000000	0.340992
1214.000000	0.341004
1215.000000	0.340992
1216.000000	0.340978
1217.000000	0.340973
1218.000000	0.340912
1219.000000	0.340846
1220.000000	0.340735
1221.000000	0.340689
1222.000000	0.340673
1223.000000	0.340699
1224.000000	0.340774
1225.000000	0.340743
1226.000000	0.340666
1227.000000	0.340532
1228.000000	0.340427
1229.000000	0.340326
1230.000000	0.340207
1231.000000	0.340091
1232.000000	0.340140
1233.000000	0.340184
1234.000000	0.340217
1235.000000	0.340218
1236.000000	0.340078
1237.000000	0.340089
1238.000000	0.340122
1239.000000	0.340113
1240.000000	0.340163
1241.000000	0.340175
1242.000000	0.340063
1243.000000	0.340011
1244.000000	0.340033
1245.000000	0.340122
1246.000000	0.340188
1247.000000	0.340286
1248.000000	0.340370
1249.000000	0.340365
1250.000000	0.340337
1251.000000	0.340344
1252.000000	0.340318
1253.000000	0.340279
1254.000000	0.340256
1255.000000	0.340247
1256.000000	0.340204
1257.000000	0.340146
1258.000000	0.340148
1259.000000	0.340080
1260.000000	0.340118
1261.000000	0.340177
1262.000000	0.340200
1263.000000	0.340283
1264.000000	0.340280
1265.000000	0.340274
1266.000000	0.340314
1267.000000	0.340302
1268.000000	0.340260
1269.000000	0.340190
1270.000000	0.340174
1271.000000	0.340169
1272.000000	0.340212
1273.000000	0.340264
1274.000000	0.340240
1275.000000	0.340208
1276.000000	0.340193
1277.000000	0.340199
1278.000000	0.340076
1279.000000	0.340019
1280.000000	0.339916
1281.000000	0.339814
1282.000000	0.339795
1283.000000	0.339819
1284.000000	0.339775
1285.000000	0.339768
1286.000000	0.339756
1287.000000	0.339775
1288.000000	0.339874
1289.000000	0.339866
1290.000000	0.339764
1291.000000	0.339655
1292.000000	0.339537
1293.000000	0.339479
1294.000000	0.339483
1295.000000	0.339522
1296.000000	0.339507
1297.000000	0.339468
1298.000000	0.339477
1299.000000	0.339481
1300.000000	0.339533
1301.000000	0.339535
1302.000000	0.339453
1303.000000	0.339421
1304.000000	0.339379
1305.000000	0.339374
1306.000000	0.339355
1307.000000	0.339435
1308.000000	0.339465
1309.000000	0.339455
1310.000000	0.339444
1311.000000	0.339468
1312.000000	0.339392
1313.000000	0.339324
1314.000000	0.339283
1315.000000	0.339223
1316.000000	0.339260
1317.000000	0.339333
1318.000000	0.339310
1319.000000	0.339191
1320.000000	0.339110
1321.000000	0.338951
1322.000000	0.338765
1323.000000	0.338657
1324.000000	0.338569
1325.000000	0.338438
1326.000000	0.338267
1327.000000	0.338131
1328.000000	0.338025
1329.000000	0.337803
1330.000000	0.337524
1331.000000	0.337342
1332.000000	0.337204
1333.000000	0.337016
1334.000000	0.336942
1335.000000	0.336839
1336.000000	0.336635
1337.000000	0.336462
1338.000000	0.336260
1339.000000	0.336095
1340.000000	0.335931
1341.000000	0.335783
1342.000000	0.335602
1343.000000	0.335394
1344.000000	0.335166
1345.000000	0.334914
1346.000000	0.334754
1347.000000	0.334489
1348.000000	0.334209
1349.000000	0.333930
1350.000000	0.333727
1351.000000	0.333524
1352.000000	0.333293
1353.000000	0.333028
1354.000000	0.332748
1355.000000	0.332444
1356.000000	0.332254
1357.000000	0.332029
1358.000000	0.331774
1359.000000	0.331543
1360.000000	0.331326
1361.000000	0.331143
1362.000000	0.330938
1363.000000	0.330728
1364.000000	0.330567
1365.000000	0.330353
1366.000000	0.330190
1367.000000	0.330078
1368.000000	0.329960
1369.000000	0.329920
1370.000000	0.329793
1371.000000	0.329636
1372.000000	0.329438
1373.000000	0.329209
1374.000000	0.329051
1375.000000	0.328882
1376.000000	0.328809
1377.000000	0.328712
1378.000000	0.328536
1379.000000	0.328313
1380.000000	0.328076
1381.000000	0.327811
1382.000000	0.327535
1383.000000	0.327304
1384.000000	0.326946
1385.000000	0.326592
1386.000000	0.326339
1387.000000	0.326058
1388.000000	0.325780
1389.000000	0.325484
1390.000000	0.325151
1391.000000	0.324756
1392.000000	0.324377
1393.000000	0.323961
1394.000000	0.323557
1395.000000	0.323147
1396.000000	0.322744
1397.000000	0.322244
1398.000000	0.321666
1399.000000	0.321082
1400.000000	0.320420
1401.000000	0.319736
1402.000000	0.319106
1403.000000	0.318374
1404.000000	0.317605
1405.000000	0.316829
1406.000000	0.315984
1407.000000	0.315160
1408.000000	0.314271
1409.000000	0.313365
1410.000000	0.312495
1411.000000	0.311514
1412.000000	0.310499
1413.000000	0.309523
1414.000000	0.308458
1415.000000	0.307419
1416.000000	0.306370
1417.000000	0.305254
1418.000000	0.304124
1419.000000	0.303006
1420.000000	0.301830
1421.000000	0.300764
1422.000000	0.299667
1423.000000	0.298592
1424.000000	0.297454
1425.000000	0.296284
1426.000000	0.295119
1427.000000	0.293978
1428.000000	0.292866
1429.000000	0.291777
1430.000000	0.290719
1431.000000	0.289677
1432.000000	0.288614
1433.000000	0.287578
1434.000000	0.286542
1435.000000	0.285552
1436.000000	0.284600
1437.000000	0.283698
1438.000000	0.282736
1439.000000	0.281797
1440.000000	0.280881
1441.000000	0.279941
1442.000000	0.279072
1443.000000	0.278205
1444.000000	0.277347
1445.000000	0.276540
1446.000000	0.275769
1447.000000	0.274970
1448.000000	0.274256
1449.000000	0.273553
1450.000000	0.272832
1451.000000	0.272237
1452.000000	0.271622
1453.000000	0.271047
1454.000000	0.270529
1455.000000	0.270005
1456.000000	0.269593
1457.000000	0.269190
1458.000000	0.268779
1459.000000	0.268411
1460.000000	0.268048
1461.000000	0.267702
1462.000000	0.267368
1463.000000	0.267040
1464.000000	0.266742
1465.000000	0.266492
1466.000000	0.266240
1467.000000	0.266009
1468.000000	0.265816
1469.000000	0.265650
1470.000000	0.265441
1471.000000	0.265268
1472.000000	0.265085
1473.000000	0.264957
1474.000000	0.264851
1475.000000	0.264786
1476.000000	0.264760
1477.000000	0.264760
1478.000000	0.264788
1479.000000	0.264808
1480.000000	0.264822
1481.000000	0.264853
1482.000000	0.264911
1483.000000	0.265049
1484.000000	0.265260
1485.000000	0.265433
1486.000000	0.265608
1487.000000	0.265823
1488.000000	0.266053
1489.000000	0.266314
1490.000000	0.266542
1491.000000	0.266789
1492.000000	0.266977
1493.000000	0.267226
1494.000000	0.267469
1495.000000	0.267746
1496.000000	0.268089
1497.000000	0.268378
1498.000000	0.268679
1499.000000	0.268967
1500.000000	0.269235
1501.000000	0.269496
1502.000000	0.269804
1503.000000	0.270136
1504.000000	0.270440
1505.000000	0.270711
1506.000000	0.270979
1507.000000	0.271230
1508.000000	0.271514
1509.000000	0.271847
1510.000000	0.272140
1511.000000	0.272460
1512.000000	0.272762
1513.000000	0.272996
1514.000000	0.273307
1515.000000	0.273560
1516.000000	0.273832
1517.000000	0.274162
1518.000000	0.274414
1519.000000	0.274636
1520.000000	0.274894
1521.000000	0.275082
1522.000000	0.275340
1523.000000	0.275682
1524.000000	0.275940
1525.000000	0.276217
1526.000000	0.276465
1527.000000	0.276671
1528.000000	0.276944
1529.000000	0.277167
1530.000000	0.277315
1531.000000	0.277550
1532.000000	0.277745
1533.000000	0.277910
1534.000000	0.278130
1535.000000	0.278305
1536.000000	0.278409
1537.000000	0.278571
1538.000000	0.278716
1539.000000	0.278803
1540.000000	0.278950
1541.000000	0.279147
1542.000000	0.279288
1543.000000	0.279406
1544.000000	0.279521
1545.000000	0.279638
1546.000000	0.279764
1547.000000	0.279922
1548.000000	0.280053
1549.000000	0.280063
1550.000000	0.280056
1551.000000	0.280055
1552.000000	0.280070
1553.000000	0.280114
1554.000000	0.280151
1555.000000	0.280246
1556.000000	0.280336
1557.000000	0.280385
1558.000000	0.280473
1559.000000	0.280534
1560.000000	0.280574
1561.000000	0.280664
1562.000000	0.280700
1563.000000	0.280728
1564.000000	0.280764
1565.000000	0.280778
1566.000000	0.280740
1567.000000	0.280777
1568.000000	0.280781
1569.000000	0.280805
1570.000000	0.280805
1571.000000	0.280778
1572.000000	0.280754
1573.000000	0.280735
1574.000000	0.280717
1575.000000	0.280719
1576.000000	0.280712
1577.000000	0.280679
1578.000000	0.280617
1579.000000	0.280603
1580.000000	0.280538
1581.000000	0.280478
1582.000000	0.280435
1583.000000	0.280384
1584.000000	0.280277
1585.000000	0.280220
1586.000000	0.280174
1587.000000	0.280092
1588.000000	0.280026
1589.000000	0.280013
1590.000000	0.279966
1591.000000	0.279913
1592.000000	0.279853
1593.000000	0.279807
1594.000000	0.279751
1595.000000	0.279728
1596.000000	0.279679
1597.000000	0.279661
1598.000000	0.279604
1599.000000	0.279538
1600.000000	0.279428
1601.000000	0.279345
1602.000000	0.279255
1603.000000	0.279144
1604.000000	0.279075
1605.000000	0.279068
1606.000000	0.279028
1607.000000	0.279052
1608.000000	0.279021
1609.000000	0.279003
1610.000000	0.278953
1611.000000	0.278883
1612.000000	0.278830
1613.000000	0.278839
1614.000000	0.278830
1615.000000	0.278886
1616.000000	0.278957
1617.000000	0.279020
1618.000000	0.279027
1619.000000	0.278975
1620.000000	0.278972
1621.000000	0.278949
1622.000000	0.279051
1623.000000	0.279245
1624.000000	0.279355
1625.000000	0.279342
1626.000000	0.279383
1627.000000	0.279441
1628.000000	0.279534
1629.000000	0.279666
1630.000000	0.279790
1631.000000	0.279830
1632.000000	0.279907
1633.000000	0.280033
1634.000000	0.280162
1635.000000	0.280333
1636.000000	0.280480
1637.000000	0.280647
1638.000000	0.280765
1639.000000	0.280902
1640.000000	0.281034
1641.000000	0.281207
1642.000000	0.281364
1643.000000	0.281562
1644.000000	0.281698
1645.000000	0.281792
1646.000000	0.281874
1647.000000	0.281944
1648.000000	0.282026
1649.000000	0.282180
1650.000000	0.282344
1651.000000	0.282547
1652.000000	0.282771
1653.000000	0.282967
1654.000000	0.283219
1655.000000	0.283481
1656.000000	0.283623
1657.000000	0.283809
1658.000000	0.283972
1659.000000	0.284142
1660.000000	0.284361
1661.000000	0.284557
1662.000000	0.284702
1663.000000	0.284781
1664.000000	0.284927
1665.000000	0.285069
1666.000000	0.285298
1667.000000	0.285538
1668.000000	0.285714
1669.000000	0.285858
1670.000000	0.285957
1671.000000	0.286106
1672.000000	0.286276
1673.000000	0.286407
1674.000000	0.286569
1675.000000	0.286776
1676.000000	0.286947
1677.000000	0.287076
1678.000000	0.287129
1679.000000	0.287212
1680.000000	0.287251
1681.000000	0.287324
1682.000000	0.287516
1683.000000	0.287656
1684.000000	0.287755
1685.000000	0.287951
1686.000000	0.288139
1687.000000	0.288321
1688.000000	0.288481
1689.000000	0.288627
1690.000000	0.288690
1691.000000	0.288797
1692.000000	0.288922
1693.000000	0.289048
1694.000000	0.289162
1695.000000	0.289307
1696.000000	0.289392
1697.000000	0.289485
1698.000000	0.289635
1699.000000	0.289802
1700.000000	0.289995
1701.000000	0.290263
1702.000000	0.290436
1703.000000	0.290555
1704.000000	0.290739
1705.000000	0.290906
1706.000000	0.291068
1707.000000	0.291224
1708.000000	0.291374
1709.000000	0.291455
1710.000000	0.291550
1711.000000	0.291676
1712.000000	0.291826
1713.000000	0.291945
1714.000000	0.292088
1715.000000	0.292260
1716.000000	0.292450
1717.000000	0.292619
1718.000000	0.292766
1719.000000	0.292923
1720.000000	0.293128
1721.000000	0.293283
1722.000000	0.293450
1723.000000	0.293602
1724.000000	0.293696
1725.000000	0.293878
1726.000000	0.294044
1727.000000	0.294202
1728.000000	0.294350
1729.000000	0.294404
1730.000000	0.294496
1731.000000	0.294637
1732.000000	0.294783
1733.000000	0.294984
1734.000000	0.295137
1735.000000	0.295287
1736.000000	0.295391
1737.000000	0.295529
1738.000000	0.295691
1739.000000	0.295885
1740.000000	0.296093
1741.000000	0.296264
1742.000000	0.296457
1743.000000	0.296685
1744.000000	0.296898
1745.000000	0.297032
1746.000000	0.297157
1747.000000	0.297248
1748.000000	0.297310
1749.000000	0.297408
1750.000000	0.297501
1751.000000	0.297697
1752.000000	0.297939
1753.000000	0.298117
1754.000000	0.298275
1755.000000	0.298339
1756.000000	0.298435
1757.000000	0.298520
1758.000000	0.298660
1759.000000	0.298839
1760.000000	0.299000
1761.000000	0.299160
1762.000000	0.299288
1763.000000	0.299399
1764.000000	0.299522
1765.000000	0.299598
1766.000000	0.299717
1767.000000	0.299781
1768.000000	0.299846
1769.000000	0.300003
1770.000000	0.300192
1771.000000	0.300398
1772.000000	0.300515
1773.000000	0.300524
1774.000000	0.300653
1775.000000	0.300845
1776.000000	0.300987
1777.000000	0.301175
1778.000000	0.301296
1779.000000	0.301271
1780.000000	0.301402
1781.000000	0.301594
1782.000000	0.301740
1783.000000	0.301943
1784.000000	0.302200
1785.000000	0.302312
1786.000000	0.302539
1787.000000	0.302903
1788.000000	0.303178
1789.000000	0.303441
1790.000000	0.303633
1791.000000	0.303781
1792.000000	0.303978
1793.000000	0.304160
1794.000000	0.304355
1795.000000	0.304542
1796.000000	0.304684
1797.000000	0.304835
1798.000000	0.304955
1799.000000	0.305105
1800.000000	0.305351
1801.000000	0.304851
1802.000000	0.305148
1803.000000	0.305412
1804.000000	0.305746
1805.000000	0.306214
1806.000000	0.306411
1807.000000	0.306541
1808.000000	0.306615
1809.000000	0.306338
1810.000000	0.306134
1811.000000	0.306313
1812.000000	0.306870
1813.000000	0.307092
1814.000000	0.307520
1815.000000	0.307707
1816.000000	0.307496
1817.000000	0.307401
1818.000000	0.307368
1819.000000	0.307627
1820.000000	0.307465
1821.000000	0.307235
1822.000000	0.307105
1823.000000	0.306762
1824.000000	0.306555
1825.000000	0.306337
1826.000000	0.306363
1827.000000	0.306487
1828.000000	0.306435
1829.000000	0.306535
1830.000000	0.306742
1831.000000	0.306792
1832.000000	0.306670
1833.000000	0.306638
1834.000000	0.306693
1835.000000	0.306647
1836.000000	0.306334
1837.000000	0.306283
1838.000000	0.306357
1839.000000	0.306091
1840.000000	0.305987
1841.000000	0.305887
1842.000000	0.305781
1843.000000	0.305575
1844.000000	0.305481
1845.000000	0.305385
1846.000000	0.305299
1847.000000	0.305179
1848.000000	0.304764
1849.000000	0.304396
1850.000000	0.304079
1851.000000	0.303771
1852.000000	0.303309
1853.000000	0.303079
1854.000000	0.302893
1855.000000	0.302521
1856.000000	0.302150
1857.000000	0.301548
1858.000000	0.300668
1859.000000	0.299947
1860.000000	0.299219
1861.000000	0.298569
1862.000000	0.297863
1863.000000	0.297350
1864.000000	0.296609
1865.000000	0.295724
1866.000000	0.294842
1867.000000	0.293828
1868.000000	0.292964
1869.000000	0.291771
1870.000000	0.290575
1871.000000	0.289395
1872.000000	0.288043
1873.000000	0.286782
1874.000000	0.285624
1875.000000	0.284337
1876.000000	0.282859
1877.000000	0.280968
1878.000000	0.279227
1879.000000	0.277279
1880.000000	0.275403
1881.000000	0.273557
1882.000000	0.271354
1883.000000	0.269419
1884.000000	0.267415
1885.000000	0.265187
1886.000000	0.262891
1887.000000	0.260706
1888.000000	0.257934
1889.000000	0.255218
1890.000000	0.252643
1891.000000	0.250095
1892.000000	0.247601
1893.000000	0.244981
1894.000000	0.242289
1895.000000	0.239285
1896.000000	0.236163
1897.000000	0.233028
1898.000000	0.229731
1899.000000	0.226538
1900.000000	0.223635
1901.000000	0.220652
1902.000000	0.217523
1903.000000	0.214477
1904.000000	0.211484
1905.000000	0.208414
1906.000000	0.205362
1907.000000	0.202428
1908.000000	0.199538
1909.000000	0.196573
1910.000000	0.193652
1911.000000	0.190929
1912.000000	0.188197
1913.000000	0.185746
1914.000000	0.183537
1915.000000	0.180986
1916.000000	0.178560
1917.000000	0.176086
1918.000000	0.173551
1919.000000	0.170956
1920.000000	0.168624
1921.000000	0.166600
1922.000000	0.164942
1923.000000	0.163291
1924.000000	0.161715
1925.000000	0.160251
1926.000000	0.158742
1927.000000	0.157640
1928.000000	0.156657
1929.000000	0.156060
1930.000000	0.155421
1931.000000	0.154719
1932.000000	0.153963
1933.000000	0.153311
1934.000000	0.152655
1935.000000	0.152014
1936.000000	0.151302
1937.000000	0.150475
1938.000000	0.149776
1939.000000	0.149161
1940.000000	0.148642
1941.000000	0.148175
1942.000000	0.147829
1943.000000	0.147379
1944.000000	0.146892
1945.000000	0.146758
1946.000000	0.146638
1947.000000	0.146490
1948.000000	0.146408
1949.000000	0.146259
1950.000000	0.146105
1951.000000	0.145869
1952.000000	0.145689
1953.000000	0.145429
1954.000000	0.145040
1955.000000	0.144600
1956.000000	0.144073
1957.000000	0.143766
1958.000000	0.143859
1959.000000	0.143882
1960.000000	0.143789
1961.000000	0.143776
1962.000000	0.143716
1963.000000	0.143457
1964.000000	0.143356
1965.000000	0.143538
1966.000000	0.143657
1967.000000	0.143717
1968.000000	0.143627
1969.000000	0.143496
1970.000000	0.143395
1971.000000	0.143306
1972.000000	0.143544
1973.000000	0.143664
1974.000000	0.143966
1975.000000	0.144163
1976.000000	0.144397
1977.000000	0.144390
1978.000000	0.144466
1979.000000	0.144640
1980.000000	0.144794
1981.000000	0.145230
1982.000000	0.145696
1983.000000	0.145995
1984.000000	0.146199
1985.000000	0.146247
1986.000000	0.146393
1987.000000	0.146478
1988.000000	0.146745
1989.000000	0.147078
1990.000000	0.147473
1991.000000	0.147859
1992.000000	0.148409
1993.000000	0.149022
1994.000000	0.149736
1995.000000	0.150180
1996.000000	0.150473
1997.000000	0.150957
1998.000000	0.151475
1999.000000	0.151996
2000.000000	0.152715
2001.000000	0.153287
2002.000000	0.153680
2003.000000	0.154037
2004.000000	0.154401
2005.000000	0.154833
2006.000000	0.155386
2007.000000	0.156131
2008.000000	0.156897
2009.000000	0.157846
2010.000000	0.158675
2011.000000	0.159408
2012.000000	0.160144
2013.000000	0.160831
2014.000000	0.161407
2015.000000	0.162094
2016.000000	0.162783
2017.000000	0.163550
2018.000000	0.164275
2019.000000	0.164987
2020.000000	0.165907
2021.000000	0.166698
2022.000000	0.167386
2023.000000	0.168190
2024.000000	0.169065
2025.000000	0.169797
2026.000000	0.170425
2027.000000	0.171068
2028.000000	0.171565
2029.000000	0.172240
2030.000000	0.173134
2031.000000	0.173815
2032.000000	0.174342
2033.000000	0.175048
2034.000000	0.175796
2035.000000	0.176585
2036.000000	0.177385
2037.000000	0.178484
2038.000000	0.179393
2039.000000	0.180316
2040.000000	0.181012
2041.000000	0.181883
2042.000000	0.182613
2043.000000	0.183027
2044.000000	0.183698
2045.000000	0.184247
2046.000000	0.184601
2047.000000	0.185163
2048.000000	0.185885
2049.000000	0.186531
2050.000000	0.186869
2051.000000	0.187466
2052.000000	0.188133
2053.000000	0.188632
2054.000000	0.189206
2055.000000	0.190158
2056.000000	0.190728
2057.000000	0.191342
2058.000000	0.192228
2059.000000	0.192737
2060.000000	0.193337
2061.000000	0.194052
2062.000000	0.194534
2063.000000	0.194842
2064.000000	0.195227
2065.000000	0.195535
2066.000000	0.196011
2067.000000	0.196763
2068.000000	0.197690
2069.000000	0.198515
2070.000000	0.199353
2071.000000	0.199999
2072.000000	0.200550
2073.000000	0.201311
2074.000000	0.202223
2075.000000	0.203049
2076.000000	0.204016
2077.000000	0.204836
2078.000000	0.205541
2079.000000	0.206099
2080.000000	0.206541
2081.000000	0.207152
2082.000000	0.207559
2083.000000	0.208366
2084.000000	0.209417
2085.000000	0.210291
2086.000000	0.211249
2087.000000	0.212088
2088.000000	0.212787
2089.000000	0.213481
2090.000000	0.214190
2091.000000	0.214863
2092.000000	0.215628
2093.000000	0.216650
2094.000000	0.217320
2095.000000	0.217749
2096.000000	0.218319
2097.000000	0.218708
2098.000000	0.219055
2099.000000	0.219793
2100.000000	0.220777
2101.000000	0.221599
2102.000000	0.222452
2103.000000	0.223131
2104.000000	0.223696
2105.000000	0.224411
2106.000000	0.225214
2107.000000	0.225948
2108.000000	0.226729
2109.000000	0.227481
2110.000000	0.227935
2111.000000	0.228541
2112.000000	0.229174
2113.000000	0.229678
2114.000000	0.230311
2115.000000	0.231091
2116.000000	0.231684
2117.000000	0.232101
2118.000000	0.232433
2119.000000	0.232885
2120.000000	0.233411
2121.000000	0.234096
2122.000000	0.234627
2123.000000	0.235156
2124.000000	0.235611
2125.000000	0.235963
2126.000000	0.236269
2127.000000	0.236467
2128.000000	0.236901
2129.000000	0.237231
2130.000000	0.237807
2131.000000	0.238411
2132.000000	0.239054
2133.000000	0.239767
2134.000000	0.240325
2135.000000	0.240460
2136.000000	0.240513
2137.000000	0.240689
2138.000000	0.240614
2139.000000	0.240784
2140.000000	0.241330
2141.000000	0.241546
2142.000000	0.241527
2143.000000	0.241507
2144.000000	0.241530
2145.000000	0.241724
2146.000000	0.242091
2147.000000	0.242573
2148.000000	0.243061
2149.000000	0.243635
2150.000000	0.243943
2151.000000	0.244236
2152.000000	0.244349
2153.000000	0.244069
2154.000000	0.244209
2155.000000	0.244389
2156.000000	0.244749
2157.000000	0.245737
2158.000000	0.246072
2159.000000	0.246225
2160.000000	0.246461
2161.000000	0.246157
2162.000000	0.246365
2163.000000	0.246924
2164.000000	0.247182
2165.000000	0.247483
2166.000000	0.247741
2167.000000	0.247704
2168.000000	0.247972
2169.000000	0.248486
2170.000000	0.248840
2171.000000	0.248905
2172.000000	0.248867
2173.000000	0.248654
2174.000000	0.247887
2175.000000	0.247721
2176.000000	0.247678
2177.000000	0.247867
2178.000000	0.248712
2179.000000	0.249051
2180.000000	0.249147
2181.000000	0.249627
2182.000000	0.249664
2183.000000	0.249513
2184.000000	0.250170
2185.000000	0.250505
2186.000000	0.250449
2187.000000	0.250867
2188.000000	0.250966
2189.000000	0.250742
2190.000000	0.250769
2191.000000	0.251275
2192.000000	0.251535
2193.000000	0.251964
2194.000000	0.252015
2195.000000	0.251880
2196.000000	0.251714
2197.000000	0.250808
2198.000000	0.250694
2199.000000	0.251330
2200.000000	0.251546
2201.000000	0.252141
2202.000000	0.252519
2203.000000	0.252422
2204.000000	0.252064
2205.000000	0.251738
2206.000000	0.251810
2207.000000	0.251756
2208.000000	0.251930
2209.000000	0.252621
2210.000000	0.252949
2211.000000	0.253012
2212.000000	0.253518
2213.000000	0.254074
2214.000000	0.254826
2215.000000	0.255020
2216.000000	0.255215
2217.000000	0.255578
2218.000000	0.255648
2219.000000	0.255530
2220.000000	0.255624
2221.000000	0.255284
2222.000000	0.253798
2223.000000	0.253496
2224.000000	0.253638
2225.000000	0.254396
2226.000000	0.254662
2227.000000	0.254497
2228.000000	0.254700
2229.000000	0.253964
2230.000000	0.253755
2231.000000	0.254483
2232.000000	0.254764
2233.000000	0.255406
2234.000000	0.255479
2235.000000	0.256042
2236.000000	0.255940
2237.000000	0.255040
2238.000000	0.254595
2239.000000	0.253568
2240.000000	0.253548
2241.000000	0.254467
2242.000000	0.254813
2243.000000	0.255934
2244.000000	0.256354
2245.000000	0.255380
2246.000000	0.255523
2247.000000	0.256086
2248.000000	0.256328
2249.000000	0.256950
2250.000000	0.257717
2251.000000	0.257937
2252.000000	0.258070
2253.000000	0.256768
2254.000000	0.255522
2255.000000	0.254937
2256.000000	0.254468
2257.000000	0.255100
2258.000000	0.256379
2259.000000	0.256616
2260.000000	0.255994
2261.000000	0.255378
2262.000000	0.254303
2263.000000	0.253676
2264.000000	0.252838
2265.000000	0.252587
2266.000000	0.252955
2267.000000	0.252918
2268.000000	0.253061
2269.000000	0.253000
2270.000000	0.252597
2271.000000	0.252245
2272.000000	0.251994
2273.000000	0.251539
2274.000000	0.250783
2275.000000	0.250475
2276.000000	0.250459
2277.000000	0.249814
2278.000000	0.249535
2279.000000	0.249177
2280.000000	0.248716
2281.000000	0.248823
2282.000000	0.248951
2283.000000	0.249012
2284.000000	0.249059
2285.000000	0.248344
2286.000000	0.247606
2287.000000	0.246976
2288.000000	0.245986
2289.000000	0.245365
2290.000000	0.244793
2291.000000	0.244288
2292.000000	0.244071
2293.000000	0.243665
2294.000000	0.243108
2295.000000	0.242594
2296.000000	0.241602
2297.000000	0.239854
2298.000000	0.239053
2299.000000	0.238474
2300.000000	0.237948
2301.000000	0.238218
2302.000000	0.237515
2303.000000	0.236084
2304.000000	0.235081
2305.000000	0.233846
2306.000000	0.232908
2307.000000	0.232297
2308.000000	0.231639
2309.000000	0.230230
2310.000000	0.229163
2311.000000	0.228530
2312.000000	0.227554
2313.000000	0.227826
2314.000000	0.228536
2315.000000	0.228275
2316.000000	0.227748
2317.000000	0.226123
2318.000000	0.224311
2319.000000	0.223160
2320.000000	0.222075
2321.000000	0.222153
2322.000000	0.221982
2323.000000	0.221359
2324.000000	0.221380
2325.000000	0.219977
2326.000000	0.218152
2327.000000	0.217812
2328.000000	0.216930
2329.000000	0.215961
2330.000000	0.215913
2331.000000	0.214431
2332.000000	0.212703
2333.000000	0.211637
2334.000000	0.210035
2335.000000	0.209018
2336.000000	0.207556
2337.000000	0.206729
2338.000000	0.206787
2339.000000	0.206239
2340.000000	0.205988
2341.000000	0.205442
2342.000000	0.204062
2343.000000	0.203396
2344.000000	0.203377
2345.000000	0.202396
2346.000000	0.201418
2347.000000	0.200388
2348.000000	0.198599
2349.000000	0.197132
2350.000000	0.196337
2351.000000	0.194550
2352.000000	0.193823
2353.000000	0.193631
2354.000000	0.192635
2355.000000	0.192379
2356.000000	0.191829
2357.000000	0.189722
2358.000000	0.188666
2359.000000	0.188404
2360.000000	0.187328
2361.000000	0.187437
2362.000000	0.186280
2363.000000	0.185379
2364.000000	0.184855
2365.000000	0.182858
2366.000000	0.181937
2367.000000	0.180148
2368.000000	0.178887
2369.000000	0.179312
2370.000000	0.178569
2371.000000	0.178702
2372.000000	0.178889
2373.000000	0.177655
2374.000000	0.177209
2375.000000	0.177118
2376.000000	0.177091
2377.000000	0.175680
2378.000000	0.173880
2379.000000	0.172287
2380.000000	0.169098
2381.000000	0.167525
2382.000000	0.167433
2383.000000	0.167036
2384.000000	0.167293
2385.000000	0.167099
2386.000000	0.165034
2387.000000	0.162804
2388.000000	0.161318
2389.000000	0.160370
2390.000000	0.160369
2391.000000	0.160120
2392.000000	0.158690
2393.000000	0.156550
2394.000000	0.155614
2395.000000	0.156565
2396.000000	0.158366
2397.000000	0.159619
2398.000000	0.160499
2399.000000	0.159871
2400.000000	0.156486
2401.000000	0.154423
2402.000000	0.153154
2403.000000	0.153595
2404.000000	0.155402
2405.000000	0.154123
2406.000000	0.153102
2407.000000	0.149877
2408.000000	0.147095
2409.000000	0.149710
2410.000000	0.151193
2411.000000	0.149880
2412.000000	0.147736
2413.000000	0.146165
2414.000000	0.146340
2415.000000	0.148411
2416.000000	0.151138
2417.000000	0.150213
2418.000000	0.148393
2419.000000	0.149047
2420.000000	0.148178
2421.000000	0.148777
2422.000000	0.151816
2423.000000	0.151648
2424.000000	0.151306
2425.000000	0.152948
2426.000000	0.150962
2427.000000	0.147472
2428.000000	0.147592
2429.000000	0.147179
2430.000000	0.146913
2431.000000	0.151418
2432.000000	0.153643
2433.000000	0.156337
2434.000000	0.160991
2435.000000	0.158670
2436.000000	0.154230
2437.000000	0.149741
2438.000000	0.146136
2439.000000	0.145152
2440.000000	0.147602
2441.000000	0.152842
2442.000000	0.153275
2443.000000	0.154015
2444.000000	0.154549
2445.000000	0.147841
2446.000000	0.141613
2447.000000	0.139933
2448.000000	0.140043
2449.000000	0.142675
2450.000000	0.147120
2451.000000	0.145989
2452.000000	0.142828
2453.000000	0.142583
2454.000000	0.141342
2455.000000	0.141294
2456.000000	0.136631
2457.000000	0.131662
2458.000000	0.131225
2459.000000	0.127014
2460.000000	0.125725
2461.000000	0.126890
2462.000000	0.120568
2463.000000	0.119509
2464.000000	0.126944
2465.000000	0.129934
2466.000000	0.134271
2467.000000	0.141579
2468.000000	0.142550
2469.000000	0.142162
2470.000000	0.142301
2471.000000	0.136089
2472.000000	0.134026
2473.000000	0.136560
2474.000000	0.138829
2475.000000	0.153458
2476.000000	0.169072
2477.000000	0.170909
2478.000000	0.172788
2479.000000	0.169159
2480.000000	0.160649
2481.000000	0.155705
2482.000000	0.160904
2483.000000	0.161906
2484.000000	0.147179
2485.000000	0.147696
2486.000000	0.146999
2487.000000	0.145328
2488.000000	0.156407
2489.000000	0.159807
2490.000000	0.158542
2491.000000	0.149784
2492.000000	0.143940
2493.000000	0.139745
2494.000000	0.140370
2495.000000	0.149543
2496.000000	0.149954
2497.000000	0.138456
2498.000000	0.136378
2499.000000	0.140169
2500.000000	0.143121
