# Wavelength	Hexa50_00000.asd.rts.txt
350.000000	0.217160
351.000000	0.210476
352.000000	0.211229
353.000000	0.209825
354.000000	0.206163
355.000000	0.213011
356.000000	0.219406
357.000000	0.222346
358.000000	0.219564
359.000000	0.218211
360.000000	0.219139
361.000000	0.220887
362.000000	0.221508
363.000000	0.221936
364.000000	0.222608
365.000000	0.224503
366.000000	0.225283
367.000000	0.224283
368.000000	0.222709
369.000000	0.224657
370.000000	0.227115
371.000000	0.225741
372.000000	0.224871
373.000000	0.225743
374.000000	0.228302
375.000000	0.228314
376.000000	0.227762
377.000000	0.227671
378.000000	0.228610
379.000000	0.228703
380.000000	0.228452
381.000000	0.229637
382.000000	0.229699
383.000000	0.229349
384.000000	0.229696
385.000000	0.231092
386.000000	0.232171
387.000000	0.232603
388.000000	0.232688
389.000000	0.233227
390.000000	0.234137
391.000000	0.234693
392.000000	0.234619
393.000000	0.234636
394.000000	0.235239
395.000000	0.235831
396.000000	0.236578
397.000000	0.237300
398.000000	0.237349
399.000000	0.237779
400.000000	0.238469
401.000000	0.238709
402.000000	0.239335
403.000000	0.239748
404.000000	0.239661
405.000000	0.240327
406.000000	0.240942
407.000000	0.241209
408.000000	0.241562
409.000000	0.242257
410.000000	0.242916
411.000000	0.242736
412.000000	0.242919
413.000000	0.243391
414.000000	0.243847
415.000000	0.244398
416.000000	0.244816
417.000000	0.245043
418.000000	0.245422
419.000000	0.245767
420.000000	0.246018
421.000000	0.246195
422.000000	0.246454
423.000000	0.246762
424.000000	0.247122
425.000000	0.247672
426.000000	0.248141
427.000000	0.248353
428.000000	0.248616
429.000000	0.248868
430.000000	0.249128
431.000000	0.249528
432.000000	0.249795
433.000000	0.249901
434.000000	0.250053
435.000000	0.250392
436.000000	0.250714
437.000000	0.250803
438.000000	0.250822
439.000000	0.251054
440.000000	0.251579
441.000000	0.251729
442.000000	0.251962
443.000000	0.252202
444.000000	0.252187
445.000000	0.252331
446.000000	0.252725
447.000000	0.253129
448.000000	0.253233
449.000000	0.253503
450.000000	0.254130
451.000000	0.254266
452.000000	0.254424
453.000000	0.254678
454.000000	0.254840
455.000000	0.255121
456.000000	0.255594
457.000000	0.256059
458.000000	0.256243
459.000000	0.256394
460.000000	0.256769
461.000000	0.256952
462.000000	0.257223
463.000000	0.257527
464.000000	0.257698
465.000000	0.257953
466.000000	0.258206
467.000000	0.258320
468.000000	0.258563
469.000000	0.258824
470.000000	0.259085
471.000000	0.259334
472.000000	0.259521
473.000000	0.259671
474.000000	0.259883
475.000000	0.260027
476.000000	0.260236
477.000000	0.260579
478.000000	0.260753
479.000000	0.260966
480.000000	0.261248
481.000000	0.261431
482.000000	0.261680
483.000000	0.261932
484.000000	0.262257
485.000000	0.262464
486.000000	0.262655
487.000000	0.262833
488.000000	0.263119
489.000000	0.263493
490.000000	0.263800
491.000000	0.264119
492.000000	0.264469
493.000000	0.264720
494.000000	0.264945
495.000000	0.265210
496.000000	0.265504
497.000000	0.265819
498.000000	0.266100
499.000000	0.266404
500.000000	0.266735
501.000000	0.266946
502.000000	0.267160
503.000000	0.267511
504.000000	0.267769
505.000000	0.267975
506.000000	0.268217
507.000000	0.268523
508.000000	0.268849
509.000000	0.269135
510.000000	0.269457
511.000000	0.269763
512.000000	0.270084
513.000000	0.270460
514.000000	0.270763
515.000000	0.271056
516.000000	0.271387
517.000000	0.271742
518.000000	0.272124
519.000000	0.272446
520.000000	0.272754
521.000000	0.273062
522.000000	0.273378
523.000000	0.273685
524.000000	0.273975
525.000000	0.274246
526.000000	0.274554
527.000000	0.274868
528.000000	0.275137
529.000000	0.275384
530.000000	0.275681
531.000000	0.276023
532.000000	0.276310
533.000000	0.276590
534.000000	0.276912
535.000000	0.277262
536.000000	0.277607
537.000000	0.277926
538.000000	0.278217
539.000000	0.278476
540.000000	0.278734
541.000000	0.279014
542.000000	0.279342
543.000000	0.279582
544.000000	0.279823
545.000000	0.280060
546.000000	0.280351
547.000000	0.280668
548.000000	0.281027
549.000000	0.281374
550.000000	0.281695
551.000000	0.282023
552.000000	0.282349
553.000000	0.282671
554.000000	0.282997
555.000000	0.283342
556.000000	0.283732
557.000000	0.284073
558.000000	0.284448
559.000000	0.284783
560.000000	0.285107
561.000000	0.285475
562.000000	0.285797
563.000000	0.286092
564.000000	0.286421
565.000000	0.286726
566.000000	0.287046
567.000000	0.287401
568.000000	0.287767
569.000000	0.288102
570.000000	0.288441
571.000000	0.288786
572.000000	0.289142
573.000000	0.289473
574.000000	0.289772
575.000000	0.290100
576.000000	0.290425
577.000000	0.290727
578.000000	0.291061
579.000000	0.291409
580.000000	0.291756
581.000000	0.292088
582.000000	0.292395
583.000000	0.292687
584.000000	0.292989
585.000000	0.293338
586.000000	0.293688
587.000000	0.294037
588.000000	0.294393
589.000000	0.294760
590.000000	0.295125
591.000000	0.295469
592.000000	0.295759
593.000000	0.296048
594.000000	0.296339
595.000000	0.296599
596.000000	0.296823
597.000000	0.297062
598.000000	0.297278
599.000000	0.297449
600.000000	0.297669
601.000000	0.297914
602.000000	0.298074
603.000000	0.298239
604.000000	0.298456
605.000000	0.298658
606.000000	0.298806
607.000000	0.298926
608.000000	0.299089
609.000000	0.299278
610.000000	0.299482
611.000000	0.299689
612.000000	0.299913
613.000000	0.300100
614.000000	0.300258
615.000000	0.300417
616.000000	0.300534
617.000000	0.300610
618.000000	0.300809
619.000000	0.301020
620.000000	0.301193
621.000000	0.301369
622.000000	0.301563
623.000000	0.301777
624.000000	0.301998
625.000000	0.302176
626.000000	0.302380
627.000000	0.302647
628.000000	0.302968
629.000000	0.303306
630.000000	0.303541
631.000000	0.303810
632.000000	0.304094
633.000000	0.304374
634.000000	0.304603
635.000000	0.304742
636.000000	0.304867
637.000000	0.304999
638.000000	0.305101
639.000000	0.305176
640.000000	0.305297
641.000000	0.305441
642.000000	0.305578
643.000000	0.305717
644.000000	0.305876
645.000000	0.306008
646.000000	0.306142
647.000000	0.306276
648.000000	0.306413
649.000000	0.306568
650.000000	0.306732
651.000000	0.306938
652.000000	0.307092
653.000000	0.307236
654.000000	0.307389
655.000000	0.307599
656.000000	0.307826
657.000000	0.307976
658.000000	0.308137
659.000000	0.308306
660.000000	0.308472
661.000000	0.308679
662.000000	0.308842
663.000000	0.309017
664.000000	0.309236
665.000000	0.309451
666.000000	0.309658
667.000000	0.309830
668.000000	0.310003
669.000000	0.310187
670.000000	0.310386
671.000000	0.310573
672.000000	0.310772
673.000000	0.310983
674.000000	0.311209
675.000000	0.311428
676.000000	0.311648
677.000000	0.311892
678.000000	0.312093
679.000000	0.312260
680.000000	0.312417
681.000000	0.312553
682.000000	0.312705
683.000000	0.312826
684.000000	0.313025
685.000000	0.313218
686.000000	0.313394
687.000000	0.313516
688.000000	0.313682
689.000000	0.313870
690.000000	0.314081
691.000000	0.314273
692.000000	0.314421
693.000000	0.314590
694.000000	0.314758
695.000000	0.314980
696.000000	0.315204
697.000000	0.315351
698.000000	0.315537
699.000000	0.315752
700.000000	0.315972
701.000000	0.316145
702.000000	0.316314
703.000000	0.316475
704.000000	0.316611
705.000000	0.316767
706.000000	0.316918
707.000000	0.317103
708.000000	0.317270
709.000000	0.317427
710.000000	0.317601
711.000000	0.317747
712.000000	0.317885
713.000000	0.318038
714.000000	0.318160
715.000000	0.318306
716.000000	0.318479
717.000000	0.318634
718.000000	0.318830
719.000000	0.319022
720.000000	0.319188
721.000000	0.319363
722.000000	0.319520
723.000000	0.319696
724.000000	0.319826
725.000000	0.319920
726.000000	0.320066
727.000000	0.320207
728.000000	0.320346
729.000000	0.320479
730.000000	0.320564
731.000000	0.320715
732.000000	0.320845
733.000000	0.320961
734.000000	0.321062
735.000000	0.321155
736.000000	0.321354
737.000000	0.321536
738.000000	0.321651
739.000000	0.321808
740.000000	0.321904
741.000000	0.321972
742.000000	0.322034
743.000000	0.322078
744.000000	0.322147
745.000000	0.322196
746.000000	0.322273
747.000000	0.322345
748.000000	0.322454
749.000000	0.322581
750.000000	0.322676
751.000000	0.322768
752.000000	0.322876
753.000000	0.323003
754.000000	0.323116
755.000000	0.323207
756.000000	0.323298
757.000000	0.323371
758.000000	0.323482
759.000000	0.323641
760.000000	0.323768
761.000000	0.323914
762.000000	0.324020
763.000000	0.324076
764.000000	0.324188
765.000000	0.324242
766.000000	0.324281
767.000000	0.324351
768.000000	0.324424
769.000000	0.324484
770.000000	0.324533
771.000000	0.324581
772.000000	0.324704
773.000000	0.324825
774.000000	0.324946
775.000000	0.325028
776.000000	0.325093
777.000000	0.325147
778.000000	0.325210
779.000000	0.325265
780.000000	0.325305
781.000000	0.325302
782.000000	0.325312
783.000000	0.325408
784.000000	0.325459
785.000000	0.325500
786.000000	0.325506
787.000000	0.325475
788.000000	0.325477
789.000000	0.325515
790.000000	0.325565
791.000000	0.325634
792.000000	0.325706
793.000000	0.325742
794.000000	0.325731
795.000000	0.325734
796.000000	0.325734
797.000000	0.325747
798.000000	0.325837
799.000000	0.325906
800.000000	0.325945
801.000000	0.325973
802.000000	0.325969
803.000000	0.326008
804.000000	0.326122
805.000000	0.326117
806.000000	0.326070
807.000000	0.326096
808.000000	0.326162
809.000000	0.326212
810.000000	0.326234
811.000000	0.326216
812.000000	0.326170
813.000000	0.326178
814.000000	0.326258
815.000000	0.326389
816.000000	0.326431
817.000000	0.326426
818.000000	0.326370
819.000000	0.326348
820.000000	0.326372
821.000000	0.326384
822.000000	0.326384
823.000000	0.326371
824.000000	0.326293
825.000000	0.326226
826.000000	0.326194
827.000000	0.326162
828.000000	0.326148
829.000000	0.326123
830.000000	0.326100
831.000000	0.326131
832.000000	0.326106
833.000000	0.326070
834.000000	0.326071
835.000000	0.326151
836.000000	0.326170
837.000000	0.326154
838.000000	0.326110
839.000000	0.325991
840.000000	0.325857
841.000000	0.325790
842.000000	0.325789
843.000000	0.325744
844.000000	0.325695
845.000000	0.325624
846.000000	0.325532
847.000000	0.325452
848.000000	0.325395
849.000000	0.325393
850.000000	0.325395
851.000000	0.325373
852.000000	0.325359
853.000000	0.325350
854.000000	0.325236
855.000000	0.325170
856.000000	0.325146
857.000000	0.325030
858.000000	0.324943
859.000000	0.324867
860.000000	0.324795
861.000000	0.324771
862.000000	0.324774
863.000000	0.324685
864.000000	0.324593
865.000000	0.324518
866.000000	0.324471
867.000000	0.324367
868.000000	0.324298
869.000000	0.324179
870.000000	0.323998
871.000000	0.323826
872.000000	0.323673
873.000000	0.323504
874.000000	0.323447
875.000000	0.323337
876.000000	0.323208
877.000000	0.323093
878.000000	0.322926
879.000000	0.322805
880.000000	0.322637
881.000000	0.322475
882.000000	0.322358
883.000000	0.322277
884.000000	0.322123
885.000000	0.321896
886.000000	0.321608
887.000000	0.321331
888.000000	0.321142
889.000000	0.321015
890.000000	0.320874
891.000000	0.320851
892.000000	0.320728
893.000000	0.320532
894.000000	0.320427
895.000000	0.320355
896.000000	0.320189
897.000000	0.319973
898.000000	0.319788
899.000000	0.319547
900.000000	0.319287
901.000000	0.319046
902.000000	0.319003
903.000000	0.318857
904.000000	0.318635
905.000000	0.318358
906.000000	0.318218
907.000000	0.318028
908.000000	0.317800
909.000000	0.317584
910.000000	0.317422
911.000000	0.317258
912.000000	0.317057
913.000000	0.316865
914.000000	0.316625
915.000000	0.316409
916.000000	0.316202
917.000000	0.315983
918.000000	0.315746
919.000000	0.315505
920.000000	0.315428
921.000000	0.315286
922.000000	0.315071
923.000000	0.314853
924.000000	0.314615
925.000000	0.314394
926.000000	0.314227
927.000000	0.314019
928.000000	0.313785
929.000000	0.313546
930.000000	0.313322
931.000000	0.313089
932.000000	0.312863
933.000000	0.312648
934.000000	0.312320
935.000000	0.312092
936.000000	0.311928
937.000000	0.311645
938.000000	0.311283
939.000000	0.311075
940.000000	0.310910
941.000000	0.310653
942.000000	0.310431
943.000000	0.310256
944.000000	0.310020
945.000000	0.309882
946.000000	0.309563
947.000000	0.309294
948.000000	0.309269
949.000000	0.309077
950.000000	0.308751
951.000000	0.308370
952.000000	0.308155
953.000000	0.307915
954.000000	0.307664
955.000000	0.307367
956.000000	0.307054
957.000000	0.306859
958.000000	0.306687
959.000000	0.306489
960.000000	0.306275
961.000000	0.306057
962.000000	0.305815
963.000000	0.305550
964.000000	0.305318
965.000000	0.305081
966.000000	0.304727
967.000000	0.304534
968.000000	0.304258
969.000000	0.303917
970.000000	0.303752
971.000000	0.303511
972.000000	0.303284
973.000000	0.303071
974.000000	0.302925
975.000000	0.302698
976.000000	0.302497
977.000000	0.302368
978.000000	0.302000
979.000000	0.301938
980.000000	0.301834
981.000000	0.301538
982.000000	0.301389
983.000000	0.301177
984.000000	0.300942
985.000000	0.300853
986.000000	0.300638
987.000000	0.300462
988.000000	0.300303
989.000000	0.299965
990.000000	0.299704
991.000000	0.299544
992.000000	0.299465
993.000000	0.299407
994.000000	0.299248
995.000000	0.299112
996.000000	0.298900
997.000000	0.298781
998.000000	0.298680
999.000000	0.298600
1000.000000	0.298449
1001.000000	0.298854
1002.000000	0.298565
1003.000000	0.298310
1004.000000	0.298165
1005.000000	0.298170
1006.000000	0.297954
1007.000000	0.297797
1008.000000	0.297506
1009.000000	0.297182
1010.000000	0.296812
1011.000000	0.296756
1012.000000	0.296918
1013.000000	0.296696
1014.000000	0.296520
1015.000000	0.296645
1016.000000	0.296751
1017.000000	0.296726
1018.000000	0.296696
1019.000000	0.296689
1020.000000	0.296682
1021.000000	0.296340
1022.000000	0.296077
1023.000000	0.296119
1024.000000	0.296076
1025.000000	0.295788
1026.000000	0.295727
1027.000000	0.295775
1028.000000	0.295689
1029.000000	0.295840
1030.000000	0.295942
1031.000000	0.295848
1032.000000	0.295886
1033.000000	0.295843
1034.000000	0.295853
1035.000000	0.296089
1036.000000	0.296183
1037.000000	0.296149
1038.000000	0.296097
1039.000000	0.296116
1040.000000	0.296181
1041.000000	0.296253
1042.000000	0.296300
1043.000000	0.296513
1044.000000	0.296792
1045.000000	0.296852
1046.000000	0.296797
1047.000000	0.296884
1048.000000	0.296845
1049.000000	0.296927
1050.000000	0.297326
1051.000000	0.297370
1052.000000	0.297024
1053.000000	0.296985
1054.000000	0.297103
1055.000000	0.297255
1056.000000	0.297575
1057.000000	0.298123
1058.000000	0.298263
1059.000000	0.298157
1060.000000	0.298334
1061.000000	0.298504
1062.000000	0.298594
1063.000000	0.298888
1064.000000	0.299075
1065.000000	0.299065
1066.000000	0.299211
1067.000000	0.299463
1068.000000	0.299597
1069.000000	0.299574
1070.000000	0.299726
1071.000000	0.300033
1072.000000	0.300223
1073.000000	0.300420
1074.000000	0.300863
1075.000000	0.300990
1076.000000	0.301047
1077.000000	0.301250
1078.000000	0.301402
1079.000000	0.301617
1080.000000	0.301968
1081.000000	0.302183
1082.000000	0.302460
1083.000000	0.302686
1084.000000	0.302856
1085.000000	0.303081
1086.000000	0.303301
1087.000000	0.303512
1088.000000	0.303655
1089.000000	0.303803
1090.000000	0.303939
1091.000000	0.303983
1092.000000	0.304081
1093.000000	0.304378
1094.000000	0.304620
1095.000000	0.304858
1096.000000	0.305115
1097.000000	0.305435
1098.000000	0.305677
1099.000000	0.305805
1100.000000	0.306081
1101.000000	0.306382
1102.000000	0.306575
1103.000000	0.306754
1104.000000	0.306972
1105.000000	0.307163
1106.000000	0.307284
1107.000000	0.307313
1108.000000	0.307407
1109.000000	0.307532
1110.000000	0.307573
1111.000000	0.307744
1112.000000	0.308044
1113.000000	0.308327
1114.000000	0.308692
1115.000000	0.308901
1116.000000	0.309095
1117.000000	0.309263
1118.000000	0.309291
1119.000000	0.309327
1120.000000	0.309390
1121.000000	0.309445
1122.000000	0.309538
1123.000000	0.309776
1124.000000	0.309893
1125.000000	0.310021
1126.000000	0.310060
1127.000000	0.310098
1128.000000	0.310127
1129.000000	0.310151
1130.000000	0.310271
1131.000000	0.310477
1132.000000	0.310558
1133.000000	0.310710
1134.000000	0.310817
1135.000000	0.310745
1136.000000	0.310799
1137.000000	0.310956
1138.000000	0.310983
1139.000000	0.311031
1140.000000	0.311173
1141.000000	0.311263
1142.000000	0.311354
1143.000000	0.311458
1144.000000	0.311624
1145.000000	0.311617
1146.000000	0.311521
1147.000000	0.311545
1148.000000	0.311502
1149.000000	0.311542
1150.000000	0.311695
1151.000000	0.311769
1152.000000	0.311768
1153.000000	0.311822
1154.000000	0.311843
1155.000000	0.311842
1156.000000	0.311850
1157.000000	0.311867
1158.000000	0.311818
1159.000000	0.311785
1160.000000	0.311764
1161.000000	0.311736
1162.000000	0.311759
1163.000000	0.311859
1164.000000	0.311838
1165.000000	0.311774
1166.000000	0.311798
1167.000000	0.311767
1168.000000	0.311736
1169.000000	0.311797
1170.000000	0.311829
1171.000000	0.311849
1172.000000	0.311904
1173.000000	0.311984
1174.000000	0.312011
1175.000000	0.311979
1176.000000	0.311929
1177.000000	0.311925
1178.000000	0.311912
1179.000000	0.311880
1180.000000	0.311793
1181.000000	0.311755
1182.000000	0.311712
1183.000000	0.311722
1184.000000	0.311742
1185.000000	0.311708
1186.000000	0.311663
1187.000000	0.311631
1188.000000	0.311555
1189.000000	0.311503
1190.000000	0.311553
1191.000000	0.311525
1192.000000	0.311543
1193.000000	0.311628
1194.000000	0.311605
1195.000000	0.311611
1196.000000	0.311587
1197.000000	0.311565
1198.000000	0.311605
1199.000000	0.311582
1200.000000	0.311502
1201.000000	0.311419
1202.000000	0.311396
1203.000000	0.311350
1204.000000	0.311349
1205.000000	0.311423
1206.000000	0.311391
1207.000000	0.311395
1208.000000	0.311318
1209.000000	0.311228
1210.000000	0.311192
1211.000000	0.311136
1212.000000	0.311096
1213.000000	0.311145
1214.000000	0.311181
1215.000000	0.311227
1216.000000	0.311199
1217.000000	0.311100
1218.000000	0.311011
1219.000000	0.310884
1220.000000	0.310783
1221.000000	0.310757
1222.000000	0.310778
1223.000000	0.310793
1224.000000	0.310825
1225.000000	0.310847
1226.000000	0.310872
1227.000000	0.310834
1228.000000	0.310840
1229.000000	0.310811
1230.000000	0.310731
1231.000000	0.310651
1232.000000	0.310698
1233.000000	0.310758
1234.000000	0.310828
1235.000000	0.310831
1236.000000	0.310703
1237.000000	0.310677
1238.000000	0.310587
1239.000000	0.310531
1240.000000	0.310530
1241.000000	0.310545
1242.000000	0.310525
1243.000000	0.310523
1244.000000	0.310516
1245.000000	0.310574
1246.000000	0.310576
1247.000000	0.310628
1248.000000	0.310694
1249.000000	0.310694
1250.000000	0.310737
1251.000000	0.310746
1252.000000	0.310712
1253.000000	0.310679
1254.000000	0.310657
1255.000000	0.310580
1256.000000	0.310538
1257.000000	0.310540
1258.000000	0.310567
1259.000000	0.310548
1260.000000	0.310589
1261.000000	0.310635
1262.000000	0.310633
1263.000000	0.310635
1264.000000	0.310604
1265.000000	0.310623
1266.000000	0.310653
1267.000000	0.310652
1268.000000	0.310666
1269.000000	0.310569
1270.000000	0.310549
1271.000000	0.310564
1272.000000	0.310557
1273.000000	0.310648
1274.000000	0.310656
1275.000000	0.310620
1276.000000	0.310581
1277.000000	0.310597
1278.000000	0.310503
1279.000000	0.310422
1280.000000	0.310292
1281.000000	0.310171
1282.000000	0.310067
1283.000000	0.310052
1284.000000	0.310033
1285.000000	0.310031
1286.000000	0.310047
1287.000000	0.310032
1288.000000	0.310061
1289.000000	0.310053
1290.000000	0.309968
1291.000000	0.309901
1292.000000	0.309860
1293.000000	0.309827
1294.000000	0.309793
1295.000000	0.309795
1296.000000	0.309756
1297.000000	0.309736
1298.000000	0.309775
1299.000000	0.309766
1300.000000	0.309805
1301.000000	0.309811
1302.000000	0.309751
1303.000000	0.309761
1304.000000	0.309700
1305.000000	0.309652
1306.000000	0.309615
1307.000000	0.309616
1308.000000	0.309631
1309.000000	0.309665
1310.000000	0.309677
1311.000000	0.309716
1312.000000	0.309703
1313.000000	0.309670
1314.000000	0.309606
1315.000000	0.309497
1316.000000	0.309451
1317.000000	0.309458
1318.000000	0.309443
1319.000000	0.309384
1320.000000	0.309333
1321.000000	0.309187
1322.000000	0.309026
1323.000000	0.308962
1324.000000	0.308947
1325.000000	0.308862
1326.000000	0.308775
1327.000000	0.308709
1328.000000	0.308606
1329.000000	0.308464
1330.000000	0.308344
1331.000000	0.308252
1332.000000	0.308193
1333.000000	0.308096
1334.000000	0.308104
1335.000000	0.308058
1336.000000	0.307902
1337.000000	0.307782
1338.000000	0.307627
1339.000000	0.307470
1340.000000	0.307336
1341.000000	0.307291
1342.000000	0.307234
1343.000000	0.307131
1344.000000	0.307029
1345.000000	0.306864
1346.000000	0.306739
1347.000000	0.306543
1348.000000	0.306360
1349.000000	0.306146
1350.000000	0.305992
1351.000000	0.305871
1352.000000	0.305710
1353.000000	0.305541
1354.000000	0.305394
1355.000000	0.305222
1356.000000	0.305132
1357.000000	0.305013
1358.000000	0.304873
1359.000000	0.304727
1360.000000	0.304588
1361.000000	0.304478
1362.000000	0.304352
1363.000000	0.304199
1364.000000	0.304089
1365.000000	0.303970
1366.000000	0.303847
1367.000000	0.303724
1368.000000	0.303610
1369.000000	0.303600
1370.000000	0.303485
1371.000000	0.303348
1372.000000	0.303199
1373.000000	0.303013
1374.000000	0.302863
1375.000000	0.302736
1376.000000	0.302776
1377.000000	0.302775
1378.000000	0.302675
1379.000000	0.302536
1380.000000	0.302387
1381.000000	0.302240
1382.000000	0.302042
1383.000000	0.301905
1384.000000	0.301663
1385.000000	0.301313
1386.000000	0.301088
1387.000000	0.300900
1388.000000	0.300698
1389.000000	0.300523
1390.000000	0.300334
1391.000000	0.300037
1392.000000	0.299774
1393.000000	0.299514
1394.000000	0.299300
1395.000000	0.299066
1396.000000	0.298869
1397.000000	0.298550
1398.000000	0.298126
1399.000000	0.297748
1400.000000	0.297308
1401.000000	0.296861
1402.000000	0.296474
1403.000000	0.296034
1404.000000	0.295573
1405.000000	0.295097
1406.000000	0.294585
1407.000000	0.294088
1408.000000	0.293544
1409.000000	0.293021
1410.000000	0.292518
1411.000000	0.291930
1412.000000	0.291300
1413.000000	0.290685
1414.000000	0.290044
1415.000000	0.289401
1416.000000	0.288765
1417.000000	0.288139
1418.000000	0.287453
1419.000000	0.286831
1420.000000	0.286167
1421.000000	0.285541
1422.000000	0.284982
1423.000000	0.284438
1424.000000	0.283760
1425.000000	0.283092
1426.000000	0.282432
1427.000000	0.281787
1428.000000	0.281227
1429.000000	0.280711
1430.000000	0.280170
1431.000000	0.279611
1432.000000	0.279045
1433.000000	0.278500
1434.000000	0.277965
1435.000000	0.277501
1436.000000	0.277016
1437.000000	0.276543
1438.000000	0.276021
1439.000000	0.275486
1440.000000	0.275001
1441.000000	0.274525
1442.000000	0.274112
1443.000000	0.273692
1444.000000	0.273308
1445.000000	0.272957
1446.000000	0.272611
1447.000000	0.272258
1448.000000	0.271927
1449.000000	0.271646
1450.000000	0.271376
1451.000000	0.271131
1452.000000	0.270891
1453.000000	0.270647
1454.000000	0.270382
1455.000000	0.270139
1456.000000	0.269976
1457.000000	0.269798
1458.000000	0.269622
1459.000000	0.269510
1460.000000	0.269383
1461.000000	0.269264
1462.000000	0.269147
1463.000000	0.268959
1464.000000	0.268804
1465.000000	0.268707
1466.000000	0.268586
1467.000000	0.268487
1468.000000	0.268419
1469.000000	0.268402
1470.000000	0.268320
1471.000000	0.268276
1472.000000	0.268261
1473.000000	0.268242
1474.000000	0.268228
1475.000000	0.268313
1476.000000	0.268429
1477.000000	0.268569
1478.000000	0.268733
1479.000000	0.268833
1480.000000	0.268942
1481.000000	0.269069
1482.000000	0.269236
1483.000000	0.269433
1484.000000	0.269665
1485.000000	0.269898
1486.000000	0.270145
1487.000000	0.270373
1488.000000	0.270633
1489.000000	0.270878
1490.000000	0.270986
1491.000000	0.271190
1492.000000	0.271392
1493.000000	0.271597
1494.000000	0.271776
1495.000000	0.271975
1496.000000	0.272201
1497.000000	0.272403
1498.000000	0.272630
1499.000000	0.272822
1500.000000	0.272985
1501.000000	0.273104
1502.000000	0.273253
1503.000000	0.273472
1504.000000	0.273665
1505.000000	0.273830
1506.000000	0.273993
1507.000000	0.274088
1508.000000	0.274221
1509.000000	0.274368
1510.000000	0.274484
1511.000000	0.274631
1512.000000	0.274721
1513.000000	0.274835
1514.000000	0.274989
1515.000000	0.275077
1516.000000	0.275212
1517.000000	0.275323
1518.000000	0.275394
1519.000000	0.275433
1520.000000	0.275516
1521.000000	0.275568
1522.000000	0.275631
1523.000000	0.275754
1524.000000	0.275816
1525.000000	0.275889
1526.000000	0.275959
1527.000000	0.275986
1528.000000	0.276006
1529.000000	0.276012
1530.000000	0.275957
1531.000000	0.275995
1532.000000	0.276088
1533.000000	0.276127
1534.000000	0.276205
1535.000000	0.276271
1536.000000	0.276227
1537.000000	0.276266
1538.000000	0.276300
1539.000000	0.276261
1540.000000	0.276293
1541.000000	0.276323
1542.000000	0.276346
1543.000000	0.276397
1544.000000	0.276437
1545.000000	0.276534
1546.000000	0.276623
1547.000000	0.276639
1548.000000	0.276658
1549.000000	0.276647
1550.000000	0.276600
1551.000000	0.276637
1552.000000	0.276677
1553.000000	0.276672
1554.000000	0.276704
1555.000000	0.276720
1556.000000	0.276701
1557.000000	0.276696
1558.000000	0.276732
1559.000000	0.276738
1560.000000	0.276718
1561.000000	0.276773
1562.000000	0.276746
1563.000000	0.276661
1564.000000	0.276649
1565.000000	0.276666
1566.000000	0.276586
1567.000000	0.276577
1568.000000	0.276536
1569.000000	0.276485
1570.000000	0.276456
1571.000000	0.276437
1572.000000	0.276403
1573.000000	0.276370
1574.000000	0.276339
1575.000000	0.276325
1576.000000	0.276323
1577.000000	0.276310
1578.000000	0.276299
1579.000000	0.276343
1580.000000	0.276360
1581.000000	0.276442
1582.000000	0.276468
1583.000000	0.276440
1584.000000	0.276428
1585.000000	0.276468
1586.000000	0.276509
1587.000000	0.276587
1588.000000	0.276625
1589.000000	0.276663
1590.000000	0.276655
1591.000000	0.276617
1592.000000	0.276599
1593.000000	0.276597
1594.000000	0.276541
1595.000000	0.276506
1596.000000	0.276471
1597.000000	0.276415
1598.000000	0.276381
1599.000000	0.276414
1600.000000	0.276371
1601.000000	0.276338
1602.000000	0.276335
1603.000000	0.276370
1604.000000	0.276363
1605.000000	0.276388
1606.000000	0.276388
1607.000000	0.276385
1608.000000	0.276370
1609.000000	0.276402
1610.000000	0.276395
1611.000000	0.276371
1612.000000	0.276362
1613.000000	0.276433
1614.000000	0.276471
1615.000000	0.276573
1616.000000	0.276645
1617.000000	0.276636
1618.000000	0.276685
1619.000000	0.276718
1620.000000	0.276779
1621.000000	0.276918
1622.000000	0.277076
1623.000000	0.277204
1624.000000	0.277328
1625.000000	0.277346
1626.000000	0.277414
1627.000000	0.277526
1628.000000	0.277657
1629.000000	0.277818
1630.000000	0.277969
1631.000000	0.278060
1632.000000	0.278117
1633.000000	0.278169
1634.000000	0.278261
1635.000000	0.278374
1636.000000	0.278463
1637.000000	0.278605
1638.000000	0.278665
1639.000000	0.278687
1640.000000	0.278753
1641.000000	0.278879
1642.000000	0.278987
1643.000000	0.279158
1644.000000	0.279260
1645.000000	0.279306
1646.000000	0.279366
1647.000000	0.279436
1648.000000	0.279475
1649.000000	0.279583
1650.000000	0.279700
1651.000000	0.279838
1652.000000	0.279989
1653.000000	0.280135
1654.000000	0.280285
1655.000000	0.280375
1656.000000	0.280415
1657.000000	0.280501
1658.000000	0.280579
1659.000000	0.280713
1660.000000	0.280869
1661.000000	0.280974
1662.000000	0.281098
1663.000000	0.281206
1664.000000	0.281331
1665.000000	0.281484
1666.000000	0.281661
1667.000000	0.281770
1668.000000	0.281884
1669.000000	0.281983
1670.000000	0.282040
1671.000000	0.282175
1672.000000	0.282301
1673.000000	0.282369
1674.000000	0.282438
1675.000000	0.282570
1676.000000	0.282650
1677.000000	0.282737
1678.000000	0.282818
1679.000000	0.282901
1680.000000	0.282963
1681.000000	0.283038
1682.000000	0.283148
1683.000000	0.283219
1684.000000	0.283246
1685.000000	0.283334
1686.000000	0.283393
1687.000000	0.283457
1688.000000	0.283533
1689.000000	0.283583
1690.000000	0.283568
1691.000000	0.283623
1692.000000	0.283634
1693.000000	0.283673
1694.000000	0.283757
1695.000000	0.283861
1696.000000	0.283930
1697.000000	0.283975
1698.000000	0.284092
1699.000000	0.284160
1700.000000	0.284158
1701.000000	0.284292
1702.000000	0.284311
1703.000000	0.284300
1704.000000	0.284432
1705.000000	0.284504
1706.000000	0.284517
1707.000000	0.284579
1708.000000	0.284651
1709.000000	0.284662
1710.000000	0.284743
1711.000000	0.284819
1712.000000	0.284885
1713.000000	0.284957
1714.000000	0.285078
1715.000000	0.285185
1716.000000	0.285305
1717.000000	0.285402
1718.000000	0.285470
1719.000000	0.285511
1720.000000	0.285577
1721.000000	0.285617
1722.000000	0.285623
1723.000000	0.285658
1724.000000	0.285703
1725.000000	0.285793
1726.000000	0.285842
1727.000000	0.285910
1728.000000	0.285954
1729.000000	0.285964
1730.000000	0.286064
1731.000000	0.286167
1732.000000	0.286299
1733.000000	0.286440
1734.000000	0.286480
1735.000000	0.286560
1736.000000	0.286602
1737.000000	0.286667
1738.000000	0.286785
1739.000000	0.286845
1740.000000	0.286862
1741.000000	0.286880
1742.000000	0.286869
1743.000000	0.286960
1744.000000	0.287078
1745.000000	0.287144
1746.000000	0.287230
1747.000000	0.287269
1748.000000	0.287271
1749.000000	0.287270
1750.000000	0.287265
1751.000000	0.287357
1752.000000	0.287505
1753.000000	0.287574
1754.000000	0.287652
1755.000000	0.287711
1756.000000	0.287730
1757.000000	0.287711
1758.000000	0.287739
1759.000000	0.287722
1760.000000	0.287757
1761.000000	0.287807
1762.000000	0.287874
1763.000000	0.288027
1764.000000	0.288101
1765.000000	0.288098
1766.000000	0.288165
1767.000000	0.288146
1768.000000	0.288131
1769.000000	0.288245
1770.000000	0.288361
1771.000000	0.288428
1772.000000	0.288482
1773.000000	0.288481
1774.000000	0.288585
1775.000000	0.288777
1776.000000	0.288901
1777.000000	0.289066
1778.000000	0.289155
1779.000000	0.289109
1780.000000	0.289184
1781.000000	0.289285
1782.000000	0.289363
1783.000000	0.289495
1784.000000	0.289610
1785.000000	0.289651
1786.000000	0.289797
1787.000000	0.290008
1788.000000	0.290210
1789.000000	0.290388
1790.000000	0.290473
1791.000000	0.290505
1792.000000	0.290507
1793.000000	0.290579
1794.000000	0.290723
1795.000000	0.290828
1796.000000	0.290945
1797.000000	0.291047
1798.000000	0.291085
1799.000000	0.291140
1800.000000	0.291267
1801.000000	0.291267
1802.000000	0.291340
1803.000000	0.290885
1804.000000	0.290875
1805.000000	0.290835
1806.000000	0.290826
1807.000000	0.291191
1808.000000	0.291142
1809.000000	0.290754
1810.000000	0.290254
1811.000000	0.290280
1812.000000	0.290467
1813.000000	0.290535
1814.000000	0.291027
1815.000000	0.291223
1816.000000	0.291154
1817.000000	0.291004
1818.000000	0.290880
1819.000000	0.290869
1820.000000	0.290773
1821.000000	0.290422
1822.000000	0.290245
1823.000000	0.290113
1824.000000	0.289913
1825.000000	0.289565
1826.000000	0.289431
1827.000000	0.289283
1828.000000	0.289105
1829.000000	0.289093
1830.000000	0.289183
1831.000000	0.289177
1832.000000	0.289189
1833.000000	0.289136
1834.000000	0.289022
1835.000000	0.288932
1836.000000	0.288635
1837.000000	0.288560
1838.000000	0.288546
1839.000000	0.288424
1840.000000	0.288437
1841.000000	0.288615
1842.000000	0.288568
1843.000000	0.288322
1844.000000	0.288269
1845.000000	0.288098
1846.000000	0.288018
1847.000000	0.287927
1848.000000	0.287901
1849.000000	0.287630
1850.000000	0.287382
1851.000000	0.287296
1852.000000	0.287159
1853.000000	0.287259
1854.000000	0.287561
1855.000000	0.287458
1856.000000	0.287291
1857.000000	0.286834
1858.000000	0.286280
1859.000000	0.285826
1860.000000	0.285175
1861.000000	0.284719
1862.000000	0.284060
1863.000000	0.283160
1864.000000	0.282540
1865.000000	0.282011
1866.000000	0.281428
1867.000000	0.280967
1868.000000	0.280404
1869.000000	0.279538
1870.000000	0.278585
1871.000000	0.277634
1872.000000	0.276657
1873.000000	0.275774
1874.000000	0.275088
1875.000000	0.274300
1876.000000	0.273295
1877.000000	0.272035
1878.000000	0.271006
1879.000000	0.269555
1880.000000	0.268043
1881.000000	0.266641
1882.000000	0.265074
1883.000000	0.263409
1884.000000	0.261896
1885.000000	0.260440
1886.000000	0.258684
1887.000000	0.256791
1888.000000	0.254762
1889.000000	0.252607
1890.000000	0.250603
1891.000000	0.248831
1892.000000	0.247086
1893.000000	0.245159
1894.000000	0.243180
1895.000000	0.241095
1896.000000	0.239022
1897.000000	0.236880
1898.000000	0.234581
1899.000000	0.232461
1900.000000	0.229997
1901.000000	0.227258
1902.000000	0.224778
1903.000000	0.222068
1904.000000	0.219682
1905.000000	0.217570
1906.000000	0.215286
1907.000000	0.213013
1908.000000	0.210979
1909.000000	0.208794
1910.000000	0.206635
1911.000000	0.204657
1912.000000	0.202577
1913.000000	0.200776
1914.000000	0.198954
1915.000000	0.196986
1916.000000	0.195411
1917.000000	0.193856
1918.000000	0.192429
1919.000000	0.191092
1920.000000	0.189936
1921.000000	0.188733
1922.000000	0.187494
1923.000000	0.186522
1924.000000	0.185599
1925.000000	0.184696
1926.000000	0.184186
1927.000000	0.183801
1928.000000	0.183410
1929.000000	0.183163
1930.000000	0.183204
1931.000000	0.183191
1932.000000	0.183009
1933.000000	0.182979
1934.000000	0.182959
1935.000000	0.182741
1936.000000	0.182751
1937.000000	0.182774
1938.000000	0.182515
1939.000000	0.182286
1940.000000	0.182024
1941.000000	0.181719
1942.000000	0.181447
1943.000000	0.181159
1944.000000	0.180884
1945.000000	0.180607
1946.000000	0.180209
1947.000000	0.179869
1948.000000	0.179519
1949.000000	0.179124
1950.000000	0.178794
1951.000000	0.178397
1952.000000	0.178079
1953.000000	0.177620
1954.000000	0.177286
1955.000000	0.177090
1956.000000	0.176720
1957.000000	0.176511
1958.000000	0.176215
1959.000000	0.175812
1960.000000	0.175641
1961.000000	0.175495
1962.000000	0.175267
1963.000000	0.175090
1964.000000	0.174895
1965.000000	0.174709
1966.000000	0.174412
1967.000000	0.174152
1968.000000	0.174023
1969.000000	0.173819
1970.000000	0.173767
1971.000000	0.173714
1972.000000	0.173543
1973.000000	0.173404
1974.000000	0.173257
1975.000000	0.173236
1976.000000	0.173290
1977.000000	0.173476
1978.000000	0.173719
1979.000000	0.173951
1980.000000	0.174339
1981.000000	0.174791
1982.000000	0.175251
1983.000000	0.175633
1984.000000	0.175939
1985.000000	0.176169
1986.000000	0.176501
1987.000000	0.176880
1988.000000	0.177225
1989.000000	0.177659
1990.000000	0.178036
1991.000000	0.178222
1992.000000	0.178681
1993.000000	0.179117
1994.000000	0.179550
1995.000000	0.180152
1996.000000	0.180572
1997.000000	0.181089
1998.000000	0.181710
1999.000000	0.182365
2000.000000	0.183100
2001.000000	0.183770
2002.000000	0.184308
2003.000000	0.184918
2004.000000	0.185476
2005.000000	0.185967
2006.000000	0.186696
2007.000000	0.187424
2008.000000	0.188087
2009.000000	0.188691
2010.000000	0.189380
2011.000000	0.189919
2012.000000	0.190541
2013.000000	0.191231
2014.000000	0.191803
2015.000000	0.192324
2016.000000	0.192955
2017.000000	0.193460
2018.000000	0.193931
2019.000000	0.194580
2020.000000	0.195377
2021.000000	0.196092
2022.000000	0.196871
2023.000000	0.197571
2024.000000	0.198131
2025.000000	0.198796
2026.000000	0.199427
2027.000000	0.200055
2028.000000	0.200676
2029.000000	0.201560
2030.000000	0.202099
2031.000000	0.202646
2032.000000	0.203245
2033.000000	0.203709
2034.000000	0.204293
2035.000000	0.205052
2036.000000	0.205743
2037.000000	0.206638
2038.000000	0.207368
2039.000000	0.208138
2040.000000	0.208818
2041.000000	0.209458
2042.000000	0.210095
2043.000000	0.210775
2044.000000	0.211407
2045.000000	0.211661
2046.000000	0.211776
2047.000000	0.212188
2048.000000	0.212496
2049.000000	0.213169
2050.000000	0.214111
2051.000000	0.214733
2052.000000	0.215288
2053.000000	0.215697
2054.000000	0.216082
2055.000000	0.216408
2056.000000	0.216938
2057.000000	0.217406
2058.000000	0.218057
2059.000000	0.218846
2060.000000	0.219421
2061.000000	0.219971
2062.000000	0.220441
2063.000000	0.220847
2064.000000	0.221093
2065.000000	0.221401
2066.000000	0.221679
2067.000000	0.222024
2068.000000	0.222321
2069.000000	0.222944
2070.000000	0.223536
2071.000000	0.223990
2072.000000	0.224610
2073.000000	0.225118
2074.000000	0.225457
2075.000000	0.225856
2076.000000	0.226247
2077.000000	0.226650
2078.000000	0.227113
2079.000000	0.227352
2080.000000	0.227413
2081.000000	0.227673
2082.000000	0.227789
2083.000000	0.228187
2084.000000	0.228799
2085.000000	0.229423
2086.000000	0.230209
2087.000000	0.231005
2088.000000	0.231675
2089.000000	0.232571
2090.000000	0.233231
2091.000000	0.233694
2092.000000	0.234244
2093.000000	0.234803
2094.000000	0.235277
2095.000000	0.235760
2096.000000	0.236244
2097.000000	0.236595
2098.000000	0.236994
2099.000000	0.237283
2100.000000	0.237772
2101.000000	0.238484
2102.000000	0.239016
2103.000000	0.239594
2104.000000	0.240063
2105.000000	0.240373
2106.000000	0.240290
2107.000000	0.240599
2108.000000	0.240968
2109.000000	0.241398
2110.000000	0.241953
2111.000000	0.242316
2112.000000	0.242560
2113.000000	0.242575
2114.000000	0.242700
2115.000000	0.242883
2116.000000	0.243095
2117.000000	0.243343
2118.000000	0.243530
2119.000000	0.243637
2120.000000	0.243891
2121.000000	0.244266
2122.000000	0.244482
2123.000000	0.244639
2124.000000	0.244950
2125.000000	0.245261
2126.000000	0.245463
2127.000000	0.245892
2128.000000	0.246188
2129.000000	0.246096
2130.000000	0.246259
2131.000000	0.246551
2132.000000	0.246540
2133.000000	0.246599
2134.000000	0.246769
2135.000000	0.246694
2136.000000	0.246685
2137.000000	0.246773
2138.000000	0.246894
2139.000000	0.247109
2140.000000	0.247462
2141.000000	0.247730
2142.000000	0.248185
2143.000000	0.248145
2144.000000	0.248031
2145.000000	0.248005
2146.000000	0.247727
2147.000000	0.247820
2148.000000	0.247921
2149.000000	0.247912
2150.000000	0.248324
2151.000000	0.248577
2152.000000	0.248527
2153.000000	0.248692
2154.000000	0.248827
2155.000000	0.248721
2156.000000	0.248752
2157.000000	0.249120
2158.000000	0.249229
2159.000000	0.249089
2160.000000	0.249302
2161.000000	0.249696
2162.000000	0.250039
2163.000000	0.250571
2164.000000	0.250734
2165.000000	0.250643
2166.000000	0.250542
2167.000000	0.250240
2168.000000	0.250150
2169.000000	0.250309
2170.000000	0.250395
2171.000000	0.250487
2172.000000	0.250833
2173.000000	0.250612
2174.000000	0.249965
2175.000000	0.249621
2176.000000	0.248882
2177.000000	0.248795
2178.000000	0.249377
2179.000000	0.249797
2180.000000	0.250499
2181.000000	0.251070
2182.000000	0.251253
2183.000000	0.251045
2184.000000	0.250999
2185.000000	0.250761
2186.000000	0.250164
2187.000000	0.250033
2188.000000	0.249958
2189.000000	0.249510
2190.000000	0.249601
2191.000000	0.250129
2192.000000	0.250231
2193.000000	0.250322
2194.000000	0.250210
2195.000000	0.249633
2196.000000	0.249549
2197.000000	0.249479
2198.000000	0.249554
2199.000000	0.250637
2200.000000	0.250771
2201.000000	0.249887
2202.000000	0.249842
2203.000000	0.249753
2204.000000	0.249185
2205.000000	0.249469
2206.000000	0.250355
2207.000000	0.251064
2208.000000	0.251374
2209.000000	0.251114
2210.000000	0.251358
2211.000000	0.250713
2212.000000	0.250468
2213.000000	0.250571
2214.000000	0.251063
2215.000000	0.251303
2216.000000	0.251916
2217.000000	0.252042
2218.000000	0.251855
2219.000000	0.252097
2220.000000	0.252286
2221.000000	0.252586
2222.000000	0.253234
2223.000000	0.253357
2224.000000	0.253106
2225.000000	0.253367
2226.000000	0.252311
2227.000000	0.251947
2228.000000	0.252257
2229.000000	0.251171
2230.000000	0.251393
2231.000000	0.251628
2232.000000	0.251170
2233.000000	0.251540
2234.000000	0.251104
2235.000000	0.251347
2236.000000	0.251693
2237.000000	0.252214
2238.000000	0.252559
2239.000000	0.253398
2240.000000	0.253426
2241.000000	0.252891
2242.000000	0.252657
2243.000000	0.251907
2244.000000	0.251737
2245.000000	0.251883
2246.000000	0.252107
2247.000000	0.252710
2248.000000	0.253176
2249.000000	0.254129
2250.000000	0.254195
2251.000000	0.253975
2252.000000	0.252787
2253.000000	0.250868
2254.000000	0.249492
2255.000000	0.248710
2256.000000	0.249011
2257.000000	0.249984
2258.000000	0.251329
2259.000000	0.252217
2260.000000	0.252605
2261.000000	0.252688
2262.000000	0.252357
2263.000000	0.251652
2264.000000	0.250077
2265.000000	0.249515
2266.000000	0.249093
2267.000000	0.248882
2268.000000	0.249429
2269.000000	0.249897
2270.000000	0.250409
2271.000000	0.250394
2272.000000	0.250159
2273.000000	0.250337
2274.000000	0.250320
2275.000000	0.250281
2276.000000	0.250790
2277.000000	0.250712
2278.000000	0.250146
2279.000000	0.250167
2280.000000	0.249851
2281.000000	0.249308
2282.000000	0.248553
2283.000000	0.247013
2284.000000	0.246543
2285.000000	0.246487
2286.000000	0.246551
2287.000000	0.246685
2288.000000	0.246272
2289.000000	0.245420
2290.000000	0.243927
2291.000000	0.243827
2292.000000	0.243426
2293.000000	0.242817
2294.000000	0.242446
2295.000000	0.242016
2296.000000	0.241649
2297.000000	0.241446
2298.000000	0.241198
2299.000000	0.241423
2300.000000	0.241034
2301.000000	0.240102
2302.000000	0.239674
2303.000000	0.239163
2304.000000	0.238676
2305.000000	0.238301
2306.000000	0.237863
2307.000000	0.237083
2308.000000	0.236954
2309.000000	0.237031
2310.000000	0.237495
2311.000000	0.238090
2312.000000	0.237870
2313.000000	0.237432
2314.000000	0.236931
2315.000000	0.235989
2316.000000	0.235169
2317.000000	0.234244
2318.000000	0.233939
2319.000000	0.233218
2320.000000	0.231813
2321.000000	0.231676
2322.000000	0.231482
2323.000000	0.231195
2324.000000	0.231598
2325.000000	0.230692
2326.000000	0.228380
2327.000000	0.227177
2328.000000	0.226888
2329.000000	0.226605
2330.000000	0.226440
2331.000000	0.225387
2332.000000	0.224253
2333.000000	0.223877
2334.000000	0.223233
2335.000000	0.223350
2336.000000	0.224321
2337.000000	0.224377
2338.000000	0.224358
2339.000000	0.224215
2340.000000	0.223377
2341.000000	0.222310
2342.000000	0.220796
2343.000000	0.220210
2344.000000	0.220233
2345.000000	0.219984
2346.000000	0.220574
2347.000000	0.219599
2348.000000	0.217472
2349.000000	0.215366
2350.000000	0.213708
2351.000000	0.212073
2352.000000	0.210831
2353.000000	0.209451
2354.000000	0.206816
2355.000000	0.206271
2356.000000	0.206476
2357.000000	0.206139
2358.000000	0.206535
2359.000000	0.205517
2360.000000	0.205088
2361.000000	0.205891
2362.000000	0.205365
2363.000000	0.205531
2364.000000	0.203754
2365.000000	0.200911
2366.000000	0.200397
2367.000000	0.198272
2368.000000	0.197005
2369.000000	0.197441
2370.000000	0.196506
2371.000000	0.196781
2372.000000	0.197624
2373.000000	0.198394
2374.000000	0.197859
2375.000000	0.196808
2376.000000	0.195532
2377.000000	0.192106
2378.000000	0.190602
2379.000000	0.190762
2380.000000	0.190427
2381.000000	0.191035
2382.000000	0.189844
2383.000000	0.186901
2384.000000	0.186857
2385.000000	0.185967
2386.000000	0.185641
2387.000000	0.187318
2388.000000	0.185780
2389.000000	0.185949
2390.000000	0.185926
2391.000000	0.183650
2392.000000	0.182493
2393.000000	0.181277
2394.000000	0.181470
2395.000000	0.180365
2396.000000	0.178978
2397.000000	0.179860
2398.000000	0.179598
2399.000000	0.180458
2400.000000	0.182582
2401.000000	0.181800
2402.000000	0.180099
2403.000000	0.180136
2404.000000	0.181208
2405.000000	0.181033
2406.000000	0.180381
2407.000000	0.179861
2408.000000	0.176973
2409.000000	0.177409
2410.000000	0.178972
2411.000000	0.178297
2412.000000	0.179729
2413.000000	0.179236
2414.000000	0.178803
2415.000000	0.179107
2416.000000	0.177291
2417.000000	0.177498
2418.000000	0.177511
2419.000000	0.175990
2420.000000	0.177567
2421.000000	0.177054
2422.000000	0.176064
2423.000000	0.177408
2424.000000	0.174808
2425.000000	0.171363
2426.000000	0.167309
2427.000000	0.166619
2428.000000	0.171309
2429.000000	0.172851
2430.000000	0.174865
2431.000000	0.177630
2432.000000	0.174912
2433.000000	0.177487
2434.000000	0.182599
2435.000000	0.179244
2436.000000	0.180539
2437.000000	0.180723
2438.000000	0.175136
2439.000000	0.176782
2440.000000	0.179161
2441.000000	0.180227
2442.000000	0.182284
2443.000000	0.183227
2444.000000	0.181553
2445.000000	0.177446
2446.000000	0.175819
2447.000000	0.174863
2448.000000	0.172218
2449.000000	0.171676
2450.000000	0.172441
2451.000000	0.172524
2452.000000	0.176993
2453.000000	0.178072
2454.000000	0.174237
2455.000000	0.173914
2456.000000	0.166811
2457.000000	0.160614
2458.000000	0.164108
2459.000000	0.163348
2460.000000	0.163109
2461.000000	0.165849
2462.000000	0.163229
2463.000000	0.166102
2464.000000	0.170394
2465.000000	0.177085
2466.000000	0.183195
2467.000000	0.183104
2468.000000	0.188928
2469.000000	0.185057
2470.000000	0.183036
2471.000000	0.179914
2472.000000	0.169623
2473.000000	0.175268
2474.000000	0.179100
2475.000000	0.184765
2476.000000	0.193318
2477.000000	0.183051
2478.000000	0.177441
2479.000000	0.178026
2480.000000	0.165292
2481.000000	0.161594
2482.000000	0.157427
2483.000000	0.146102
2484.000000	0.148368
2485.000000	0.152081
2486.000000	0.159280
2487.000000	0.173777
2488.000000	0.185372
2489.000000	0.194454
2490.000000	0.188137
2491.000000	0.177034
2492.000000	0.159684
2493.000000	0.130480
2494.000000	0.120482
2495.000000	0.104926
2496.000000	0.103421
2497.000000	0.132045
2498.000000	0.141976
2499.000000	0.159717
2500.000000	0.168148
