# Wavelength	Hexa70_00000.asd.rts.txt
350.000000	0.238274
351.000000	0.241507
352.000000	0.239358
353.000000	0.236418
354.000000	0.237512
355.000000	0.239735
356.000000	0.241858
357.000000	0.243705
358.000000	0.241339
359.000000	0.241435
360.000000	0.243668
361.000000	0.245511
362.000000	0.245579
363.000000	0.245333
364.000000	0.245521
365.000000	0.247234
366.000000	0.247920
367.000000	0.247310
368.000000	0.247757
369.000000	0.249187
370.000000	0.250189
371.000000	0.249354
372.000000	0.249307
373.000000	0.249369
374.000000	0.249384
375.000000	0.249301
376.000000	0.250009
377.000000	0.251361
378.000000	0.252594
379.000000	0.252930
380.000000	0.252955
381.000000	0.254267
382.000000	0.253371
383.000000	0.252136
384.000000	0.252491
385.000000	0.254037
386.000000	0.255586
387.000000	0.256668
388.000000	0.257081
389.000000	0.257181
390.000000	0.257373
391.000000	0.257746
392.000000	0.258477
393.000000	0.259073
394.000000	0.259243
395.000000	0.259526
396.000000	0.260397
397.000000	0.261538
398.000000	0.261613
399.000000	0.262082
400.000000	0.262746
401.000000	0.262664
402.000000	0.263449
403.000000	0.264042
404.000000	0.263771
405.000000	0.264604
406.000000	0.265630
407.000000	0.266293
408.000000	0.266562
409.000000	0.266626
410.000000	0.266722
411.000000	0.267083
412.000000	0.267513
413.000000	0.267897
414.000000	0.268196
415.000000	0.268454
416.000000	0.268865
417.000000	0.269455
418.000000	0.269875
419.000000	0.270211
420.000000	0.270501
421.000000	0.270739
422.000000	0.271083
423.000000	0.271480
424.000000	0.271911
425.000000	0.272394
426.000000	0.272858
427.000000	0.273178
428.000000	0.273120
429.000000	0.273341
430.000000	0.273894
431.000000	0.274004
432.000000	0.274194
433.000000	0.274449
434.000000	0.274669
435.000000	0.274955
436.000000	0.275173
437.000000	0.275222
438.000000	0.275512
439.000000	0.275783
440.000000	0.276011
441.000000	0.276302
442.000000	0.276613
443.000000	0.276811
444.000000	0.276879
445.000000	0.277010
446.000000	0.277351
447.000000	0.277777
448.000000	0.278133
449.000000	0.278474
450.000000	0.278826
451.000000	0.278991
452.000000	0.279198
453.000000	0.279460
454.000000	0.279829
455.000000	0.280074
456.000000	0.280370
457.000000	0.280829
458.000000	0.281171
459.000000	0.281430
460.000000	0.281722
461.000000	0.281915
462.000000	0.282209
463.000000	0.282488
464.000000	0.282638
465.000000	0.282906
466.000000	0.283214
467.000000	0.283434
468.000000	0.283668
469.000000	0.283890
470.000000	0.284217
471.000000	0.284444
472.000000	0.284625
473.000000	0.284843
474.000000	0.285068
475.000000	0.285183
476.000000	0.285372
477.000000	0.285770
478.000000	0.285895
479.000000	0.286037
480.000000	0.286366
481.000000	0.286623
482.000000	0.286899
483.000000	0.287084
484.000000	0.287438
485.000000	0.287685
486.000000	0.287890
487.000000	0.288049
488.000000	0.288252
489.000000	0.288556
490.000000	0.288968
491.000000	0.289259
492.000000	0.289536
493.000000	0.289819
494.000000	0.290081
495.000000	0.290373
496.000000	0.290677
497.000000	0.290972
498.000000	0.291269
499.000000	0.291628
500.000000	0.291939
501.000000	0.292188
502.000000	0.292465
503.000000	0.292801
504.000000	0.293059
505.000000	0.293288
506.000000	0.293568
507.000000	0.293925
508.000000	0.294301
509.000000	0.294615
510.000000	0.294890
511.000000	0.295198
512.000000	0.295569
513.000000	0.295935
514.000000	0.296240
515.000000	0.296556
516.000000	0.296911
517.000000	0.297193
518.000000	0.297506
519.000000	0.297829
520.000000	0.298107
521.000000	0.298386
522.000000	0.298700
523.000000	0.299054
524.000000	0.299392
525.000000	0.299701
526.000000	0.300045
527.000000	0.300371
528.000000	0.300645
529.000000	0.300911
530.000000	0.301177
531.000000	0.301513
532.000000	0.301836
533.000000	0.302079
534.000000	0.302366
535.000000	0.302704
536.000000	0.303027
537.000000	0.303370
538.000000	0.303690
539.000000	0.303919
540.000000	0.304219
541.000000	0.304544
542.000000	0.304870
543.000000	0.305189
544.000000	0.305511
545.000000	0.305783
546.000000	0.306107
547.000000	0.306444
548.000000	0.306802
549.000000	0.307107
550.000000	0.307416
551.000000	0.307749
552.000000	0.308057
553.000000	0.308393
554.000000	0.308739
555.000000	0.309087
556.000000	0.309480
557.000000	0.309841
558.000000	0.310254
559.000000	0.310572
560.000000	0.310881
561.000000	0.311280
562.000000	0.311702
563.000000	0.312003
564.000000	0.312315
565.000000	0.312664
566.000000	0.313028
567.000000	0.313394
568.000000	0.313727
569.000000	0.314043
570.000000	0.314347
571.000000	0.314654
572.000000	0.315022
573.000000	0.315396
574.000000	0.315740
575.000000	0.316090
576.000000	0.316433
577.000000	0.316741
578.000000	0.317066
579.000000	0.317370
580.000000	0.317697
581.000000	0.318045
582.000000	0.318348
583.000000	0.318662
584.000000	0.318988
585.000000	0.319303
586.000000	0.319647
587.000000	0.320009
588.000000	0.320373
589.000000	0.320778
590.000000	0.321166
591.000000	0.321500
592.000000	0.321815
593.000000	0.322124
594.000000	0.322417
595.000000	0.322669
596.000000	0.322873
597.000000	0.323080
598.000000	0.323250
599.000000	0.323382
600.000000	0.323594
601.000000	0.323862
602.000000	0.324027
603.000000	0.324167
604.000000	0.324342
605.000000	0.324542
606.000000	0.324716
607.000000	0.324870
608.000000	0.325046
609.000000	0.325253
610.000000	0.325516
611.000000	0.325842
612.000000	0.326138
613.000000	0.326381
614.000000	0.326599
615.000000	0.326766
616.000000	0.326869
617.000000	0.326925
618.000000	0.327099
619.000000	0.327265
620.000000	0.327379
621.000000	0.327499
622.000000	0.327659
623.000000	0.327859
624.000000	0.328082
625.000000	0.328276
626.000000	0.328506
627.000000	0.328801
628.000000	0.329127
629.000000	0.329486
630.000000	0.329747
631.000000	0.330033
632.000000	0.330325
633.000000	0.330616
634.000000	0.330875
635.000000	0.331069
636.000000	0.331237
637.000000	0.331378
638.000000	0.331453
639.000000	0.331541
640.000000	0.331695
641.000000	0.331767
642.000000	0.331883
643.000000	0.332039
644.000000	0.332196
645.000000	0.332327
646.000000	0.332454
647.000000	0.332576
648.000000	0.332735
649.000000	0.332920
650.000000	0.333103
651.000000	0.333295
652.000000	0.333468
653.000000	0.333659
654.000000	0.333839
655.000000	0.334028
656.000000	0.334230
657.000000	0.334392
658.000000	0.334624
659.000000	0.334871
660.000000	0.335081
661.000000	0.335286
662.000000	0.335458
663.000000	0.335654
664.000000	0.335860
665.000000	0.336068
666.000000	0.336279
667.000000	0.336459
668.000000	0.336623
669.000000	0.336815
670.000000	0.337041
671.000000	0.337196
672.000000	0.337349
673.000000	0.337516
674.000000	0.337700
675.000000	0.337875
676.000000	0.338051
677.000000	0.338261
678.000000	0.338447
679.000000	0.338612
680.000000	0.338774
681.000000	0.338917
682.000000	0.339112
683.000000	0.339285
684.000000	0.339465
685.000000	0.339647
686.000000	0.339839
687.000000	0.339999
688.000000	0.340186
689.000000	0.340390
690.000000	0.340630
691.000000	0.340855
692.000000	0.341046
693.000000	0.341261
694.000000	0.341450
695.000000	0.341660
696.000000	0.341862
697.000000	0.342007
698.000000	0.342199
699.000000	0.342404
700.000000	0.342589
701.000000	0.342754
702.000000	0.342923
703.000000	0.343079
704.000000	0.343214
705.000000	0.343379
706.000000	0.343537
707.000000	0.343715
708.000000	0.343871
709.000000	0.344016
710.000000	0.344185
711.000000	0.344383
712.000000	0.344549
713.000000	0.344691
714.000000	0.344855
715.000000	0.345029
716.000000	0.345205
717.000000	0.345345
718.000000	0.345526
719.000000	0.345718
720.000000	0.345893
721.000000	0.346043
722.000000	0.346167
723.000000	0.346335
724.000000	0.346501
725.000000	0.346608
726.000000	0.346763
727.000000	0.346942
728.000000	0.347077
729.000000	0.347198
730.000000	0.347294
731.000000	0.347467
732.000000	0.347622
733.000000	0.347760
734.000000	0.347874
735.000000	0.347969
736.000000	0.348157
737.000000	0.348289
738.000000	0.348397
739.000000	0.348566
740.000000	0.348652
741.000000	0.348715
742.000000	0.348812
743.000000	0.348919
744.000000	0.349020
745.000000	0.349100
746.000000	0.349204
747.000000	0.349285
748.000000	0.349431
749.000000	0.349616
750.000000	0.349763
751.000000	0.349861
752.000000	0.349947
753.000000	0.350051
754.000000	0.350168
755.000000	0.350273
756.000000	0.350395
757.000000	0.350513
758.000000	0.350617
759.000000	0.350751
760.000000	0.350859
761.000000	0.350990
762.000000	0.351102
763.000000	0.351175
764.000000	0.351296
765.000000	0.351360
766.000000	0.351412
767.000000	0.351498
768.000000	0.351574
769.000000	0.351653
770.000000	0.351742
771.000000	0.351817
772.000000	0.351926
773.000000	0.351992
774.000000	0.352052
775.000000	0.352134
776.000000	0.352240
777.000000	0.352343
778.000000	0.352451
779.000000	0.352527
780.000000	0.352569
781.000000	0.352585
782.000000	0.352596
783.000000	0.352706
784.000000	0.352801
785.000000	0.352876
786.000000	0.352908
787.000000	0.352900
788.000000	0.352917
789.000000	0.352966
790.000000	0.353012
791.000000	0.353051
792.000000	0.353071
793.000000	0.353103
794.000000	0.353172
795.000000	0.353237
796.000000	0.353278
797.000000	0.353293
798.000000	0.353311
799.000000	0.353375
800.000000	0.353460
801.000000	0.353529
802.000000	0.353586
803.000000	0.353681
804.000000	0.353841
805.000000	0.353894
806.000000	0.353888
807.000000	0.353948
808.000000	0.354048
809.000000	0.354108
810.000000	0.354145
811.000000	0.354168
812.000000	0.354163
813.000000	0.354199
814.000000	0.354272
815.000000	0.354334
816.000000	0.354319
817.000000	0.354295
818.000000	0.354249
819.000000	0.354261
820.000000	0.354315
821.000000	0.354344
822.000000	0.354400
823.000000	0.354396
824.000000	0.354310
825.000000	0.354284
826.000000	0.354286
827.000000	0.354275
828.000000	0.354267
829.000000	0.354209
830.000000	0.354140
831.000000	0.354126
832.000000	0.354052
833.000000	0.354024
834.000000	0.354047
835.000000	0.354128
836.000000	0.354146
837.000000	0.354107
838.000000	0.354057
839.000000	0.354031
840.000000	0.353961
841.000000	0.353917
842.000000	0.353912
843.000000	0.353896
844.000000	0.353872
845.000000	0.353820
846.000000	0.353784
847.000000	0.353755
848.000000	0.353698
849.000000	0.353628
850.000000	0.353608
851.000000	0.353563
852.000000	0.353520
853.000000	0.353525
854.000000	0.353467
855.000000	0.353466
856.000000	0.353457
857.000000	0.353327
858.000000	0.353232
859.000000	0.353146
860.000000	0.353004
861.000000	0.352926
862.000000	0.352897
863.000000	0.352770
864.000000	0.352667
865.000000	0.352577
866.000000	0.352505
867.000000	0.352413
868.000000	0.352343
869.000000	0.352217
870.000000	0.352068
871.000000	0.351988
872.000000	0.351898
873.000000	0.351706
874.000000	0.351588
875.000000	0.351407
876.000000	0.351229
877.000000	0.351102
878.000000	0.350927
879.000000	0.350800
880.000000	0.350628
881.000000	0.350515
882.000000	0.350471
883.000000	0.350422
884.000000	0.350203
885.000000	0.350021
886.000000	0.349849
887.000000	0.349691
888.000000	0.349565
889.000000	0.349451
890.000000	0.349261
891.000000	0.349152
892.000000	0.349021
893.000000	0.348859
894.000000	0.348769
895.000000	0.348558
896.000000	0.348371
897.000000	0.348221
898.000000	0.348058
899.000000	0.347773
900.000000	0.347475
901.000000	0.347218
902.000000	0.347120
903.000000	0.347023
904.000000	0.346910
905.000000	0.346689
906.000000	0.346473
907.000000	0.346264
908.000000	0.346132
909.000000	0.346011
910.000000	0.345849
911.000000	0.345668
912.000000	0.345514
913.000000	0.345317
914.000000	0.345091
915.000000	0.344898
916.000000	0.344638
917.000000	0.344396
918.000000	0.344211
919.000000	0.344074
920.000000	0.343986
921.000000	0.343844
922.000000	0.343636
923.000000	0.343373
924.000000	0.343089
925.000000	0.342832
926.000000	0.342643
927.000000	0.342415
928.000000	0.342203
929.000000	0.342006
930.000000	0.341803
931.000000	0.341586
932.000000	0.341360
933.000000	0.341127
934.000000	0.340772
935.000000	0.340523
936.000000	0.340394
937.000000	0.340200
938.000000	0.339825
939.000000	0.339608
940.000000	0.339467
941.000000	0.339255
942.000000	0.338965
943.000000	0.338687
944.000000	0.338366
945.000000	0.338164
946.000000	0.337948
947.000000	0.337755
948.000000	0.337556
949.000000	0.337236
950.000000	0.336949
951.000000	0.336691
952.000000	0.336442
953.000000	0.336316
954.000000	0.336177
955.000000	0.335870
956.000000	0.335637
957.000000	0.335453
958.000000	0.335232
959.000000	0.335019
960.000000	0.334863
961.000000	0.334671
962.000000	0.334405
963.000000	0.334170
964.000000	0.333932
965.000000	0.333742
966.000000	0.333517
967.000000	0.333363
968.000000	0.333073
969.000000	0.332653
970.000000	0.332357
971.000000	0.332106
972.000000	0.331922
973.000000	0.331710
974.000000	0.331455
975.000000	0.331151
976.000000	0.330893
977.000000	0.330733
978.000000	0.330560
979.000000	0.330544
980.000000	0.330377
981.000000	0.330136
982.000000	0.329850
983.000000	0.329622
984.000000	0.329523
985.000000	0.329402
986.000000	0.329257
987.000000	0.329117
988.000000	0.328887
989.000000	0.328674
990.000000	0.328462
991.000000	0.328278
992.000000	0.328196
993.000000	0.328158
994.000000	0.327992
995.000000	0.327836
996.000000	0.327617
997.000000	0.327553
998.000000	0.327504
999.000000	0.327442
1000.000000	0.327290
1001.000000	0.327854
1002.000000	0.327353
1003.000000	0.327027
1004.000000	0.326912
1005.000000	0.326923
1006.000000	0.326734
1007.000000	0.326741
1008.000000	0.326734
1009.000000	0.326417
1010.000000	0.325887
1011.000000	0.325844
1012.000000	0.326044
1013.000000	0.325756
1014.000000	0.325655
1015.000000	0.325753
1016.000000	0.325632
1017.000000	0.325424
1018.000000	0.325422
1019.000000	0.325464
1020.000000	0.325684
1021.000000	0.325424
1022.000000	0.325246
1023.000000	0.325337
1024.000000	0.325193
1025.000000	0.325209
1026.000000	0.325238
1027.000000	0.325146
1028.000000	0.325160
1029.000000	0.325201
1030.000000	0.325294
1031.000000	0.325292
1032.000000	0.325359
1033.000000	0.325322
1034.000000	0.325254
1035.000000	0.325239
1036.000000	0.325351
1037.000000	0.325384
1038.000000	0.325326
1039.000000	0.325486
1040.000000	0.325614
1041.000000	0.325469
1042.000000	0.325615
1043.000000	0.325889
1044.000000	0.325991
1045.000000	0.325974
1046.000000	0.325958
1047.000000	0.326099
1048.000000	0.326272
1049.000000	0.326287
1050.000000	0.326334
1051.000000	0.326409
1052.000000	0.326195
1053.000000	0.326235
1054.000000	0.326824
1055.000000	0.327138
1056.000000	0.327386
1057.000000	0.327671
1058.000000	0.327964
1059.000000	0.328023
1060.000000	0.328139
1061.000000	0.328306
1062.000000	0.328407
1063.000000	0.328659
1064.000000	0.328833
1065.000000	0.328982
1066.000000	0.329160
1067.000000	0.329282
1068.000000	0.329407
1069.000000	0.329504
1070.000000	0.329694
1071.000000	0.329931
1072.000000	0.330148
1073.000000	0.330388
1074.000000	0.330934
1075.000000	0.331208
1076.000000	0.331381
1077.000000	0.331479
1078.000000	0.331456
1079.000000	0.331539
1080.000000	0.331593
1081.000000	0.331802
1082.000000	0.332270
1083.000000	0.332550
1084.000000	0.332913
1085.000000	0.333218
1086.000000	0.333367
1087.000000	0.333577
1088.000000	0.333702
1089.000000	0.333882
1090.000000	0.334072
1091.000000	0.334185
1092.000000	0.334372
1093.000000	0.334664
1094.000000	0.334877
1095.000000	0.334938
1096.000000	0.335219
1097.000000	0.335674
1098.000000	0.335911
1099.000000	0.336087
1100.000000	0.336310
1101.000000	0.336334
1102.000000	0.336452
1103.000000	0.336635
1104.000000	0.336849
1105.000000	0.337100
1106.000000	0.337289
1107.000000	0.337410
1108.000000	0.337547
1109.000000	0.337705
1110.000000	0.337828
1111.000000	0.338009
1112.000000	0.338254
1113.000000	0.338504
1114.000000	0.338790
1115.000000	0.339018
1116.000000	0.339290
1117.000000	0.339478
1118.000000	0.339586
1119.000000	0.339628
1120.000000	0.339568
1121.000000	0.339609
1122.000000	0.339744
1123.000000	0.340024
1124.000000	0.340199
1125.000000	0.340386
1126.000000	0.340485
1127.000000	0.340566
1128.000000	0.340635
1129.000000	0.340732
1130.000000	0.340852
1131.000000	0.341017
1132.000000	0.341058
1133.000000	0.341088
1134.000000	0.341213
1135.000000	0.341271
1136.000000	0.341319
1137.000000	0.341473
1138.000000	0.341481
1139.000000	0.341379
1140.000000	0.341486
1141.000000	0.341635
1142.000000	0.341750
1143.000000	0.341902
1144.000000	0.342094
1145.000000	0.342074
1146.000000	0.341982
1147.000000	0.341980
1148.000000	0.341886
1149.000000	0.341868
1150.000000	0.341920
1151.000000	0.341984
1152.000000	0.342015
1153.000000	0.342057
1154.000000	0.342098
1155.000000	0.342095
1156.000000	0.342071
1157.000000	0.342041
1158.000000	0.341935
1159.000000	0.341857
1160.000000	0.341757
1161.000000	0.341663
1162.000000	0.341636
1163.000000	0.341719
1164.000000	0.341685
1165.000000	0.341636
1166.000000	0.341632
1167.000000	0.341591
1168.000000	0.341510
1169.000000	0.341451
1170.000000	0.341433
1171.000000	0.341439
1172.000000	0.341462
1173.000000	0.341515
1174.000000	0.341519
1175.000000	0.341444
1176.000000	0.341370
1177.000000	0.341370
1178.000000	0.341358
1179.000000	0.341340
1180.000000	0.341257
1181.000000	0.341259
1182.000000	0.341180
1183.000000	0.341159
1184.000000	0.341226
1185.000000	0.341240
1186.000000	0.341281
1187.000000	0.341278
1188.000000	0.341259
1189.000000	0.341173
1190.000000	0.341095
1191.000000	0.341044
1192.000000	0.341053
1193.000000	0.341122
1194.000000	0.341125
1195.000000	0.341114
1196.000000	0.341019
1197.000000	0.340966
1198.000000	0.340964
1199.000000	0.340938
1200.000000	0.340899
1201.000000	0.340850
1202.000000	0.340773
1203.000000	0.340714
1204.000000	0.340666
1205.000000	0.340612
1206.000000	0.340534
1207.000000	0.340555
1208.000000	0.340492
1209.000000	0.340451
1210.000000	0.340417
1211.000000	0.340360
1212.000000	0.340302
1213.000000	0.340289
1214.000000	0.340296
1215.000000	0.340311
1216.000000	0.340292
1217.000000	0.340251
1218.000000	0.340191
1219.000000	0.340107
1220.000000	0.340058
1221.000000	0.340078
1222.000000	0.340073
1223.000000	0.340086
1224.000000	0.340111
1225.000000	0.340090
1226.000000	0.340090
1227.000000	0.340039
1228.000000	0.340045
1229.000000	0.340001
1230.000000	0.339901
1231.000000	0.339806
1232.000000	0.339840
1233.000000	0.339888
1234.000000	0.339931
1235.000000	0.339940
1236.000000	0.339840
1237.000000	0.339847
1238.000000	0.339825
1239.000000	0.339794
1240.000000	0.339808
1241.000000	0.339780
1242.000000	0.339715
1243.000000	0.339730
1244.000000	0.339793
1245.000000	0.339916
1246.000000	0.339975
1247.000000	0.340067
1248.000000	0.340165
1249.000000	0.340183
1250.000000	0.340147
1251.000000	0.340146
1252.000000	0.340123
1253.000000	0.340079
1254.000000	0.340036
1255.000000	0.340025
1256.000000	0.339963
1257.000000	0.339863
1258.000000	0.339829
1259.000000	0.339740
1260.000000	0.339717
1261.000000	0.339651
1262.000000	0.339624
1263.000000	0.339668
1264.000000	0.339670
1265.000000	0.339702
1266.000000	0.339718
1267.000000	0.339679
1268.000000	0.339662
1269.000000	0.339582
1270.000000	0.339585
1271.000000	0.339610
1272.000000	0.339619
1273.000000	0.339708
1274.000000	0.339748
1275.000000	0.339735
1276.000000	0.339728
1277.000000	0.339755
1278.000000	0.339637
1279.000000	0.339572
1280.000000	0.339448
1281.000000	0.339337
1282.000000	0.339292
1283.000000	0.339317
1284.000000	0.339312
1285.000000	0.339325
1286.000000	0.339353
1287.000000	0.339336
1288.000000	0.339366
1289.000000	0.339394
1290.000000	0.339342
1291.000000	0.339284
1292.000000	0.339246
1293.000000	0.339221
1294.000000	0.339198
1295.000000	0.339206
1296.000000	0.339184
1297.000000	0.339136
1298.000000	0.339155
1299.000000	0.339153
1300.000000	0.339194
1301.000000	0.339219
1302.000000	0.339123
1303.000000	0.339060
1304.000000	0.338966
1305.000000	0.338864
1306.000000	0.338785
1307.000000	0.338793
1308.000000	0.338808
1309.000000	0.338822
1310.000000	0.338837
1311.000000	0.338932
1312.000000	0.338883
1313.000000	0.338850
1314.000000	0.338827
1315.000000	0.338679
1316.000000	0.338644
1317.000000	0.338668
1318.000000	0.338585
1319.000000	0.338463
1320.000000	0.338391
1321.000000	0.338204
1322.000000	0.338013
1323.000000	0.337981
1324.000000	0.337961
1325.000000	0.337840
1326.000000	0.337714
1327.000000	0.337539
1328.000000	0.337363
1329.000000	0.337148
1330.000000	0.336938
1331.000000	0.336762
1332.000000	0.336646
1333.000000	0.336483
1334.000000	0.336403
1335.000000	0.336319
1336.000000	0.336199
1337.000000	0.336024
1338.000000	0.335780
1339.000000	0.335545
1340.000000	0.335305
1341.000000	0.335098
1342.000000	0.334958
1343.000000	0.334765
1344.000000	0.334463
1345.000000	0.334182
1346.000000	0.333972
1347.000000	0.333681
1348.000000	0.333501
1349.000000	0.333243
1350.000000	0.333016
1351.000000	0.332801
1352.000000	0.332530
1353.000000	0.332286
1354.000000	0.332037
1355.000000	0.331783
1356.000000	0.331615
1357.000000	0.331395
1358.000000	0.331200
1359.000000	0.330997
1360.000000	0.330795
1361.000000	0.330642
1362.000000	0.330464
1363.000000	0.330227
1364.000000	0.330084
1365.000000	0.329960
1366.000000	0.329819
1367.000000	0.329704
1368.000000	0.329573
1369.000000	0.329503
1370.000000	0.329327
1371.000000	0.329115
1372.000000	0.328950
1373.000000	0.328776
1374.000000	0.328603
1375.000000	0.328437
1376.000000	0.328349
1377.000000	0.328203
1378.000000	0.328002
1379.000000	0.327777
1380.000000	0.327517
1381.000000	0.327212
1382.000000	0.326917
1383.000000	0.326695
1384.000000	0.326370
1385.000000	0.326009
1386.000000	0.325731
1387.000000	0.325434
1388.000000	0.325086
1389.000000	0.324727
1390.000000	0.324390
1391.000000	0.323949
1392.000000	0.323535
1393.000000	0.323111
1394.000000	0.322725
1395.000000	0.322310
1396.000000	0.321930
1397.000000	0.321408
1398.000000	0.320768
1399.000000	0.320169
1400.000000	0.319480
1401.000000	0.318821
1402.000000	0.318256
1403.000000	0.317585
1404.000000	0.316943
1405.000000	0.316205
1406.000000	0.315347
1407.000000	0.314557
1408.000000	0.313690
1409.000000	0.312813
1410.000000	0.311977
1411.000000	0.311036
1412.000000	0.310006
1413.000000	0.309019
1414.000000	0.308056
1415.000000	0.307064
1416.000000	0.306035
1417.000000	0.305007
1418.000000	0.303919
1419.000000	0.302846
1420.000000	0.301745
1421.000000	0.300694
1422.000000	0.299614
1423.000000	0.298568
1424.000000	0.297448
1425.000000	0.296308
1426.000000	0.295151
1427.000000	0.294010
1428.000000	0.292915
1429.000000	0.291823
1430.000000	0.290753
1431.000000	0.289706
1432.000000	0.288637
1433.000000	0.287587
1434.000000	0.286559
1435.000000	0.285600
1436.000000	0.284639
1437.000000	0.283719
1438.000000	0.282740
1439.000000	0.281742
1440.000000	0.280817
1441.000000	0.279927
1442.000000	0.279052
1443.000000	0.278155
1444.000000	0.277310
1445.000000	0.276480
1446.000000	0.275666
1447.000000	0.274943
1448.000000	0.274279
1449.000000	0.273619
1450.000000	0.272989
1451.000000	0.272428
1452.000000	0.271817
1453.000000	0.271200
1454.000000	0.270654
1455.000000	0.270132
1456.000000	0.269712
1457.000000	0.269357
1458.000000	0.269005
1459.000000	0.268681
1460.000000	0.268342
1461.000000	0.268010
1462.000000	0.267693
1463.000000	0.267319
1464.000000	0.267015
1465.000000	0.266780
1466.000000	0.266495
1467.000000	0.266277
1468.000000	0.266101
1469.000000	0.265934
1470.000000	0.265732
1471.000000	0.265587
1472.000000	0.265454
1473.000000	0.265340
1474.000000	0.265232
1475.000000	0.265177
1476.000000	0.265110
1477.000000	0.265074
1478.000000	0.265109
1479.000000	0.265096
1480.000000	0.265088
1481.000000	0.265094
1482.000000	0.265127
1483.000000	0.265214
1484.000000	0.265348
1485.000000	0.265474
1486.000000	0.265616
1487.000000	0.265787
1488.000000	0.265976
1489.000000	0.266217
1490.000000	0.266407
1491.000000	0.266639
1492.000000	0.266870
1493.000000	0.267138
1494.000000	0.267403
1495.000000	0.267657
1496.000000	0.267929
1497.000000	0.268206
1498.000000	0.268480
1499.000000	0.268767
1500.000000	0.269117
1501.000000	0.269405
1502.000000	0.269652
1503.000000	0.269980
1504.000000	0.270293
1505.000000	0.270574
1506.000000	0.270902
1507.000000	0.271208
1508.000000	0.271519
1509.000000	0.271856
1510.000000	0.272158
1511.000000	0.272474
1512.000000	0.272791
1513.000000	0.273082
1514.000000	0.273400
1515.000000	0.273671
1516.000000	0.273937
1517.000000	0.274195
1518.000000	0.274460
1519.000000	0.274696
1520.000000	0.274922
1521.000000	0.275090
1522.000000	0.275273
1523.000000	0.275522
1524.000000	0.275750
1525.000000	0.276029
1526.000000	0.276295
1527.000000	0.276523
1528.000000	0.276776
1529.000000	0.276984
1530.000000	0.277093
1531.000000	0.277275
1532.000000	0.277463
1533.000000	0.277607
1534.000000	0.277810
1535.000000	0.277982
1536.000000	0.278074
1537.000000	0.278278
1538.000000	0.278510
1539.000000	0.278667
1540.000000	0.278856
1541.000000	0.279043
1542.000000	0.279188
1543.000000	0.279335
1544.000000	0.279458
1545.000000	0.279621
1546.000000	0.279781
1547.000000	0.279905
1548.000000	0.280020
1549.000000	0.280050
1550.000000	0.280038
1551.000000	0.280072
1552.000000	0.280158
1553.000000	0.280275
1554.000000	0.280370
1555.000000	0.280452
1556.000000	0.280551
1557.000000	0.280601
1558.000000	0.280688
1559.000000	0.280757
1560.000000	0.280829
1561.000000	0.280942
1562.000000	0.281006
1563.000000	0.281101
1564.000000	0.281156
1565.000000	0.281154
1566.000000	0.281129
1567.000000	0.281179
1568.000000	0.281169
1569.000000	0.281189
1570.000000	0.281179
1571.000000	0.281126
1572.000000	0.281075
1573.000000	0.281022
1574.000000	0.280963
1575.000000	0.280911
1576.000000	0.280839
1577.000000	0.280748
1578.000000	0.280625
1579.000000	0.280501
1580.000000	0.280409
1581.000000	0.280382
1582.000000	0.280322
1583.000000	0.280268
1584.000000	0.280177
1585.000000	0.280114
1586.000000	0.280076
1587.000000	0.280065
1588.000000	0.280003
1589.000000	0.279915
1590.000000	0.279870
1591.000000	0.279857
1592.000000	0.279825
1593.000000	0.279868
1594.000000	0.279823
1595.000000	0.279737
1596.000000	0.279666
1597.000000	0.279612
1598.000000	0.279544
1599.000000	0.279494
1600.000000	0.279374
1601.000000	0.279279
1602.000000	0.279165
1603.000000	0.279044
1604.000000	0.278930
1605.000000	0.278819
1606.000000	0.278728
1607.000000	0.278693
1608.000000	0.278631
1609.000000	0.278626
1610.000000	0.278592
1611.000000	0.278544
1612.000000	0.278514
1613.000000	0.278588
1614.000000	0.278595
1615.000000	0.278632
1616.000000	0.278689
1617.000000	0.278708
1618.000000	0.278698
1619.000000	0.278650
1620.000000	0.278642
1621.000000	0.278635
1622.000000	0.278712
1623.000000	0.278832
1624.000000	0.278933
1625.000000	0.278916
1626.000000	0.278953
1627.000000	0.279023
1628.000000	0.279165
1629.000000	0.279368
1630.000000	0.279554
1631.000000	0.279731
1632.000000	0.279859
1633.000000	0.279968
1634.000000	0.280078
1635.000000	0.280202
1636.000000	0.280301
1637.000000	0.280395
1638.000000	0.280482
1639.000000	0.280605
1640.000000	0.280712
1641.000000	0.280861
1642.000000	0.281005
1643.000000	0.281181
1644.000000	0.281325
1645.000000	0.281469
1646.000000	0.281563
1647.000000	0.281632
1648.000000	0.281729
1649.000000	0.281891
1650.000000	0.282085
1651.000000	0.282367
1652.000000	0.282595
1653.000000	0.282775
1654.000000	0.282984
1655.000000	0.283134
1656.000000	0.283226
1657.000000	0.283367
1658.000000	0.283491
1659.000000	0.283653
1660.000000	0.283834
1661.000000	0.283966
1662.000000	0.284130
1663.000000	0.284275
1664.000000	0.284440
1665.000000	0.284630
1666.000000	0.284864
1667.000000	0.285036
1668.000000	0.285238
1669.000000	0.285482
1670.000000	0.285612
1671.000000	0.285785
1672.000000	0.285964
1673.000000	0.286048
1674.000000	0.286217
1675.000000	0.286491
1676.000000	0.286733
1677.000000	0.286941
1678.000000	0.287097
1679.000000	0.287232
1680.000000	0.287351
1681.000000	0.287452
1682.000000	0.287593
1683.000000	0.287748
1684.000000	0.287830
1685.000000	0.287943
1686.000000	0.288036
1687.000000	0.288126
1688.000000	0.288198
1689.000000	0.288282
1690.000000	0.288329
1691.000000	0.288384
1692.000000	0.288441
1693.000000	0.288567
1694.000000	0.288686
1695.000000	0.288835
1696.000000	0.288940
1697.000000	0.289020
1698.000000	0.289113
1699.000000	0.289270
1700.000000	0.289518
1701.000000	0.289742
1702.000000	0.289778
1703.000000	0.289878
1704.000000	0.290043
1705.000000	0.290197
1706.000000	0.290497
1707.000000	0.290685
1708.000000	0.290733
1709.000000	0.290790
1710.000000	0.290905
1711.000000	0.291017
1712.000000	0.291147
1713.000000	0.291271
1714.000000	0.291439
1715.000000	0.291569
1716.000000	0.291716
1717.000000	0.291826
1718.000000	0.291835
1719.000000	0.291901
1720.000000	0.292031
1721.000000	0.292144
1722.000000	0.292271
1723.000000	0.292417
1724.000000	0.292601
1725.000000	0.292773
1726.000000	0.292876
1727.000000	0.293017
1728.000000	0.293116
1729.000000	0.293157
1730.000000	0.293290
1731.000000	0.293439
1732.000000	0.293571
1733.000000	0.293778
1734.000000	0.293956
1735.000000	0.294112
1736.000000	0.294219
1737.000000	0.294348
1738.000000	0.294486
1739.000000	0.294657
1740.000000	0.294835
1741.000000	0.294983
1742.000000	0.295143
1743.000000	0.295377
1744.000000	0.295614
1745.000000	0.295785
1746.000000	0.295981
1747.000000	0.296092
1748.000000	0.296182
1749.000000	0.296310
1750.000000	0.296410
1751.000000	0.296603
1752.000000	0.296842
1753.000000	0.296968
1754.000000	0.297124
1755.000000	0.297241
1756.000000	0.297357
1757.000000	0.297479
1758.000000	0.297638
1759.000000	0.297789
1760.000000	0.297954
1761.000000	0.298148
1762.000000	0.298278
1763.000000	0.298358
1764.000000	0.298505
1765.000000	0.298617
1766.000000	0.298768
1767.000000	0.298934
1768.000000	0.299033
1769.000000	0.299189
1770.000000	0.299345
1771.000000	0.299427
1772.000000	0.299540
1773.000000	0.299581
1774.000000	0.299735
1775.000000	0.300037
1776.000000	0.300232
1777.000000	0.300423
1778.000000	0.300546
1779.000000	0.300537
1780.000000	0.300668
1781.000000	0.300819
1782.000000	0.300943
1783.000000	0.301130
1784.000000	0.301367
1785.000000	0.301498
1786.000000	0.301690
1787.000000	0.301989
1788.000000	0.302209
1789.000000	0.302375
1790.000000	0.302605
1791.000000	0.302763
1792.000000	0.302952
1793.000000	0.303149
1794.000000	0.303365
1795.000000	0.303563
1796.000000	0.303767
1797.000000	0.303916
1798.000000	0.303948
1799.000000	0.304088
1800.000000	0.304318
1801.000000	0.303860
1802.000000	0.304164
1803.000000	0.304330
1804.000000	0.304643
1805.000000	0.305172
1806.000000	0.305352
1807.000000	0.305386
1808.000000	0.305402
1809.000000	0.305070
1810.000000	0.304842
1811.000000	0.304978
1812.000000	0.305452
1813.000000	0.305659
1814.000000	0.306060
1815.000000	0.306341
1816.000000	0.306483
1817.000000	0.306479
1818.000000	0.306505
1819.000000	0.306679
1820.000000	0.306427
1821.000000	0.306177
1822.000000	0.306036
1823.000000	0.305764
1824.000000	0.305556
1825.000000	0.305297
1826.000000	0.305331
1827.000000	0.305252
1828.000000	0.305569
1829.000000	0.306168
1830.000000	0.306282
1831.000000	0.306354
1832.000000	0.306204
1833.000000	0.306222
1834.000000	0.306350
1835.000000	0.306214
1836.000000	0.305831
1837.000000	0.305653
1838.000000	0.305262
1839.000000	0.304749
1840.000000	0.304704
1841.000000	0.304601
1842.000000	0.304474
1843.000000	0.304223
1844.000000	0.304206
1845.000000	0.304280
1846.000000	0.304272
1847.000000	0.304259
1848.000000	0.304065
1849.000000	0.303793
1850.000000	0.303544
1851.000000	0.303257
1852.000000	0.302839
1853.000000	0.302556
1854.000000	0.302161
1855.000000	0.301658
1856.000000	0.300932
1857.000000	0.300569
1858.000000	0.300114
1859.000000	0.299462
1860.000000	0.298847
1861.000000	0.298154
1862.000000	0.297406
1863.000000	0.296617
1864.000000	0.295766
1865.000000	0.294986
1866.000000	0.293952
1867.000000	0.292622
1868.000000	0.291242
1869.000000	0.289959
1870.000000	0.288780
1871.000000	0.287759
1872.000000	0.286791
1873.000000	0.285676
1874.000000	0.284409
1875.000000	0.283255
1876.000000	0.281989
1877.000000	0.280285
1878.000000	0.278682
1879.000000	0.277022
1880.000000	0.275079
1881.000000	0.272986
1882.000000	0.270705
1883.000000	0.268304
1884.000000	0.266082
1885.000000	0.263690
1886.000000	0.261344
1887.000000	0.259125
1888.000000	0.256662
1889.000000	0.254016
1890.000000	0.251734
1891.000000	0.249402
1892.000000	0.246915
1893.000000	0.244650
1894.000000	0.241902
1895.000000	0.238946
1896.000000	0.235895
1897.000000	0.232798
1898.000000	0.229209
1899.000000	0.226217
1900.000000	0.223246
1901.000000	0.219941
1902.000000	0.216787
1903.000000	0.213496
1904.000000	0.210253
1905.000000	0.207287
1906.000000	0.204213
1907.000000	0.201286
1908.000000	0.198269
1909.000000	0.195362
1910.000000	0.192714
1911.000000	0.190243
1912.000000	0.187821
1913.000000	0.185610
1914.000000	0.183080
1915.000000	0.180270
1916.000000	0.177793
1917.000000	0.175337
1918.000000	0.172848
1919.000000	0.170608
1920.000000	0.168681
1921.000000	0.166730
1922.000000	0.164837
1923.000000	0.163048
1924.000000	0.161322
1925.000000	0.159797
1926.000000	0.158362
1927.000000	0.157107
1928.000000	0.155981
1929.000000	0.155062
1930.000000	0.154189
1931.000000	0.153515
1932.000000	0.152962
1933.000000	0.152421
1934.000000	0.151849
1935.000000	0.151291
1936.000000	0.150629
1937.000000	0.149898
1938.000000	0.149374
1939.000000	0.148878
1940.000000	0.148429
1941.000000	0.148016
1942.000000	0.147729
1943.000000	0.147312
1944.000000	0.146736
1945.000000	0.146293
1946.000000	0.146067
1947.000000	0.145858
1948.000000	0.145733
1949.000000	0.145593
1950.000000	0.145285
1951.000000	0.144926
1952.000000	0.144524
1953.000000	0.143982
1954.000000	0.143528
1955.000000	0.143325
1956.000000	0.143076
1957.000000	0.143007
1958.000000	0.143044
1959.000000	0.142803
1960.000000	0.142665
1961.000000	0.142716
1962.000000	0.142675
1963.000000	0.142674
1964.000000	0.142782
1965.000000	0.142637
1966.000000	0.142409
1967.000000	0.142342
1968.000000	0.142318
1969.000000	0.142413
1970.000000	0.142450
1971.000000	0.142339
1972.000000	0.142154
1973.000000	0.142108
1974.000000	0.142248
1975.000000	0.142384
1976.000000	0.142560
1977.000000	0.142941
1978.000000	0.143300
1979.000000	0.143352
1980.000000	0.143479
1981.000000	0.143525
1982.000000	0.143526
1983.000000	0.143744
1984.000000	0.143955
1985.000000	0.144378
1986.000000	0.144646
1987.000000	0.144883
1988.000000	0.145106
1989.000000	0.145570
1990.000000	0.146075
1991.000000	0.146499
1992.000000	0.146968
1993.000000	0.147163
1994.000000	0.147338
1995.000000	0.147860
1996.000000	0.148346
1997.000000	0.148859
1998.000000	0.149589
1999.000000	0.150255
2000.000000	0.150835
2001.000000	0.151481
2002.000000	0.152302
2003.000000	0.153022
2004.000000	0.153715
2005.000000	0.154283
2006.000000	0.154806
2007.000000	0.155204
2008.000000	0.155718
2009.000000	0.156162
2010.000000	0.156855
2011.000000	0.157640
2012.000000	0.158450
2013.000000	0.159410
2014.000000	0.160189
2015.000000	0.160902
2016.000000	0.161588
2017.000000	0.162309
2018.000000	0.163024
2019.000000	0.163790
2020.000000	0.164539
2021.000000	0.165231
2022.000000	0.165756
2023.000000	0.166427
2024.000000	0.167201
2025.000000	0.167960
2026.000000	0.168702
2027.000000	0.169352
2028.000000	0.170076
2029.000000	0.170765
2030.000000	0.171393
2031.000000	0.172134
2032.000000	0.173006
2033.000000	0.173778
2034.000000	0.174420
2035.000000	0.175020
2036.000000	0.175713
2037.000000	0.176392
2038.000000	0.177122
2039.000000	0.178052
2040.000000	0.179004
2041.000000	0.179698
2042.000000	0.180377
2043.000000	0.180970
2044.000000	0.181510
2045.000000	0.182067
2046.000000	0.182606
2047.000000	0.183254
2048.000000	0.184030
2049.000000	0.184773
2050.000000	0.185320
2051.000000	0.185832
2052.000000	0.186160
2053.000000	0.186620
2054.000000	0.187195
2055.000000	0.187982
2056.000000	0.188803
2057.000000	0.189543
2058.000000	0.190059
2059.000000	0.190647
2060.000000	0.191249
2061.000000	0.191841
2062.000000	0.192361
2063.000000	0.192899
2064.000000	0.193343
2065.000000	0.193811
2066.000000	0.194312
2067.000000	0.194963
2068.000000	0.195778
2069.000000	0.196511
2070.000000	0.197276
2071.000000	0.198070
2072.000000	0.198829
2073.000000	0.199530
2074.000000	0.200218
2075.000000	0.200913
2076.000000	0.201445
2077.000000	0.202219
2078.000000	0.203273
2079.000000	0.204000
2080.000000	0.204726
2081.000000	0.205457
2082.000000	0.206018
2083.000000	0.206520
2084.000000	0.207380
2085.000000	0.208286
2086.000000	0.209154
2087.000000	0.210008
2088.000000	0.210739
2089.000000	0.211236
2090.000000	0.211908
2091.000000	0.212627
2092.000000	0.213349
2093.000000	0.214201
2094.000000	0.215035
2095.000000	0.215871
2096.000000	0.216655
2097.000000	0.217551
2098.000000	0.218039
2099.000000	0.218299
2100.000000	0.219034
2101.000000	0.219858
2102.000000	0.220631
2103.000000	0.221635
2104.000000	0.222398
2105.000000	0.223057
2106.000000	0.223410
2107.000000	0.224048
2108.000000	0.224696
2109.000000	0.225411
2110.000000	0.226182
2111.000000	0.226878
2112.000000	0.227486
2113.000000	0.227920
2114.000000	0.228633
2115.000000	0.229204
2116.000000	0.229635
2117.000000	0.229919
2118.000000	0.230190
2119.000000	0.230373
2120.000000	0.230861
2121.000000	0.231697
2122.000000	0.232354
2123.000000	0.233093
2124.000000	0.233698
2125.000000	0.234270
2126.000000	0.234727
2127.000000	0.235056
2128.000000	0.235560
2129.000000	0.236084
2130.000000	0.236396
2131.000000	0.236746
2132.000000	0.236891
2133.000000	0.237015
2134.000000	0.237328
2135.000000	0.237604
2136.000000	0.238111
2137.000000	0.238451
2138.000000	0.238793
2139.000000	0.239060
2140.000000	0.239144
2141.000000	0.239343
2142.000000	0.239623
2143.000000	0.239566
2144.000000	0.239537
2145.000000	0.239693
2146.000000	0.239671
2147.000000	0.240214
2148.000000	0.240634
2149.000000	0.241116
2150.000000	0.241877
2151.000000	0.242240
2152.000000	0.242717
2153.000000	0.243154
2154.000000	0.243409
2155.000000	0.243354
2156.000000	0.243510
2157.000000	0.243799
2158.000000	0.243909
2159.000000	0.243943
2160.000000	0.244168
2161.000000	0.244338
2162.000000	0.244618
2163.000000	0.245120
2164.000000	0.245269
2165.000000	0.245179
2166.000000	0.245155
2167.000000	0.245002
2168.000000	0.245296
2169.000000	0.245816
2170.000000	0.246191
2171.000000	0.246394
2172.000000	0.246523
2173.000000	0.246531
2174.000000	0.246224
2175.000000	0.246258
2176.000000	0.246294
2177.000000	0.246498
2178.000000	0.247137
2179.000000	0.247518
2180.000000	0.247807
2181.000000	0.248377
2182.000000	0.248654
2183.000000	0.248619
2184.000000	0.248960
2185.000000	0.248653
2186.000000	0.248078
2187.000000	0.247853
2188.000000	0.247528
2189.000000	0.247428
2190.000000	0.247643
2191.000000	0.248177
2192.000000	0.248388
2193.000000	0.248586
2194.000000	0.248708
2195.000000	0.248787
2196.000000	0.248641
2197.000000	0.248051
2198.000000	0.247970
2199.000000	0.247879
2200.000000	0.248097
2201.000000	0.249317
2202.000000	0.249945
2203.000000	0.250226
2204.000000	0.250329
2205.000000	0.249831
2206.000000	0.249020
2207.000000	0.248778
2208.000000	0.248248
2209.000000	0.248196
2210.000000	0.249205
2211.000000	0.250102
2212.000000	0.250950
2213.000000	0.251584
2214.000000	0.252499
2215.000000	0.252470
2216.000000	0.251496
2217.000000	0.251458
2218.000000	0.250708
2219.000000	0.251317
2220.000000	0.253676
2221.000000	0.254568
2222.000000	0.255562
2223.000000	0.255983
2224.000000	0.255441
2225.000000	0.255120
2226.000000	0.254161
2227.000000	0.254294
2228.000000	0.254338
2229.000000	0.253968
2230.000000	0.254631
2231.000000	0.254897
2232.000000	0.254777
2233.000000	0.254878
2234.000000	0.254314
2235.000000	0.254655
2236.000000	0.254535
2237.000000	0.254299
2238.000000	0.253832
2239.000000	0.252670
2240.000000	0.252452
2241.000000	0.252733
2242.000000	0.252974
2243.000000	0.253887
2244.000000	0.254490
2245.000000	0.254617
2246.000000	0.255124
2247.000000	0.256138
2248.000000	0.256604
2249.000000	0.257262
2250.000000	0.257105
2251.000000	0.256478
2252.000000	0.255602
2253.000000	0.254196
2254.000000	0.253549
2255.000000	0.252881
2256.000000	0.253019
2257.000000	0.254029
2258.000000	0.253880
2259.000000	0.253685
2260.000000	0.253731
2261.000000	0.253278
2262.000000	0.252247
2263.000000	0.251856
2264.000000	0.251300
2265.000000	0.251246
2266.000000	0.252146
2267.000000	0.252067
2268.000000	0.251761
2269.000000	0.251692
2270.000000	0.250922
2271.000000	0.250583
2272.000000	0.250878
2273.000000	0.250643
2274.000000	0.250077
2275.000000	0.249820
2276.000000	0.249600
2277.000000	0.249464
2278.000000	0.248818
2279.000000	0.248188
2280.000000	0.247162
2281.000000	0.246171
2282.000000	0.245758
2283.000000	0.245132
2284.000000	0.244722
2285.000000	0.243904
2286.000000	0.243665
2287.000000	0.243510
2288.000000	0.242859
2289.000000	0.242260
2290.000000	0.240992
2291.000000	0.240603
2292.000000	0.240991
2293.000000	0.240928
2294.000000	0.240535
2295.000000	0.240049
2296.000000	0.239153
2297.000000	0.237412
2298.000000	0.236638
2299.000000	0.235972
2300.000000	0.235467
2301.000000	0.235847
2302.000000	0.235283
2303.000000	0.234387
2304.000000	0.233611
2305.000000	0.231954
2306.000000	0.230892
2307.000000	0.230181
2308.000000	0.229555
2309.000000	0.229048
2310.000000	0.228956
2311.000000	0.228693
2312.000000	0.228459
2313.000000	0.227220
2314.000000	0.226056
2315.000000	0.225057
2316.000000	0.223342
2317.000000	0.222079
2318.000000	0.221151
2319.000000	0.220068
2320.000000	0.219599
2321.000000	0.220184
2322.000000	0.220284
2323.000000	0.220377
2324.000000	0.220690
2325.000000	0.218788
2326.000000	0.216977
2327.000000	0.215863
2328.000000	0.213642
2329.000000	0.212993
2330.000000	0.212590
2331.000000	0.211105
2332.000000	0.210254
2333.000000	0.208989
2334.000000	0.207832
2335.000000	0.207486
2336.000000	0.207484
2337.000000	0.207068
2338.000000	0.207339
2339.000000	0.206734
2340.000000	0.205366
2341.000000	0.204223
2342.000000	0.202577
2343.000000	0.201302
2344.000000	0.200229
2345.000000	0.199116
2346.000000	0.198609
2347.000000	0.197903
2348.000000	0.197439
2349.000000	0.195402
2350.000000	0.193209
2351.000000	0.190451
2352.000000	0.187652
2353.000000	0.186659
2354.000000	0.186117
2355.000000	0.186378
2356.000000	0.186231
2357.000000	0.185228
2358.000000	0.185003
2359.000000	0.184285
2360.000000	0.183775
2361.000000	0.183235
2362.000000	0.181376
2363.000000	0.179171
2364.000000	0.176632
2365.000000	0.174775
2366.000000	0.173254
2367.000000	0.171992
2368.000000	0.171506
2369.000000	0.169904
2370.000000	0.168765
2371.000000	0.169317
2372.000000	0.169333
2373.000000	0.169429
2374.000000	0.170313
2375.000000	0.169914
2376.000000	0.168698
2377.000000	0.168042
2378.000000	0.167801
2379.000000	0.167510
2380.000000	0.164843
2381.000000	0.163218
2382.000000	0.161893
2383.000000	0.159301
2384.000000	0.160668
2385.000000	0.161132
2386.000000	0.160632
2387.000000	0.161328
2388.000000	0.159749
2389.000000	0.157963
2390.000000	0.156481
2391.000000	0.153697
2392.000000	0.151040
2393.000000	0.151403
2394.000000	0.152034
2395.000000	0.152863
2396.000000	0.155345
2397.000000	0.155167
2398.000000	0.154279
2399.000000	0.153992
2400.000000	0.150687
2401.000000	0.149497
2402.000000	0.150665
2403.000000	0.150522
2404.000000	0.153384
2405.000000	0.154714
2406.000000	0.152780
2407.000000	0.152381
2408.000000	0.151171
2409.000000	0.148674
2410.000000	0.146331
2411.000000	0.144684
2412.000000	0.142217
2413.000000	0.141636
2414.000000	0.143042
2415.000000	0.142175
2416.000000	0.144938
2417.000000	0.147944
2418.000000	0.148229
2419.000000	0.150546
2420.000000	0.150823
2421.000000	0.149053
2422.000000	0.149506
2423.000000	0.150563
2424.000000	0.150115
2425.000000	0.150208
2426.000000	0.146782
2427.000000	0.141887
2428.000000	0.138655
2429.000000	0.133068
2430.000000	0.131080
2431.000000	0.131522
2432.000000	0.130236
2433.000000	0.132571
2434.000000	0.135068
2435.000000	0.136507
2436.000000	0.139922
2437.000000	0.141740
2438.000000	0.142162
2439.000000	0.140884
2440.000000	0.138267
2441.000000	0.136269
2442.000000	0.134877
2443.000000	0.134806
2444.000000	0.132699
2445.000000	0.130806
2446.000000	0.128718
2447.000000	0.125520
2448.000000	0.128576
2449.000000	0.128973
2450.000000	0.127543
2451.000000	0.131432
2452.000000	0.129222
2453.000000	0.129252
2454.000000	0.132786
2455.000000	0.128038
2456.000000	0.118354
2457.000000	0.110928
2458.000000	0.108538
2459.000000	0.113112
2460.000000	0.128901
2461.000000	0.137338
2462.000000	0.137020
2463.000000	0.132631
2464.000000	0.119358
2465.000000	0.113468
2466.000000	0.111007
2467.000000	0.110259
2468.000000	0.114960
2469.000000	0.119226
2470.000000	0.124039
2471.000000	0.127405
2472.000000	0.128816
2473.000000	0.131825
2474.000000	0.139021
2475.000000	0.142421
2476.000000	0.142802
2477.000000	0.138960
2478.000000	0.128600
2479.000000	0.124838
2480.000000	0.128762
2481.000000	0.139498
2482.000000	0.142011
2483.000000	0.137626
2484.000000	0.130625
2485.000000	0.112515
2486.000000	0.105677
2487.000000	0.106285
2488.000000	0.101596
2489.000000	0.112305
2490.000000	0.117789
2491.000000	0.102768
2492.000000	0.100384
2493.000000	0.096793
2494.000000	0.095239
2495.000000	0.111045
2496.000000	0.108944
2497.000000	0.082015
2498.000000	0.074979
2499.000000	0.075315
2500.000000	0.080335
