# Wavelength	Hexa50_00002.asd.rts.txt
350.000000	0.220094
351.000000	0.217053
352.000000	0.214913
353.000000	0.210899
354.000000	0.207939
355.000000	0.215926
356.000000	0.219145
357.000000	0.217670
358.000000	0.217955
359.000000	0.219599
360.000000	0.221863
361.000000	0.223407
362.000000	0.223424
363.000000	0.223392
364.000000	0.223788
365.000000	0.224436
366.000000	0.225453
367.000000	0.226236
368.000000	0.226140
369.000000	0.226621
370.000000	0.227487
371.000000	0.227973
372.000000	0.226929
373.000000	0.226330
374.000000	0.227697
375.000000	0.229098
376.000000	0.229003
377.000000	0.227844
378.000000	0.228270
379.000000	0.228621
380.000000	0.229315
381.000000	0.231690
382.000000	0.231278
383.000000	0.230548
384.000000	0.231518
385.000000	0.231758
386.000000	0.232623
387.000000	0.234157
388.000000	0.234569
389.000000	0.235343
390.000000	0.236152
391.000000	0.235916
392.000000	0.235822
393.000000	0.236158
394.000000	0.236939
395.000000	0.237957
396.000000	0.238814
397.000000	0.239100
398.000000	0.238175
399.000000	0.238536
400.000000	0.239795
401.000000	0.240224
402.000000	0.240779
403.000000	0.241092
404.000000	0.241040
405.000000	0.241555
406.000000	0.242370
407.000000	0.243187
408.000000	0.243544
409.000000	0.243714
410.000000	0.243849
411.000000	0.244011
412.000000	0.244219
413.000000	0.244581
414.000000	0.245166
415.000000	0.245631
416.000000	0.245924
417.000000	0.246153
418.000000	0.246740
419.000000	0.247258
420.000000	0.247571
421.000000	0.247734
422.000000	0.248170
423.000000	0.248640
424.000000	0.248840
425.000000	0.249243
426.000000	0.249670
427.000000	0.249911
428.000000	0.249926
429.000000	0.250164
430.000000	0.250695
431.000000	0.251099
432.000000	0.251353
433.000000	0.251453
434.000000	0.251553
435.000000	0.251838
436.000000	0.252142
437.000000	0.252266
438.000000	0.252318
439.000000	0.252445
440.000000	0.252784
441.000000	0.253128
442.000000	0.253428
443.000000	0.253580
444.000000	0.253617
445.000000	0.253785
446.000000	0.254178
447.000000	0.254597
448.000000	0.254782
449.000000	0.255011
450.000000	0.255426
451.000000	0.255565
452.000000	0.255799
453.000000	0.256134
454.000000	0.256407
455.000000	0.256715
456.000000	0.257069
457.000000	0.257269
458.000000	0.257553
459.000000	0.257922
460.000000	0.258340
461.000000	0.258544
462.000000	0.258810
463.000000	0.259083
464.000000	0.259228
465.000000	0.259431
466.000000	0.259643
467.000000	0.259800
468.000000	0.260011
469.000000	0.260197
470.000000	0.260420
471.000000	0.260678
472.000000	0.260923
473.000000	0.261150
474.000000	0.261362
475.000000	0.261535
476.000000	0.261796
477.000000	0.262076
478.000000	0.262199
479.000000	0.262403
480.000000	0.262707
481.000000	0.262940
482.000000	0.263191
483.000000	0.263360
484.000000	0.263664
485.000000	0.263894
486.000000	0.264126
487.000000	0.264329
488.000000	0.264579
489.000000	0.264889
490.000000	0.265206
491.000000	0.265474
492.000000	0.265782
493.000000	0.266091
494.000000	0.266334
495.000000	0.266599
496.000000	0.266901
497.000000	0.267197
498.000000	0.267480
499.000000	0.267802
500.000000	0.268073
501.000000	0.268299
502.000000	0.268555
503.000000	0.268854
504.000000	0.269090
505.000000	0.269307
506.000000	0.269567
507.000000	0.269823
508.000000	0.270137
509.000000	0.270495
510.000000	0.270883
511.000000	0.271194
512.000000	0.271466
513.000000	0.271792
514.000000	0.272140
515.000000	0.272499
516.000000	0.272797
517.000000	0.273161
518.000000	0.273554
519.000000	0.273846
520.000000	0.274105
521.000000	0.274368
522.000000	0.274669
523.000000	0.275029
524.000000	0.275384
525.000000	0.275709
526.000000	0.276051
527.000000	0.276310
528.000000	0.276542
529.000000	0.276867
530.000000	0.277143
531.000000	0.277456
532.000000	0.277761
533.000000	0.278017
534.000000	0.278302
535.000000	0.278620
536.000000	0.278948
537.000000	0.279266
538.000000	0.279556
539.000000	0.279795
540.000000	0.280053
541.000000	0.280325
542.000000	0.280624
543.000000	0.280903
544.000000	0.281191
545.000000	0.281459
546.000000	0.281829
547.000000	0.282179
548.000000	0.282517
549.000000	0.282835
550.000000	0.283151
551.000000	0.283480
552.000000	0.283789
553.000000	0.284129
554.000000	0.284477
555.000000	0.284819
556.000000	0.285175
557.000000	0.285519
558.000000	0.285926
559.000000	0.286203
560.000000	0.286488
561.000000	0.286852
562.000000	0.287175
563.000000	0.287458
564.000000	0.287790
565.000000	0.288135
566.000000	0.288473
567.000000	0.288828
568.000000	0.289183
569.000000	0.289511
570.000000	0.289837
571.000000	0.290170
572.000000	0.290528
573.000000	0.290867
574.000000	0.291181
575.000000	0.291540
576.000000	0.291912
577.000000	0.292241
578.000000	0.292560
579.000000	0.292906
580.000000	0.293245
581.000000	0.293554
582.000000	0.293838
583.000000	0.294151
584.000000	0.294490
585.000000	0.294822
586.000000	0.295164
587.000000	0.295513
588.000000	0.295866
589.000000	0.296241
590.000000	0.296593
591.000000	0.296896
592.000000	0.297177
593.000000	0.297458
594.000000	0.297732
595.000000	0.297974
596.000000	0.298200
597.000000	0.298434
598.000000	0.298603
599.000000	0.298770
600.000000	0.298998
601.000000	0.299234
602.000000	0.299429
603.000000	0.299602
604.000000	0.299778
605.000000	0.299955
606.000000	0.300122
607.000000	0.300283
608.000000	0.300446
609.000000	0.300616
610.000000	0.300815
611.000000	0.301056
612.000000	0.301320
613.000000	0.301536
614.000000	0.301701
615.000000	0.301823
616.000000	0.301902
617.000000	0.301945
618.000000	0.302077
619.000000	0.302212
620.000000	0.302335
621.000000	0.302520
622.000000	0.302719
623.000000	0.302931
624.000000	0.303157
625.000000	0.303391
626.000000	0.303637
627.000000	0.303905
628.000000	0.304224
629.000000	0.304572
630.000000	0.304824
631.000000	0.305104
632.000000	0.305415
633.000000	0.305713
634.000000	0.305942
635.000000	0.306138
636.000000	0.306308
637.000000	0.306439
638.000000	0.306556
639.000000	0.306645
640.000000	0.306763
641.000000	0.306864
642.000000	0.306998
643.000000	0.307156
644.000000	0.307310
645.000000	0.307442
646.000000	0.307570
647.000000	0.307691
648.000000	0.307860
649.000000	0.308044
650.000000	0.308208
651.000000	0.308380
652.000000	0.308510
653.000000	0.308660
654.000000	0.308846
655.000000	0.309034
656.000000	0.309246
657.000000	0.309448
658.000000	0.309690
659.000000	0.309935
660.000000	0.310148
661.000000	0.310355
662.000000	0.310519
663.000000	0.310698
664.000000	0.310895
665.000000	0.311051
666.000000	0.311193
667.000000	0.311330
668.000000	0.311480
669.000000	0.311640
670.000000	0.311805
671.000000	0.311936
672.000000	0.312105
673.000000	0.312310
674.000000	0.312509
675.000000	0.312674
676.000000	0.312844
677.000000	0.313081
678.000000	0.313282
679.000000	0.313447
680.000000	0.313595
681.000000	0.313710
682.000000	0.313865
683.000000	0.314006
684.000000	0.314197
685.000000	0.314376
686.000000	0.314550
687.000000	0.314700
688.000000	0.314892
689.000000	0.315071
690.000000	0.315229
691.000000	0.315402
692.000000	0.315566
693.000000	0.315764
694.000000	0.315921
695.000000	0.316125
696.000000	0.316338
697.000000	0.316485
698.000000	0.316672
699.000000	0.316881
700.000000	0.317091
701.000000	0.317309
702.000000	0.317531
703.000000	0.317726
704.000000	0.317874
705.000000	0.318065
706.000000	0.318247
707.000000	0.318414
708.000000	0.318578
709.000000	0.318735
710.000000	0.318904
711.000000	0.319104
712.000000	0.319276
713.000000	0.319425
714.000000	0.319585
715.000000	0.319720
716.000000	0.319837
717.000000	0.319941
718.000000	0.320117
719.000000	0.320313
720.000000	0.320489
721.000000	0.320656
722.000000	0.320820
723.000000	0.321031
724.000000	0.321192
725.000000	0.321281
726.000000	0.321403
727.000000	0.321536
728.000000	0.321629
729.000000	0.321740
730.000000	0.321859
731.000000	0.321986
732.000000	0.322104
733.000000	0.322238
734.000000	0.322340
735.000000	0.322392
736.000000	0.322526
737.000000	0.322654
738.000000	0.322745
739.000000	0.322879
740.000000	0.322943
741.000000	0.323042
742.000000	0.323168
743.000000	0.323275
744.000000	0.323363
745.000000	0.323419
746.000000	0.323484
747.000000	0.323523
748.000000	0.323660
749.000000	0.323824
750.000000	0.323927
751.000000	0.324054
752.000000	0.324171
753.000000	0.324280
754.000000	0.324385
755.000000	0.324487
756.000000	0.324616
757.000000	0.324750
758.000000	0.324868
759.000000	0.324995
760.000000	0.325079
761.000000	0.325215
762.000000	0.325343
763.000000	0.325422
764.000000	0.325503
765.000000	0.325559
766.000000	0.325611
767.000000	0.325668
768.000000	0.325677
769.000000	0.325714
770.000000	0.325802
771.000000	0.325875
772.000000	0.325995
773.000000	0.326079
774.000000	0.326138
775.000000	0.326193
776.000000	0.326281
777.000000	0.326396
778.000000	0.326481
779.000000	0.326543
780.000000	0.326583
781.000000	0.326580
782.000000	0.326576
783.000000	0.326661
784.000000	0.326722
785.000000	0.326786
786.000000	0.326807
787.000000	0.326774
788.000000	0.326763
789.000000	0.326775
790.000000	0.326805
791.000000	0.326889
792.000000	0.326945
793.000000	0.327007
794.000000	0.327108
795.000000	0.327188
796.000000	0.327248
797.000000	0.327293
798.000000	0.327337
799.000000	0.327362
800.000000	0.327369
801.000000	0.327368
802.000000	0.327339
803.000000	0.327357
804.000000	0.327467
805.000000	0.327520
806.000000	0.327516
807.000000	0.327538
808.000000	0.327549
809.000000	0.327574
810.000000	0.327616
811.000000	0.327658
812.000000	0.327722
813.000000	0.327788
814.000000	0.327831
815.000000	0.327843
816.000000	0.327783
817.000000	0.327710
818.000000	0.327608
819.000000	0.327564
820.000000	0.327568
821.000000	0.327575
822.000000	0.327670
823.000000	0.327730
824.000000	0.327690
825.000000	0.327652
826.000000	0.327628
827.000000	0.327587
828.000000	0.327544
829.000000	0.327435
830.000000	0.327328
831.000000	0.327311
832.000000	0.327298
833.000000	0.327305
834.000000	0.327320
835.000000	0.327358
836.000000	0.327353
837.000000	0.327375
838.000000	0.327433
839.000000	0.327439
840.000000	0.327368
841.000000	0.327301
842.000000	0.327259
843.000000	0.327154
844.000000	0.327073
845.000000	0.327005
846.000000	0.326911
847.000000	0.326890
848.000000	0.326864
849.000000	0.326786
850.000000	0.326767
851.000000	0.326703
852.000000	0.326613
853.000000	0.326586
854.000000	0.326502
855.000000	0.326468
856.000000	0.326434
857.000000	0.326309
858.000000	0.326233
859.000000	0.326193
860.000000	0.326170
861.000000	0.326146
862.000000	0.326105
863.000000	0.325962
864.000000	0.325826
865.000000	0.325688
866.000000	0.325577
867.000000	0.325532
868.000000	0.325473
869.000000	0.325347
870.000000	0.325243
871.000000	0.325139
872.000000	0.325002
873.000000	0.324786
874.000000	0.324669
875.000000	0.324518
876.000000	0.324352
877.000000	0.324174
878.000000	0.323956
879.000000	0.323802
880.000000	0.323619
881.000000	0.323448
882.000000	0.323316
883.000000	0.323241
884.000000	0.323157
885.000000	0.323045
886.000000	0.322876
887.000000	0.322693
888.000000	0.322583
889.000000	0.322412
890.000000	0.322113
891.000000	0.321904
892.000000	0.321768
893.000000	0.321622
894.000000	0.321527
895.000000	0.321344
896.000000	0.321177
897.000000	0.321023
898.000000	0.320851
899.000000	0.320651
900.000000	0.320454
901.000000	0.320256
902.000000	0.320135
903.000000	0.319957
904.000000	0.319749
905.000000	0.319490
906.000000	0.319369
907.000000	0.319282
908.000000	0.319225
909.000000	0.319114
910.000000	0.318915
911.000000	0.318697
912.000000	0.318529
913.000000	0.318308
914.000000	0.318039
915.000000	0.317796
916.000000	0.317524
917.000000	0.317248
918.000000	0.317007
919.000000	0.316791
920.000000	0.316557
921.000000	0.316361
922.000000	0.316177
923.000000	0.315917
924.000000	0.315680
925.000000	0.315513
926.000000	0.315419
927.000000	0.315206
928.000000	0.315011
929.000000	0.314777
930.000000	0.314440
931.000000	0.314183
932.000000	0.313965
933.000000	0.313769
934.000000	0.313508
935.000000	0.313236
936.000000	0.312998
937.000000	0.312700
938.000000	0.312291
939.000000	0.312026
940.000000	0.311853
941.000000	0.311694
942.000000	0.311427
943.000000	0.311221
944.000000	0.311043
945.000000	0.310898
946.000000	0.310647
947.000000	0.310433
948.000000	0.310333
949.000000	0.310036
950.000000	0.309674
951.000000	0.309348
952.000000	0.309222
953.000000	0.309055
954.000000	0.308810
955.000000	0.308457
956.000000	0.308148
957.000000	0.307979
958.000000	0.307827
959.000000	0.307637
960.000000	0.307524
961.000000	0.307380
962.000000	0.307128
963.000000	0.306811
964.000000	0.306590
965.000000	0.306360
966.000000	0.305966
967.000000	0.305854
968.000000	0.305646
969.000000	0.305295
970.000000	0.305044
971.000000	0.304766
972.000000	0.304599
973.000000	0.304470
974.000000	0.304243
975.000000	0.304077
976.000000	0.303886
977.000000	0.303601
978.000000	0.303380
979.000000	0.303346
980.000000	0.303137
981.000000	0.302763
982.000000	0.302487
983.000000	0.302211
984.000000	0.302024
985.000000	0.302040
986.000000	0.301806
987.000000	0.301638
988.000000	0.301582
989.000000	0.301157
990.000000	0.300995
991.000000	0.300985
992.000000	0.300866
993.000000	0.300773
994.000000	0.300592
995.000000	0.300462
996.000000	0.300288
997.000000	0.300156
998.000000	0.299996
999.000000	0.299876
1000.000000	0.299830
1001.000000	0.300272
1002.000000	0.299909
1003.000000	0.299521
1004.000000	0.299414
1005.000000	0.299499
1006.000000	0.299352
1007.000000	0.299336
1008.000000	0.299351
1009.000000	0.299111
1010.000000	0.298771
1011.000000	0.298496
1012.000000	0.298260
1013.000000	0.298008
1014.000000	0.297893
1015.000000	0.297967
1016.000000	0.298198
1017.000000	0.298158
1018.000000	0.297989
1019.000000	0.297978
1020.000000	0.298217
1021.000000	0.297923
1022.000000	0.297604
1023.000000	0.297603
1024.000000	0.297354
1025.000000	0.297241
1026.000000	0.297415
1027.000000	0.297379
1028.000000	0.297431
1029.000000	0.297512
1030.000000	0.297232
1031.000000	0.297182
1032.000000	0.297224
1033.000000	0.297062
1034.000000	0.297091
1035.000000	0.297464
1036.000000	0.297574
1037.000000	0.297562
1038.000000	0.297552
1039.000000	0.297551
1040.000000	0.297710
1041.000000	0.297835
1042.000000	0.297871
1043.000000	0.297998
1044.000000	0.298078
1045.000000	0.298121
1046.000000	0.298180
1047.000000	0.298284
1048.000000	0.298409
1049.000000	0.298407
1050.000000	0.298285
1051.000000	0.298363
1052.000000	0.298416
1053.000000	0.298461
1054.000000	0.298860
1055.000000	0.299167
1056.000000	0.299509
1057.000000	0.299658
1058.000000	0.299778
1059.000000	0.299750
1060.000000	0.299705
1061.000000	0.299867
1062.000000	0.300061
1063.000000	0.300312
1064.000000	0.300539
1065.000000	0.300679
1066.000000	0.300868
1067.000000	0.301088
1068.000000	0.301234
1069.000000	0.301264
1070.000000	0.301397
1071.000000	0.301608
1072.000000	0.301803
1073.000000	0.302064
1074.000000	0.302434
1075.000000	0.302589
1076.000000	0.302685
1077.000000	0.302874
1078.000000	0.303012
1079.000000	0.303099
1080.000000	0.303183
1081.000000	0.303356
1082.000000	0.303587
1083.000000	0.303778
1084.000000	0.304166
1085.000000	0.304425
1086.000000	0.304471
1087.000000	0.304651
1088.000000	0.304785
1089.000000	0.304940
1090.000000	0.305073
1091.000000	0.305241
1092.000000	0.305557
1093.000000	0.305986
1094.000000	0.306198
1095.000000	0.306285
1096.000000	0.306556
1097.000000	0.306807
1098.000000	0.307028
1099.000000	0.307348
1100.000000	0.307609
1101.000000	0.307661
1102.000000	0.307782
1103.000000	0.307940
1104.000000	0.308144
1105.000000	0.308381
1106.000000	0.308534
1107.000000	0.308623
1108.000000	0.308730
1109.000000	0.308792
1110.000000	0.308877
1111.000000	0.309061
1112.000000	0.309372
1113.000000	0.309616
1114.000000	0.309939
1115.000000	0.310107
1116.000000	0.310201
1117.000000	0.310312
1118.000000	0.310345
1119.000000	0.310335
1120.000000	0.310274
1121.000000	0.310298
1122.000000	0.310381
1123.000000	0.310638
1124.000000	0.310840
1125.000000	0.311045
1126.000000	0.311244
1127.000000	0.311331
1128.000000	0.311361
1129.000000	0.311345
1130.000000	0.311452
1131.000000	0.311542
1132.000000	0.311642
1133.000000	0.311915
1134.000000	0.312080
1135.000000	0.312104
1136.000000	0.312186
1137.000000	0.312333
1138.000000	0.312344
1139.000000	0.312310
1140.000000	0.312429
1141.000000	0.312505
1142.000000	0.312601
1143.000000	0.312784
1144.000000	0.312975
1145.000000	0.312962
1146.000000	0.312873
1147.000000	0.312894
1148.000000	0.312821
1149.000000	0.312838
1150.000000	0.312962
1151.000000	0.313043
1152.000000	0.313075
1153.000000	0.313121
1154.000000	0.313125
1155.000000	0.313135
1156.000000	0.313124
1157.000000	0.313153
1158.000000	0.313187
1159.000000	0.313187
1160.000000	0.313170
1161.000000	0.313152
1162.000000	0.313148
1163.000000	0.313272
1164.000000	0.313321
1165.000000	0.313326
1166.000000	0.313311
1167.000000	0.313184
1168.000000	0.313116
1169.000000	0.313053
1170.000000	0.313063
1171.000000	0.313185
1172.000000	0.313264
1173.000000	0.313356
1174.000000	0.313375
1175.000000	0.313296
1176.000000	0.313240
1177.000000	0.313225
1178.000000	0.313216
1179.000000	0.313231
1180.000000	0.313179
1181.000000	0.313165
1182.000000	0.313160
1183.000000	0.313195
1184.000000	0.313269
1185.000000	0.313287
1186.000000	0.313303
1187.000000	0.313298
1188.000000	0.313261
1189.000000	0.313193
1190.000000	0.313168
1191.000000	0.313124
1192.000000	0.313112
1193.000000	0.313183
1194.000000	0.313208
1195.000000	0.313195
1196.000000	0.313104
1197.000000	0.313061
1198.000000	0.313018
1199.000000	0.312994
1200.000000	0.312998
1201.000000	0.313012
1202.000000	0.312988
1203.000000	0.312963
1204.000000	0.312902
1205.000000	0.312861
1206.000000	0.312819
1207.000000	0.312876
1208.000000	0.312837
1209.000000	0.312852
1210.000000	0.312828
1211.000000	0.312750
1212.000000	0.312681
1213.000000	0.312643
1214.000000	0.312617
1215.000000	0.312557
1216.000000	0.312520
1217.000000	0.312475
1218.000000	0.312445
1219.000000	0.312433
1220.000000	0.312482
1221.000000	0.312553
1222.000000	0.312590
1223.000000	0.312635
1224.000000	0.312652
1225.000000	0.312602
1226.000000	0.312622
1227.000000	0.312631
1228.000000	0.312650
1229.000000	0.312613
1230.000000	0.312540
1231.000000	0.312427
1232.000000	0.312386
1233.000000	0.312396
1234.000000	0.312394
1235.000000	0.312366
1236.000000	0.312227
1237.000000	0.312199
1238.000000	0.312176
1239.000000	0.312145
1240.000000	0.312166
1241.000000	0.312141
1242.000000	0.312104
1243.000000	0.312089
1244.000000	0.312099
1245.000000	0.312193
1246.000000	0.312241
1247.000000	0.312269
1248.000000	0.312321
1249.000000	0.312339
1250.000000	0.312294
1251.000000	0.312287
1252.000000	0.312230
1253.000000	0.312144
1254.000000	0.312079
1255.000000	0.311998
1256.000000	0.311937
1257.000000	0.311907
1258.000000	0.311911
1259.000000	0.311889
1260.000000	0.311897
1261.000000	0.311852
1262.000000	0.311837
1263.000000	0.311873
1264.000000	0.311861
1265.000000	0.311837
1266.000000	0.311825
1267.000000	0.311813
1268.000000	0.311788
1269.000000	0.311735
1270.000000	0.311783
1271.000000	0.311822
1272.000000	0.311835
1273.000000	0.311905
1274.000000	0.311953
1275.000000	0.311944
1276.000000	0.311923
1277.000000	0.311937
1278.000000	0.311832
1279.000000	0.311736
1280.000000	0.311543
1281.000000	0.311409
1282.000000	0.311346
1283.000000	0.311350
1284.000000	0.311357
1285.000000	0.311346
1286.000000	0.311309
1287.000000	0.311285
1288.000000	0.311305
1289.000000	0.311286
1290.000000	0.311234
1291.000000	0.311153
1292.000000	0.311076
1293.000000	0.311053
1294.000000	0.311024
1295.000000	0.311017
1296.000000	0.311003
1297.000000	0.310978
1298.000000	0.311018
1299.000000	0.311077
1300.000000	0.311142
1301.000000	0.311128
1302.000000	0.311061
1303.000000	0.311036
1304.000000	0.310977
1305.000000	0.310957
1306.000000	0.310941
1307.000000	0.310979
1308.000000	0.311009
1309.000000	0.311073
1310.000000	0.311065
1311.000000	0.311053
1312.000000	0.310954
1313.000000	0.310888
1314.000000	0.310839
1315.000000	0.310777
1316.000000	0.310799
1317.000000	0.310811
1318.000000	0.310780
1319.000000	0.310693
1320.000000	0.310626
1321.000000	0.310552
1322.000000	0.310419
1323.000000	0.310326
1324.000000	0.310307
1325.000000	0.310241
1326.000000	0.310108
1327.000000	0.309986
1328.000000	0.309934
1329.000000	0.309794
1330.000000	0.309618
1331.000000	0.309493
1332.000000	0.309423
1333.000000	0.309298
1334.000000	0.309221
1335.000000	0.309148
1336.000000	0.309026
1337.000000	0.308923
1338.000000	0.308786
1339.000000	0.308691
1340.000000	0.308550
1341.000000	0.308433
1342.000000	0.308281
1343.000000	0.308072
1344.000000	0.307920
1345.000000	0.307746
1346.000000	0.307628
1347.000000	0.307484
1348.000000	0.307342
1349.000000	0.307148
1350.000000	0.307039
1351.000000	0.306926
1352.000000	0.306771
1353.000000	0.306631
1354.000000	0.306526
1355.000000	0.306398
1356.000000	0.306313
1357.000000	0.306199
1358.000000	0.306056
1359.000000	0.305890
1360.000000	0.305749
1361.000000	0.305679
1362.000000	0.305562
1363.000000	0.305390
1364.000000	0.305285
1365.000000	0.305169
1366.000000	0.305052
1367.000000	0.304956
1368.000000	0.304851
1369.000000	0.304792
1370.000000	0.304656
1371.000000	0.304516
1372.000000	0.304380
1373.000000	0.304222
1374.000000	0.304083
1375.000000	0.303926
1376.000000	0.303877
1377.000000	0.303801
1378.000000	0.303671
1379.000000	0.303507
1380.000000	0.303312
1381.000000	0.303134
1382.000000	0.302977
1383.000000	0.302891
1384.000000	0.302723
1385.000000	0.302506
1386.000000	0.302353
1387.000000	0.302165
1388.000000	0.301955
1389.000000	0.301775
1390.000000	0.301590
1391.000000	0.301359
1392.000000	0.301146
1393.000000	0.300868
1394.000000	0.300579
1395.000000	0.300310
1396.000000	0.300010
1397.000000	0.299671
1398.000000	0.299323
1399.000000	0.298938
1400.000000	0.298477
1401.000000	0.298024
1402.000000	0.297614
1403.000000	0.297138
1404.000000	0.296699
1405.000000	0.296231
1406.000000	0.295734
1407.000000	0.295250
1408.000000	0.294684
1409.000000	0.294132
1410.000000	0.293605
1411.000000	0.293010
1412.000000	0.292368
1413.000000	0.291753
1414.000000	0.291127
1415.000000	0.290493
1416.000000	0.289862
1417.000000	0.289219
1418.000000	0.288533
1419.000000	0.287898
1420.000000	0.287254
1421.000000	0.286734
1422.000000	0.286208
1423.000000	0.285673
1424.000000	0.285060
1425.000000	0.284419
1426.000000	0.283784
1427.000000	0.283168
1428.000000	0.282597
1429.000000	0.282036
1430.000000	0.281439
1431.000000	0.280874
1432.000000	0.280289
1433.000000	0.279699
1434.000000	0.279137
1435.000000	0.278665
1436.000000	0.278168
1437.000000	0.277680
1438.000000	0.277161
1439.000000	0.276654
1440.000000	0.276180
1441.000000	0.275723
1442.000000	0.275318
1443.000000	0.274908
1444.000000	0.274495
1445.000000	0.274093
1446.000000	0.273710
1447.000000	0.273331
1448.000000	0.272983
1449.000000	0.272698
1450.000000	0.272422
1451.000000	0.272150
1452.000000	0.271851
1453.000000	0.271579
1454.000000	0.271279
1455.000000	0.271008
1456.000000	0.270878
1457.000000	0.270690
1458.000000	0.270514
1459.000000	0.270430
1460.000000	0.270312
1461.000000	0.270225
1462.000000	0.270147
1463.000000	0.269963
1464.000000	0.269808
1465.000000	0.269735
1466.000000	0.269623
1467.000000	0.269519
1468.000000	0.269450
1469.000000	0.269424
1470.000000	0.269384
1471.000000	0.269395
1472.000000	0.269380
1473.000000	0.269384
1474.000000	0.269369
1475.000000	0.269409
1476.000000	0.269516
1477.000000	0.269628
1478.000000	0.269763
1479.000000	0.269869
1480.000000	0.269967
1481.000000	0.270092
1482.000000	0.270261
1483.000000	0.270465
1484.000000	0.270739
1485.000000	0.270955
1486.000000	0.271125
1487.000000	0.271350
1488.000000	0.271601
1489.000000	0.271861
1490.000000	0.272062
1491.000000	0.272304
1492.000000	0.272506
1493.000000	0.272716
1494.000000	0.272917
1495.000000	0.273116
1496.000000	0.273300
1497.000000	0.273509
1498.000000	0.273767
1499.000000	0.273967
1500.000000	0.274149
1501.000000	0.274301
1502.000000	0.274437
1503.000000	0.274634
1504.000000	0.274832
1505.000000	0.275000
1506.000000	0.275159
1507.000000	0.275259
1508.000000	0.275410
1509.000000	0.275575
1510.000000	0.275682
1511.000000	0.275808
1512.000000	0.275903
1513.000000	0.276003
1514.000000	0.276142
1515.000000	0.276238
1516.000000	0.276341
1517.000000	0.276380
1518.000000	0.276395
1519.000000	0.276396
1520.000000	0.276419
1521.000000	0.276427
1522.000000	0.276456
1523.000000	0.276544
1524.000000	0.276564
1525.000000	0.276595
1526.000000	0.276641
1527.000000	0.276654
1528.000000	0.276738
1529.000000	0.276834
1530.000000	0.276849
1531.000000	0.276958
1532.000000	0.277055
1533.000000	0.277077
1534.000000	0.277153
1535.000000	0.277214
1536.000000	0.277191
1537.000000	0.277265
1538.000000	0.277334
1539.000000	0.277302
1540.000000	0.277335
1541.000000	0.277407
1542.000000	0.277455
1543.000000	0.277517
1544.000000	0.277529
1545.000000	0.277525
1546.000000	0.277536
1547.000000	0.277551
1548.000000	0.277592
1549.000000	0.277614
1550.000000	0.277554
1551.000000	0.277480
1552.000000	0.277452
1553.000000	0.277422
1554.000000	0.277415
1555.000000	0.277469
1556.000000	0.277521
1557.000000	0.277521
1558.000000	0.277541
1559.000000	0.277515
1560.000000	0.277505
1561.000000	0.277507
1562.000000	0.277515
1563.000000	0.277585
1564.000000	0.277614
1565.000000	0.277643
1566.000000	0.277598
1567.000000	0.277602
1568.000000	0.277562
1569.000000	0.277508
1570.000000	0.277475
1571.000000	0.277412
1572.000000	0.277365
1573.000000	0.277376
1574.000000	0.277346
1575.000000	0.277298
1576.000000	0.277291
1577.000000	0.277279
1578.000000	0.277230
1579.000000	0.277249
1580.000000	0.277218
1581.000000	0.277208
1582.000000	0.277166
1583.000000	0.277075
1584.000000	0.276998
1585.000000	0.276969
1586.000000	0.276957
1587.000000	0.276968
1588.000000	0.276972
1589.000000	0.276974
1590.000000	0.277009
1591.000000	0.277103
1592.000000	0.277160
1593.000000	0.277268
1594.000000	0.277302
1595.000000	0.277305
1596.000000	0.277330
1597.000000	0.277380
1598.000000	0.277390
1599.000000	0.277413
1600.000000	0.277393
1601.000000	0.277404
1602.000000	0.277378
1603.000000	0.277336
1604.000000	0.277316
1605.000000	0.277291
1606.000000	0.277278
1607.000000	0.277349
1608.000000	0.277373
1609.000000	0.277432
1610.000000	0.277437
1611.000000	0.277424
1612.000000	0.277427
1613.000000	0.277487
1614.000000	0.277527
1615.000000	0.277637
1616.000000	0.277722
1617.000000	0.277741
1618.000000	0.277779
1619.000000	0.277789
1620.000000	0.277838
1621.000000	0.277932
1622.000000	0.278076
1623.000000	0.278242
1624.000000	0.278370
1625.000000	0.278379
1626.000000	0.278415
1627.000000	0.278458
1628.000000	0.278547
1629.000000	0.278651
1630.000000	0.278775
1631.000000	0.278857
1632.000000	0.278940
1633.000000	0.279051
1634.000000	0.279173
1635.000000	0.279338
1636.000000	0.279472
1637.000000	0.279644
1638.000000	0.279742
1639.000000	0.279838
1640.000000	0.279911
1641.000000	0.279996
1642.000000	0.280084
1643.000000	0.280204
1644.000000	0.280290
1645.000000	0.280355
1646.000000	0.280389
1647.000000	0.280432
1648.000000	0.280438
1649.000000	0.280489
1650.000000	0.280561
1651.000000	0.280647
1652.000000	0.280763
1653.000000	0.280843
1654.000000	0.281011
1655.000000	0.281198
1656.000000	0.281276
1657.000000	0.281440
1658.000000	0.281545
1659.000000	0.281630
1660.000000	0.281790
1661.000000	0.281923
1662.000000	0.282064
1663.000000	0.282203
1664.000000	0.282324
1665.000000	0.282438
1666.000000	0.282615
1667.000000	0.282729
1668.000000	0.282871
1669.000000	0.283034
1670.000000	0.283120
1671.000000	0.283268
1672.000000	0.283418
1673.000000	0.283511
1674.000000	0.283646
1675.000000	0.283809
1676.000000	0.283906
1677.000000	0.283989
1678.000000	0.284041
1679.000000	0.284086
1680.000000	0.284120
1681.000000	0.284162
1682.000000	0.284251
1683.000000	0.284328
1684.000000	0.284410
1685.000000	0.284546
1686.000000	0.284617
1687.000000	0.284693
1688.000000	0.284713
1689.000000	0.284719
1690.000000	0.284695
1691.000000	0.284701
1692.000000	0.284688
1693.000000	0.284678
1694.000000	0.284710
1695.000000	0.284827
1696.000000	0.284928
1697.000000	0.284983
1698.000000	0.285024
1699.000000	0.285144
1700.000000	0.285345
1701.000000	0.285558
1702.000000	0.285658
1703.000000	0.285739
1704.000000	0.285865
1705.000000	0.285952
1706.000000	0.286055
1707.000000	0.286162
1708.000000	0.286210
1709.000000	0.286223
1710.000000	0.286350
1711.000000	0.286418
1712.000000	0.286437
1713.000000	0.286461
1714.000000	0.286474
1715.000000	0.286539
1716.000000	0.286649
1717.000000	0.286751
1718.000000	0.286877
1719.000000	0.286948
1720.000000	0.287047
1721.000000	0.287098
1722.000000	0.287094
1723.000000	0.287127
1724.000000	0.287163
1725.000000	0.287234
1726.000000	0.287284
1727.000000	0.287301
1728.000000	0.287246
1729.000000	0.287182
1730.000000	0.287168
1731.000000	0.287229
1732.000000	0.287379
1733.000000	0.287500
1734.000000	0.287515
1735.000000	0.287618
1736.000000	0.287699
1737.000000	0.287783
1738.000000	0.287948
1739.000000	0.288070
1740.000000	0.288130
1741.000000	0.288195
1742.000000	0.288295
1743.000000	0.288412
1744.000000	0.288487
1745.000000	0.288553
1746.000000	0.288646
1747.000000	0.288661
1748.000000	0.288643
1749.000000	0.288603
1750.000000	0.288566
1751.000000	0.288644
1752.000000	0.288763
1753.000000	0.288755
1754.000000	0.288822
1755.000000	0.288893
1756.000000	0.288950
1757.000000	0.289043
1758.000000	0.289160
1759.000000	0.289261
1760.000000	0.289355
1761.000000	0.289447
1762.000000	0.289522
1763.000000	0.289613
1764.000000	0.289651
1765.000000	0.289596
1766.000000	0.289637
1767.000000	0.289583
1768.000000	0.289584
1769.000000	0.289777
1770.000000	0.289928
1771.000000	0.290047
1772.000000	0.290135
1773.000000	0.290183
1774.000000	0.290210
1775.000000	0.290235
1776.000000	0.290270
1777.000000	0.290258
1778.000000	0.290270
1779.000000	0.290278
1780.000000	0.290314
1781.000000	0.290329
1782.000000	0.290371
1783.000000	0.290470
1784.000000	0.290583
1785.000000	0.290671
1786.000000	0.290750
1787.000000	0.290932
1788.000000	0.291129
1789.000000	0.291238
1790.000000	0.291347
1791.000000	0.291410
1792.000000	0.291479
1793.000000	0.291556
1794.000000	0.291659
1795.000000	0.291772
1796.000000	0.291908
1797.000000	0.291974
1798.000000	0.291992
1799.000000	0.292011
1800.000000	0.292002
1801.000000	0.292200
1802.000000	0.292094
1803.000000	0.291712
1804.000000	0.291699
1805.000000	0.291797
1806.000000	0.291915
1807.000000	0.292399
1808.000000	0.292569
1809.000000	0.292752
1810.000000	0.292488
1811.000000	0.292400
1812.000000	0.292186
1813.000000	0.292058
1814.000000	0.292020
1815.000000	0.291952
1816.000000	0.291804
1817.000000	0.291651
1818.000000	0.291561
1819.000000	0.291575
1820.000000	0.291440
1821.000000	0.291495
1822.000000	0.291635
1823.000000	0.291925
1824.000000	0.291857
1825.000000	0.291660
1826.000000	0.291588
1827.000000	0.291170
1828.000000	0.290833
1829.000000	0.291025
1830.000000	0.291373
1831.000000	0.291531
1832.000000	0.291768
1833.000000	0.291928
1834.000000	0.292103
1835.000000	0.292078
1836.000000	0.291973
1837.000000	0.291678
1838.000000	0.290926
1839.000000	0.290191
1840.000000	0.289627
1841.000000	0.289483
1842.000000	0.289378
1843.000000	0.289560
1844.000000	0.289651
1845.000000	0.289865
1846.000000	0.289860
1847.000000	0.289658
1848.000000	0.289470
1849.000000	0.289133
1850.000000	0.288647
1851.000000	0.288471
1852.000000	0.288449
1853.000000	0.288401
1854.000000	0.288482
1855.000000	0.288172
1856.000000	0.287582
1857.000000	0.286950
1858.000000	0.286258
1859.000000	0.285707
1860.000000	0.285417
1861.000000	0.285093
1862.000000	0.284588
1863.000000	0.284074
1864.000000	0.283474
1865.000000	0.282680
1866.000000	0.281967
1867.000000	0.281139
1868.000000	0.280570
1869.000000	0.279723
1870.000000	0.279037
1871.000000	0.278468
1872.000000	0.277773
1873.000000	0.277046
1874.000000	0.276345
1875.000000	0.275486
1876.000000	0.274346
1877.000000	0.272857
1878.000000	0.271582
1879.000000	0.270290
1880.000000	0.268983
1881.000000	0.267726
1882.000000	0.266064
1883.000000	0.264354
1884.000000	0.262888
1885.000000	0.261474
1886.000000	0.259738
1887.000000	0.257914
1888.000000	0.256064
1889.000000	0.254064
1890.000000	0.252141
1891.000000	0.250550
1892.000000	0.248859
1893.000000	0.247022
1894.000000	0.244878
1895.000000	0.242580
1896.000000	0.240214
1897.000000	0.237846
1898.000000	0.235176
1899.000000	0.232972
1900.000000	0.230902
1901.000000	0.228819
1902.000000	0.226748
1903.000000	0.224401
1904.000000	0.222046
1905.000000	0.219527
1906.000000	0.217075
1907.000000	0.214658
1908.000000	0.212374
1909.000000	0.210144
1910.000000	0.208140
1911.000000	0.206056
1912.000000	0.204040
1913.000000	0.202144
1914.000000	0.200154
1915.000000	0.198264
1916.000000	0.196741
1917.000000	0.195216
1918.000000	0.193913
1919.000000	0.192637
1920.000000	0.191359
1921.000000	0.190087
1922.000000	0.188955
1923.000000	0.188033
1924.000000	0.187212
1925.000000	0.186486
1926.000000	0.185872
1927.000000	0.185503
1928.000000	0.185123
1929.000000	0.184943
1930.000000	0.184801
1931.000000	0.184543
1932.000000	0.184247
1933.000000	0.183937
1934.000000	0.183695
1935.000000	0.183696
1936.000000	0.183535
1937.000000	0.183673
1938.000000	0.183790
1939.000000	0.183685
1940.000000	0.183439
1941.000000	0.183317
1942.000000	0.182918
1943.000000	0.182591
1944.000000	0.182412
1945.000000	0.182040
1946.000000	0.181558
1947.000000	0.181084
1948.000000	0.180607
1949.000000	0.180276
1950.000000	0.180138
1951.000000	0.179815
1952.000000	0.179498
1953.000000	0.179021
1954.000000	0.178603
1955.000000	0.178214
1956.000000	0.177922
1957.000000	0.177768
1958.000000	0.177481
1959.000000	0.177259
1960.000000	0.177056
1961.000000	0.176747
1962.000000	0.176445
1963.000000	0.176253
1964.000000	0.175864
1965.000000	0.175518
1966.000000	0.175280
1967.000000	0.174907
1968.000000	0.174902
1969.000000	0.175081
1970.000000	0.175147
1971.000000	0.175116
1972.000000	0.175088
1973.000000	0.175025
1974.000000	0.174785
1975.000000	0.174773
1976.000000	0.174938
1977.000000	0.175162
1978.000000	0.175360
1979.000000	0.175781
1980.000000	0.176225
1981.000000	0.176520
1982.000000	0.176791
1983.000000	0.176995
1984.000000	0.177166
1985.000000	0.177299
1986.000000	0.177493
1987.000000	0.177742
1988.000000	0.177999
1989.000000	0.178172
1990.000000	0.178369
1991.000000	0.178593
1992.000000	0.178873
1993.000000	0.179439
1994.000000	0.180157
1995.000000	0.180701
1996.000000	0.181307
1997.000000	0.181962
1998.000000	0.182616
1999.000000	0.183322
2000.000000	0.184205
2001.000000	0.184976
2002.000000	0.185567
2003.000000	0.185959
2004.000000	0.186413
2005.000000	0.186814
2006.000000	0.187211
2007.000000	0.187774
2008.000000	0.188413
2009.000000	0.189061
2010.000000	0.189874
2011.000000	0.190807
2012.000000	0.191645
2013.000000	0.192584
2014.000000	0.193291
2015.000000	0.193689
2016.000000	0.194293
2017.000000	0.194877
2018.000000	0.195380
2019.000000	0.196118
2020.000000	0.196968
2021.000000	0.197722
2022.000000	0.198387
2023.000000	0.199082
2024.000000	0.199810
2025.000000	0.200549
2026.000000	0.201197
2027.000000	0.201808
2028.000000	0.202592
2029.000000	0.203331
2030.000000	0.203896
2031.000000	0.204759
2032.000000	0.205468
2033.000000	0.206037
2034.000000	0.206615
2035.000000	0.207222
2036.000000	0.207722
2037.000000	0.208231
2038.000000	0.208847
2039.000000	0.209534
2040.000000	0.210276
2041.000000	0.211088
2042.000000	0.211662
2043.000000	0.212255
2044.000000	0.212751
2045.000000	0.213024
2046.000000	0.213480
2047.000000	0.213987
2048.000000	0.214437
2049.000000	0.215084
2050.000000	0.215667
2051.000000	0.216216
2052.000000	0.216727
2053.000000	0.217188
2054.000000	0.217825
2055.000000	0.218462
2056.000000	0.219007
2057.000000	0.219557
2058.000000	0.219893
2059.000000	0.220293
2060.000000	0.220685
2061.000000	0.221001
2062.000000	0.221340
2063.000000	0.221758
2064.000000	0.222061
2065.000000	0.222536
2066.000000	0.222891
2067.000000	0.223340
2068.000000	0.223864
2069.000000	0.224393
2070.000000	0.224905
2071.000000	0.225480
2072.000000	0.226110
2073.000000	0.226599
2074.000000	0.227058
2075.000000	0.227534
2076.000000	0.227914
2077.000000	0.228371
2078.000000	0.228943
2079.000000	0.229371
2080.000000	0.229781
2081.000000	0.230204
2082.000000	0.230650
2083.000000	0.230924
2084.000000	0.231178
2085.000000	0.231514
2086.000000	0.231939
2087.000000	0.232563
2088.000000	0.233101
2089.000000	0.233653
2090.000000	0.234224
2091.000000	0.234832
2092.000000	0.235244
2093.000000	0.235684
2094.000000	0.236041
2095.000000	0.236009
2096.000000	0.236362
2097.000000	0.236906
2098.000000	0.237356
2099.000000	0.237826
2100.000000	0.238581
2101.000000	0.239188
2102.000000	0.239713
2103.000000	0.240159
2104.000000	0.240349
2105.000000	0.240670
2106.000000	0.240834
2107.000000	0.241159
2108.000000	0.241595
2109.000000	0.242110
2110.000000	0.242471
2111.000000	0.242995
2112.000000	0.243810
2113.000000	0.244105
2114.000000	0.244433
2115.000000	0.244770
2116.000000	0.244776
2117.000000	0.244904
2118.000000	0.245206
2119.000000	0.245370
2120.000000	0.245613
2121.000000	0.245939
2122.000000	0.246253
2123.000000	0.246470
2124.000000	0.246840
2125.000000	0.247515
2126.000000	0.247810
2127.000000	0.248005
2128.000000	0.248294
2129.000000	0.248416
2130.000000	0.248346
2131.000000	0.248437
2132.000000	0.248410
2133.000000	0.248311
2134.000000	0.248552
2135.000000	0.248765
2136.000000	0.248935
2137.000000	0.249118
2138.000000	0.249322
2139.000000	0.249481
2140.000000	0.249661
2141.000000	0.249710
2142.000000	0.249595
2143.000000	0.249455
2144.000000	0.249300
2145.000000	0.249457
2146.000000	0.249838
2147.000000	0.250565
2148.000000	0.251020
2149.000000	0.251273
2150.000000	0.251456
2151.000000	0.251135
2152.000000	0.251054
2153.000000	0.251046
2154.000000	0.250999
2155.000000	0.251061
2156.000000	0.250953
2157.000000	0.250752
2158.000000	0.250700
2159.000000	0.250578
2160.000000	0.250718
2161.000000	0.251161
2162.000000	0.251415
2163.000000	0.251697
2164.000000	0.251755
2165.000000	0.251612
2166.000000	0.251447
2167.000000	0.251160
2168.000000	0.250889
2169.000000	0.250946
2170.000000	0.250914
2171.000000	0.250768
2172.000000	0.250683
2173.000000	0.250601
2174.000000	0.250283
2175.000000	0.250108
2176.000000	0.250041
2177.000000	0.250059
2178.000000	0.250055
2179.000000	0.250394
2180.000000	0.251294
2181.000000	0.251846
2182.000000	0.251922
2183.000000	0.251880
2184.000000	0.251992
2185.000000	0.251455
2186.000000	0.250995
2187.000000	0.251321
2188.000000	0.251088
2189.000000	0.250810
2190.000000	0.251013
2191.000000	0.250889
2192.000000	0.250589
2193.000000	0.249961
2194.000000	0.249699
2195.000000	0.249394
2196.000000	0.249299
2197.000000	0.249457
2198.000000	0.249771
2199.000000	0.250407
2200.000000	0.250903
2201.000000	0.252012
2202.000000	0.252398
2203.000000	0.252064
2204.000000	0.251534
2205.000000	0.250475
2206.000000	0.249714
2207.000000	0.249406
2208.000000	0.249444
2209.000000	0.250026
2210.000000	0.250507
2211.000000	0.251336
2212.000000	0.253265
2213.000000	0.253880
2214.000000	0.254213
2215.000000	0.254173
2216.000000	0.253012
2217.000000	0.252360
2218.000000	0.251795
2219.000000	0.251587
2220.000000	0.251104
2221.000000	0.251340
2222.000000	0.252496
2223.000000	0.252937
2224.000000	0.253125
2225.000000	0.254304
2226.000000	0.253808
2227.000000	0.253715
2228.000000	0.254374
2229.000000	0.253912
2230.000000	0.254032
2231.000000	0.253681
2232.000000	0.253342
2233.000000	0.253560
2234.000000	0.253563
2235.000000	0.254350
2236.000000	0.254434
2237.000000	0.254280
2238.000000	0.253764
2239.000000	0.252155
2240.000000	0.252154
2241.000000	0.252710
2242.000000	0.253177
2243.000000	0.255069
2244.000000	0.255812
2245.000000	0.255606
2246.000000	0.255764
2247.000000	0.255617
2248.000000	0.255749
2249.000000	0.256431
2250.000000	0.256284
2251.000000	0.256093
2252.000000	0.255353
2253.000000	0.254369
2254.000000	0.254474
2255.000000	0.255899
2256.000000	0.257386
2257.000000	0.257591
2258.000000	0.257919
2259.000000	0.256784
2260.000000	0.255621
2261.000000	0.254797
2262.000000	0.253737
2263.000000	0.253649
2264.000000	0.254383
2265.000000	0.254571
2266.000000	0.255782
2267.000000	0.255864
2268.000000	0.254697
2269.000000	0.254346
2270.000000	0.254007
2271.000000	0.253680
2272.000000	0.253833
2273.000000	0.253411
2274.000000	0.252118
2275.000000	0.251640
2276.000000	0.251389
2277.000000	0.251262
2278.000000	0.251102
2279.000000	0.251574
2280.000000	0.251540
2281.000000	0.250985
2282.000000	0.250627
2283.000000	0.250479
2284.000000	0.250190
2285.000000	0.249405
2286.000000	0.249082
2287.000000	0.249136
2288.000000	0.249107
2289.000000	0.249594
2290.000000	0.249864
2291.000000	0.249647
2292.000000	0.249567
2293.000000	0.249023
2294.000000	0.248368
2295.000000	0.247330
2296.000000	0.246442
2297.000000	0.245332
2298.000000	0.244699
2299.000000	0.244529
2300.000000	0.243903
2301.000000	0.243479
2302.000000	0.242544
2303.000000	0.240350
2304.000000	0.239566
2305.000000	0.238984
2306.000000	0.238979
2307.000000	0.240028
2308.000000	0.241247
2309.000000	0.241468
2310.000000	0.241437
2311.000000	0.240830
2312.000000	0.240124
2313.000000	0.239892
2314.000000	0.239024
2315.000000	0.237603
2316.000000	0.236788
2317.000000	0.235346
2318.000000	0.234716
2319.000000	0.235069
2320.000000	0.234063
2321.000000	0.233775
2322.000000	0.233123
2323.000000	0.231873
2324.000000	0.232247
2325.000000	0.232008
2326.000000	0.231284
2327.000000	0.230689
2328.000000	0.229011
2329.000000	0.227912
2330.000000	0.227125
2331.000000	0.226454
2332.000000	0.226333
2333.000000	0.225377
2334.000000	0.224768
2335.000000	0.224720
2336.000000	0.224575
2337.000000	0.224356
2338.000000	0.224887
2339.000000	0.224199
2340.000000	0.222718
2341.000000	0.221760
2342.000000	0.220095
2343.000000	0.219358
2344.000000	0.219309
2345.000000	0.218810
2346.000000	0.219080
2347.000000	0.218640
2348.000000	0.217715
2349.000000	0.216577
2350.000000	0.215951
2351.000000	0.214818
2352.000000	0.213795
2353.000000	0.213934
2354.000000	0.212814
2355.000000	0.211430
2356.000000	0.211167
2357.000000	0.210346
2358.000000	0.209867
2359.000000	0.210070
2360.000000	0.210091
2361.000000	0.210506
2362.000000	0.209751
2363.000000	0.208612
2364.000000	0.207119
2365.000000	0.204595
2366.000000	0.202611
2367.000000	0.201058
2368.000000	0.200692
2369.000000	0.201505
2370.000000	0.202065
2371.000000	0.203222
2372.000000	0.203536
2373.000000	0.202337
2374.000000	0.201430
2375.000000	0.200662
2376.000000	0.200086
2377.000000	0.198575
2378.000000	0.196776
2379.000000	0.194702
2380.000000	0.192158
2381.000000	0.192172
2382.000000	0.191787
2383.000000	0.191688
2384.000000	0.193541
2385.000000	0.192324
2386.000000	0.191913
2387.000000	0.192692
2388.000000	0.191589
2389.000000	0.191128
2390.000000	0.189276
2391.000000	0.187028
2392.000000	0.184235
2393.000000	0.182042
2394.000000	0.182980
2395.000000	0.183672
2396.000000	0.184646
2397.000000	0.186356
2398.000000	0.186827
2399.000000	0.186265
2400.000000	0.183790
2401.000000	0.179432
2402.000000	0.177748
2403.000000	0.177760
2404.000000	0.178839
2405.000000	0.181051
2406.000000	0.180579
2407.000000	0.178015
2408.000000	0.174919
2409.000000	0.175417
2410.000000	0.176975
2411.000000	0.177826
2412.000000	0.179154
2413.000000	0.176344
2414.000000	0.173142
2415.000000	0.173989
2416.000000	0.177793
2417.000000	0.179971
2418.000000	0.180383
2419.000000	0.179658
2420.000000	0.176680
2421.000000	0.177209
2422.000000	0.178143
2423.000000	0.177159
2424.000000	0.176488
2425.000000	0.173978
2426.000000	0.174939
2427.000000	0.178063
2428.000000	0.177707
2429.000000	0.180853
2430.000000	0.184580
2431.000000	0.185029
2432.000000	0.187199
2433.000000	0.185744
2434.000000	0.181867
2435.000000	0.180007
2436.000000	0.179332
2437.000000	0.181411
2438.000000	0.182278
2439.000000	0.180080
2440.000000	0.178859
2441.000000	0.176431
2442.000000	0.174967
2443.000000	0.176954
2444.000000	0.174121
2445.000000	0.175846
2446.000000	0.180098
2447.000000	0.174387
2448.000000	0.173129
2449.000000	0.168830
2450.000000	0.161028
2451.000000	0.165452
2452.000000	0.168450
2453.000000	0.170748
2454.000000	0.172831
2455.000000	0.165189
2456.000000	0.161102
2457.000000	0.160648
2458.000000	0.160317
2459.000000	0.163727
2460.000000	0.165932
2461.000000	0.162142
2462.000000	0.151319
2463.000000	0.148491
2464.000000	0.145213
2465.000000	0.138465
2466.000000	0.148983
2467.000000	0.152864
2468.000000	0.150101
2469.000000	0.157045
2470.000000	0.155028
2471.000000	0.155162
2472.000000	0.163419
2473.000000	0.166313
2474.000000	0.167740
2475.000000	0.166228
2476.000000	0.158290
2477.000000	0.151999
2478.000000	0.152577
2479.000000	0.151815
2480.000000	0.151188
2481.000000	0.157875
2482.000000	0.159654
2483.000000	0.157252
2484.000000	0.151869
2485.000000	0.138839
2486.000000	0.127749
2487.000000	0.127400
2488.000000	0.144959
2489.000000	0.156224
2490.000000	0.154124
2491.000000	0.149494
2492.000000	0.143933
2493.000000	0.150333
2494.000000	0.157897
2495.000000	0.163262
2496.000000	0.160463
2497.000000	0.150981
2498.000000	0.144488
2499.000000	0.138969
2500.000000	0.133526
