# Wavelength	Hexa50_00001.asd.rts.txt
350.000000	0.209261
351.000000	0.207587
352.000000	0.209202
353.000000	0.207869
354.000000	0.205282
355.000000	0.210847
356.000000	0.217492
357.000000	0.220977
358.000000	0.214116
359.000000	0.213718
360.000000	0.217749
361.000000	0.219633
362.000000	0.218883
363.000000	0.219406
364.000000	0.222196
365.000000	0.222658
366.000000	0.224565
367.000000	0.226518
368.000000	0.223071
369.000000	0.223263
370.000000	0.226042
371.000000	0.227423
372.000000	0.226384
373.000000	0.226108
374.000000	0.228359
375.000000	0.228500
376.000000	0.226669
377.000000	0.224606
378.000000	0.226136
379.000000	0.227379
380.000000	0.228119
381.000000	0.229753
382.000000	0.228678
383.000000	0.227756
384.000000	0.229068
385.000000	0.229797
386.000000	0.230813
387.000000	0.232116
388.000000	0.232302
389.000000	0.232944
390.000000	0.233972
391.000000	0.234522
392.000000	0.235197
393.000000	0.235408
394.000000	0.234979
395.000000	0.235476
396.000000	0.236588
397.000000	0.237659
398.000000	0.237537
399.000000	0.237977
400.000000	0.238745
401.000000	0.238718
402.000000	0.239354
403.000000	0.239915
404.000000	0.239875
405.000000	0.240363
406.000000	0.241017
407.000000	0.241639
408.000000	0.242268
409.000000	0.242680
410.000000	0.242897
411.000000	0.243048
412.000000	0.243037
413.000000	0.243209
414.000000	0.243858
415.000000	0.244369
416.000000	0.244792
417.000000	0.245205
418.000000	0.245608
419.000000	0.245893
420.000000	0.246132
421.000000	0.246562
422.000000	0.246802
423.000000	0.246999
424.000000	0.247494
425.000000	0.247945
426.000000	0.248303
427.000000	0.248554
428.000000	0.248739
429.000000	0.248954
430.000000	0.249256
431.000000	0.249649
432.000000	0.249960
433.000000	0.250158
434.000000	0.250386
435.000000	0.250570
436.000000	0.250727
437.000000	0.250874
438.000000	0.251074
439.000000	0.251265
440.000000	0.251517
441.000000	0.251832
442.000000	0.252023
443.000000	0.252056
444.000000	0.252184
445.000000	0.252470
446.000000	0.252911
447.000000	0.253270
448.000000	0.253460
449.000000	0.253774
450.000000	0.254303
451.000000	0.254408
452.000000	0.254537
453.000000	0.254796
454.000000	0.255188
455.000000	0.255383
456.000000	0.255608
457.000000	0.256107
458.000000	0.256477
459.000000	0.256737
460.000000	0.257000
461.000000	0.257143
462.000000	0.257392
463.000000	0.257681
464.000000	0.257965
465.000000	0.258205
466.000000	0.258371
467.000000	0.258587
468.000000	0.258840
469.000000	0.259046
470.000000	0.259288
471.000000	0.259544
472.000000	0.259735
473.000000	0.259871
474.000000	0.260083
475.000000	0.260228
476.000000	0.260444
477.000000	0.260820
478.000000	0.260987
479.000000	0.261182
480.000000	0.261499
481.000000	0.261749
482.000000	0.262002
483.000000	0.262146
484.000000	0.262429
485.000000	0.262607
486.000000	0.262761
487.000000	0.262952
488.000000	0.263129
489.000000	0.263355
490.000000	0.263741
491.000000	0.264056
492.000000	0.264349
493.000000	0.264597
494.000000	0.264879
495.000000	0.265193
496.000000	0.265496
497.000000	0.265867
498.000000	0.266203
499.000000	0.266523
500.000000	0.266780
501.000000	0.267020
502.000000	0.267306
503.000000	0.267611
504.000000	0.267892
505.000000	0.268164
506.000000	0.268453
507.000000	0.268712
508.000000	0.269023
509.000000	0.269379
510.000000	0.269749
511.000000	0.270079
512.000000	0.270387
513.000000	0.270685
514.000000	0.270993
515.000000	0.271340
516.000000	0.271678
517.000000	0.271952
518.000000	0.272226
519.000000	0.272477
520.000000	0.272787
521.000000	0.273092
522.000000	0.273379
523.000000	0.273691
524.000000	0.274013
525.000000	0.274327
526.000000	0.274658
527.000000	0.274966
528.000000	0.275231
529.000000	0.275497
530.000000	0.275793
531.000000	0.276119
532.000000	0.276386
533.000000	0.276648
534.000000	0.276962
535.000000	0.277313
536.000000	0.277655
537.000000	0.277942
538.000000	0.278195
539.000000	0.278452
540.000000	0.278713
541.000000	0.278994
542.000000	0.279334
543.000000	0.279644
544.000000	0.279957
545.000000	0.280228
546.000000	0.280515
547.000000	0.280812
548.000000	0.281153
549.000000	0.281502
550.000000	0.281835
551.000000	0.282170
552.000000	0.282486
553.000000	0.282839
554.000000	0.283189
555.000000	0.283521
556.000000	0.283923
557.000000	0.284278
558.000000	0.284653
559.000000	0.284947
560.000000	0.285235
561.000000	0.285597
562.000000	0.285954
563.000000	0.286259
564.000000	0.286599
565.000000	0.286951
566.000000	0.287304
567.000000	0.287672
568.000000	0.288030
569.000000	0.288337
570.000000	0.288634
571.000000	0.288940
572.000000	0.289286
573.000000	0.289623
574.000000	0.289944
575.000000	0.290312
576.000000	0.290668
577.000000	0.291002
578.000000	0.291363
579.000000	0.291664
580.000000	0.291962
581.000000	0.292275
582.000000	0.292561
583.000000	0.292882
584.000000	0.293230
585.000000	0.293562
586.000000	0.293901
587.000000	0.294238
588.000000	0.294567
589.000000	0.294937
590.000000	0.295302
591.000000	0.295625
592.000000	0.295918
593.000000	0.296189
594.000000	0.296453
595.000000	0.296743
596.000000	0.296975
597.000000	0.297195
598.000000	0.297390
599.000000	0.297540
600.000000	0.297756
601.000000	0.298024
602.000000	0.298207
603.000000	0.298354
604.000000	0.298516
605.000000	0.298723
606.000000	0.298896
607.000000	0.299041
608.000000	0.299217
609.000000	0.299396
610.000000	0.299582
611.000000	0.299784
612.000000	0.299996
613.000000	0.300166
614.000000	0.300302
615.000000	0.300405
616.000000	0.300505
617.000000	0.300605
618.000000	0.300791
619.000000	0.300995
620.000000	0.301184
621.000000	0.301394
622.000000	0.301566
623.000000	0.301739
624.000000	0.301943
625.000000	0.302112
626.000000	0.302312
627.000000	0.302583
628.000000	0.302930
629.000000	0.303309
630.000000	0.303578
631.000000	0.303839
632.000000	0.304128
633.000000	0.304407
634.000000	0.304615
635.000000	0.304797
636.000000	0.304966
637.000000	0.305099
638.000000	0.305173
639.000000	0.305232
640.000000	0.305341
641.000000	0.305417
642.000000	0.305524
643.000000	0.305658
644.000000	0.305798
645.000000	0.305927
646.000000	0.306053
647.000000	0.306167
648.000000	0.306330
649.000000	0.306527
650.000000	0.306724
651.000000	0.306928
652.000000	0.307092
653.000000	0.307263
654.000000	0.307441
655.000000	0.307657
656.000000	0.307889
657.000000	0.308057
658.000000	0.308245
659.000000	0.308426
660.000000	0.308580
661.000000	0.308771
662.000000	0.308944
663.000000	0.309133
664.000000	0.309307
665.000000	0.309497
666.000000	0.309693
667.000000	0.309849
668.000000	0.310026
669.000000	0.310213
670.000000	0.310396
671.000000	0.310539
672.000000	0.310696
673.000000	0.310877
674.000000	0.311071
675.000000	0.311240
676.000000	0.311416
677.000000	0.311653
678.000000	0.311842
679.000000	0.311985
680.000000	0.312119
681.000000	0.312282
682.000000	0.312478
683.000000	0.312635
684.000000	0.312833
685.000000	0.313005
686.000000	0.313192
687.000000	0.313404
688.000000	0.313575
689.000000	0.313734
690.000000	0.313940
691.000000	0.314145
692.000000	0.314306
693.000000	0.314485
694.000000	0.314678
695.000000	0.314891
696.000000	0.315093
697.000000	0.315243
698.000000	0.315444
699.000000	0.315653
700.000000	0.315833
701.000000	0.316008
702.000000	0.316192
703.000000	0.316366
704.000000	0.316519
705.000000	0.316699
706.000000	0.316869
707.000000	0.317054
708.000000	0.317231
709.000000	0.317397
710.000000	0.317574
711.000000	0.317772
712.000000	0.317959
713.000000	0.318145
714.000000	0.318328
715.000000	0.318475
716.000000	0.318614
717.000000	0.318766
718.000000	0.318930
719.000000	0.319080
720.000000	0.319215
721.000000	0.319350
722.000000	0.319473
723.000000	0.319640
724.000000	0.319797
725.000000	0.319909
726.000000	0.320060
727.000000	0.320206
728.000000	0.320318
729.000000	0.320439
730.000000	0.320552
731.000000	0.320671
732.000000	0.320775
733.000000	0.320899
734.000000	0.321019
735.000000	0.321104
736.000000	0.321263
737.000000	0.321386
738.000000	0.321495
739.000000	0.321665
740.000000	0.321761
741.000000	0.321854
742.000000	0.321943
743.000000	0.322014
744.000000	0.322118
745.000000	0.322181
746.000000	0.322253
747.000000	0.322317
748.000000	0.322432
749.000000	0.322565
750.000000	0.322651
751.000000	0.322696
752.000000	0.322746
753.000000	0.322826
754.000000	0.322915
755.000000	0.323034
756.000000	0.323186
757.000000	0.323311
758.000000	0.323406
759.000000	0.323529
760.000000	0.323633
761.000000	0.323760
762.000000	0.323848
763.000000	0.323887
764.000000	0.323982
765.000000	0.324053
766.000000	0.324122
767.000000	0.324206
768.000000	0.324273
769.000000	0.324341
770.000000	0.324418
771.000000	0.324480
772.000000	0.324573
773.000000	0.324635
774.000000	0.324701
775.000000	0.324762
776.000000	0.324818
777.000000	0.324855
778.000000	0.324897
779.000000	0.324935
780.000000	0.324983
781.000000	0.325045
782.000000	0.325106
783.000000	0.325228
784.000000	0.325291
785.000000	0.325341
786.000000	0.325384
787.000000	0.325417
788.000000	0.325448
789.000000	0.325501
790.000000	0.325547
791.000000	0.325588
792.000000	0.325640
793.000000	0.325681
794.000000	0.325703
795.000000	0.325759
796.000000	0.325813
797.000000	0.325846
798.000000	0.325863
799.000000	0.325879
800.000000	0.325903
801.000000	0.325946
802.000000	0.325991
803.000000	0.326073
804.000000	0.326200
805.000000	0.326183
806.000000	0.326120
807.000000	0.326120
808.000000	0.326129
809.000000	0.326160
810.000000	0.326188
811.000000	0.326185
812.000000	0.326191
813.000000	0.326193
814.000000	0.326189
815.000000	0.326208
816.000000	0.326206
817.000000	0.326200
818.000000	0.326137
819.000000	0.326116
820.000000	0.326148
821.000000	0.326167
822.000000	0.326159
823.000000	0.326168
824.000000	0.326124
825.000000	0.326062
826.000000	0.326009
827.000000	0.325983
828.000000	0.326014
829.000000	0.325977
830.000000	0.325959
831.000000	0.325998
832.000000	0.325936
833.000000	0.325887
834.000000	0.325863
835.000000	0.325875
836.000000	0.325830
837.000000	0.325735
838.000000	0.325653
839.000000	0.325646
840.000000	0.325641
841.000000	0.325646
842.000000	0.325633
843.000000	0.325602
844.000000	0.325587
845.000000	0.325568
846.000000	0.325553
847.000000	0.325536
848.000000	0.325522
849.000000	0.325541
850.000000	0.325519
851.000000	0.325472
852.000000	0.325460
853.000000	0.325464
854.000000	0.325425
855.000000	0.325447
856.000000	0.325445
857.000000	0.325264
858.000000	0.325098
859.000000	0.324958
860.000000	0.324791
861.000000	0.324674
862.000000	0.324630
863.000000	0.324572
864.000000	0.324473
865.000000	0.324354
866.000000	0.324236
867.000000	0.324036
868.000000	0.323890
869.000000	0.323738
870.000000	0.323577
871.000000	0.323421
872.000000	0.323311
873.000000	0.323220
874.000000	0.323236
875.000000	0.323117
876.000000	0.322922
877.000000	0.322766
878.000000	0.322639
879.000000	0.322567
880.000000	0.322420
881.000000	0.322314
882.000000	0.322190
883.000000	0.322045
884.000000	0.321827
885.000000	0.321538
886.000000	0.321231
887.000000	0.320997
888.000000	0.320898
889.000000	0.320822
890.000000	0.320642
891.000000	0.320487
892.000000	0.320381
893.000000	0.320240
894.000000	0.320138
895.000000	0.319999
896.000000	0.319796
897.000000	0.319577
898.000000	0.319406
899.000000	0.319244
900.000000	0.319076
901.000000	0.318900
902.000000	0.318877
903.000000	0.318777
904.000000	0.318625
905.000000	0.318402
906.000000	0.318203
907.000000	0.318013
908.000000	0.317860
909.000000	0.317636
910.000000	0.317466
911.000000	0.317331
912.000000	0.317198
913.000000	0.317028
914.000000	0.316824
915.000000	0.316616
916.000000	0.316287
917.000000	0.315986
918.000000	0.315719
919.000000	0.315475
920.000000	0.315368
921.000000	0.315220
922.000000	0.314967
923.000000	0.314599
924.000000	0.314331
925.000000	0.314095
926.000000	0.313883
927.000000	0.313719
928.000000	0.313524
929.000000	0.313297
930.000000	0.313073
931.000000	0.312892
932.000000	0.312680
933.000000	0.312429
934.000000	0.312102
935.000000	0.311787
936.000000	0.311550
937.000000	0.311301
938.000000	0.310951
939.000000	0.310782
940.000000	0.310674
941.000000	0.310455
942.000000	0.310245
943.000000	0.310051
944.000000	0.309785
945.000000	0.309670
946.000000	0.309455
947.000000	0.309259
948.000000	0.309168
949.000000	0.308882
950.000000	0.308605
951.000000	0.308374
952.000000	0.308167
953.000000	0.307932
954.000000	0.307671
955.000000	0.307352
956.000000	0.307130
957.000000	0.306968
958.000000	0.306760
959.000000	0.306517
960.000000	0.306230
961.000000	0.305970
962.000000	0.305736
963.000000	0.305503
964.000000	0.305357
965.000000	0.305229
966.000000	0.304963
967.000000	0.304829
968.000000	0.304552
969.000000	0.304164
970.000000	0.303948
971.000000	0.303658
972.000000	0.303354
973.000000	0.303061
974.000000	0.302922
975.000000	0.302648
976.000000	0.302408
977.000000	0.302316
978.000000	0.302047
979.000000	0.301917
980.000000	0.301701
981.000000	0.301484
982.000000	0.301348
983.000000	0.301110
984.000000	0.300878
985.000000	0.300886
986.000000	0.300669
987.000000	0.300451
988.000000	0.300287
989.000000	0.299979
990.000000	0.299849
991.000000	0.299760
992.000000	0.299549
993.000000	0.299523
994.000000	0.299284
995.000000	0.299010
996.000000	0.298888
997.000000	0.298899
998.000000	0.298780
999.000000	0.298562
1000.000000	0.298486
1001.000000	0.298956
1002.000000	0.298633
1003.000000	0.298239
1004.000000	0.298102
1005.000000	0.298225
1006.000000	0.297930
1007.000000	0.297633
1008.000000	0.297336
1009.000000	0.297123
1010.000000	0.296762
1011.000000	0.296795
1012.000000	0.297001
1013.000000	0.296580
1014.000000	0.296171
1015.000000	0.296125
1016.000000	0.296311
1017.000000	0.296369
1018.000000	0.296497
1019.000000	0.296572
1020.000000	0.296683
1021.000000	0.296376
1022.000000	0.296055
1023.000000	0.296052
1024.000000	0.295852
1025.000000	0.295811
1026.000000	0.295926
1027.000000	0.295735
1028.000000	0.295688
1029.000000	0.295924
1030.000000	0.295969
1031.000000	0.296028
1032.000000	0.295931
1033.000000	0.295708
1034.000000	0.295739
1035.000000	0.296016
1036.000000	0.296164
1037.000000	0.296457
1038.000000	0.296518
1039.000000	0.296536
1040.000000	0.296565
1041.000000	0.296465
1042.000000	0.296377
1043.000000	0.296442
1044.000000	0.296552
1045.000000	0.296649
1046.000000	0.296769
1047.000000	0.296884
1048.000000	0.296846
1049.000000	0.296850
1050.000000	0.296967
1051.000000	0.296986
1052.000000	0.296814
1053.000000	0.296799
1054.000000	0.296969
1055.000000	0.297200
1056.000000	0.297571
1057.000000	0.297963
1058.000000	0.298173
1059.000000	0.298292
1060.000000	0.298361
1061.000000	0.298453
1062.000000	0.298683
1063.000000	0.298886
1064.000000	0.299114
1065.000000	0.299336
1066.000000	0.299544
1067.000000	0.299752
1068.000000	0.299867
1069.000000	0.299818
1070.000000	0.299908
1071.000000	0.300098
1072.000000	0.300210
1073.000000	0.300327
1074.000000	0.300619
1075.000000	0.300786
1076.000000	0.300938
1077.000000	0.301259
1078.000000	0.301447
1079.000000	0.301601
1080.000000	0.301710
1081.000000	0.301867
1082.000000	0.302056
1083.000000	0.302281
1084.000000	0.302620
1085.000000	0.302893
1086.000000	0.303061
1087.000000	0.303369
1088.000000	0.303686
1089.000000	0.303946
1090.000000	0.304319
1091.000000	0.304497
1092.000000	0.304523
1093.000000	0.304729
1094.000000	0.304844
1095.000000	0.304785
1096.000000	0.305021
1097.000000	0.305422
1098.000000	0.305673
1099.000000	0.305938
1100.000000	0.306263
1101.000000	0.306492
1102.000000	0.306699
1103.000000	0.306977
1104.000000	0.307216
1105.000000	0.307358
1106.000000	0.307499
1107.000000	0.307577
1108.000000	0.307685
1109.000000	0.307824
1110.000000	0.307929
1111.000000	0.308088
1112.000000	0.308346
1113.000000	0.308512
1114.000000	0.308668
1115.000000	0.308777
1116.000000	0.308784
1117.000000	0.308934
1118.000000	0.309098
1119.000000	0.309237
1120.000000	0.309539
1121.000000	0.309662
1122.000000	0.309725
1123.000000	0.309974
1124.000000	0.309964
1125.000000	0.310081
1126.000000	0.310303
1127.000000	0.310376
1128.000000	0.310396
1129.000000	0.310372
1130.000000	0.310484
1131.000000	0.310614
1132.000000	0.310661
1133.000000	0.310840
1134.000000	0.310949
1135.000000	0.310829
1136.000000	0.310878
1137.000000	0.311076
1138.000000	0.311126
1139.000000	0.311216
1140.000000	0.311363
1141.000000	0.311414
1142.000000	0.311510
1143.000000	0.311639
1144.000000	0.311798
1145.000000	0.311789
1146.000000	0.311739
1147.000000	0.311695
1148.000000	0.311456
1149.000000	0.311486
1150.000000	0.311679
1151.000000	0.311751
1152.000000	0.311880
1153.000000	0.311909
1154.000000	0.311732
1155.000000	0.311681
1156.000000	0.311682
1157.000000	0.311677
1158.000000	0.311664
1159.000000	0.311626
1160.000000	0.311534
1161.000000	0.311484
1162.000000	0.311440
1163.000000	0.311620
1164.000000	0.311718
1165.000000	0.311739
1166.000000	0.311770
1167.000000	0.311728
1168.000000	0.311662
1169.000000	0.311573
1170.000000	0.311561
1171.000000	0.311587
1172.000000	0.311639
1173.000000	0.311742
1174.000000	0.311778
1175.000000	0.311727
1176.000000	0.311710
1177.000000	0.311779
1178.000000	0.311817
1179.000000	0.311892
1180.000000	0.311860
1181.000000	0.311847
1182.000000	0.311785
1183.000000	0.311756
1184.000000	0.311775
1185.000000	0.311797
1186.000000	0.311857
1187.000000	0.311874
1188.000000	0.311890
1189.000000	0.311876
1190.000000	0.311889
1191.000000	0.311882
1192.000000	0.311972
1193.000000	0.312060
1194.000000	0.312020
1195.000000	0.311990
1196.000000	0.311858
1197.000000	0.311792
1198.000000	0.311787
1199.000000	0.311754
1200.000000	0.311732
1201.000000	0.311680
1202.000000	0.311635
1203.000000	0.311620
1204.000000	0.311549
1205.000000	0.311552
1206.000000	0.311485
1207.000000	0.311448
1208.000000	0.311369
1209.000000	0.311330
1210.000000	0.311288
1211.000000	0.311230
1212.000000	0.311170
1213.000000	0.311150
1214.000000	0.311151
1215.000000	0.311135
1216.000000	0.311115
1217.000000	0.311112
1218.000000	0.311076
1219.000000	0.311030
1220.000000	0.310995
1221.000000	0.310987
1222.000000	0.310972
1223.000000	0.311009
1224.000000	0.311032
1225.000000	0.311010
1226.000000	0.311006
1227.000000	0.310948
1228.000000	0.310971
1229.000000	0.310912
1230.000000	0.310796
1231.000000	0.310685
1232.000000	0.310657
1233.000000	0.310682
1234.000000	0.310752
1235.000000	0.310761
1236.000000	0.310640
1237.000000	0.310633
1238.000000	0.310603
1239.000000	0.310580
1240.000000	0.310610
1241.000000	0.310630
1242.000000	0.310626
1243.000000	0.310614
1244.000000	0.310603
1245.000000	0.310700
1246.000000	0.310776
1247.000000	0.310879
1248.000000	0.310992
1249.000000	0.311061
1250.000000	0.311111
1251.000000	0.311138
1252.000000	0.311111
1253.000000	0.311057
1254.000000	0.311017
1255.000000	0.310943
1256.000000	0.310888
1257.000000	0.310869
1258.000000	0.310875
1259.000000	0.310783
1260.000000	0.310793
1261.000000	0.310844
1262.000000	0.310845
1263.000000	0.310868
1264.000000	0.310883
1265.000000	0.310879
1266.000000	0.310842
1267.000000	0.310811
1268.000000	0.310813
1269.000000	0.310777
1270.000000	0.310780
1271.000000	0.310793
1272.000000	0.310778
1273.000000	0.310744
1274.000000	0.310700
1275.000000	0.310683
1276.000000	0.310738
1277.000000	0.310768
1278.000000	0.310718
1279.000000	0.310664
1280.000000	0.310467
1281.000000	0.310355
1282.000000	0.310353
1283.000000	0.310391
1284.000000	0.310425
1285.000000	0.310437
1286.000000	0.310431
1287.000000	0.310402
1288.000000	0.310396
1289.000000	0.310377
1290.000000	0.310321
1291.000000	0.310213
1292.000000	0.310127
1293.000000	0.310108
1294.000000	0.310102
1295.000000	0.310113
1296.000000	0.310101
1297.000000	0.310068
1298.000000	0.310075
1299.000000	0.310073
1300.000000	0.310087
1301.000000	0.310102
1302.000000	0.310031
1303.000000	0.310011
1304.000000	0.309945
1305.000000	0.309906
1306.000000	0.309853
1307.000000	0.309829
1308.000000	0.309846
1309.000000	0.309893
1310.000000	0.309907
1311.000000	0.309971
1312.000000	0.309936
1313.000000	0.309920
1314.000000	0.309876
1315.000000	0.309776
1316.000000	0.309813
1317.000000	0.309824
1318.000000	0.309748
1319.000000	0.309623
1320.000000	0.309516
1321.000000	0.309404
1322.000000	0.309253
1323.000000	0.309198
1324.000000	0.309182
1325.000000	0.309094
1326.000000	0.309020
1327.000000	0.308886
1328.000000	0.308805
1329.000000	0.308637
1330.000000	0.308397
1331.000000	0.308235
1332.000000	0.308142
1333.000000	0.308000
1334.000000	0.307944
1335.000000	0.307888
1336.000000	0.307767
1337.000000	0.307667
1338.000000	0.307558
1339.000000	0.307447
1340.000000	0.307252
1341.000000	0.307127
1342.000000	0.306989
1343.000000	0.306824
1344.000000	0.306733
1345.000000	0.306623
1346.000000	0.306545
1347.000000	0.306368
1348.000000	0.306237
1349.000000	0.306085
1350.000000	0.305967
1351.000000	0.305893
1352.000000	0.305800
1353.000000	0.305694
1354.000000	0.305586
1355.000000	0.305406
1356.000000	0.305283
1357.000000	0.305156
1358.000000	0.305005
1359.000000	0.304848
1360.000000	0.304717
1361.000000	0.304612
1362.000000	0.304495
1363.000000	0.304377
1364.000000	0.304320
1365.000000	0.304260
1366.000000	0.304182
1367.000000	0.304134
1368.000000	0.304039
1369.000000	0.304000
1370.000000	0.303879
1371.000000	0.303746
1372.000000	0.303616
1373.000000	0.303481
1374.000000	0.303394
1375.000000	0.303262
1376.000000	0.303240
1377.000000	0.303220
1378.000000	0.303105
1379.000000	0.302943
1380.000000	0.302775
1381.000000	0.302559
1382.000000	0.302322
1383.000000	0.302191
1384.000000	0.301982
1385.000000	0.301735
1386.000000	0.301583
1387.000000	0.301413
1388.000000	0.301205
1389.000000	0.301005
1390.000000	0.300837
1391.000000	0.300631
1392.000000	0.300445
1393.000000	0.300211
1394.000000	0.300007
1395.000000	0.299734
1396.000000	0.299406
1397.000000	0.299043
1398.000000	0.298592
1399.000000	0.298175
1400.000000	0.297717
1401.000000	0.297282
1402.000000	0.296922
1403.000000	0.296472
1404.000000	0.296072
1405.000000	0.295607
1406.000000	0.295046
1407.000000	0.294523
1408.000000	0.293954
1409.000000	0.293381
1410.000000	0.292829
1411.000000	0.292222
1412.000000	0.291547
1413.000000	0.290890
1414.000000	0.290239
1415.000000	0.289603
1416.000000	0.288993
1417.000000	0.288374
1418.000000	0.287694
1419.000000	0.287042
1420.000000	0.286354
1421.000000	0.285715
1422.000000	0.285091
1423.000000	0.284530
1424.000000	0.283883
1425.000000	0.283221
1426.000000	0.282568
1427.000000	0.281940
1428.000000	0.281340
1429.000000	0.280770
1430.000000	0.280243
1431.000000	0.279715
1432.000000	0.279166
1433.000000	0.278641
1434.000000	0.278132
1435.000000	0.277676
1436.000000	0.277229
1437.000000	0.276818
1438.000000	0.276366
1439.000000	0.275931
1440.000000	0.275512
1441.000000	0.275112
1442.000000	0.274729
1443.000000	0.274301
1444.000000	0.273909
1445.000000	0.273545
1446.000000	0.273180
1447.000000	0.272832
1448.000000	0.272535
1449.000000	0.272205
1450.000000	0.271883
1451.000000	0.271630
1452.000000	0.271318
1453.000000	0.271056
1454.000000	0.270821
1455.000000	0.270574
1456.000000	0.270437
1457.000000	0.270316
1458.000000	0.270191
1459.000000	0.270092
1460.000000	0.269923
1461.000000	0.269735
1462.000000	0.269584
1463.000000	0.269424
1464.000000	0.269342
1465.000000	0.269284
1466.000000	0.269140
1467.000000	0.269018
1468.000000	0.268902
1469.000000	0.268843
1470.000000	0.268818
1471.000000	0.268813
1472.000000	0.268781
1473.000000	0.268796
1474.000000	0.268776
1475.000000	0.268793
1476.000000	0.268871
1477.000000	0.268969
1478.000000	0.269094
1479.000000	0.269216
1480.000000	0.269343
1481.000000	0.269469
1482.000000	0.269636
1483.000000	0.269832
1484.000000	0.270045
1485.000000	0.270250
1486.000000	0.270461
1487.000000	0.270671
1488.000000	0.270899
1489.000000	0.271144
1490.000000	0.271309
1491.000000	0.271512
1492.000000	0.271677
1493.000000	0.271891
1494.000000	0.272106
1495.000000	0.272285
1496.000000	0.272479
1497.000000	0.272654
1498.000000	0.272801
1499.000000	0.272957
1500.000000	0.273187
1501.000000	0.273377
1502.000000	0.273515
1503.000000	0.273705
1504.000000	0.273843
1505.000000	0.273960
1506.000000	0.274182
1507.000000	0.274352
1508.000000	0.274541
1509.000000	0.274729
1510.000000	0.274806
1511.000000	0.274907
1512.000000	0.274971
1513.000000	0.275048
1514.000000	0.275195
1515.000000	0.275275
1516.000000	0.275371
1517.000000	0.275418
1518.000000	0.275446
1519.000000	0.275467
1520.000000	0.275510
1521.000000	0.275532
1522.000000	0.275589
1523.000000	0.275710
1524.000000	0.275781
1525.000000	0.275883
1526.000000	0.275933
1527.000000	0.275947
1528.000000	0.276024
1529.000000	0.276089
1530.000000	0.276119
1531.000000	0.276235
1532.000000	0.276346
1533.000000	0.276385
1534.000000	0.276447
1535.000000	0.276520
1536.000000	0.276530
1537.000000	0.276605
1538.000000	0.276675
1539.000000	0.276656
1540.000000	0.276657
1541.000000	0.276707
1542.000000	0.276755
1543.000000	0.276788
1544.000000	0.276815
1545.000000	0.276864
1546.000000	0.276869
1547.000000	0.276872
1548.000000	0.276871
1549.000000	0.276782
1550.000000	0.276694
1551.000000	0.276651
1552.000000	0.276650
1553.000000	0.276659
1554.000000	0.276662
1555.000000	0.276686
1556.000000	0.276677
1557.000000	0.276649
1558.000000	0.276666
1559.000000	0.276657
1560.000000	0.276647
1561.000000	0.276681
1562.000000	0.276706
1563.000000	0.276771
1564.000000	0.276823
1565.000000	0.276865
1566.000000	0.276863
1567.000000	0.276949
1568.000000	0.276935
1569.000000	0.276944
1570.000000	0.276912
1571.000000	0.276774
1572.000000	0.276704
1573.000000	0.276666
1574.000000	0.276619
1575.000000	0.276595
1576.000000	0.276567
1577.000000	0.276517
1578.000000	0.276480
1579.000000	0.276508
1580.000000	0.276495
1581.000000	0.276538
1582.000000	0.276536
1583.000000	0.276493
1584.000000	0.276451
1585.000000	0.276461
1586.000000	0.276475
1587.000000	0.276484
1588.000000	0.276477
1589.000000	0.276478
1590.000000	0.276488
1591.000000	0.276525
1592.000000	0.276557
1593.000000	0.276617
1594.000000	0.276654
1595.000000	0.276714
1596.000000	0.276744
1597.000000	0.276811
1598.000000	0.276814
1599.000000	0.276792
1600.000000	0.276760
1601.000000	0.276737
1602.000000	0.276742
1603.000000	0.276787
1604.000000	0.276800
1605.000000	0.276854
1606.000000	0.276878
1607.000000	0.276933
1608.000000	0.276952
1609.000000	0.276988
1610.000000	0.277001
1611.000000	0.277005
1612.000000	0.277001
1613.000000	0.277075
1614.000000	0.277096
1615.000000	0.277133
1616.000000	0.277189
1617.000000	0.277221
1618.000000	0.277228
1619.000000	0.277169
1620.000000	0.277201
1621.000000	0.277269
1622.000000	0.277397
1623.000000	0.277606
1624.000000	0.277742
1625.000000	0.277733
1626.000000	0.277768
1627.000000	0.277814
1628.000000	0.277916
1629.000000	0.278057
1630.000000	0.278181
1631.000000	0.278272
1632.000000	0.278310
1633.000000	0.278288
1634.000000	0.278364
1635.000000	0.278505
1636.000000	0.278598
1637.000000	0.278751
1638.000000	0.278842
1639.000000	0.278924
1640.000000	0.278995
1641.000000	0.279111
1642.000000	0.279211
1643.000000	0.279301
1644.000000	0.279414
1645.000000	0.279560
1646.000000	0.279647
1647.000000	0.279745
1648.000000	0.279822
1649.000000	0.279935
1650.000000	0.280084
1651.000000	0.280281
1652.000000	0.280489
1653.000000	0.280697
1654.000000	0.280886
1655.000000	0.281035
1656.000000	0.281092
1657.000000	0.281153
1658.000000	0.281212
1659.000000	0.281320
1660.000000	0.281433
1661.000000	0.281473
1662.000000	0.281548
1663.000000	0.281599
1664.000000	0.281674
1665.000000	0.281778
1666.000000	0.281917
1667.000000	0.282000
1668.000000	0.282084
1669.000000	0.282160
1670.000000	0.282196
1671.000000	0.282295
1672.000000	0.282418
1673.000000	0.282525
1674.000000	0.282613
1675.000000	0.282728
1676.000000	0.282834
1677.000000	0.282922
1678.000000	0.283021
1679.000000	0.283157
1680.000000	0.283276
1681.000000	0.283362
1682.000000	0.283450
1683.000000	0.283537
1684.000000	0.283602
1685.000000	0.283714
1686.000000	0.283795
1687.000000	0.283876
1688.000000	0.283880
1689.000000	0.283883
1690.000000	0.283897
1691.000000	0.283934
1692.000000	0.283963
1693.000000	0.284015
1694.000000	0.284071
1695.000000	0.284167
1696.000000	0.284221
1697.000000	0.284249
1698.000000	0.284294
1699.000000	0.284368
1700.000000	0.284470
1701.000000	0.284626
1702.000000	0.284642
1703.000000	0.284674
1704.000000	0.284823
1705.000000	0.284912
1706.000000	0.285022
1707.000000	0.285119
1708.000000	0.285126
1709.000000	0.285151
1710.000000	0.285303
1711.000000	0.285400
1712.000000	0.285507
1713.000000	0.285581
1714.000000	0.285634
1715.000000	0.285716
1716.000000	0.285833
1717.000000	0.285914
1718.000000	0.285962
1719.000000	0.285994
1720.000000	0.286062
1721.000000	0.286078
1722.000000	0.286057
1723.000000	0.286063
1724.000000	0.286056
1725.000000	0.286104
1726.000000	0.286096
1727.000000	0.286162
1728.000000	0.286235
1729.000000	0.286253
1730.000000	0.286416
1731.000000	0.286521
1732.000000	0.286600
1733.000000	0.286727
1734.000000	0.286749
1735.000000	0.286822
1736.000000	0.286892
1737.000000	0.286917
1738.000000	0.286939
1739.000000	0.287006
1740.000000	0.287041
1741.000000	0.287077
1742.000000	0.287169
1743.000000	0.287285
1744.000000	0.287348
1745.000000	0.287459
1746.000000	0.287641
1747.000000	0.287757
1748.000000	0.287802
1749.000000	0.287815
1750.000000	0.287791
1751.000000	0.287773
1752.000000	0.287895
1753.000000	0.287956
1754.000000	0.288033
1755.000000	0.288174
1756.000000	0.288238
1757.000000	0.288208
1758.000000	0.288273
1759.000000	0.288337
1760.000000	0.288419
1761.000000	0.288585
1762.000000	0.288638
1763.000000	0.288626
1764.000000	0.288648
1765.000000	0.288559
1766.000000	0.288597
1767.000000	0.288661
1768.000000	0.288683
1769.000000	0.288862
1770.000000	0.288945
1771.000000	0.288885
1772.000000	0.288933
1773.000000	0.288954
1774.000000	0.288985
1775.000000	0.289146
1776.000000	0.289216
1777.000000	0.289158
1778.000000	0.289220
1779.000000	0.289324
1780.000000	0.289407
1781.000000	0.289503
1782.000000	0.289566
1783.000000	0.289610
1784.000000	0.289802
1785.000000	0.289923
1786.000000	0.290045
1787.000000	0.290224
1788.000000	0.290310
1789.000000	0.290328
1790.000000	0.290405
1791.000000	0.290431
1792.000000	0.290518
1793.000000	0.290582
1794.000000	0.290639
1795.000000	0.290718
1796.000000	0.290792
1797.000000	0.290845
1798.000000	0.290843
1799.000000	0.290904
1800.000000	0.291038
1801.000000	0.290960
1802.000000	0.291054
1803.000000	0.290771
1804.000000	0.290912
1805.000000	0.291357
1806.000000	0.291481
1807.000000	0.291608
1808.000000	0.291724
1809.000000	0.291713
1810.000000	0.291471
1811.000000	0.291507
1812.000000	0.291761
1813.000000	0.291806
1814.000000	0.291826
1815.000000	0.291905
1816.000000	0.291937
1817.000000	0.291869
1818.000000	0.291837
1819.000000	0.291999
1820.000000	0.291867
1821.000000	0.291866
1822.000000	0.291732
1823.000000	0.291383
1824.000000	0.291163
1825.000000	0.290740
1826.000000	0.290666
1827.000000	0.290638
1828.000000	0.290836
1829.000000	0.291108
1830.000000	0.291165
1831.000000	0.291156
1832.000000	0.290999
1833.000000	0.290888
1834.000000	0.290733
1835.000000	0.290666
1836.000000	0.290394
1837.000000	0.290343
1838.000000	0.290441
1839.000000	0.290331
1840.000000	0.290239
1841.000000	0.290398
1842.000000	0.290196
1843.000000	0.289518
1844.000000	0.289347
1845.000000	0.289155
1846.000000	0.289059
1847.000000	0.289169
1848.000000	0.289127
1849.000000	0.288908
1850.000000	0.288762
1851.000000	0.288594
1852.000000	0.288331
1853.000000	0.288278
1854.000000	0.288216
1855.000000	0.287918
1856.000000	0.287640
1857.000000	0.287052
1858.000000	0.286254
1859.000000	0.285616
1860.000000	0.284888
1861.000000	0.284341
1862.000000	0.283775
1863.000000	0.283394
1864.000000	0.282785
1865.000000	0.282030
1866.000000	0.281428
1867.000000	0.280767
1868.000000	0.280093
1869.000000	0.279538
1870.000000	0.279063
1871.000000	0.278404
1872.000000	0.277632
1873.000000	0.276809
1874.000000	0.275871
1875.000000	0.274955
1876.000000	0.273835
1877.000000	0.272386
1878.000000	0.271005
1879.000000	0.269434
1880.000000	0.267869
1881.000000	0.266443
1882.000000	0.265021
1883.000000	0.263500
1884.000000	0.262033
1885.000000	0.260455
1886.000000	0.258779
1887.000000	0.257033
1888.000000	0.255112
1889.000000	0.253233
1890.000000	0.251365
1891.000000	0.249553
1892.000000	0.247640
1893.000000	0.245480
1894.000000	0.243239
1895.000000	0.240922
1896.000000	0.238578
1897.000000	0.236247
1898.000000	0.233932
1899.000000	0.231893
1900.000000	0.229772
1901.000000	0.227730
1902.000000	0.225721
1903.000000	0.223384
1904.000000	0.221010
1905.000000	0.218375
1906.000000	0.215840
1907.000000	0.213283
1908.000000	0.210906
1909.000000	0.208445
1910.000000	0.206312
1911.000000	0.204217
1912.000000	0.202157
1913.000000	0.200475
1914.000000	0.198837
1915.000000	0.197128
1916.000000	0.195548
1917.000000	0.193941
1918.000000	0.192342
1919.000000	0.190908
1920.000000	0.189717
1921.000000	0.188531
1922.000000	0.187300
1923.000000	0.186248
1924.000000	0.185116
1925.000000	0.184187
1926.000000	0.183733
1927.000000	0.183390
1928.000000	0.183127
1929.000000	0.183173
1930.000000	0.183130
1931.000000	0.182998
1932.000000	0.182948
1933.000000	0.182816
1934.000000	0.182720
1935.000000	0.182491
1936.000000	0.182389
1937.000000	0.182332
1938.000000	0.182222
1939.000000	0.182170
1940.000000	0.182301
1941.000000	0.182195
1942.000000	0.182023
1943.000000	0.181680
1944.000000	0.181317
1945.000000	0.181179
1946.000000	0.180669
1947.000000	0.180219
1948.000000	0.179796
1949.000000	0.179269
1950.000000	0.178934
1951.000000	0.178467
1952.000000	0.178077
1953.000000	0.177589
1954.000000	0.177150
1955.000000	0.176833
1956.000000	0.176632
1957.000000	0.176512
1958.000000	0.176147
1959.000000	0.175694
1960.000000	0.175381
1961.000000	0.174964
1962.000000	0.174611
1963.000000	0.174361
1964.000000	0.174210
1965.000000	0.174006
1966.000000	0.173875
1967.000000	0.173885
1968.000000	0.173924
1969.000000	0.173958
1970.000000	0.174189
1971.000000	0.174228
1972.000000	0.174107
1973.000000	0.174009
1974.000000	0.173791
1975.000000	0.173777
1976.000000	0.173859
1977.000000	0.174126
1978.000000	0.174417
1979.000000	0.174615
1980.000000	0.174771
1981.000000	0.174977
1982.000000	0.175125
1983.000000	0.175448
1984.000000	0.175646
1985.000000	0.175796
1986.000000	0.176011
1987.000000	0.176312
1988.000000	0.176478
1989.000000	0.176784
1990.000000	0.177188
1991.000000	0.177346
1992.000000	0.177557
1993.000000	0.177945
1994.000000	0.178434
1995.000000	0.178962
1996.000000	0.179631
1997.000000	0.180211
1998.000000	0.180639
1999.000000	0.181299
2000.000000	0.182130
2001.000000	0.182873
2002.000000	0.183625
2003.000000	0.184421
2004.000000	0.184953
2005.000000	0.185421
2006.000000	0.186103
2007.000000	0.186715
2008.000000	0.187339
2009.000000	0.187991
2010.000000	0.188684
2011.000000	0.189255
2012.000000	0.189934
2013.000000	0.190709
2014.000000	0.191279
2015.000000	0.191941
2016.000000	0.192657
2017.000000	0.193156
2018.000000	0.193763
2019.000000	0.194489
2020.000000	0.194888
2021.000000	0.195574
2022.000000	0.196450
2023.000000	0.197239
2024.000000	0.198219
2025.000000	0.199051
2026.000000	0.199683
2027.000000	0.200262
2028.000000	0.201032
2029.000000	0.201884
2030.000000	0.202706
2031.000000	0.203532
2032.000000	0.204147
2033.000000	0.204576
2034.000000	0.205139
2035.000000	0.205871
2036.000000	0.206355
2037.000000	0.206912
2038.000000	0.207424
2039.000000	0.207837
2040.000000	0.208232
2041.000000	0.208827
2042.000000	0.209442
2043.000000	0.209961
2044.000000	0.210441
2045.000000	0.210920
2046.000000	0.211303
2047.000000	0.211940
2048.000000	0.212800
2049.000000	0.213663
2050.000000	0.214502
2051.000000	0.215108
2052.000000	0.215463
2053.000000	0.215807
2054.000000	0.216147
2055.000000	0.216602
2056.000000	0.217149
2057.000000	0.217890
2058.000000	0.218409
2059.000000	0.218907
2060.000000	0.219399
2061.000000	0.219798
2062.000000	0.220154
2063.000000	0.220608
2064.000000	0.220822
2065.000000	0.220917
2066.000000	0.221180
2067.000000	0.221582
2068.000000	0.222200
2069.000000	0.222865
2070.000000	0.223604
2071.000000	0.223990
2072.000000	0.224274
2073.000000	0.224819
2074.000000	0.225151
2075.000000	0.225651
2076.000000	0.226449
2077.000000	0.226971
2078.000000	0.227317
2079.000000	0.227753
2080.000000	0.228011
2081.000000	0.228587
2082.000000	0.229387
2083.000000	0.230232
2084.000000	0.231132
2085.000000	0.231871
2086.000000	0.232298
2087.000000	0.232723
2088.000000	0.232915
2089.000000	0.233263
2090.000000	0.233651
2091.000000	0.234024
2092.000000	0.234543
2093.000000	0.235314
2094.000000	0.235874
2095.000000	0.236499
2096.000000	0.237067
2097.000000	0.237509
2098.000000	0.237812
2099.000000	0.238152
2100.000000	0.238507
2101.000000	0.238915
2102.000000	0.239343
2103.000000	0.239781
2104.000000	0.240247
2105.000000	0.240582
2106.000000	0.240719
2107.000000	0.241082
2108.000000	0.241509
2109.000000	0.241850
2110.000000	0.241970
2111.000000	0.242292
2112.000000	0.242620
2113.000000	0.242827
2114.000000	0.242985
2115.000000	0.243504
2116.000000	0.243703
2117.000000	0.243417
2118.000000	0.243450
2119.000000	0.243578
2120.000000	0.243865
2121.000000	0.244354
2122.000000	0.244807
2123.000000	0.245393
2124.000000	0.245870
2125.000000	0.246396
2126.000000	0.246693
2127.000000	0.246929
2128.000000	0.247190
2129.000000	0.247242
2130.000000	0.247254
2131.000000	0.247160
2132.000000	0.247031
2133.000000	0.247167
2134.000000	0.247575
2135.000000	0.247863
2136.000000	0.248429
2137.000000	0.248660
2138.000000	0.248583
2139.000000	0.248550
2140.000000	0.248333
2141.000000	0.248324
2142.000000	0.248281
2143.000000	0.248230
2144.000000	0.248566
2145.000000	0.248833
2146.000000	0.249034
2147.000000	0.249743
2148.000000	0.249980
2149.000000	0.250121
2150.000000	0.250521
2151.000000	0.250209
2152.000000	0.249950
2153.000000	0.250023
2154.000000	0.249877
2155.000000	0.249454
2156.000000	0.249428
2157.000000	0.249599
2158.000000	0.249700
2159.000000	0.249996
2160.000000	0.250297
2161.000000	0.250627
2162.000000	0.251017
2163.000000	0.251474
2164.000000	0.251710
2165.000000	0.251941
2166.000000	0.251892
2167.000000	0.251690
2168.000000	0.251612
2169.000000	0.251355
2170.000000	0.250970
2171.000000	0.250731
2172.000000	0.250431
2173.000000	0.250230
2174.000000	0.250144
2175.000000	0.250106
2176.000000	0.250116
2177.000000	0.250286
2178.000000	0.250827
2179.000000	0.251106
2180.000000	0.251292
2181.000000	0.251588
2182.000000	0.251540
2183.000000	0.250969
2184.000000	0.250532
2185.000000	0.250042
2186.000000	0.249273
2187.000000	0.249020
2188.000000	0.249012
2189.000000	0.249060
2190.000000	0.249638
2191.000000	0.250423
2192.000000	0.251042
2193.000000	0.252013
2194.000000	0.252422
2195.000000	0.252557
2196.000000	0.252684
2197.000000	0.252222
2198.000000	0.252180
2199.000000	0.252482
2200.000000	0.252572
2201.000000	0.252976
2202.000000	0.252868
2203.000000	0.252211
2204.000000	0.251059
2205.000000	0.250056
2206.000000	0.249239
2207.000000	0.249952
2208.000000	0.250870
2209.000000	0.251519
2210.000000	0.253375
2211.000000	0.253230
2212.000000	0.252989
2213.000000	0.252709
2214.000000	0.251459
2215.000000	0.251087
2216.000000	0.251231
2217.000000	0.251329
2218.000000	0.251589
2219.000000	0.252243
2220.000000	0.253296
2221.000000	0.253918
2222.000000	0.254910
2223.000000	0.255372
2224.000000	0.255004
2225.000000	0.255496
2226.000000	0.255390
2227.000000	0.254782
2228.000000	0.254816
2229.000000	0.253904
2230.000000	0.253030
2231.000000	0.252945
2232.000000	0.252352
2233.000000	0.252441
2234.000000	0.253024
2235.000000	0.253401
2236.000000	0.253791
2237.000000	0.254376
2238.000000	0.254504
2239.000000	0.254386
2240.000000	0.254329
2241.000000	0.254169
2242.000000	0.253898
2243.000000	0.253152
2244.000000	0.253099
2245.000000	0.253104
2246.000000	0.253308
2247.000000	0.254053
2248.000000	0.254826
2249.000000	0.255834
2250.000000	0.257000
2251.000000	0.257003
2252.000000	0.256865
2253.000000	0.255975
2254.000000	0.254365
2255.000000	0.253809
2256.000000	0.253521
2257.000000	0.253763
2258.000000	0.254270
2259.000000	0.254252
2260.000000	0.254053
2261.000000	0.253644
2262.000000	0.252482
2263.000000	0.252219
2264.000000	0.252304
2265.000000	0.252664
2266.000000	0.253788
2267.000000	0.253857
2268.000000	0.253550
2269.000000	0.253320
2270.000000	0.252613
2271.000000	0.252004
2272.000000	0.251724
2273.000000	0.251171
2274.000000	0.249941
2275.000000	0.249340
2276.000000	0.249220
2277.000000	0.248537
2278.000000	0.247655
2279.000000	0.247595
2280.000000	0.247609
2281.000000	0.248104
2282.000000	0.249044
2283.000000	0.249444
2284.000000	0.248755
2285.000000	0.247336
2286.000000	0.246985
2287.000000	0.246553
2288.000000	0.246865
2289.000000	0.247683
2290.000000	0.247430
2291.000000	0.247105
2292.000000	0.246053
2293.000000	0.245162
2294.000000	0.244516
2295.000000	0.243911
2296.000000	0.243521
2297.000000	0.243164
2298.000000	0.243021
2299.000000	0.243500
2300.000000	0.243152
2301.000000	0.242816
2302.000000	0.242272
2303.000000	0.240730
2304.000000	0.239802
2305.000000	0.239305
2306.000000	0.238576
2307.000000	0.237581
2308.000000	0.237197
2309.000000	0.236959
2310.000000	0.236617
2311.000000	0.237469
2312.000000	0.238011
2313.000000	0.237778
2314.000000	0.237063
2315.000000	0.235821
2316.000000	0.234926
2317.000000	0.234330
2318.000000	0.234958
2319.000000	0.235243
2320.000000	0.234511
2321.000000	0.234596
2322.000000	0.233524
2323.000000	0.232419
2324.000000	0.232018
2325.000000	0.230537
2326.000000	0.229397
2327.000000	0.228716
2328.000000	0.228327
2329.000000	0.228202
2330.000000	0.227774
2331.000000	0.227064
2332.000000	0.226366
2333.000000	0.225868
2334.000000	0.224891
2335.000000	0.224502
2336.000000	0.223950
2337.000000	0.223235
2338.000000	0.222912
2339.000000	0.222522
2340.000000	0.221929
2341.000000	0.221338
2342.000000	0.220357
2343.000000	0.219710
2344.000000	0.219736
2345.000000	0.218594
2346.000000	0.216954
2347.000000	0.216003
2348.000000	0.214556
2349.000000	0.213185
2350.000000	0.213320
2351.000000	0.213192
2352.000000	0.211927
2353.000000	0.211240
2354.000000	0.210362
2355.000000	0.209938
2356.000000	0.209985
2357.000000	0.209447
2358.000000	0.208935
2359.000000	0.207956
2360.000000	0.207491
2361.000000	0.208120
2362.000000	0.207238
2363.000000	0.206983
2364.000000	0.206409
2365.000000	0.203873
2366.000000	0.202761
2367.000000	0.201674
2368.000000	0.202181
2369.000000	0.203712
2370.000000	0.202285
2371.000000	0.201606
2372.000000	0.200222
2373.000000	0.197258
2374.000000	0.196051
2375.000000	0.195279
2376.000000	0.194144
2377.000000	0.193209
2378.000000	0.194273
2379.000000	0.195576
2380.000000	0.193929
2381.000000	0.192035
2382.000000	0.190706
2383.000000	0.188808
2384.000000	0.188086
2385.000000	0.189272
2386.000000	0.189587
2387.000000	0.188121
2388.000000	0.189742
2389.000000	0.191427
2390.000000	0.190294
2391.000000	0.191421
2392.000000	0.191137
2393.000000	0.189173
2394.000000	0.189674
2395.000000	0.190514
2396.000000	0.191479
2397.000000	0.191810
2398.000000	0.189917
2399.000000	0.186171
2400.000000	0.182289
2401.000000	0.180083
2402.000000	0.180197
2403.000000	0.183839
2404.000000	0.186704
2405.000000	0.187397
2406.000000	0.188184
2407.000000	0.186870
2408.000000	0.185796
2409.000000	0.185292
2410.000000	0.183470
2411.000000	0.180734
2412.000000	0.178953
2413.000000	0.177995
2414.000000	0.178212
2415.000000	0.180064
2416.000000	0.182254
2417.000000	0.184797
2418.000000	0.184161
2419.000000	0.184252
2420.000000	0.183618
2421.000000	0.179883
2422.000000	0.180260
2423.000000	0.180231
2424.000000	0.180170
2425.000000	0.182879
2426.000000	0.182523
2427.000000	0.179939
2428.000000	0.178202
2429.000000	0.176983
2430.000000	0.177780
2431.000000	0.179716
2432.000000	0.179219
2433.000000	0.178455
2434.000000	0.176674
2435.000000	0.172113
2436.000000	0.166761
2437.000000	0.164319
2438.000000	0.161690
2439.000000	0.163756
2440.000000	0.172307
2441.000000	0.173681
2442.000000	0.175307
2443.000000	0.173958
2444.000000	0.167441
2445.000000	0.164099
2446.000000	0.160954
2447.000000	0.162009
2448.000000	0.163050
2449.000000	0.166534
2450.000000	0.172218
2451.000000	0.174443
2452.000000	0.181320
2453.000000	0.182346
2454.000000	0.176415
2455.000000	0.172889
2456.000000	0.165281
2457.000000	0.161840
2458.000000	0.162945
2459.000000	0.160869
2460.000000	0.159149
2461.000000	0.162272
2462.000000	0.165939
2463.000000	0.164731
2464.000000	0.163817
2465.000000	0.160590
2466.000000	0.155558
2467.000000	0.157053
2468.000000	0.162249
2469.000000	0.164846
2470.000000	0.172617
2471.000000	0.182021
2472.000000	0.180947
2473.000000	0.175206
2474.000000	0.163898
2475.000000	0.155778
2476.000000	0.157726
2477.000000	0.160564
2478.000000	0.166332
2479.000000	0.164560
2480.000000	0.152220
2481.000000	0.145803
2482.000000	0.141465
2483.000000	0.134024
2484.000000	0.131850
2485.000000	0.137719
2486.000000	0.142117
2487.000000	0.143194
2488.000000	0.154762
2489.000000	0.162905
2490.000000	0.159074
2491.000000	0.170163
2492.000000	0.168599
2493.000000	0.163651
2494.000000	0.166514
2495.000000	0.159454
2496.000000	0.157147
2497.000000	0.159086
2498.000000	0.159496
2499.000000	0.170869
2500.000000	0.179936
