# Wavelength	Hexa60_00002.asd.rts.txt
350.000000	0.223978
351.000000	0.225744
352.000000	0.219729
353.000000	0.214612
354.000000	0.215726
355.000000	0.214831
356.000000	0.217267
357.000000	0.222137
358.000000	0.220361
359.000000	0.222004
360.000000	0.225139
361.000000	0.225397
362.000000	0.224937
363.000000	0.226588
364.000000	0.230060
365.000000	0.230098
366.000000	0.228798
367.000000	0.227733
368.000000	0.228958
369.000000	0.229935
370.000000	0.230250
371.000000	0.230230
372.000000	0.230527
373.000000	0.231624
374.000000	0.233421
375.000000	0.232190
376.000000	0.231379
377.000000	0.232219
378.000000	0.234426
379.000000	0.234175
380.000000	0.233214
381.000000	0.235287
382.000000	0.235297
383.000000	0.234195
384.000000	0.233755
385.000000	0.235231
386.000000	0.235996
387.000000	0.236017
388.000000	0.237788
389.000000	0.238331
390.000000	0.238202
391.000000	0.238764
392.000000	0.239517
393.000000	0.239870
394.000000	0.239763
395.000000	0.240933
396.000000	0.242152
397.000000	0.242757
398.000000	0.242823
399.000000	0.242980
400.000000	0.243430
401.000000	0.244026
402.000000	0.244605
403.000000	0.244898
404.000000	0.244997
405.000000	0.245707
406.000000	0.246484
407.000000	0.247014
408.000000	0.247202
409.000000	0.247488
410.000000	0.247851
411.000000	0.247975
412.000000	0.248213
413.000000	0.248553
414.000000	0.248942
415.000000	0.249443
416.000000	0.249901
417.000000	0.250244
418.000000	0.250585
419.000000	0.250828
420.000000	0.251092
421.000000	0.251705
422.000000	0.252008
423.000000	0.252162
424.000000	0.252624
425.000000	0.253093
426.000000	0.253408
427.000000	0.253539
428.000000	0.253865
429.000000	0.254250
430.000000	0.254601
431.000000	0.254848
432.000000	0.255062
433.000000	0.255242
434.000000	0.255471
435.000000	0.255678
436.000000	0.255915
437.000000	0.256185
438.000000	0.256292
439.000000	0.256333
440.000000	0.256512
441.000000	0.256910
442.000000	0.257180
443.000000	0.257240
444.000000	0.257370
445.000000	0.257610
446.000000	0.258034
447.000000	0.258472
448.000000	0.258616
449.000000	0.258834
450.000000	0.259311
451.000000	0.259473
452.000000	0.259678
453.000000	0.259970
454.000000	0.260295
455.000000	0.260643
456.000000	0.261023
457.000000	0.261268
458.000000	0.261558
459.000000	0.261865
460.000000	0.262182
461.000000	0.262443
462.000000	0.262694
463.000000	0.262841
464.000000	0.263101
465.000000	0.263372
466.000000	0.263571
467.000000	0.263759
468.000000	0.264091
469.000000	0.264354
470.000000	0.264480
471.000000	0.264668
472.000000	0.264891
473.000000	0.265141
474.000000	0.265399
475.000000	0.265594
476.000000	0.265837
477.000000	0.266070
478.000000	0.266215
479.000000	0.266450
480.000000	0.266670
481.000000	0.266924
482.000000	0.267237
483.000000	0.267415
484.000000	0.267701
485.000000	0.267907
486.000000	0.268125
487.000000	0.268351
488.000000	0.268531
489.000000	0.268732
490.000000	0.269084
491.000000	0.269370
492.000000	0.269653
493.000000	0.269909
494.000000	0.270175
495.000000	0.270492
496.000000	0.270822
497.000000	0.271094
498.000000	0.271391
499.000000	0.271767
500.000000	0.272030
501.000000	0.272268
502.000000	0.272565
503.000000	0.272905
504.000000	0.273177
505.000000	0.273416
506.000000	0.273676
507.000000	0.273907
508.000000	0.274216
509.000000	0.274587
510.000000	0.274896
511.000000	0.275209
512.000000	0.275562
513.000000	0.275915
514.000000	0.276229
515.000000	0.276557
516.000000	0.276899
517.000000	0.277197
518.000000	0.277514
519.000000	0.277809
520.000000	0.278081
521.000000	0.278368
522.000000	0.278689
523.000000	0.279024
524.000000	0.279375
525.000000	0.279699
526.000000	0.279975
527.000000	0.280236
528.000000	0.280501
529.000000	0.280830
530.000000	0.281101
531.000000	0.281408
532.000000	0.281708
533.000000	0.281967
534.000000	0.282249
535.000000	0.282559
536.000000	0.282884
537.000000	0.283225
538.000000	0.283555
539.000000	0.283829
540.000000	0.284114
541.000000	0.284382
542.000000	0.284645
543.000000	0.284951
544.000000	0.285244
545.000000	0.285460
546.000000	0.285788
547.000000	0.286109
548.000000	0.286435
549.000000	0.286763
550.000000	0.287118
551.000000	0.287477
552.000000	0.287755
553.000000	0.288036
554.000000	0.288339
555.000000	0.288676
556.000000	0.289039
557.000000	0.289361
558.000000	0.289736
559.000000	0.290064
560.000000	0.290380
561.000000	0.290756
562.000000	0.291121
563.000000	0.291417
564.000000	0.291744
565.000000	0.292091
566.000000	0.292446
567.000000	0.292789
568.000000	0.293089
569.000000	0.293377
570.000000	0.293688
571.000000	0.294016
572.000000	0.294336
573.000000	0.294672
574.000000	0.295013
575.000000	0.295393
576.000000	0.295739
577.000000	0.296055
578.000000	0.296416
579.000000	0.296758
580.000000	0.297075
581.000000	0.297371
582.000000	0.297674
583.000000	0.297994
584.000000	0.298321
585.000000	0.298631
586.000000	0.298954
587.000000	0.299284
588.000000	0.299611
589.000000	0.299936
590.000000	0.300288
591.000000	0.300660
592.000000	0.300955
593.000000	0.301250
594.000000	0.301543
595.000000	0.301761
596.000000	0.301956
597.000000	0.302174
598.000000	0.302357
599.000000	0.302515
600.000000	0.302742
601.000000	0.303006
602.000000	0.303195
603.000000	0.303363
604.000000	0.303558
605.000000	0.303780
606.000000	0.303947
607.000000	0.304070
608.000000	0.304217
609.000000	0.304374
610.000000	0.304557
611.000000	0.304773
612.000000	0.304956
613.000000	0.305124
614.000000	0.305313
615.000000	0.305416
616.000000	0.305501
617.000000	0.305591
618.000000	0.305781
619.000000	0.305995
620.000000	0.306174
621.000000	0.306335
622.000000	0.306476
623.000000	0.306656
624.000000	0.306904
625.000000	0.307108
626.000000	0.307322
627.000000	0.307585
628.000000	0.307908
629.000000	0.308253
630.000000	0.308496
631.000000	0.308765
632.000000	0.309049
633.000000	0.309329
634.000000	0.309564
635.000000	0.309752
636.000000	0.309903
637.000000	0.310017
638.000000	0.310135
639.000000	0.310229
640.000000	0.310357
641.000000	0.310479
642.000000	0.310598
643.000000	0.310729
644.000000	0.310886
645.000000	0.311006
646.000000	0.311149
647.000000	0.311326
648.000000	0.311500
649.000000	0.311668
650.000000	0.311818
651.000000	0.311985
652.000000	0.312149
653.000000	0.312332
654.000000	0.312488
655.000000	0.312657
656.000000	0.312850
657.000000	0.313013
658.000000	0.313204
659.000000	0.313412
660.000000	0.313609
661.000000	0.313792
662.000000	0.313946
663.000000	0.314132
664.000000	0.314343
665.000000	0.314542
666.000000	0.314725
667.000000	0.314869
668.000000	0.315047
669.000000	0.315243
670.000000	0.315439
671.000000	0.315591
672.000000	0.315761
673.000000	0.315954
674.000000	0.316149
675.000000	0.316320
676.000000	0.316478
677.000000	0.316663
678.000000	0.316844
679.000000	0.317004
680.000000	0.317152
681.000000	0.317328
682.000000	0.317547
683.000000	0.317730
684.000000	0.317949
685.000000	0.318132
686.000000	0.318300
687.000000	0.318448
688.000000	0.318611
689.000000	0.318791
690.000000	0.319010
691.000000	0.319227
692.000000	0.319394
693.000000	0.319563
694.000000	0.319712
695.000000	0.319882
696.000000	0.320044
697.000000	0.320158
698.000000	0.320334
699.000000	0.320548
700.000000	0.320764
701.000000	0.320948
702.000000	0.321142
703.000000	0.321330
704.000000	0.321475
705.000000	0.321612
706.000000	0.321730
707.000000	0.321896
708.000000	0.322058
709.000000	0.322210
710.000000	0.322368
711.000000	0.322503
712.000000	0.322648
713.000000	0.322829
714.000000	0.322989
715.000000	0.323149
716.000000	0.323322
717.000000	0.323492
718.000000	0.323681
719.000000	0.323873
720.000000	0.324065
721.000000	0.324240
722.000000	0.324387
723.000000	0.324564
724.000000	0.324725
725.000000	0.324838
726.000000	0.324976
727.000000	0.325078
728.000000	0.325132
729.000000	0.325200
730.000000	0.325278
731.000000	0.325411
732.000000	0.325574
733.000000	0.325769
734.000000	0.325890
735.000000	0.325974
736.000000	0.326139
737.000000	0.326258
738.000000	0.326325
739.000000	0.326453
740.000000	0.326533
741.000000	0.326588
742.000000	0.326687
743.000000	0.326814
744.000000	0.326959
745.000000	0.327044
746.000000	0.327137
747.000000	0.327241
748.000000	0.327391
749.000000	0.327547
750.000000	0.327644
751.000000	0.327718
752.000000	0.327799
753.000000	0.327899
754.000000	0.327980
755.000000	0.328060
756.000000	0.328173
757.000000	0.328296
758.000000	0.328425
759.000000	0.328563
760.000000	0.328641
761.000000	0.328746
762.000000	0.328806
763.000000	0.328814
764.000000	0.328891
765.000000	0.328939
766.000000	0.329004
767.000000	0.329123
768.000000	0.329225
769.000000	0.329314
770.000000	0.329408
771.000000	0.329530
772.000000	0.329670
773.000000	0.329745
774.000000	0.329793
775.000000	0.329852
776.000000	0.329940
777.000000	0.330041
778.000000	0.330151
779.000000	0.330218
780.000000	0.330231
781.000000	0.330194
782.000000	0.330194
783.000000	0.330297
784.000000	0.330359
785.000000	0.330450
786.000000	0.330506
787.000000	0.330507
788.000000	0.330551
789.000000	0.330588
790.000000	0.330611
791.000000	0.330677
792.000000	0.330742
793.000000	0.330798
794.000000	0.330852
795.000000	0.330898
796.000000	0.330916
797.000000	0.330912
798.000000	0.330931
799.000000	0.330946
800.000000	0.330968
801.000000	0.331016
802.000000	0.331062
803.000000	0.331152
804.000000	0.331286
805.000000	0.331218
806.000000	0.331153
807.000000	0.331210
808.000000	0.331299
809.000000	0.331402
810.000000	0.331512
811.000000	0.331593
812.000000	0.331573
813.000000	0.331536
814.000000	0.331517
815.000000	0.331530
816.000000	0.331499
817.000000	0.331491
818.000000	0.331487
819.000000	0.331486
820.000000	0.331527
821.000000	0.331567
822.000000	0.331605
823.000000	0.331647
824.000000	0.331618
825.000000	0.331566
826.000000	0.331545
827.000000	0.331528
828.000000	0.331514
829.000000	0.331395
830.000000	0.331305
831.000000	0.331324
832.000000	0.331314
833.000000	0.331313
834.000000	0.331334
835.000000	0.331400
836.000000	0.331412
837.000000	0.331354
838.000000	0.331243
839.000000	0.331086
840.000000	0.330962
841.000000	0.330948
842.000000	0.331009
843.000000	0.330984
844.000000	0.330959
845.000000	0.330947
846.000000	0.330968
847.000000	0.330992
848.000000	0.330978
849.000000	0.330938
850.000000	0.330915
851.000000	0.330827
852.000000	0.330714
853.000000	0.330678
854.000000	0.330614
855.000000	0.330620
856.000000	0.330613
857.000000	0.330461
858.000000	0.330314
859.000000	0.330173
860.000000	0.330031
861.000000	0.329932
862.000000	0.329878
863.000000	0.329773
864.000000	0.329673
865.000000	0.329609
866.000000	0.329587
867.000000	0.329479
868.000000	0.329382
869.000000	0.329260
870.000000	0.329158
871.000000	0.329075
872.000000	0.329013
873.000000	0.328914
874.000000	0.328841
875.000000	0.328720
876.000000	0.328569
877.000000	0.328372
878.000000	0.328196
879.000000	0.328021
880.000000	0.327721
881.000000	0.327545
882.000000	0.327415
883.000000	0.327319
884.000000	0.327184
885.000000	0.327035
886.000000	0.326815
887.000000	0.326560
888.000000	0.326393
889.000000	0.326262
890.000000	0.326064
891.000000	0.325928
892.000000	0.325854
893.000000	0.325693
894.000000	0.325532
895.000000	0.325431
896.000000	0.325263
897.000000	0.325065
898.000000	0.324907
899.000000	0.324667
900.000000	0.324400
901.000000	0.324137
902.000000	0.324012
903.000000	0.323923
904.000000	0.323842
905.000000	0.323662
906.000000	0.323532
907.000000	0.323362
908.000000	0.323203
909.000000	0.323073
910.000000	0.322950
911.000000	0.322740
912.000000	0.322412
913.000000	0.322101
914.000000	0.321841
915.000000	0.321673
916.000000	0.321456
917.000000	0.321203
918.000000	0.320975
919.000000	0.320796
920.000000	0.320680
921.000000	0.320523
922.000000	0.320315
923.000000	0.320064
924.000000	0.319755
925.000000	0.319489
926.000000	0.319335
927.000000	0.319175
928.000000	0.318952
929.000000	0.318691
930.000000	0.318450
931.000000	0.318209
932.000000	0.317990
933.000000	0.317806
934.000000	0.317553
935.000000	0.317313
936.000000	0.317113
937.000000	0.316845
938.000000	0.316513
939.000000	0.316308
940.000000	0.316155
941.000000	0.315993
942.000000	0.315729
943.000000	0.315470
944.000000	0.315188
945.000000	0.315034
946.000000	0.314830
947.000000	0.314670
948.000000	0.314581
949.000000	0.314252
950.000000	0.313883
951.000000	0.313553
952.000000	0.313331
953.000000	0.313175
954.000000	0.312987
955.000000	0.312675
956.000000	0.312472
957.000000	0.312297
958.000000	0.312059
959.000000	0.311815
960.000000	0.311649
961.000000	0.311462
962.000000	0.311195
963.000000	0.310911
964.000000	0.310592
965.000000	0.310320
966.000000	0.310050
967.000000	0.309885
968.000000	0.309689
969.000000	0.309403
970.000000	0.309157
971.000000	0.308905
972.000000	0.308703
973.000000	0.308507
974.000000	0.308347
975.000000	0.308161
976.000000	0.307908
977.000000	0.307597
978.000000	0.307372
979.000000	0.307383
980.000000	0.307235
981.000000	0.306901
982.000000	0.306698
983.000000	0.306439
984.000000	0.306197
985.000000	0.306159
986.000000	0.305972
987.000000	0.305821
988.000000	0.305704
989.000000	0.305394
990.000000	0.305230
991.000000	0.305224
992.000000	0.305262
993.000000	0.305016
994.000000	0.304729
995.000000	0.304618
996.000000	0.304440
997.000000	0.304362
998.000000	0.304260
999.000000	0.304150
1000.000000	0.304041
1001.000000	0.304458
1002.000000	0.304217
1003.000000	0.303776
1004.000000	0.303586
1005.000000	0.303471
1006.000000	0.303183
1007.000000	0.302957
1008.000000	0.302892
1009.000000	0.302585
1010.000000	0.302034
1011.000000	0.302041
1012.000000	0.302374
1013.000000	0.302232
1014.000000	0.302107
1015.000000	0.302189
1016.000000	0.302184
1017.000000	0.302019
1018.000000	0.302070
1019.000000	0.302092
1020.000000	0.302060
1021.000000	0.301677
1022.000000	0.301431
1023.000000	0.301479
1024.000000	0.301299
1025.000000	0.301331
1026.000000	0.301492
1027.000000	0.301446
1028.000000	0.301371
1029.000000	0.301300
1030.000000	0.301160
1031.000000	0.301033
1032.000000	0.301131
1033.000000	0.301201
1034.000000	0.301232
1035.000000	0.301417
1036.000000	0.301634
1037.000000	0.301778
1038.000000	0.301768
1039.000000	0.301951
1040.000000	0.302030
1041.000000	0.301816
1042.000000	0.301865
1043.000000	0.302068
1044.000000	0.302291
1045.000000	0.302476
1046.000000	0.302439
1047.000000	0.302519
1048.000000	0.302498
1049.000000	0.302545
1050.000000	0.302723
1051.000000	0.302768
1052.000000	0.302602
1053.000000	0.302634
1054.000000	0.302895
1055.000000	0.303149
1056.000000	0.303602
1057.000000	0.303970
1058.000000	0.304116
1059.000000	0.304127
1060.000000	0.304233
1061.000000	0.304421
1062.000000	0.304702
1063.000000	0.304994
1064.000000	0.305184
1065.000000	0.305248
1066.000000	0.305393
1067.000000	0.305425
1068.000000	0.305577
1069.000000	0.305797
1070.000000	0.305954
1071.000000	0.306186
1072.000000	0.306348
1073.000000	0.306392
1074.000000	0.306741
1075.000000	0.306855
1076.000000	0.307060
1077.000000	0.307264
1078.000000	0.307308
1079.000000	0.307467
1080.000000	0.307711
1081.000000	0.307903
1082.000000	0.308177
1083.000000	0.308418
1084.000000	0.308688
1085.000000	0.308956
1086.000000	0.309209
1087.000000	0.309478
1088.000000	0.309670
1089.000000	0.309853
1090.000000	0.310121
1091.000000	0.310110
1092.000000	0.310104
1093.000000	0.310379
1094.000000	0.310564
1095.000000	0.310664
1096.000000	0.310929
1097.000000	0.311349
1098.000000	0.311604
1099.000000	0.311842
1100.000000	0.312053
1101.000000	0.312064
1102.000000	0.312190
1103.000000	0.312352
1104.000000	0.312523
1105.000000	0.312675
1106.000000	0.312896
1107.000000	0.313122
1108.000000	0.313305
1109.000000	0.313574
1110.000000	0.313881
1111.000000	0.314017
1112.000000	0.314007
1113.000000	0.314194
1114.000000	0.314392
1115.000000	0.314571
1116.000000	0.314871
1117.000000	0.315081
1118.000000	0.315221
1119.000000	0.315270
1120.000000	0.315245
1121.000000	0.315303
1122.000000	0.315395
1123.000000	0.315646
1124.000000	0.315846
1125.000000	0.316024
1126.000000	0.316097
1127.000000	0.316147
1128.000000	0.316174
1129.000000	0.316223
1130.000000	0.316274
1131.000000	0.316304
1132.000000	0.316341
1133.000000	0.316427
1134.000000	0.316552
1135.000000	0.316673
1136.000000	0.316740
1137.000000	0.316815
1138.000000	0.316833
1139.000000	0.316857
1140.000000	0.316955
1141.000000	0.317012
1142.000000	0.317104
1143.000000	0.317185
1144.000000	0.317336
1145.000000	0.317324
1146.000000	0.317310
1147.000000	0.317366
1148.000000	0.317312
1149.000000	0.317398
1150.000000	0.317663
1151.000000	0.317768
1152.000000	0.317789
1153.000000	0.317841
1154.000000	0.317783
1155.000000	0.317773
1156.000000	0.317825
1157.000000	0.317836
1158.000000	0.317788
1159.000000	0.317740
1160.000000	0.317656
1161.000000	0.317582
1162.000000	0.317555
1163.000000	0.317640
1164.000000	0.317594
1165.000000	0.317525
1166.000000	0.317528
1167.000000	0.317474
1168.000000	0.317447
1169.000000	0.317514
1170.000000	0.317547
1171.000000	0.317600
1172.000000	0.317664
1173.000000	0.317722
1174.000000	0.317748
1175.000000	0.317731
1176.000000	0.317675
1177.000000	0.317651
1178.000000	0.317630
1179.000000	0.317600
1180.000000	0.317501
1181.000000	0.317440
1182.000000	0.317398
1183.000000	0.317363
1184.000000	0.317366
1185.000000	0.317342
1186.000000	0.317341
1187.000000	0.317292
1188.000000	0.317205
1189.000000	0.317111
1190.000000	0.317040
1191.000000	0.316994
1192.000000	0.317030
1193.000000	0.317147
1194.000000	0.317249
1195.000000	0.317275
1196.000000	0.317223
1197.000000	0.317186
1198.000000	0.317090
1199.000000	0.317066
1200.000000	0.317062
1201.000000	0.317114
1202.000000	0.317168
1203.000000	0.317149
1204.000000	0.317113
1205.000000	0.317100
1206.000000	0.317076
1207.000000	0.317171
1208.000000	0.317134
1209.000000	0.317106
1210.000000	0.317083
1211.000000	0.316998
1212.000000	0.316940
1213.000000	0.316961
1214.000000	0.316968
1215.000000	0.316931
1216.000000	0.316909
1217.000000	0.316876
1218.000000	0.316836
1219.000000	0.316798
1220.000000	0.316826
1221.000000	0.316854
1222.000000	0.316851
1223.000000	0.316848
1224.000000	0.316823
1225.000000	0.316750
1226.000000	0.316707
1227.000000	0.316678
1228.000000	0.316699
1229.000000	0.316650
1230.000000	0.316576
1231.000000	0.316471
1232.000000	0.316418
1233.000000	0.316444
1234.000000	0.316506
1235.000000	0.316520
1236.000000	0.316447
1237.000000	0.316437
1238.000000	0.316364
1239.000000	0.316318
1240.000000	0.316285
1241.000000	0.316301
1242.000000	0.316318
1243.000000	0.316315
1244.000000	0.316349
1245.000000	0.316470
1246.000000	0.316492
1247.000000	0.316557
1248.000000	0.316620
1249.000000	0.316605
1250.000000	0.316625
1251.000000	0.316647
1252.000000	0.316627
1253.000000	0.316603
1254.000000	0.316586
1255.000000	0.316549
1256.000000	0.316515
1257.000000	0.316507
1258.000000	0.316514
1259.000000	0.316458
1260.000000	0.316454
1261.000000	0.316404
1262.000000	0.316389
1263.000000	0.316418
1264.000000	0.316420
1265.000000	0.316472
1266.000000	0.316508
1267.000000	0.316527
1268.000000	0.316520
1269.000000	0.316395
1270.000000	0.316339
1271.000000	0.316345
1272.000000	0.316412
1273.000000	0.316540
1274.000000	0.316626
1275.000000	0.316636
1276.000000	0.316559
1277.000000	0.316600
1278.000000	0.316583
1279.000000	0.316549
1280.000000	0.316470
1281.000000	0.316371
1282.000000	0.316259
1283.000000	0.316265
1284.000000	0.316284
1285.000000	0.316283
1286.000000	0.316290
1287.000000	0.316258
1288.000000	0.316257
1289.000000	0.316211
1290.000000	0.316124
1291.000000	0.316078
1292.000000	0.316036
1293.000000	0.315983
1294.000000	0.315939
1295.000000	0.315953
1296.000000	0.315958
1297.000000	0.315977
1298.000000	0.316052
1299.000000	0.316056
1300.000000	0.316064
1301.000000	0.316037
1302.000000	0.315961
1303.000000	0.315966
1304.000000	0.315916
1305.000000	0.315930
1306.000000	0.315875
1307.000000	0.315808
1308.000000	0.315786
1309.000000	0.315757
1310.000000	0.315712
1311.000000	0.315713
1312.000000	0.315668
1313.000000	0.315600
1314.000000	0.315528
1315.000000	0.315455
1316.000000	0.315470
1317.000000	0.315512
1318.000000	0.315500
1319.000000	0.315403
1320.000000	0.315330
1321.000000	0.315249
1322.000000	0.315041
1323.000000	0.314930
1324.000000	0.314928
1325.000000	0.314792
1326.000000	0.314705
1327.000000	0.314625
1328.000000	0.314519
1329.000000	0.314362
1330.000000	0.314175
1331.000000	0.314038
1332.000000	0.313946
1333.000000	0.313828
1334.000000	0.313806
1335.000000	0.313774
1336.000000	0.313699
1337.000000	0.313615
1338.000000	0.313502
1339.000000	0.313342
1340.000000	0.313165
1341.000000	0.313032
1342.000000	0.312908
1343.000000	0.312790
1344.000000	0.312647
1345.000000	0.312464
1346.000000	0.312330
1347.000000	0.312096
1348.000000	0.311920
1349.000000	0.311665
1350.000000	0.311415
1351.000000	0.311201
1352.000000	0.310918
1353.000000	0.310704
1354.000000	0.310570
1355.000000	0.310350
1356.000000	0.310219
1357.000000	0.310095
1358.000000	0.309931
1359.000000	0.309781
1360.000000	0.309625
1361.000000	0.309495
1362.000000	0.309346
1363.000000	0.309147
1364.000000	0.309041
1365.000000	0.308958
1366.000000	0.308848
1367.000000	0.308761
1368.000000	0.308663
1369.000000	0.308593
1370.000000	0.308456
1371.000000	0.308326
1372.000000	0.308166
1373.000000	0.307985
1374.000000	0.307849
1375.000000	0.307680
1376.000000	0.307608
1377.000000	0.307542
1378.000000	0.307403
1379.000000	0.307210
1380.000000	0.307003
1381.000000	0.306771
1382.000000	0.306526
1383.000000	0.306351
1384.000000	0.306080
1385.000000	0.305766
1386.000000	0.305565
1387.000000	0.305368
1388.000000	0.305155
1389.000000	0.304969
1390.000000	0.304750
1391.000000	0.304449
1392.000000	0.304185
1393.000000	0.303902
1394.000000	0.303649
1395.000000	0.303372
1396.000000	0.303130
1397.000000	0.302748
1398.000000	0.302245
1399.000000	0.301763
1400.000000	0.301206
1401.000000	0.300641
1402.000000	0.300114
1403.000000	0.299554
1404.000000	0.299018
1405.000000	0.298427
1406.000000	0.297825
1407.000000	0.297217
1408.000000	0.296511
1409.000000	0.295874
1410.000000	0.295267
1411.000000	0.294562
1412.000000	0.293826
1413.000000	0.293083
1414.000000	0.292324
1415.000000	0.291599
1416.000000	0.290840
1417.000000	0.290065
1418.000000	0.289249
1419.000000	0.288454
1420.000000	0.287664
1421.000000	0.286968
1422.000000	0.286256
1423.000000	0.285583
1424.000000	0.284852
1425.000000	0.284104
1426.000000	0.283350
1427.000000	0.282627
1428.000000	0.281951
1429.000000	0.281323
1430.000000	0.280736
1431.000000	0.280127
1432.000000	0.279504
1433.000000	0.278894
1434.000000	0.278312
1435.000000	0.277806
1436.000000	0.277286
1437.000000	0.276801
1438.000000	0.276237
1439.000000	0.275643
1440.000000	0.275113
1441.000000	0.274592
1442.000000	0.274129
1443.000000	0.273665
1444.000000	0.273203
1445.000000	0.272794
1446.000000	0.272374
1447.000000	0.271964
1448.000000	0.271618
1449.000000	0.271279
1450.000000	0.270931
1451.000000	0.270611
1452.000000	0.270288
1453.000000	0.269993
1454.000000	0.269714
1455.000000	0.269467
1456.000000	0.269285
1457.000000	0.269095
1458.000000	0.268924
1459.000000	0.268808
1460.000000	0.268679
1461.000000	0.268532
1462.000000	0.268372
1463.000000	0.268137
1464.000000	0.267938
1465.000000	0.267824
1466.000000	0.267692
1467.000000	0.267580
1468.000000	0.267498
1469.000000	0.267470
1470.000000	0.267366
1471.000000	0.267304
1472.000000	0.267303
1473.000000	0.267311
1474.000000	0.267310
1475.000000	0.267366
1476.000000	0.267430
1477.000000	0.267491
1478.000000	0.267591
1479.000000	0.267703
1480.000000	0.267825
1481.000000	0.267955
1482.000000	0.268117
1483.000000	0.268341
1484.000000	0.268630
1485.000000	0.268880
1486.000000	0.269146
1487.000000	0.269411
1488.000000	0.269648
1489.000000	0.269939
1490.000000	0.270176
1491.000000	0.270463
1492.000000	0.270754
1493.000000	0.271038
1494.000000	0.271305
1495.000000	0.271529
1496.000000	0.271726
1497.000000	0.271918
1498.000000	0.272099
1499.000000	0.272273
1500.000000	0.272453
1501.000000	0.272620
1502.000000	0.272794
1503.000000	0.273037
1504.000000	0.273285
1505.000000	0.273493
1506.000000	0.273720
1507.000000	0.273902
1508.000000	0.274098
1509.000000	0.274329
1510.000000	0.274492
1511.000000	0.274643
1512.000000	0.274779
1513.000000	0.274870
1514.000000	0.274992
1515.000000	0.275071
1516.000000	0.275140
1517.000000	0.275198
1518.000000	0.275237
1519.000000	0.275260
1520.000000	0.275300
1521.000000	0.275308
1522.000000	0.275371
1523.000000	0.275504
1524.000000	0.275556
1525.000000	0.275629
1526.000000	0.275688
1527.000000	0.275713
1528.000000	0.275825
1529.000000	0.275921
1530.000000	0.275911
1531.000000	0.275977
1532.000000	0.276054
1533.000000	0.276078
1534.000000	0.276197
1535.000000	0.276301
1536.000000	0.276279
1537.000000	0.276372
1538.000000	0.276460
1539.000000	0.276483
1540.000000	0.276590
1541.000000	0.276677
1542.000000	0.276753
1543.000000	0.276852
1544.000000	0.276885
1545.000000	0.276970
1546.000000	0.277050
1547.000000	0.277080
1548.000000	0.277161
1549.000000	0.277178
1550.000000	0.277143
1551.000000	0.277141
1552.000000	0.277124
1553.000000	0.277116
1554.000000	0.277086
1555.000000	0.277062
1556.000000	0.277113
1557.000000	0.277128
1558.000000	0.277144
1559.000000	0.277153
1560.000000	0.277116
1561.000000	0.277050
1562.000000	0.276992
1563.000000	0.276959
1564.000000	0.276934
1565.000000	0.276894
1566.000000	0.276831
1567.000000	0.276871
1568.000000	0.276861
1569.000000	0.276904
1570.000000	0.276881
1571.000000	0.276788
1572.000000	0.276725
1573.000000	0.276638
1574.000000	0.276600
1575.000000	0.276636
1576.000000	0.276627
1577.000000	0.276588
1578.000000	0.276565
1579.000000	0.276574
1580.000000	0.276593
1581.000000	0.276711
1582.000000	0.276754
1583.000000	0.276765
1584.000000	0.276739
1585.000000	0.276755
1586.000000	0.276758
1587.000000	0.276714
1588.000000	0.276701
1589.000000	0.276700
1590.000000	0.276695
1591.000000	0.276748
1592.000000	0.276766
1593.000000	0.276773
1594.000000	0.276779
1595.000000	0.276802
1596.000000	0.276847
1597.000000	0.276959
1598.000000	0.276999
1599.000000	0.277042
1600.000000	0.277039
1601.000000	0.277023
1602.000000	0.277033
1603.000000	0.277085
1604.000000	0.277108
1605.000000	0.277162
1606.000000	0.277187
1607.000000	0.277239
1608.000000	0.277254
1609.000000	0.277271
1610.000000	0.277275
1611.000000	0.277270
1612.000000	0.277300
1613.000000	0.277446
1614.000000	0.277522
1615.000000	0.277622
1616.000000	0.277734
1617.000000	0.277795
1618.000000	0.277858
1619.000000	0.277924
1620.000000	0.277995
1621.000000	0.278065
1622.000000	0.278192
1623.000000	0.278331
1624.000000	0.278433
1625.000000	0.278423
1626.000000	0.278421
1627.000000	0.278386
1628.000000	0.278478
1629.000000	0.278611
1630.000000	0.278756
1631.000000	0.278945
1632.000000	0.279048
1633.000000	0.279123
1634.000000	0.279225
1635.000000	0.279331
1636.000000	0.279444
1637.000000	0.279595
1638.000000	0.279700
1639.000000	0.279850
1640.000000	0.279946
1641.000000	0.280040
1642.000000	0.280172
1643.000000	0.280340
1644.000000	0.280480
1645.000000	0.280643
1646.000000	0.280734
1647.000000	0.280778
1648.000000	0.280872
1649.000000	0.281055
1650.000000	0.281219
1651.000000	0.281430
1652.000000	0.281645
1653.000000	0.281803
1654.000000	0.282018
1655.000000	0.282255
1656.000000	0.282369
1657.000000	0.282495
1658.000000	0.282619
1659.000000	0.282778
1660.000000	0.282951
1661.000000	0.283085
1662.000000	0.283208
1663.000000	0.283276
1664.000000	0.283376
1665.000000	0.283476
1666.000000	0.283662
1667.000000	0.283817
1668.000000	0.283956
1669.000000	0.284098
1670.000000	0.284218
1671.000000	0.284418
1672.000000	0.284594
1673.000000	0.284755
1674.000000	0.284842
1675.000000	0.284989
1676.000000	0.285127
1677.000000	0.285212
1678.000000	0.285227
1679.000000	0.285219
1680.000000	0.285194
1681.000000	0.285191
1682.000000	0.285195
1683.000000	0.285225
1684.000000	0.285262
1685.000000	0.285283
1686.000000	0.285283
1687.000000	0.285319
1688.000000	0.285329
1689.000000	0.285347
1690.000000	0.285403
1691.000000	0.285540
1692.000000	0.285595
1693.000000	0.285660
1694.000000	0.285728
1695.000000	0.285794
1696.000000	0.285843
1697.000000	0.285870
1698.000000	0.285941
1699.000000	0.286026
1700.000000	0.286104
1701.000000	0.286277
1702.000000	0.286334
1703.000000	0.286396
1704.000000	0.286594
1705.000000	0.286729
1706.000000	0.286891
1707.000000	0.287011
1708.000000	0.287055
1709.000000	0.287066
1710.000000	0.287121
1711.000000	0.287180
1712.000000	0.287266
1713.000000	0.287296
1714.000000	0.287314
1715.000000	0.287374
1716.000000	0.287427
1717.000000	0.287504
1718.000000	0.287605
1719.000000	0.287683
1720.000000	0.287819
1721.000000	0.287899
1722.000000	0.287961
1723.000000	0.288039
1724.000000	0.288094
1725.000000	0.288205
1726.000000	0.288296
1727.000000	0.288368
1728.000000	0.288387
1729.000000	0.288385
1730.000000	0.288478
1731.000000	0.288541
1732.000000	0.288597
1733.000000	0.288729
1734.000000	0.288748
1735.000000	0.288861
1736.000000	0.289039
1737.000000	0.289137
1738.000000	0.289235
1739.000000	0.289357
1740.000000	0.289445
1741.000000	0.289524
1742.000000	0.289637
1743.000000	0.289783
1744.000000	0.289896
1745.000000	0.289989
1746.000000	0.290121
1747.000000	0.290132
1748.000000	0.290137
1749.000000	0.290155
1750.000000	0.290151
1751.000000	0.290220
1752.000000	0.290404
1753.000000	0.290534
1754.000000	0.290670
1755.000000	0.290851
1756.000000	0.290961
1757.000000	0.290969
1758.000000	0.291084
1759.000000	0.291226
1760.000000	0.291356
1761.000000	0.291555
1762.000000	0.291645
1763.000000	0.291648
1764.000000	0.291694
1765.000000	0.291646
1766.000000	0.291707
1767.000000	0.291796
1768.000000	0.291814
1769.000000	0.291935
1770.000000	0.292040
1771.000000	0.292049
1772.000000	0.292095
1773.000000	0.292114
1774.000000	0.292163
1775.000000	0.292265
1776.000000	0.292374
1777.000000	0.292500
1778.000000	0.292565
1779.000000	0.292578
1780.000000	0.292667
1781.000000	0.292727
1782.000000	0.292785
1783.000000	0.292932
1784.000000	0.293022
1785.000000	0.293058
1786.000000	0.293236
1787.000000	0.293485
1788.000000	0.293655
1789.000000	0.293799
1790.000000	0.293829
1791.000000	0.293870
1792.000000	0.294014
1793.000000	0.294117
1794.000000	0.294238
1795.000000	0.294358
1796.000000	0.294443
1797.000000	0.294515
1798.000000	0.294573
1799.000000	0.294614
1800.000000	0.294658
1801.000000	0.294359
1802.000000	0.294597
1803.000000	0.294888
1804.000000	0.295015
1805.000000	0.295212
1806.000000	0.295215
1807.000000	0.294766
1808.000000	0.294705
1809.000000	0.294718
1810.000000	0.294837
1811.000000	0.294923
1812.000000	0.295335
1813.000000	0.295349
1814.000000	0.295072
1815.000000	0.295000
1816.000000	0.294772
1817.000000	0.294674
1818.000000	0.294682
1819.000000	0.295077
1820.000000	0.295382
1821.000000	0.295399
1822.000000	0.295411
1823.000000	0.295182
1824.000000	0.295002
1825.000000	0.294648
1826.000000	0.294604
1827.000000	0.294508
1828.000000	0.294590
1829.000000	0.294805
1830.000000	0.294546
1831.000000	0.294532
1832.000000	0.294363
1833.000000	0.294444
1834.000000	0.294951
1835.000000	0.294997
1836.000000	0.294865
1837.000000	0.294674
1838.000000	0.294043
1839.000000	0.293505
1840.000000	0.293092
1841.000000	0.292742
1842.000000	0.292606
1843.000000	0.292619
1844.000000	0.292658
1845.000000	0.292909
1846.000000	0.293011
1847.000000	0.293007
1848.000000	0.292846
1849.000000	0.292644
1850.000000	0.292411
1851.000000	0.292194
1852.000000	0.291812
1853.000000	0.291677
1854.000000	0.291610
1855.000000	0.291218
1856.000000	0.290654
1857.000000	0.290204
1858.000000	0.289379
1859.000000	0.288617
1860.000000	0.288134
1861.000000	0.287478
1862.000000	0.286757
1863.000000	0.286031
1864.000000	0.285414
1865.000000	0.284849
1866.000000	0.284149
1867.000000	0.283420
1868.000000	0.282698
1869.000000	0.281851
1870.000000	0.280870
1871.000000	0.280161
1872.000000	0.279386
1873.000000	0.278334
1874.000000	0.276923
1875.000000	0.275791
1876.000000	0.274430
1877.000000	0.272833
1878.000000	0.271437
1879.000000	0.270042
1880.000000	0.268647
1881.000000	0.266960
1882.000000	0.265315
1883.000000	0.263583
1884.000000	0.261789
1885.000000	0.259707
1886.000000	0.257638
1887.000000	0.255494
1888.000000	0.253182
1889.000000	0.250790
1890.000000	0.248498
1891.000000	0.246353
1892.000000	0.244229
1893.000000	0.242114
1894.000000	0.239893
1895.000000	0.237414
1896.000000	0.234888
1897.000000	0.232151
1898.000000	0.229347
1899.000000	0.226974
1900.000000	0.224397
1901.000000	0.221694
1902.000000	0.219150
1903.000000	0.216253
1904.000000	0.213490
1905.000000	0.210986
1906.000000	0.208412
1907.000000	0.205854
1908.000000	0.203334
1909.000000	0.201113
1910.000000	0.198986
1911.000000	0.196706
1912.000000	0.194716
1913.000000	0.192731
1914.000000	0.190562
1915.000000	0.188477
1916.000000	0.186585
1917.000000	0.184770
1918.000000	0.183033
1919.000000	0.181520
1920.000000	0.180373
1921.000000	0.179377
1922.000000	0.178388
1923.000000	0.177595
1924.000000	0.176767
1925.000000	0.175801
1926.000000	0.175029
1927.000000	0.174384
1928.000000	0.173823
1929.000000	0.173413
1930.000000	0.173154
1931.000000	0.172863
1932.000000	0.172699
1933.000000	0.172454
1934.000000	0.172142
1935.000000	0.172035
1936.000000	0.171981
1937.000000	0.172096
1938.000000	0.172295
1939.000000	0.172323
1940.000000	0.172305
1941.000000	0.172212
1942.000000	0.172084
1943.000000	0.171785
1944.000000	0.171447
1945.000000	0.171316
1946.000000	0.171023
1947.000000	0.170544
1948.000000	0.170244
1949.000000	0.169756
1950.000000	0.169110
1951.000000	0.168489
1952.000000	0.167951
1953.000000	0.167301
1954.000000	0.166754
1955.000000	0.166364
1956.000000	0.166110
1957.000000	0.165909
1958.000000	0.165614
1959.000000	0.165327
1960.000000	0.164987
1961.000000	0.164686
1962.000000	0.164419
1963.000000	0.164229
1964.000000	0.164095
1965.000000	0.163972
1966.000000	0.163772
1967.000000	0.163566
1968.000000	0.163469
1969.000000	0.163399
1970.000000	0.163268
1971.000000	0.163310
1972.000000	0.163398
1973.000000	0.163319
1974.000000	0.163205
1975.000000	0.163263
1976.000000	0.163347
1977.000000	0.163367
1978.000000	0.163559
1979.000000	0.163908
1980.000000	0.164153
1981.000000	0.164508
1982.000000	0.165006
1983.000000	0.165329
1984.000000	0.165650
1985.000000	0.166058
1986.000000	0.166328
1987.000000	0.166536
1988.000000	0.166720
1989.000000	0.166863
1990.000000	0.167116
1991.000000	0.167400
1992.000000	0.167948
1993.000000	0.168755
1994.000000	0.169519
1995.000000	0.169999
1996.000000	0.170470
1997.000000	0.171033
1998.000000	0.171517
1999.000000	0.172117
2000.000000	0.172857
2001.000000	0.173660
2002.000000	0.174480
2003.000000	0.175285
2004.000000	0.176090
2005.000000	0.176772
2006.000000	0.177455
2007.000000	0.178042
2008.000000	0.178653
2009.000000	0.179254
2010.000000	0.179987
2011.000000	0.180605
2012.000000	0.181299
2013.000000	0.182108
2014.000000	0.182839
2015.000000	0.183427
2016.000000	0.184184
2017.000000	0.184993
2018.000000	0.185652
2019.000000	0.186410
2020.000000	0.187253
2021.000000	0.188023
2022.000000	0.188740
2023.000000	0.189475
2024.000000	0.190178
2025.000000	0.190920
2026.000000	0.191598
2027.000000	0.192250
2028.000000	0.192882
2029.000000	0.193841
2030.000000	0.194694
2031.000000	0.195444
2032.000000	0.196313
2033.000000	0.197053
2034.000000	0.197795
2035.000000	0.198618
2036.000000	0.199287
2037.000000	0.199943
2038.000000	0.200689
2039.000000	0.201458
2040.000000	0.202198
2041.000000	0.203181
2042.000000	0.203976
2043.000000	0.204590
2044.000000	0.205355
2045.000000	0.205763
2046.000000	0.206227
2047.000000	0.206810
2048.000000	0.207316
2049.000000	0.208044
2050.000000	0.208835
2051.000000	0.209366
2052.000000	0.209826
2053.000000	0.210136
2054.000000	0.210362
2055.000000	0.210695
2056.000000	0.210990
2057.000000	0.211488
2058.000000	0.212031
2059.000000	0.212590
2060.000000	0.213200
2061.000000	0.213983
2062.000000	0.214460
2063.000000	0.214961
2064.000000	0.215229
2065.000000	0.215180
2066.000000	0.215471
2067.000000	0.216071
2068.000000	0.216635
2069.000000	0.217236
2070.000000	0.218183
2071.000000	0.218697
2072.000000	0.219219
2073.000000	0.219991
2074.000000	0.220581
2075.000000	0.221248
2076.000000	0.221996
2077.000000	0.222648
2078.000000	0.223355
2079.000000	0.223858
2080.000000	0.224215
2081.000000	0.224675
2082.000000	0.225099
2083.000000	0.225414
2084.000000	0.225800
2085.000000	0.226380
2086.000000	0.227068
2087.000000	0.227729
2088.000000	0.228553
2089.000000	0.229426
2090.000000	0.230118
2091.000000	0.230751
2092.000000	0.231340
2093.000000	0.231820
2094.000000	0.232289
2095.000000	0.232685
2096.000000	0.233219
2097.000000	0.233785
2098.000000	0.234196
2099.000000	0.234745
2100.000000	0.235258
2101.000000	0.235636
2102.000000	0.236239
2103.000000	0.236778
2104.000000	0.237048
2105.000000	0.237398
2106.000000	0.237573
2107.000000	0.238016
2108.000000	0.238577
2109.000000	0.239138
2110.000000	0.239768
2111.000000	0.240230
2112.000000	0.240533
2113.000000	0.240751
2114.000000	0.240949
2115.000000	0.241016
2116.000000	0.241041
2117.000000	0.241012
2118.000000	0.241089
2119.000000	0.241380
2120.000000	0.241692
2121.000000	0.242172
2122.000000	0.242580
2123.000000	0.242961
2124.000000	0.243361
2125.000000	0.243901
2126.000000	0.244240
2127.000000	0.244573
2128.000000	0.244887
2129.000000	0.244948
2130.000000	0.245063
2131.000000	0.245230
2132.000000	0.245377
2133.000000	0.245755
2134.000000	0.246173
2135.000000	0.246189
2136.000000	0.246158
2137.000000	0.246069
2138.000000	0.245610
2139.000000	0.245489
2140.000000	0.245452
2141.000000	0.245582
2142.000000	0.245971
2143.000000	0.246046
2144.000000	0.246252
2145.000000	0.246516
2146.000000	0.246831
2147.000000	0.247229
2148.000000	0.247314
2149.000000	0.247768
2150.000000	0.247768
2151.000000	0.247650
2152.000000	0.247854
2153.000000	0.247996
2154.000000	0.248093
2155.000000	0.248184
2156.000000	0.248401
2157.000000	0.248696
2158.000000	0.248826
2159.000000	0.249051
2160.000000	0.249293
2161.000000	0.249395
2162.000000	0.249593
2163.000000	0.249833
2164.000000	0.249981
2165.000000	0.250017
2166.000000	0.250054
2167.000000	0.250264
2168.000000	0.250556
2169.000000	0.250566
2170.000000	0.250563
2171.000000	0.250405
2172.000000	0.249825
2173.000000	0.249730
2174.000000	0.249814
2175.000000	0.249864
2176.000000	0.250204
2177.000000	0.250254
2178.000000	0.250308
2179.000000	0.250297
2180.000000	0.249718
2181.000000	0.250026
2182.000000	0.250463
2183.000000	0.250468
2184.000000	0.251015
2185.000000	0.251710
2186.000000	0.251575
2187.000000	0.251367
2188.000000	0.251106
2189.000000	0.250358
2190.000000	0.250032
2191.000000	0.250255
2192.000000	0.250094
2193.000000	0.249982
2194.000000	0.249774
2195.000000	0.249337
2196.000000	0.249170
2197.000000	0.249101
2198.000000	0.249111
2199.000000	0.249445
2200.000000	0.249452
2201.000000	0.249006
2202.000000	0.249231
2203.000000	0.249406
2204.000000	0.250157
2205.000000	0.251037
2206.000000	0.251543
2207.000000	0.251347
2208.000000	0.250729
2209.000000	0.249914
2210.000000	0.249993
2211.000000	0.250287
2212.000000	0.250573
2213.000000	0.251088
2214.000000	0.251958
2215.000000	0.252562
2216.000000	0.253621
2217.000000	0.253821
2218.000000	0.253287
2219.000000	0.253083
2220.000000	0.252278
2221.000000	0.252174
2222.000000	0.252433
2223.000000	0.253136
2224.000000	0.254894
2225.000000	0.255432
2226.000000	0.255079
2227.000000	0.254645
2228.000000	0.253912
2229.000000	0.252844
2230.000000	0.253160
2231.000000	0.254183
2232.000000	0.254200
2233.000000	0.254096
2234.000000	0.253318
2235.000000	0.252697
2236.000000	0.252179
2237.000000	0.251484
2238.000000	0.251030
2239.000000	0.250371
2240.000000	0.250622
2241.000000	0.251673
2242.000000	0.252108
2243.000000	0.253327
2244.000000	0.253709
2245.000000	0.252703
2246.000000	0.252651
2247.000000	0.252683
2248.000000	0.253050
2249.000000	0.253933
2250.000000	0.255152
2251.000000	0.255387
2252.000000	0.255555
2253.000000	0.255112
2254.000000	0.254439
2255.000000	0.254065
2256.000000	0.253911
2257.000000	0.253887
2258.000000	0.253217
2259.000000	0.252665
2260.000000	0.252463
2261.000000	0.252274
2262.000000	0.252148
2263.000000	0.252186
2264.000000	0.252455
2265.000000	0.252663
2266.000000	0.253279
2267.000000	0.253166
2268.000000	0.252593
2269.000000	0.252359
2270.000000	0.251664
2271.000000	0.251245
2272.000000	0.251450
2273.000000	0.251323
2274.000000	0.250895
2275.000000	0.250460
2276.000000	0.250099
2277.000000	0.249260
2278.000000	0.248353
2279.000000	0.248701
2280.000000	0.248913
2281.000000	0.248709
2282.000000	0.248836
2283.000000	0.247971
2284.000000	0.246870
2285.000000	0.246003
2286.000000	0.245371
2287.000000	0.244891
2288.000000	0.244552
2289.000000	0.244543
2290.000000	0.244015
2291.000000	0.243953
2292.000000	0.243993
2293.000000	0.243451
2294.000000	0.243118
2295.000000	0.242558
2296.000000	0.242096
2297.000000	0.241923
2298.000000	0.241611
2299.000000	0.241192
2300.000000	0.240739
2301.000000	0.239813
2302.000000	0.239579
2303.000000	0.240038
2304.000000	0.239845
2305.000000	0.239774
2306.000000	0.239529
2307.000000	0.238767
2308.000000	0.237952
2309.000000	0.237357
2310.000000	0.236753
2311.000000	0.236141
2312.000000	0.235463
2313.000000	0.234565
2314.000000	0.233526
2315.000000	0.232125
2316.000000	0.231044
2317.000000	0.230443
2318.000000	0.230661
2319.000000	0.231222
2320.000000	0.230384
2321.000000	0.230069
2322.000000	0.229708
2323.000000	0.228786
2324.000000	0.228472
2325.000000	0.227344
2326.000000	0.225813
2327.000000	0.224654
2328.000000	0.223709
2329.000000	0.223438
2330.000000	0.223668
2331.000000	0.222643
2332.000000	0.221820
2333.000000	0.221294
2334.000000	0.219419
2335.000000	0.219218
2336.000000	0.220475
2337.000000	0.219804
2338.000000	0.219223
2339.000000	0.218313
2340.000000	0.215586
2341.000000	0.214152
2342.000000	0.213279
2343.000000	0.212437
2344.000000	0.211687
2345.000000	0.211080
2346.000000	0.211116
2347.000000	0.210713
2348.000000	0.210067
2349.000000	0.210038
2350.000000	0.209188
2351.000000	0.207963
2352.000000	0.207025
2353.000000	0.205555
2354.000000	0.203620
2355.000000	0.202383
2356.000000	0.201229
2357.000000	0.199294
2358.000000	0.198279
2359.000000	0.198656
2360.000000	0.198809
2361.000000	0.199633
2362.000000	0.200383
2363.000000	0.200453
2364.000000	0.198952
2365.000000	0.198506
2366.000000	0.198670
2367.000000	0.196445
2368.000000	0.195951
2369.000000	0.195032
2370.000000	0.192420
2371.000000	0.191357
2372.000000	0.190629
2373.000000	0.189413
2374.000000	0.188224
2375.000000	0.187919
2376.000000	0.187001
2377.000000	0.184671
2378.000000	0.183382
2379.000000	0.182458
2380.000000	0.181016
2381.000000	0.181503
2382.000000	0.180954
2383.000000	0.179143
2384.000000	0.179603
2385.000000	0.178868
2386.000000	0.179174
2387.000000	0.180047
2388.000000	0.178247
2389.000000	0.176658
2390.000000	0.173849
2391.000000	0.171835
2392.000000	0.171197
2393.000000	0.170586
2394.000000	0.170993
2395.000000	0.172655
2396.000000	0.175092
2397.000000	0.175973
2398.000000	0.178173
2399.000000	0.177330
2400.000000	0.172747
2401.000000	0.170459
2402.000000	0.166896
2403.000000	0.167156
2404.000000	0.169284
2405.000000	0.169167
2406.000000	0.171004
2407.000000	0.168532
2408.000000	0.167743
2409.000000	0.170620
2410.000000	0.170145
2411.000000	0.170780
2412.000000	0.169770
2413.000000	0.166744
2414.000000	0.165853
2415.000000	0.166938
2416.000000	0.168125
2417.000000	0.171589
2418.000000	0.175627
2419.000000	0.172758
2420.000000	0.171102
2421.000000	0.166394
2422.000000	0.158650
2423.000000	0.158579
2424.000000	0.159240
2425.000000	0.161013
2426.000000	0.164524
2427.000000	0.167983
2428.000000	0.170323
2429.000000	0.170982
2430.000000	0.173293
2431.000000	0.171928
2432.000000	0.168185
2433.000000	0.168742
2434.000000	0.166062
2435.000000	0.161207
2436.000000	0.161599
2437.000000	0.162574
2438.000000	0.164261
2439.000000	0.165501
2440.000000	0.164518
2441.000000	0.160361
2442.000000	0.155803
2443.000000	0.159123
2444.000000	0.161525
2445.000000	0.164011
2446.000000	0.168102
2447.000000	0.164067
2448.000000	0.161669
2449.000000	0.160495
2450.000000	0.156551
2451.000000	0.159581
2452.000000	0.161823
2453.000000	0.158643
2454.000000	0.160616
2455.000000	0.157188
2456.000000	0.150488
2457.000000	0.152253
2458.000000	0.149890
2459.000000	0.148030
2460.000000	0.152860
2461.000000	0.155983
2462.000000	0.159848
2463.000000	0.161698
2464.000000	0.161377
2465.000000	0.158146
2466.000000	0.151390
2467.000000	0.147803
2468.000000	0.142707
2469.000000	0.140318
2470.000000	0.142702
2471.000000	0.145229
2472.000000	0.150796
2473.000000	0.150880
2474.000000	0.146357
2475.000000	0.144865
2476.000000	0.139232
2477.000000	0.134353
2478.000000	0.135637
2479.000000	0.133145
2480.000000	0.126429
2481.000000	0.128758
2482.000000	0.131122
2483.000000	0.127166
2484.000000	0.124330
2485.000000	0.115463
2486.000000	0.108389
2487.000000	0.106597
2488.000000	0.110298
2489.000000	0.116679
2490.000000	0.122647
2491.000000	0.137090
2492.000000	0.141340
2493.000000	0.152002
2494.000000	0.155073
2495.000000	0.142967
2496.000000	0.131160
2497.000000	0.099877
2498.000000	0.090054
2499.000000	0.099458
2500.000000	0.104695
