# Wavelength	Hexaidrite_00002.asd.rts.txt
350.000000	0.760605
351.000000	0.758605
352.000000	0.756070
353.000000	0.754993
354.000000	0.759554
355.000000	0.752836
356.000000	0.751233
357.000000	0.758859
358.000000	0.759700
359.000000	0.754440
360.000000	0.749565
361.000000	0.750342
362.000000	0.752479
363.000000	0.753805
364.000000	0.752695
365.000000	0.755170
366.000000	0.754536
367.000000	0.750393
368.000000	0.749610
369.000000	0.751709
370.000000	0.754143
371.000000	0.753855
372.000000	0.750603
373.000000	0.749601
374.000000	0.753882
375.000000	0.753898
376.000000	0.752491
377.000000	0.751578
378.000000	0.753395
379.000000	0.755071
380.000000	0.755045
381.000000	0.755039
382.000000	0.755787
383.000000	0.755446
384.000000	0.753950
385.000000	0.753776
386.000000	0.754486
387.000000	0.755549
388.000000	0.755063
389.000000	0.754850
390.000000	0.755413
391.000000	0.755855
392.000000	0.755599
393.000000	0.755509
394.000000	0.756152
395.000000	0.756581
396.000000	0.756916
397.000000	0.757092
398.000000	0.757144
399.000000	0.756896
400.000000	0.756957
401.000000	0.757725
402.000000	0.757073
403.000000	0.756611
404.000000	0.757972
405.000000	0.757874
406.000000	0.757855
407.000000	0.758572
408.000000	0.758554
409.000000	0.758320
410.000000	0.758181
411.000000	0.758261
412.000000	0.758183
413.000000	0.758272
414.000000	0.758875
415.000000	0.759079
416.000000	0.759192
417.000000	0.759391
418.000000	0.759268
419.000000	0.759399
420.000000	0.759823
421.000000	0.760110
422.000000	0.759989
423.000000	0.759776
424.000000	0.760130
425.000000	0.760264
426.000000	0.760240
427.000000	0.760136
428.000000	0.759899
429.000000	0.760020
430.000000	0.760490
431.000000	0.760574
432.000000	0.760761
433.000000	0.760910
434.000000	0.760956
435.000000	0.760944
436.000000	0.760898
437.000000	0.760828
438.000000	0.761114
439.000000	0.761122
440.000000	0.760952
441.000000	0.761210
442.000000	0.761335
443.000000	0.761158
444.000000	0.761262
445.000000	0.761194
446.000000	0.761359
447.000000	0.761701
448.000000	0.761635
449.000000	0.761557
450.000000	0.761763
451.000000	0.761860
452.000000	0.761885
453.000000	0.761775
454.000000	0.762072
455.000000	0.762131
456.000000	0.762213
457.000000	0.762360
458.000000	0.762310
459.000000	0.762265
460.000000	0.762484
461.000000	0.762248
462.000000	0.762279
463.000000	0.762439
464.000000	0.762624
465.000000	0.762628
466.000000	0.762429
467.000000	0.762549
468.000000	0.762698
469.000000	0.762666
470.000000	0.762787
471.000000	0.762991
472.000000	0.762972
473.000000	0.762760
474.000000	0.762994
475.000000	0.762990
476.000000	0.762982
477.000000	0.763162
478.000000	0.762987
479.000000	0.763022
480.000000	0.763181
481.000000	0.763018
482.000000	0.763061
483.000000	0.763160
484.000000	0.763390
485.000000	0.763323
486.000000	0.763273
487.000000	0.763137
488.000000	0.763110
489.000000	0.763242
490.000000	0.763406
491.000000	0.763395
492.000000	0.763389
493.000000	0.763264
494.000000	0.763209
495.000000	0.763221
496.000000	0.763166
497.000000	0.763137
498.000000	0.763102
499.000000	0.763190
500.000000	0.763160
501.000000	0.763105
502.000000	0.763129
503.000000	0.763092
504.000000	0.763123
505.000000	0.763139
506.000000	0.763077
507.000000	0.763022
508.000000	0.763055
509.000000	0.763087
510.000000	0.763120
511.000000	0.763084
512.000000	0.763040
513.000000	0.762987
514.000000	0.762989
515.000000	0.763047
516.000000	0.762965
517.000000	0.762866
518.000000	0.762915
519.000000	0.762946
520.000000	0.762874
521.000000	0.762779
522.000000	0.762717
523.000000	0.762660
524.000000	0.762643
525.000000	0.762622
526.000000	0.762646
527.000000	0.762651
528.000000	0.762593
529.000000	0.762573
530.000000	0.762424
531.000000	0.762414
532.000000	0.762444
533.000000	0.762430
534.000000	0.762440
535.000000	0.762455
536.000000	0.762486
537.000000	0.762506
538.000000	0.762512
539.000000	0.762478
540.000000	0.762461
541.000000	0.762433
542.000000	0.762450
543.000000	0.762418
544.000000	0.762473
545.000000	0.762482
546.000000	0.762464
547.000000	0.762408
548.000000	0.762399
549.000000	0.762338
550.000000	0.762343
551.000000	0.762423
552.000000	0.762409
553.000000	0.762362
554.000000	0.762349
555.000000	0.762413
556.000000	0.762480
557.000000	0.762399
558.000000	0.762439
559.000000	0.762406
560.000000	0.762299
561.000000	0.762286
562.000000	0.762208
563.000000	0.762100
564.000000	0.762060
565.000000	0.761908
566.000000	0.761866
567.000000	0.761872
568.000000	0.761820
569.000000	0.761765
570.000000	0.761706
571.000000	0.761649
572.000000	0.761687
573.000000	0.761629
574.000000	0.761476
575.000000	0.761451
576.000000	0.761454
577.000000	0.761376
578.000000	0.761322
579.000000	0.761321
580.000000	0.761317
581.000000	0.761291
582.000000	0.761310
583.000000	0.761266
584.000000	0.761196
585.000000	0.761229
586.000000	0.761196
587.000000	0.761139
588.000000	0.761152
589.000000	0.761249
590.000000	0.761372
591.000000	0.761490
592.000000	0.761637
593.000000	0.761874
594.000000	0.762129
595.000000	0.762203
596.000000	0.762182
597.000000	0.762163
598.000000	0.762002
599.000000	0.761756
600.000000	0.761630
601.000000	0.761569
602.000000	0.761547
603.000000	0.761529
604.000000	0.761536
605.000000	0.761600
606.000000	0.761660
607.000000	0.761696
608.000000	0.761707
609.000000	0.761751
610.000000	0.761879
611.000000	0.762099
612.000000	0.762244
613.000000	0.762307
614.000000	0.762391
615.000000	0.762479
616.000000	0.762475
617.000000	0.762265
618.000000	0.761964
619.000000	0.761783
620.000000	0.761578
621.000000	0.761239
622.000000	0.760839
623.000000	0.760408
624.000000	0.760006
625.000000	0.759848
626.000000	0.759811
627.000000	0.759824
628.000000	0.759888
629.000000	0.760089
630.000000	0.760079
631.000000	0.759997
632.000000	0.759782
633.000000	0.759623
634.000000	0.759663
635.000000	0.759778
636.000000	0.760037
637.000000	0.760401
638.000000	0.760748
639.000000	0.761049
640.000000	0.761369
641.000000	0.761442
642.000000	0.761597
643.000000	0.761809
644.000000	0.761960
645.000000	0.762059
646.000000	0.762128
647.000000	0.762126
648.000000	0.762116
649.000000	0.762150
650.000000	0.762185
651.000000	0.762217
652.000000	0.762165
653.000000	0.762126
654.000000	0.762070
655.000000	0.762068
656.000000	0.762109
657.000000	0.762037
658.000000	0.761981
659.000000	0.761933
660.000000	0.761852
661.000000	0.761777
662.000000	0.761692
663.000000	0.761722
664.000000	0.761804
665.000000	0.761858
666.000000	0.761869
667.000000	0.761792
668.000000	0.761832
669.000000	0.761889
670.000000	0.761909
671.000000	0.761921
672.000000	0.761955
673.000000	0.761981
674.000000	0.761962
675.000000	0.761912
676.000000	0.761868
677.000000	0.761897
678.000000	0.761906
679.000000	0.761925
680.000000	0.761996
681.000000	0.762045
682.000000	0.762217
683.000000	0.762349
684.000000	0.762529
685.000000	0.762659
686.000000	0.762790
687.000000	0.762888
688.000000	0.762961
689.000000	0.763061
690.000000	0.763269
691.000000	0.763384
692.000000	0.763421
693.000000	0.763577
694.000000	0.763823
695.000000	0.764048
696.000000	0.764246
697.000000	0.764459
698.000000	0.764632
699.000000	0.764816
700.000000	0.765053
701.000000	0.765190
702.000000	0.765388
703.000000	0.765608
704.000000	0.765649
705.000000	0.765765
706.000000	0.765903
707.000000	0.766121
708.000000	0.766369
709.000000	0.766583
710.000000	0.766767
711.000000	0.766897
712.000000	0.767063
713.000000	0.767329
714.000000	0.767590
715.000000	0.767752
716.000000	0.767876
717.000000	0.768025
718.000000	0.768136
719.000000	0.768238
720.000000	0.768398
721.000000	0.768608
722.000000	0.768696
723.000000	0.768778
724.000000	0.768917
725.000000	0.769056
726.000000	0.769289
727.000000	0.769354
728.000000	0.769440
729.000000	0.769560
730.000000	0.769588
731.000000	0.769700
732.000000	0.769829
733.000000	0.770011
734.000000	0.770123
735.000000	0.770113
736.000000	0.770254
737.000000	0.770310
738.000000	0.770325
739.000000	0.770479
740.000000	0.770484
741.000000	0.770558
742.000000	0.770640
743.000000	0.770646
744.000000	0.770680
745.000000	0.770645
746.000000	0.770686
747.000000	0.770757
748.000000	0.770903
749.000000	0.771114
750.000000	0.771265
751.000000	0.771274
752.000000	0.771333
753.000000	0.771476
754.000000	0.771545
755.000000	0.771579
756.000000	0.771620
757.000000	0.771600
758.000000	0.771594
759.000000	0.771705
760.000000	0.771811
761.000000	0.772025
762.000000	0.772127
763.000000	0.772106
764.000000	0.772271
765.000000	0.772374
766.000000	0.772455
767.000000	0.772561
768.000000	0.772646
769.000000	0.772663
770.000000	0.772657
771.000000	0.772781
772.000000	0.772971
773.000000	0.773046
774.000000	0.773113
775.000000	0.773095
776.000000	0.773095
777.000000	0.773140
778.000000	0.773181
779.000000	0.773232
780.000000	0.773282
781.000000	0.773250
782.000000	0.773211
783.000000	0.773374
784.000000	0.773492
785.000000	0.773583
786.000000	0.773622
787.000000	0.773620
788.000000	0.773713
789.000000	0.773754
790.000000	0.773708
791.000000	0.773708
792.000000	0.773713
793.000000	0.773742
794.000000	0.773815
795.000000	0.773871
796.000000	0.773886
797.000000	0.773872
798.000000	0.773907
799.000000	0.774048
800.000000	0.774203
801.000000	0.774267
802.000000	0.774301
803.000000	0.774325
804.000000	0.774403
805.000000	0.774352
806.000000	0.774362
807.000000	0.774553
808.000000	0.774629
809.000000	0.774738
810.000000	0.774753
811.000000	0.774592
812.000000	0.774586
813.000000	0.774547
814.000000	0.774462
815.000000	0.774522
816.000000	0.774535
817.000000	0.774602
818.000000	0.774645
819.000000	0.774732
820.000000	0.774786
821.000000	0.774681
822.000000	0.774611
823.000000	0.774631
824.000000	0.774619
825.000000	0.774688
826.000000	0.774738
827.000000	0.774759
828.000000	0.774842
829.000000	0.774884
830.000000	0.774764
831.000000	0.774665
832.000000	0.774537
833.000000	0.774604
834.000000	0.774775
835.000000	0.774966
836.000000	0.774927
837.000000	0.774817
838.000000	0.774739
839.000000	0.774646
840.000000	0.774656
841.000000	0.774753
842.000000	0.774798
843.000000	0.774889
844.000000	0.774991
845.000000	0.775026
846.000000	0.775066
847.000000	0.775184
848.000000	0.775302
849.000000	0.775404
850.000000	0.775503
851.000000	0.775504
852.000000	0.775513
853.000000	0.775635
854.000000	0.775606
855.000000	0.775692
856.000000	0.775768
857.000000	0.775514
858.000000	0.775409
859.000000	0.775460
860.000000	0.775430
861.000000	0.775450
862.000000	0.775676
863.000000	0.776012
864.000000	0.776152
865.000000	0.776212
866.000000	0.776321
867.000000	0.776344
868.000000	0.776384
869.000000	0.776333
870.000000	0.776299
871.000000	0.776229
872.000000	0.776283
873.000000	0.776384
874.000000	0.776522
875.000000	0.776538
876.000000	0.776500
877.000000	0.776403
878.000000	0.776297
879.000000	0.776382
880.000000	0.776388
881.000000	0.776399
882.000000	0.776351
883.000000	0.776308
884.000000	0.776222
885.000000	0.776232
886.000000	0.776268
887.000000	0.776351
888.000000	0.776486
889.000000	0.776697
890.000000	0.776700
891.000000	0.776706
892.000000	0.776727
893.000000	0.776662
894.000000	0.776744
895.000000	0.776758
896.000000	0.776677
897.000000	0.776572
898.000000	0.776536
899.000000	0.776509
900.000000	0.776493
901.000000	0.776450
902.000000	0.776628
903.000000	0.776632
904.000000	0.776625
905.000000	0.776618
906.000000	0.776752
907.000000	0.776813
908.000000	0.776862
909.000000	0.776819
910.000000	0.776778
911.000000	0.776797
912.000000	0.776908
913.000000	0.776858
914.000000	0.776841
915.000000	0.777012
916.000000	0.777051
917.000000	0.776932
918.000000	0.776918
919.000000	0.777094
920.000000	0.777190
921.000000	0.777258
922.000000	0.777303
923.000000	0.777243
924.000000	0.777091
925.000000	0.776935
926.000000	0.776910
927.000000	0.776923
928.000000	0.776993
929.000000	0.776999
930.000000	0.776854
931.000000	0.776816
932.000000	0.776749
933.000000	0.776649
934.000000	0.776402
935.000000	0.776174
936.000000	0.776091
937.000000	0.775930
938.000000	0.775604
939.000000	0.775504
940.000000	0.775418
941.000000	0.775215
942.000000	0.774988
943.000000	0.774868
944.000000	0.774658
945.000000	0.774707
946.000000	0.774424
947.000000	0.774056
948.000000	0.773836
949.000000	0.773494
950.000000	0.773190
951.000000	0.772836
952.000000	0.772413
953.000000	0.771897
954.000000	0.771311
955.000000	0.770590
956.000000	0.770172
957.000000	0.769783
958.000000	0.769330
959.000000	0.769062
960.000000	0.768523
961.000000	0.768005
962.000000	0.767611
963.000000	0.767309
964.000000	0.766879
965.000000	0.766414
966.000000	0.765790
967.000000	0.765352
968.000000	0.765054
969.000000	0.764657
970.000000	0.764218
971.000000	0.763998
972.000000	0.763930
973.000000	0.763734
974.000000	0.763414
975.000000	0.763172
976.000000	0.763040
977.000000	0.762964
978.000000	0.762834
979.000000	0.762852
980.000000	0.762586
981.000000	0.762574
982.000000	0.762536
983.000000	0.762443
984.000000	0.762485
985.000000	0.762646
986.000000	0.762712
987.000000	0.762777
988.000000	0.762659
989.000000	0.762473
990.000000	0.762519
991.000000	0.762708
992.000000	0.762948
993.000000	0.763270
994.000000	0.763186
995.000000	0.763184
996.000000	0.763403
997.000000	0.763797
998.000000	0.763999
999.000000	0.764162
1000.000000	0.764578
1001.000000	0.764308
1002.000000	0.764341
1003.000000	0.764091
1004.000000	0.764059
1005.000000	0.764027
1006.000000	0.763846
1007.000000	0.763861
1008.000000	0.763800
1009.000000	0.763460
1010.000000	0.763376
1011.000000	0.764036
1012.000000	0.764658
1013.000000	0.764633
1014.000000	0.764870
1015.000000	0.765144
1016.000000	0.765495
1017.000000	0.766023
1018.000000	0.766956
1019.000000	0.767731
1020.000000	0.768824
1021.000000	0.768624
1022.000000	0.768403
1023.000000	0.768849
1024.000000	0.768432
1025.000000	0.768856
1026.000000	0.769874
1027.000000	0.769829
1028.000000	0.769960
1029.000000	0.770476
1030.000000	0.770648
1031.000000	0.770977
1032.000000	0.771472
1033.000000	0.771688
1034.000000	0.772060
1035.000000	0.772707
1036.000000	0.773227
1037.000000	0.773760
1038.000000	0.773929
1039.000000	0.774141
1040.000000	0.774538
1041.000000	0.774648
1042.000000	0.774791
1043.000000	0.775505
1044.000000	0.776081
1045.000000	0.776281
1046.000000	0.776543
1047.000000	0.777075
1048.000000	0.777482
1049.000000	0.777817
1050.000000	0.778607
1051.000000	0.778862
1052.000000	0.778343
1053.000000	0.778224
1054.000000	0.778686
1055.000000	0.779031
1056.000000	0.779447
1057.000000	0.780105
1058.000000	0.780323
1059.000000	0.779893
1060.000000	0.780040
1061.000000	0.780357
1062.000000	0.780565
1063.000000	0.781295
1064.000000	0.781679
1065.000000	0.781729
1066.000000	0.781928
1067.000000	0.782078
1068.000000	0.782078
1069.000000	0.781897
1070.000000	0.781814
1071.000000	0.781790
1072.000000	0.781798
1073.000000	0.781921
1074.000000	0.782248
1075.000000	0.782431
1076.000000	0.782624
1077.000000	0.782646
1078.000000	0.782351
1079.000000	0.782195
1080.000000	0.781976
1081.000000	0.781844
1082.000000	0.782049
1083.000000	0.782045
1084.000000	0.781997
1085.000000	0.782057
1086.000000	0.782100
1087.000000	0.782164
1088.000000	0.782105
1089.000000	0.781989
1090.000000	0.781874
1091.000000	0.781390
1092.000000	0.780951
1093.000000	0.781157
1094.000000	0.781108
1095.000000	0.780899
1096.000000	0.780983
1097.000000	0.781365
1098.000000	0.781353
1099.000000	0.781179
1100.000000	0.781144
1101.000000	0.780791
1102.000000	0.780513
1103.000000	0.780264
1104.000000	0.780139
1105.000000	0.780065
1106.000000	0.779864
1107.000000	0.779503
1108.000000	0.779260
1109.000000	0.779165
1110.000000	0.778886
1111.000000	0.778755
1112.000000	0.778852
1113.000000	0.778830
1114.000000	0.778826
1115.000000	0.778631
1116.000000	0.778375
1117.000000	0.778149
1118.000000	0.777721
1119.000000	0.777286
1120.000000	0.776973
1121.000000	0.776566
1122.000000	0.776238
1123.000000	0.776286
1124.000000	0.775895
1125.000000	0.775690
1126.000000	0.775536
1127.000000	0.775147
1128.000000	0.774668
1129.000000	0.774215
1130.000000	0.773833
1131.000000	0.773450
1132.000000	0.772842
1133.000000	0.772359
1134.000000	0.771850
1135.000000	0.771026
1136.000000	0.770262
1137.000000	0.769695
1138.000000	0.768784
1139.000000	0.767810
1140.000000	0.767000
1141.000000	0.766059
1142.000000	0.765084
1143.000000	0.764002
1144.000000	0.763096
1145.000000	0.761803
1146.000000	0.760350
1147.000000	0.758974
1148.000000	0.757333
1149.000000	0.755891
1150.000000	0.754574
1151.000000	0.753198
1152.000000	0.751694
1153.000000	0.750285
1154.000000	0.748815
1155.000000	0.747286
1156.000000	0.745757
1157.000000	0.744279
1158.000000	0.742597
1159.000000	0.741068
1160.000000	0.739573
1161.000000	0.738158
1162.000000	0.736930
1163.000000	0.735996
1164.000000	0.734815
1165.000000	0.733720
1166.000000	0.732784
1167.000000	0.731785
1168.000000	0.730794
1169.000000	0.729995
1170.000000	0.729228
1171.000000	0.728502
1172.000000	0.727895
1173.000000	0.727388
1174.000000	0.726797
1175.000000	0.726130
1176.000000	0.725408
1177.000000	0.724820
1178.000000	0.724218
1179.000000	0.723607
1180.000000	0.722848
1181.000000	0.722210
1182.000000	0.721542
1183.000000	0.720954
1184.000000	0.720425
1185.000000	0.719821
1186.000000	0.719263
1187.000000	0.718596
1188.000000	0.717834
1189.000000	0.717036
1190.000000	0.716302
1191.000000	0.715556
1192.000000	0.714919
1193.000000	0.714508
1194.000000	0.713932
1195.000000	0.713426
1196.000000	0.712913
1197.000000	0.712397
1198.000000	0.711924
1199.000000	0.711478
1200.000000	0.711013
1201.000000	0.710594
1202.000000	0.710142
1203.000000	0.709764
1204.000000	0.709498
1205.000000	0.709251
1206.000000	0.708844
1207.000000	0.708608
1208.000000	0.708270
1209.000000	0.707893
1210.000000	0.707630
1211.000000	0.707509
1212.000000	0.707244
1213.000000	0.707028
1214.000000	0.706813
1215.000000	0.706511
1216.000000	0.706233
1217.000000	0.705899
1218.000000	0.705546
1219.000000	0.705228
1220.000000	0.704974
1221.000000	0.704708
1222.000000	0.704401
1223.000000	0.704131
1224.000000	0.703883
1225.000000	0.703539
1226.000000	0.703306
1227.000000	0.703055
1228.000000	0.702867
1229.000000	0.702598
1230.000000	0.702267
1231.000000	0.701932
1232.000000	0.701784
1233.000000	0.701851
1234.000000	0.702073
1235.000000	0.702097
1236.000000	0.701929
1237.000000	0.701924
1238.000000	0.701765
1239.000000	0.701639
1240.000000	0.701604
1241.000000	0.701556
1242.000000	0.701471
1243.000000	0.701476
1244.000000	0.701570
1245.000000	0.701810
1246.000000	0.701865
1247.000000	0.701971
1248.000000	0.702146
1249.000000	0.702300
1250.000000	0.702520
1251.000000	0.702717
1252.000000	0.702826
1253.000000	0.702953
1254.000000	0.702998
1255.000000	0.702901
1256.000000	0.702940
1257.000000	0.703022
1258.000000	0.703205
1259.000000	0.703381
1260.000000	0.703605
1261.000000	0.703746
1262.000000	0.703885
1263.000000	0.704113
1264.000000	0.704181
1265.000000	0.704299
1266.000000	0.704404
1267.000000	0.704483
1268.000000	0.704597
1269.000000	0.704603
1270.000000	0.704760
1271.000000	0.704877
1272.000000	0.705009
1273.000000	0.705258
1274.000000	0.705371
1275.000000	0.705438
1276.000000	0.705523
1277.000000	0.705694
1278.000000	0.705650
1279.000000	0.705619
1280.000000	0.705449
1281.000000	0.705289
1282.000000	0.705204
1283.000000	0.705295
1284.000000	0.705350
1285.000000	0.705369
1286.000000	0.705383
1287.000000	0.705322
1288.000000	0.705314
1289.000000	0.705225
1290.000000	0.704956
1291.000000	0.704744
1292.000000	0.704539
1293.000000	0.704240
1294.000000	0.704017
1295.000000	0.703856
1296.000000	0.703511
1297.000000	0.703124
1298.000000	0.702827
1299.000000	0.702412
1300.000000	0.702051
1301.000000	0.701665
1302.000000	0.701056
1303.000000	0.700520
1304.000000	0.699871
1305.000000	0.699286
1306.000000	0.698640
1307.000000	0.698096
1308.000000	0.697493
1309.000000	0.696770
1310.000000	0.696044
1311.000000	0.695367
1312.000000	0.694560
1313.000000	0.693760
1314.000000	0.692890
1315.000000	0.691803
1316.000000	0.690881
1317.000000	0.689966
1318.000000	0.688953
1319.000000	0.687854
1320.000000	0.686703
1321.000000	0.685411
1322.000000	0.684074
1323.000000	0.682832
1324.000000	0.681620
1325.000000	0.680262
1326.000000	0.678783
1327.000000	0.677294
1328.000000	0.675886
1329.000000	0.674260
1330.000000	0.672529
1331.000000	0.670906
1332.000000	0.669349
1333.000000	0.667712
1334.000000	0.666295
1335.000000	0.664743
1336.000000	0.663049
1337.000000	0.661276
1338.000000	0.659326
1339.000000	0.657385
1340.000000	0.655389
1341.000000	0.653432
1342.000000	0.651518
1343.000000	0.649557
1344.000000	0.647599
1345.000000	0.645516
1346.000000	0.643594
1347.000000	0.641534
1348.000000	0.639430
1349.000000	0.637339
1350.000000	0.635285
1351.000000	0.633160
1352.000000	0.631016
1353.000000	0.628901
1354.000000	0.626883
1355.000000	0.624825
1356.000000	0.622841
1357.000000	0.620796
1358.000000	0.618763
1359.000000	0.616736
1360.000000	0.614741
1361.000000	0.612875
1362.000000	0.610975
1363.000000	0.609004
1364.000000	0.607199
1365.000000	0.605447
1366.000000	0.603720
1367.000000	0.602081
1368.000000	0.600326
1369.000000	0.598738
1370.000000	0.596924
1371.000000	0.595032
1372.000000	0.593178
1373.000000	0.591250
1374.000000	0.589374
1375.000000	0.587418
1376.000000	0.585587
1377.000000	0.583716
1378.000000	0.581617
1379.000000	0.579395
1380.000000	0.577049
1381.000000	0.574474
1382.000000	0.571858
1383.000000	0.569226
1384.000000	0.566330
1385.000000	0.563324
1386.000000	0.560295
1387.000000	0.557268
1388.000000	0.554100
1389.000000	0.550796
1390.000000	0.547499
1391.000000	0.543922
1392.000000	0.540289
1393.000000	0.536457
1394.000000	0.532530
1395.000000	0.528486
1396.000000	0.524353
1397.000000	0.519913
1398.000000	0.515218
1399.000000	0.510572
1400.000000	0.505751
1401.000000	0.500806
1402.000000	0.495944
1403.000000	0.490811
1404.000000	0.485632
1405.000000	0.480368
1406.000000	0.475050
1407.000000	0.469872
1408.000000	0.464480
1409.000000	0.459066
1410.000000	0.453759
1411.000000	0.448219
1412.000000	0.442715
1413.000000	0.437360
1414.000000	0.431916
1415.000000	0.426670
1416.000000	0.421494
1417.000000	0.416316
1418.000000	0.411196
1419.000000	0.406135
1420.000000	0.401151
1421.000000	0.396374
1422.000000	0.391666
1423.000000	0.387234
1424.000000	0.382858
1425.000000	0.378557
1426.000000	0.374378
1427.000000	0.370287
1428.000000	0.366431
1429.000000	0.362749
1430.000000	0.359200
1431.000000	0.355958
1432.000000	0.352726
1433.000000	0.349571
1434.000000	0.346531
1435.000000	0.343671
1436.000000	0.340881
1437.000000	0.338220
1438.000000	0.335603
1439.000000	0.333114
1440.000000	0.330715
1441.000000	0.328391
1442.000000	0.326161
1443.000000	0.323960
1444.000000	0.321852
1445.000000	0.319876
1446.000000	0.317980
1447.000000	0.316128
1448.000000	0.314453
1449.000000	0.312862
1450.000000	0.311297
1451.000000	0.309914
1452.000000	0.308572
1453.000000	0.307323
1454.000000	0.306193
1455.000000	0.305140
1456.000000	0.304276
1457.000000	0.303466
1458.000000	0.302667
1459.000000	0.301983
1460.000000	0.301306
1461.000000	0.300596
1462.000000	0.299948
1463.000000	0.299257
1464.000000	0.298615
1465.000000	0.298066
1466.000000	0.297504
1467.000000	0.297078
1468.000000	0.296704
1469.000000	0.296393
1470.000000	0.296127
1471.000000	0.295954
1472.000000	0.295885
1473.000000	0.295991
1474.000000	0.296144
1475.000000	0.296396
1476.000000	0.296808
1477.000000	0.297287
1478.000000	0.297888
1479.000000	0.298601
1480.000000	0.299379
1481.000000	0.300213
1482.000000	0.301195
1483.000000	0.302190
1484.000000	0.303249
1485.000000	0.304307
1486.000000	0.305356
1487.000000	0.306479
1488.000000	0.307707
1489.000000	0.308875
1490.000000	0.309956
1491.000000	0.311095
1492.000000	0.312156
1493.000000	0.313263
1494.000000	0.314404
1495.000000	0.315478
1496.000000	0.316525
1497.000000	0.317570
1498.000000	0.318622
1499.000000	0.319597
1500.000000	0.320616
1501.000000	0.321572
1502.000000	0.322470
1503.000000	0.323460
1504.000000	0.324422
1505.000000	0.325340
1506.000000	0.326270
1507.000000	0.327131
1508.000000	0.327986
1509.000000	0.328810
1510.000000	0.329563
1511.000000	0.330337
1512.000000	0.331042
1513.000000	0.331707
1514.000000	0.332414
1515.000000	0.333030
1516.000000	0.333659
1517.000000	0.334268
1518.000000	0.334793
1519.000000	0.335265
1520.000000	0.335733
1521.000000	0.336103
1522.000000	0.336554
1523.000000	0.337068
1524.000000	0.337451
1525.000000	0.337915
1526.000000	0.338333
1527.000000	0.338669
1528.000000	0.339086
1529.000000	0.339410
1530.000000	0.339597
1531.000000	0.339872
1532.000000	0.340153
1533.000000	0.340377
1534.000000	0.340629
1535.000000	0.340890
1536.000000	0.341029
1537.000000	0.341220
1538.000000	0.341403
1539.000000	0.341462
1540.000000	0.341558
1541.000000	0.341689
1542.000000	0.341825
1543.000000	0.341985
1544.000000	0.342115
1545.000000	0.342243
1546.000000	0.342347
1547.000000	0.342389
1548.000000	0.342399
1549.000000	0.342410
1550.000000	0.342390
1551.000000	0.342365
1552.000000	0.342382
1553.000000	0.342341
1554.000000	0.342287
1555.000000	0.342308
1556.000000	0.342325
1557.000000	0.342324
1558.000000	0.342348
1559.000000	0.342327
1560.000000	0.342291
1561.000000	0.342301
1562.000000	0.342265
1563.000000	0.342230
1564.000000	0.342221
1565.000000	0.342214
1566.000000	0.342110
1567.000000	0.342088
1568.000000	0.342048
1569.000000	0.342019
1570.000000	0.342000
1571.000000	0.341987
1572.000000	0.341950
1573.000000	0.341911
1574.000000	0.341889
1575.000000	0.341896
1576.000000	0.341907
1577.000000	0.341915
1578.000000	0.341862
1579.000000	0.341854
1580.000000	0.341811
1581.000000	0.341778
1582.000000	0.341752
1583.000000	0.341721
1584.000000	0.341655
1585.000000	0.341649
1586.000000	0.341661
1587.000000	0.341678
1588.000000	0.341668
1589.000000	0.341675
1590.000000	0.341681
1591.000000	0.341671
1592.000000	0.341725
1593.000000	0.341847
1594.000000	0.341935
1595.000000	0.342114
1596.000000	0.342232
1597.000000	0.342354
1598.000000	0.342452
1599.000000	0.342533
1600.000000	0.342617
1601.000000	0.342782
1602.000000	0.342921
1603.000000	0.343079
1604.000000	0.343235
1605.000000	0.343395
1606.000000	0.343586
1607.000000	0.343889
1608.000000	0.344115
1609.000000	0.344382
1610.000000	0.344604
1611.000000	0.344754
1612.000000	0.345005
1613.000000	0.345424
1614.000000	0.345750
1615.000000	0.346167
1616.000000	0.346582
1617.000000	0.346898
1618.000000	0.347231
1619.000000	0.347525
1620.000000	0.347922
1621.000000	0.348392
1622.000000	0.348914
1623.000000	0.349511
1624.000000	0.350049
1625.000000	0.350398
1626.000000	0.350826
1627.000000	0.351274
1628.000000	0.351839
1629.000000	0.352472
1630.000000	0.353118
1631.000000	0.353772
1632.000000	0.354398
1633.000000	0.355016
1634.000000	0.355690
1635.000000	0.356471
1636.000000	0.357163
1637.000000	0.357849
1638.000000	0.358531
1639.000000	0.359209
1640.000000	0.359929
1641.000000	0.360780
1642.000000	0.361564
1643.000000	0.362379
1644.000000	0.363167
1645.000000	0.363917
1646.000000	0.364663
1647.000000	0.365452
1648.000000	0.366190
1649.000000	0.366996
1650.000000	0.367819
1651.000000	0.368681
1652.000000	0.369547
1653.000000	0.370394
1654.000000	0.371244
1655.000000	0.372021
1656.000000	0.372731
1657.000000	0.373506
1658.000000	0.374232
1659.000000	0.375017
1660.000000	0.375828
1661.000000	0.376534
1662.000000	0.377306
1663.000000	0.378070
1664.000000	0.378865
1665.000000	0.379693
1666.000000	0.380587
1667.000000	0.381445
1668.000000	0.382255
1669.000000	0.383060
1670.000000	0.383746
1671.000000	0.384462
1672.000000	0.385216
1673.000000	0.385891
1674.000000	0.386596
1675.000000	0.387371
1676.000000	0.388022
1677.000000	0.388642
1678.000000	0.389198
1679.000000	0.389769
1680.000000	0.390354
1681.000000	0.390935
1682.000000	0.391527
1683.000000	0.392112
1684.000000	0.392704
1685.000000	0.393310
1686.000000	0.393865
1687.000000	0.394472
1688.000000	0.394982
1689.000000	0.395455
1690.000000	0.395965
1691.000000	0.396516
1692.000000	0.397019
1693.000000	0.397576
1694.000000	0.398078
1695.000000	0.398573
1696.000000	0.399023
1697.000000	0.399429
1698.000000	0.399898
1699.000000	0.400366
1700.000000	0.400780
1701.000000	0.401339
1702.000000	0.401778
1703.000000	0.402153
1704.000000	0.402633
1705.000000	0.403099
1706.000000	0.403549
1707.000000	0.404028
1708.000000	0.404546
1709.000000	0.404943
1710.000000	0.405374
1711.000000	0.405856
1712.000000	0.406328
1713.000000	0.406831
1714.000000	0.407483
1715.000000	0.408043
1716.000000	0.408599
1717.000000	0.409119
1718.000000	0.409504
1719.000000	0.409984
1720.000000	0.410553
1721.000000	0.411121
1722.000000	0.411745
1723.000000	0.412380
1724.000000	0.413068
1725.000000	0.413753
1726.000000	0.414367
1727.000000	0.414981
1728.000000	0.415501
1729.000000	0.415977
1730.000000	0.416584
1731.000000	0.417187
1732.000000	0.417789
1733.000000	0.418473
1734.000000	0.419032
1735.000000	0.419662
1736.000000	0.420291
1737.000000	0.420921
1738.000000	0.421621
1739.000000	0.422256
1740.000000	0.422825
1741.000000	0.423420
1742.000000	0.424030
1743.000000	0.424662
1744.000000	0.425290
1745.000000	0.425852
1746.000000	0.426374
1747.000000	0.426886
1748.000000	0.427347
1749.000000	0.427813
1750.000000	0.428229
1751.000000	0.428788
1752.000000	0.429411
1753.000000	0.429807
1754.000000	0.430308
1755.000000	0.430859
1756.000000	0.431315
1757.000000	0.431790
1758.000000	0.432241
1759.000000	0.432541
1760.000000	0.432924
1761.000000	0.433260
1762.000000	0.433675
1763.000000	0.434233
1764.000000	0.434687
1765.000000	0.435093
1766.000000	0.435528
1767.000000	0.435742
1768.000000	0.436094
1769.000000	0.436690
1770.000000	0.437265
1771.000000	0.437846
1772.000000	0.438381
1773.000000	0.438811
1774.000000	0.439329
1775.000000	0.439952
1776.000000	0.440533
1777.000000	0.441106
1778.000000	0.441632
1779.000000	0.442065
1780.000000	0.442618
1781.000000	0.443154
1782.000000	0.443731
1783.000000	0.444443
1784.000000	0.445104
1785.000000	0.445705
1786.000000	0.446427
1787.000000	0.447266
1788.000000	0.448073
1789.000000	0.448772
1790.000000	0.449362
1791.000000	0.449910
1792.000000	0.450520
1793.000000	0.451132
1794.000000	0.451796
1795.000000	0.452433
1796.000000	0.452990
1797.000000	0.453603
1798.000000	0.454225
1799.000000	0.454810
1800.000000	0.455524
1801.000000	0.453959
1802.000000	0.454819
1803.000000	0.455781
1804.000000	0.456687
1805.000000	0.457830
1806.000000	0.458790
1807.000000	0.459767
1808.000000	0.460430
1809.000000	0.460989
1810.000000	0.461353
1811.000000	0.461586
1812.000000	0.461423
1813.000000	0.461623
1814.000000	0.461887
1815.000000	0.462205
1816.000000	0.462703
1817.000000	0.462912
1818.000000	0.463057
1819.000000	0.463508
1820.000000	0.463837
1821.000000	0.463954
1822.000000	0.464116
1823.000000	0.464255
1824.000000	0.464124
1825.000000	0.463530
1826.000000	0.463466
1827.000000	0.463378
1828.000000	0.463207
1829.000000	0.463327
1830.000000	0.463339
1831.000000	0.463166
1832.000000	0.462624
1833.000000	0.462420
1834.000000	0.462511
1835.000000	0.462167
1836.000000	0.461683
1837.000000	0.461029
1838.000000	0.459811
1839.000000	0.458617
1840.000000	0.457596
1841.000000	0.456624
1842.000000	0.455661
1843.000000	0.454828
1844.000000	0.453833
1845.000000	0.452717
1846.000000	0.451562
1847.000000	0.450335
1848.000000	0.448527
1849.000000	0.446873
1850.000000	0.444793
1851.000000	0.442730
1852.000000	0.440418
1853.000000	0.438276
1854.000000	0.435970
1855.000000	0.433415
1856.000000	0.430695
1857.000000	0.427713
1858.000000	0.424726
1859.000000	0.421314
1860.000000	0.417992
1861.000000	0.414534
1862.000000	0.410840
1863.000000	0.407077
1864.000000	0.403234
1865.000000	0.399344
1866.000000	0.395054
1867.000000	0.390606
1868.000000	0.385517
1869.000000	0.380388
1870.000000	0.374869
1871.000000	0.368982
1872.000000	0.363388
1873.000000	0.357609
1874.000000	0.351451
1875.000000	0.345599
1876.000000	0.339872
1877.000000	0.333480
1878.000000	0.327140
1879.000000	0.320545
1880.000000	0.313694
1881.000000	0.307036
1882.000000	0.299997
1883.000000	0.293044
1884.000000	0.286284
1885.000000	0.279348
1886.000000	0.272312
1887.000000	0.265333
1888.000000	0.258206
1889.000000	0.250812
1890.000000	0.243725
1891.000000	0.236797
1892.000000	0.229924
1893.000000	0.223203
1894.000000	0.216454
1895.000000	0.209781
1896.000000	0.203296
1897.000000	0.196896
1898.000000	0.190330
1899.000000	0.184171
1900.000000	0.178156
1901.000000	0.172029
1902.000000	0.166168
1903.000000	0.160599
1904.000000	0.154906
1905.000000	0.149316
1906.000000	0.144029
1907.000000	0.139025
1908.000000	0.134070
1909.000000	0.129591
1910.000000	0.125368
1911.000000	0.121293
1912.000000	0.117604
1913.000000	0.114185
1914.000000	0.111067
1915.000000	0.107864
1916.000000	0.104656
1917.000000	0.101756
1918.000000	0.098969
1919.000000	0.096416
1920.000000	0.094148
1921.000000	0.092264
1922.000000	0.090395
1923.000000	0.088577
1924.000000	0.087305
1925.000000	0.086194
1926.000000	0.085316
1927.000000	0.084853
1928.000000	0.084326
1929.000000	0.083898
1930.000000	0.083530
1931.000000	0.083196
1932.000000	0.082951
1933.000000	0.082880
1934.000000	0.082863
1935.000000	0.083035
1936.000000	0.082996
1937.000000	0.082785
1938.000000	0.082764
1939.000000	0.082595
1940.000000	0.082330
1941.000000	0.082032
1942.000000	0.081768
1943.000000	0.081231
1944.000000	0.080588
1945.000000	0.080153
1946.000000	0.079717
1947.000000	0.079347
1948.000000	0.079100
1949.000000	0.078631
1950.000000	0.078182
1951.000000	0.077690
1952.000000	0.077136
1953.000000	0.076520
1954.000000	0.076080
1955.000000	0.075554
1956.000000	0.075013
1957.000000	0.074327
1958.000000	0.073506
1959.000000	0.072919
1960.000000	0.072395
1961.000000	0.072189
1962.000000	0.071956
1963.000000	0.072018
1964.000000	0.071726
1965.000000	0.071369
1966.000000	0.070989
1967.000000	0.070619
1968.000000	0.070396
1969.000000	0.070210
1970.000000	0.070049
1971.000000	0.069939
1972.000000	0.070042
1973.000000	0.070131
1974.000000	0.070397
1975.000000	0.070557
1976.000000	0.070696
1977.000000	0.070893
1978.000000	0.071023
1979.000000	0.071392
1980.000000	0.071731
1981.000000	0.071994
1982.000000	0.072476
1983.000000	0.072862
1984.000000	0.073338
1985.000000	0.074038
1986.000000	0.074507
1987.000000	0.074789
1988.000000	0.075448
1989.000000	0.075952
1990.000000	0.076476
1991.000000	0.077370
1992.000000	0.078041
1993.000000	0.078664
1994.000000	0.079478
1995.000000	0.080400
1996.000000	0.081189
1997.000000	0.081975
1998.000000	0.082825
1999.000000	0.083734
2000.000000	0.084534
2001.000000	0.085513
2002.000000	0.086619
2003.000000	0.087701
2004.000000	0.088716
2005.000000	0.089564
2006.000000	0.090604
2007.000000	0.091606
2008.000000	0.092684
2009.000000	0.093883
2010.000000	0.095030
2011.000000	0.096091
2012.000000	0.097298
2013.000000	0.098541
2014.000000	0.099679
2015.000000	0.101228
2016.000000	0.102712
2017.000000	0.103822
2018.000000	0.105120
2019.000000	0.106119
2020.000000	0.107054
2021.000000	0.108313
2022.000000	0.109821
2023.000000	0.111217
2024.000000	0.112868
2025.000000	0.114265
2026.000000	0.115448
2027.000000	0.116692
2028.000000	0.117870
2029.000000	0.119281
2030.000000	0.120621
2031.000000	0.121759
2032.000000	0.123111
2033.000000	0.124339
2034.000000	0.125599
2035.000000	0.127041
2036.000000	0.128414
2037.000000	0.129679
2038.000000	0.131106
2039.000000	0.132795
2040.000000	0.134203
2041.000000	0.135563
2042.000000	0.136945
2043.000000	0.137987
2044.000000	0.139095
2045.000000	0.140189
2046.000000	0.141268
2047.000000	0.142477
2048.000000	0.143809
2049.000000	0.145054
2050.000000	0.146178
2051.000000	0.147297
2052.000000	0.148217
2053.000000	0.149270
2054.000000	0.150493
2055.000000	0.151801
2056.000000	0.153132
2057.000000	0.154354
2058.000000	0.155611
2059.000000	0.156843
2060.000000	0.157924
2061.000000	0.158917
2062.000000	0.159961
2063.000000	0.160815
2064.000000	0.161816
2065.000000	0.163082
2066.000000	0.164179
2067.000000	0.165314
2068.000000	0.166724
2069.000000	0.167899
2070.000000	0.169322
2071.000000	0.170864
2072.000000	0.172220
2073.000000	0.173705
2074.000000	0.175114
2075.000000	0.176440
2076.000000	0.177619
2077.000000	0.178955
2078.000000	0.180152
2079.000000	0.181536
2080.000000	0.183257
2081.000000	0.184805
2082.000000	0.186302
2083.000000	0.188032
2084.000000	0.189406
2085.000000	0.190463
2086.000000	0.191785
2087.000000	0.193187
2088.000000	0.194684
2089.000000	0.196347
2090.000000	0.197944
2091.000000	0.199557
2092.000000	0.201120
2093.000000	0.202865
2094.000000	0.204309
2095.000000	0.205408
2096.000000	0.206763
2097.000000	0.208092
2098.000000	0.209362
2099.000000	0.210716
2100.000000	0.212102
2101.000000	0.213242
2102.000000	0.214310
2103.000000	0.215497
2104.000000	0.216862
2105.000000	0.218229
2106.000000	0.219763
2107.000000	0.221187
2108.000000	0.222625
2109.000000	0.223960
2110.000000	0.225089
2111.000000	0.226195
2112.000000	0.227067
2113.000000	0.228003
2114.000000	0.229059
2115.000000	0.230227
2116.000000	0.231419
2117.000000	0.232396
2118.000000	0.233274
2119.000000	0.233983
2120.000000	0.234974
2121.000000	0.236172
2122.000000	0.237128
2123.000000	0.238228
2124.000000	0.239047
2125.000000	0.239426
2126.000000	0.240057
2127.000000	0.240788
2128.000000	0.241537
2129.000000	0.242304
2130.000000	0.243045
2131.000000	0.243600
2132.000000	0.244030
2133.000000	0.244721
2134.000000	0.245538
2135.000000	0.246181
2136.000000	0.246897
2137.000000	0.247378
2138.000000	0.247489
2139.000000	0.247906
2140.000000	0.248297
2141.000000	0.248783
2142.000000	0.249456
2143.000000	0.249867
2144.000000	0.250431
2145.000000	0.251037
2146.000000	0.251722
2147.000000	0.252398
2148.000000	0.253129
2149.000000	0.253334
2150.000000	0.253493
2151.000000	0.253880
2152.000000	0.253872
2153.000000	0.254139
2154.000000	0.254444
2155.000000	0.254776
2156.000000	0.255030
2157.000000	0.255574
2158.000000	0.255800
2159.000000	0.255767
2160.000000	0.255938
2161.000000	0.255893
2162.000000	0.256183
2163.000000	0.256709
2164.000000	0.257004
2165.000000	0.257386
2166.000000	0.257778
2167.000000	0.257926
2168.000000	0.258274
2169.000000	0.258157
2170.000000	0.258262
2171.000000	0.258257
2172.000000	0.257952
2173.000000	0.258006
2174.000000	0.258217
2175.000000	0.258434
2176.000000	0.258755
2177.000000	0.259049
2178.000000	0.259659
2179.000000	0.260018
2180.000000	0.260205
2181.000000	0.260683
2182.000000	0.260694
2183.000000	0.260601
2184.000000	0.260893
2185.000000	0.260537
2186.000000	0.260153
2187.000000	0.260017
2188.000000	0.259509
2189.000000	0.259048
2190.000000	0.259046
2191.000000	0.259465
2192.000000	0.259848
2193.000000	0.260924
2194.000000	0.261341
2195.000000	0.261619
2196.000000	0.261661
2197.000000	0.260982
2198.000000	0.260922
2199.000000	0.261120
2200.000000	0.261150
2201.000000	0.261437
2202.000000	0.261744
2203.000000	0.261690
2204.000000	0.261651
2205.000000	0.261968
2206.000000	0.262535
2207.000000	0.262957
2208.000000	0.263392
2209.000000	0.264180
2210.000000	0.265720
2211.000000	0.266533
2212.000000	0.267451
2213.000000	0.267828
2214.000000	0.267167
2215.000000	0.266931
2216.000000	0.266337
2217.000000	0.266705
2218.000000	0.267938
2219.000000	0.268453
2220.000000	0.269502
2221.000000	0.269886
2222.000000	0.268876
2223.000000	0.268776
2224.000000	0.269081
2225.000000	0.269502
2226.000000	0.269012
2227.000000	0.268882
2228.000000	0.269270
2229.000000	0.268421
2230.000000	0.268557
2231.000000	0.269955
2232.000000	0.270812
2233.000000	0.271466
2234.000000	0.271725
2235.000000	0.271739
2236.000000	0.271717
2237.000000	0.271110
2238.000000	0.271096
2239.000000	0.271005
2240.000000	0.271648
2241.000000	0.273176
2242.000000	0.273731
2243.000000	0.274661
2244.000000	0.274919
2245.000000	0.273794
2246.000000	0.273518
2247.000000	0.273176
2248.000000	0.273353
2249.000000	0.274505
2250.000000	0.274826
2251.000000	0.274648
2252.000000	0.274567
2253.000000	0.273019
2254.000000	0.271000
2255.000000	0.270006
2256.000000	0.269538
2257.000000	0.270048
2258.000000	0.271463
2259.000000	0.271988
2260.000000	0.272435
2261.000000	0.272182
2262.000000	0.271351
2263.000000	0.270088
2264.000000	0.267777
2265.000000	0.266622
2266.000000	0.265443
2267.000000	0.264504
2268.000000	0.264532
2269.000000	0.264127
2270.000000	0.263468
2271.000000	0.262487
2272.000000	0.261293
2273.000000	0.260507
2274.000000	0.259327
2275.000000	0.258797
2276.000000	0.259612
2277.000000	0.258745
2278.000000	0.257142
2279.000000	0.256297
2280.000000	0.253957
2281.000000	0.252835
2282.000000	0.252924
2283.000000	0.251834
2284.000000	0.251357
2285.000000	0.250309
2286.000000	0.248992
2287.000000	0.248311
2288.000000	0.246813
2289.000000	0.245246
2290.000000	0.243766
2291.000000	0.242036
2292.000000	0.241069
2293.000000	0.240244
2294.000000	0.238904
2295.000000	0.237200
2296.000000	0.235701
2297.000000	0.233734
2298.000000	0.232662
2299.000000	0.232182
2300.000000	0.231156
2301.000000	0.230497
2302.000000	0.229076
2303.000000	0.226974
2304.000000	0.225338
2305.000000	0.223487
2306.000000	0.221777
2307.000000	0.220118
2308.000000	0.218707
2309.000000	0.217388
2310.000000	0.216137
2311.000000	0.215576
2312.000000	0.214277
2313.000000	0.211541
2314.000000	0.209485
2315.000000	0.206870
2316.000000	0.204311
2317.000000	0.202956
2318.000000	0.202123
2319.000000	0.201772
2320.000000	0.200785
2321.000000	0.199449
2322.000000	0.197801
2323.000000	0.195376
2324.000000	0.192761
2325.000000	0.190690
2326.000000	0.188933
2327.000000	0.187682
2328.000000	0.186875
2329.000000	0.185248
2330.000000	0.182791
2331.000000	0.180292
2332.000000	0.178049
2333.000000	0.176310
2334.000000	0.174998
2335.000000	0.173515
2336.000000	0.171788
2337.000000	0.169724
2338.000000	0.167269
2339.000000	0.164943
2340.000000	0.162093
2341.000000	0.159493
2342.000000	0.157151
2343.000000	0.155352
2344.000000	0.153593
2345.000000	0.152167
2346.000000	0.152002
2347.000000	0.150700
2348.000000	0.148735
2349.000000	0.147432
2350.000000	0.145641
2351.000000	0.142987
2352.000000	0.140576
2353.000000	0.139499
2354.000000	0.137162
2355.000000	0.134781
2356.000000	0.133047
2357.000000	0.130256
2358.000000	0.128706
2359.000000	0.127017
2360.000000	0.126253
2361.000000	0.126434
2362.000000	0.125119
2363.000000	0.124168
2364.000000	0.121853
2365.000000	0.118506
2366.000000	0.117579
2367.000000	0.117191
2368.000000	0.117647
2369.000000	0.118523
2370.000000	0.116839
2371.000000	0.115442
2372.000000	0.113293
2373.000000	0.110183
2374.000000	0.108696
2375.000000	0.107280
2376.000000	0.106111
2377.000000	0.105761
2378.000000	0.106021
2379.000000	0.104616
2380.000000	0.101908
2381.000000	0.099673
2382.000000	0.096595
2383.000000	0.094737
2384.000000	0.095188
2385.000000	0.095670
2386.000000	0.095356
2387.000000	0.094698
2388.000000	0.093258
2389.000000	0.092050
2390.000000	0.091948
2391.000000	0.091239
2392.000000	0.091640
2393.000000	0.092221
2394.000000	0.089661
2395.000000	0.087339
2396.000000	0.085826
2397.000000	0.083963
2398.000000	0.084909
2399.000000	0.087372
2400.000000	0.087009
2401.000000	0.085951
2402.000000	0.084791
2403.000000	0.082305
2404.000000	0.081000
2405.000000	0.077460
2406.000000	0.074131
2407.000000	0.074054
2408.000000	0.072803
2409.000000	0.074110
2410.000000	0.076530
2411.000000	0.075439
2412.000000	0.074800
2413.000000	0.075119
2414.000000	0.074938
2415.000000	0.074992
2416.000000	0.073660
2417.000000	0.070864
2418.000000	0.068296
2419.000000	0.068266
2420.000000	0.070634
2421.000000	0.072482
2422.000000	0.073983
2423.000000	0.073714
2424.000000	0.073344
2425.000000	0.073303
2426.000000	0.074509
2427.000000	0.077247
2428.000000	0.076345
2429.000000	0.075925
2430.000000	0.074707
2431.000000	0.072547
2432.000000	0.073615
2433.000000	0.072891
2434.000000	0.072812
2435.000000	0.073467
2436.000000	0.072750
2437.000000	0.073468
2438.000000	0.074763
2439.000000	0.074559
2440.000000	0.071489
2441.000000	0.069274
2442.000000	0.067053
2443.000000	0.066357
2444.000000	0.069705
2445.000000	0.071251
2446.000000	0.074745
2447.000000	0.076353
2448.000000	0.071500
2449.000000	0.072151
2450.000000	0.072561
2451.000000	0.070059
2452.000000	0.074287
2453.000000	0.072820
2454.000000	0.066356
2455.000000	0.064831
2456.000000	0.061649
2457.000000	0.055983
2458.000000	0.056816
2459.000000	0.062261
2460.000000	0.059204
2461.000000	0.056603
2462.000000	0.059558
2463.000000	0.055691
2464.000000	0.055859
2465.000000	0.062101
2466.000000	0.060246
2467.000000	0.056887
2468.000000	0.056833
2469.000000	0.053381
2470.000000	0.052165
2471.000000	0.050183
2472.000000	0.045983
2473.000000	0.050371
2474.000000	0.051317
2475.000000	0.050850
2476.000000	0.052259
2477.000000	0.047441
2478.000000	0.044717
2479.000000	0.040552
2480.000000	0.038586
2481.000000	0.039907
2482.000000	0.041104
2483.000000	0.053496
2484.000000	0.059580
2485.000000	0.062654
2486.000000	0.068571
2487.000000	0.062304
2488.000000	0.070983
2489.000000	0.073823
2490.000000	0.065315
2491.000000	0.061592
2492.000000	0.054086
2493.000000	0.053437
2494.000000	0.048985
2495.000000	0.027866
2496.000000	0.026287
2497.000000	0.031950
2498.000000	0.032535
2499.000000	0.050892
2500.000000	0.062147
