# Wavelength	Hexa60_00000.asd.rts.txt
350.000000	0.216580
351.000000	0.216864
352.000000	0.215364
353.000000	0.215190
354.000000	0.218715
355.000000	0.219163
356.000000	0.221375
357.000000	0.224975
358.000000	0.222019
359.000000	0.222359
360.000000	0.225174
361.000000	0.226877
362.000000	0.227008
363.000000	0.226767
364.000000	0.226595
365.000000	0.226842
366.000000	0.228012
367.000000	0.228876
368.000000	0.227190
369.000000	0.226355
370.000000	0.227227
371.000000	0.229413
372.000000	0.229393
373.000000	0.228982
374.000000	0.230026
375.000000	0.231154
376.000000	0.231844
377.000000	0.231847
378.000000	0.231384
379.000000	0.231397
380.000000	0.232214
381.000000	0.234334
382.000000	0.233835
383.000000	0.232719
384.000000	0.233058
385.000000	0.234462
386.000000	0.235419
387.000000	0.235869
388.000000	0.236958
389.000000	0.237547
390.000000	0.237708
391.000000	0.237685
392.000000	0.238444
393.000000	0.239118
394.000000	0.239136
395.000000	0.239666
396.000000	0.240541
397.000000	0.241223
398.000000	0.240530
399.000000	0.241103
400.000000	0.242531
401.000000	0.243025
402.000000	0.243538
403.000000	0.243882
404.000000	0.244021
405.000000	0.244476
406.000000	0.245108
407.000000	0.245757
408.000000	0.246107
409.000000	0.246405
410.000000	0.246625
411.000000	0.246565
412.000000	0.246955
413.000000	0.247500
414.000000	0.247816
415.000000	0.248314
416.000000	0.248786
417.000000	0.249133
418.000000	0.249609
419.000000	0.249886
420.000000	0.249986
421.000000	0.250211
422.000000	0.250584
423.000000	0.251021
424.000000	0.251465
425.000000	0.251709
426.000000	0.251984
427.000000	0.252405
428.000000	0.252674
429.000000	0.252895
430.000000	0.253134
431.000000	0.253390
432.000000	0.253666
433.000000	0.253905
434.000000	0.254137
435.000000	0.254344
436.000000	0.254524
437.000000	0.254672
438.000000	0.254875
439.000000	0.255134
440.000000	0.255495
441.000000	0.255768
442.000000	0.255895
443.000000	0.255931
444.000000	0.256207
445.000000	0.256459
446.000000	0.256801
447.000000	0.257195
448.000000	0.257339
449.000000	0.257571
450.000000	0.258054
451.000000	0.258225
452.000000	0.258409
453.000000	0.258642
454.000000	0.258891
455.000000	0.259219
456.000000	0.259633
457.000000	0.259922
458.000000	0.260197
459.000000	0.260486
460.000000	0.260820
461.000000	0.261007
462.000000	0.261299
463.000000	0.261597
464.000000	0.261667
465.000000	0.261957
466.000000	0.262354
467.000000	0.262524
468.000000	0.262727
469.000000	0.262934
470.000000	0.263219
471.000000	0.263453
472.000000	0.263606
473.000000	0.263738
474.000000	0.264006
475.000000	0.264176
476.000000	0.264359
477.000000	0.264675
478.000000	0.264825
479.000000	0.265051
480.000000	0.265408
481.000000	0.265536
482.000000	0.265677
483.000000	0.265877
484.000000	0.266251
485.000000	0.266543
486.000000	0.266791
487.000000	0.266926
488.000000	0.267090
489.000000	0.267368
490.000000	0.267783
491.000000	0.268012
492.000000	0.268236
493.000000	0.268579
494.000000	0.268844
495.000000	0.269117
496.000000	0.269424
497.000000	0.269749
498.000000	0.270051
499.000000	0.270369
500.000000	0.270631
501.000000	0.270866
502.000000	0.271141
503.000000	0.271442
504.000000	0.271722
505.000000	0.271994
506.000000	0.272277
507.000000	0.272520
508.000000	0.272810
509.000000	0.273143
510.000000	0.273466
511.000000	0.273783
512.000000	0.274118
513.000000	0.274453
514.000000	0.274762
515.000000	0.275097
516.000000	0.275453
517.000000	0.275762
518.000000	0.276100
519.000000	0.276433
520.000000	0.276757
521.000000	0.277063
522.000000	0.277357
523.000000	0.277652
524.000000	0.277965
525.000000	0.278271
526.000000	0.278564
527.000000	0.278818
528.000000	0.279048
529.000000	0.279331
530.000000	0.279648
531.000000	0.279997
532.000000	0.280281
533.000000	0.280517
534.000000	0.280781
535.000000	0.281081
536.000000	0.281402
537.000000	0.281683
538.000000	0.281927
539.000000	0.282160
540.000000	0.282465
541.000000	0.282783
542.000000	0.283091
543.000000	0.283401
544.000000	0.283703
545.000000	0.283947
546.000000	0.284264
547.000000	0.284611
548.000000	0.284983
549.000000	0.285293
550.000000	0.285610
551.000000	0.285947
552.000000	0.286250
553.000000	0.286560
554.000000	0.286872
555.000000	0.287195
556.000000	0.287580
557.000000	0.287937
558.000000	0.288339
559.000000	0.288670
560.000000	0.288957
561.000000	0.289295
562.000000	0.289649
563.000000	0.289954
564.000000	0.290271
565.000000	0.290565
566.000000	0.290910
567.000000	0.291265
568.000000	0.291583
569.000000	0.291904
570.000000	0.292233
571.000000	0.292563
572.000000	0.292908
573.000000	0.293223
574.000000	0.293526
575.000000	0.293908
576.000000	0.294260
577.000000	0.294564
578.000000	0.294887
579.000000	0.295197
580.000000	0.295511
581.000000	0.295829
582.000000	0.296134
583.000000	0.296449
584.000000	0.296757
585.000000	0.297021
586.000000	0.297343
587.000000	0.297689
588.000000	0.298005
589.000000	0.298340
590.000000	0.298702
591.000000	0.299068
592.000000	0.299350
593.000000	0.299640
594.000000	0.299952
595.000000	0.300231
596.000000	0.300453
597.000000	0.300668
598.000000	0.300852
599.000000	0.301022
600.000000	0.301250
601.000000	0.301492
602.000000	0.301672
603.000000	0.301862
604.000000	0.302091
605.000000	0.302280
606.000000	0.302437
607.000000	0.302588
608.000000	0.302773
609.000000	0.302944
610.000000	0.303123
611.000000	0.303337
612.000000	0.303528
613.000000	0.303682
614.000000	0.303841
615.000000	0.304031
616.000000	0.304179
617.000000	0.304261
618.000000	0.304414
619.000000	0.304564
620.000000	0.304699
621.000000	0.304883
622.000000	0.305043
623.000000	0.305212
624.000000	0.305415
625.000000	0.305601
626.000000	0.305810
627.000000	0.306063
628.000000	0.306365
629.000000	0.306726
630.000000	0.306998
631.000000	0.307244
632.000000	0.307529
633.000000	0.307815
634.000000	0.308035
635.000000	0.308224
636.000000	0.308386
637.000000	0.308503
638.000000	0.308584
639.000000	0.308673
640.000000	0.308827
641.000000	0.308940
642.000000	0.309051
643.000000	0.309176
644.000000	0.309324
645.000000	0.309433
646.000000	0.309540
647.000000	0.309660
648.000000	0.309841
649.000000	0.310032
650.000000	0.310199
651.000000	0.310392
652.000000	0.310556
653.000000	0.310738
654.000000	0.310935
655.000000	0.311116
656.000000	0.311307
657.000000	0.311476
658.000000	0.311686
659.000000	0.311899
660.000000	0.312082
661.000000	0.312257
662.000000	0.312424
663.000000	0.312624
664.000000	0.312814
665.000000	0.312998
666.000000	0.313166
667.000000	0.313293
668.000000	0.313483
669.000000	0.313706
670.000000	0.313923
671.000000	0.314069
672.000000	0.314238
673.000000	0.314433
674.000000	0.314607
675.000000	0.314783
676.000000	0.314962
677.000000	0.315153
678.000000	0.315316
679.000000	0.315465
680.000000	0.315624
681.000000	0.315783
682.000000	0.315980
683.000000	0.316143
684.000000	0.316328
685.000000	0.316493
686.000000	0.316660
687.000000	0.316808
688.000000	0.316976
689.000000	0.317161
690.000000	0.317384
691.000000	0.317599
692.000000	0.317756
693.000000	0.317922
694.000000	0.318116
695.000000	0.318320
696.000000	0.318508
697.000000	0.318656
698.000000	0.318844
699.000000	0.319044
700.000000	0.319225
701.000000	0.319372
702.000000	0.319537
703.000000	0.319712
704.000000	0.319860
705.000000	0.320016
706.000000	0.320156
707.000000	0.320335
708.000000	0.320538
709.000000	0.320733
710.000000	0.320918
711.000000	0.321093
712.000000	0.321256
713.000000	0.321424
714.000000	0.321576
715.000000	0.321730
716.000000	0.321887
717.000000	0.322019
718.000000	0.322188
719.000000	0.322346
720.000000	0.322475
721.000000	0.322646
722.000000	0.322800
723.000000	0.322968
724.000000	0.323112
725.000000	0.323181
726.000000	0.323280
727.000000	0.323394
728.000000	0.323515
729.000000	0.323657
730.000000	0.323782
731.000000	0.323947
732.000000	0.324095
733.000000	0.324241
734.000000	0.324377
735.000000	0.324488
736.000000	0.324665
737.000000	0.324761
738.000000	0.324815
739.000000	0.324937
740.000000	0.325018
741.000000	0.325114
742.000000	0.325212
743.000000	0.325287
744.000000	0.325388
745.000000	0.325496
746.000000	0.325621
747.000000	0.325684
748.000000	0.325799
749.000000	0.325941
750.000000	0.326049
751.000000	0.326161
752.000000	0.326260
753.000000	0.326355
754.000000	0.326454
755.000000	0.326548
756.000000	0.326644
757.000000	0.326707
758.000000	0.326813
759.000000	0.326960
760.000000	0.327063
761.000000	0.327188
762.000000	0.327247
763.000000	0.327253
764.000000	0.327364
765.000000	0.327426
766.000000	0.327458
767.000000	0.327501
768.000000	0.327576
769.000000	0.327671
770.000000	0.327776
771.000000	0.327875
772.000000	0.327997
773.000000	0.328061
774.000000	0.328099
775.000000	0.328164
776.000000	0.328260
777.000000	0.328359
778.000000	0.328479
779.000000	0.328555
780.000000	0.328568
781.000000	0.328523
782.000000	0.328500
783.000000	0.328568
784.000000	0.328593
785.000000	0.328665
786.000000	0.328739
787.000000	0.328788
788.000000	0.328843
789.000000	0.328939
790.000000	0.329034
791.000000	0.329106
792.000000	0.329190
793.000000	0.329250
794.000000	0.329266
795.000000	0.329294
796.000000	0.329331
797.000000	0.329370
798.000000	0.329403
799.000000	0.329431
800.000000	0.329451
801.000000	0.329470
802.000000	0.329515
803.000000	0.329597
804.000000	0.329707
805.000000	0.329656
806.000000	0.329582
807.000000	0.329600
808.000000	0.329645
809.000000	0.329711
810.000000	0.329767
811.000000	0.329781
812.000000	0.329791
813.000000	0.329824
814.000000	0.329864
815.000000	0.329878
816.000000	0.329803
817.000000	0.329717
818.000000	0.329633
819.000000	0.329659
820.000000	0.329741
821.000000	0.329787
822.000000	0.329817
823.000000	0.329846
824.000000	0.329805
825.000000	0.329746
826.000000	0.329706
827.000000	0.329654
828.000000	0.329610
829.000000	0.329553
830.000000	0.329486
831.000000	0.329474
832.000000	0.329433
833.000000	0.329410
834.000000	0.329420
835.000000	0.329483
836.000000	0.329487
837.000000	0.329450
838.000000	0.329411
839.000000	0.329381
840.000000	0.329241
841.000000	0.329106
842.000000	0.329052
843.000000	0.329034
844.000000	0.329030
845.000000	0.329007
846.000000	0.329016
847.000000	0.329010
848.000000	0.328977
849.000000	0.328962
850.000000	0.329006
851.000000	0.328963
852.000000	0.328859
853.000000	0.328838
854.000000	0.328778
855.000000	0.328757
856.000000	0.328691
857.000000	0.328512
858.000000	0.328389
859.000000	0.328313
860.000000	0.328238
861.000000	0.328209
862.000000	0.328208
863.000000	0.328121
864.000000	0.328030
865.000000	0.327944
866.000000	0.327878
867.000000	0.327785
868.000000	0.327681
869.000000	0.327561
870.000000	0.327524
871.000000	0.327444
872.000000	0.327310
873.000000	0.327102
874.000000	0.327004
875.000000	0.326817
876.000000	0.326607
877.000000	0.326454
878.000000	0.326210
879.000000	0.326108
880.000000	0.326080
881.000000	0.325960
882.000000	0.325852
883.000000	0.325758
884.000000	0.325574
885.000000	0.325355
886.000000	0.325083
887.000000	0.324835
888.000000	0.324785
889.000000	0.324697
890.000000	0.324454
891.000000	0.324245
892.000000	0.324057
893.000000	0.323832
894.000000	0.323676
895.000000	0.323537
896.000000	0.323393
897.000000	0.323243
898.000000	0.323098
899.000000	0.322962
900.000000	0.322807
901.000000	0.322604
902.000000	0.322463
903.000000	0.322316
904.000000	0.322195
905.000000	0.322044
906.000000	0.321966
907.000000	0.321844
908.000000	0.321690
909.000000	0.321472
910.000000	0.321210
911.000000	0.320974
912.000000	0.320813
913.000000	0.320560
914.000000	0.320265
915.000000	0.320016
916.000000	0.319746
917.000000	0.319520
918.000000	0.319362
919.000000	0.319244
920.000000	0.319150
921.000000	0.319000
922.000000	0.318760
923.000000	0.318406
924.000000	0.318044
925.000000	0.317762
926.000000	0.317594
927.000000	0.317364
928.000000	0.317134
929.000000	0.316917
930.000000	0.316719
931.000000	0.316550
932.000000	0.316404
933.000000	0.316290
934.000000	0.316115
935.000000	0.315815
936.000000	0.315538
937.000000	0.315288
938.000000	0.314925
939.000000	0.314731
940.000000	0.314600
941.000000	0.314374
942.000000	0.314091
943.000000	0.313884
944.000000	0.313701
945.000000	0.313615
946.000000	0.313333
947.000000	0.313047
948.000000	0.312932
949.000000	0.312633
950.000000	0.312380
951.000000	0.312173
952.000000	0.311912
953.000000	0.311733
954.000000	0.311565
955.000000	0.311285
956.000000	0.311067
957.000000	0.310817
958.000000	0.310512
959.000000	0.310285
960.000000	0.310062
961.000000	0.309864
962.000000	0.309656
963.000000	0.309402
964.000000	0.309176
965.000000	0.308998
966.000000	0.308754
967.000000	0.308534
968.000000	0.308319
969.000000	0.308042
970.000000	0.307763
971.000000	0.307531
972.000000	0.307369
973.000000	0.307172
974.000000	0.306894
975.000000	0.306576
976.000000	0.306389
977.000000	0.306361
978.000000	0.306043
979.000000	0.306012
980.000000	0.305889
981.000000	0.305499
982.000000	0.305262
983.000000	0.305069
984.000000	0.304922
985.000000	0.304817
986.000000	0.304657
987.000000	0.304541
988.000000	0.304378
989.000000	0.303991
990.000000	0.303816
991.000000	0.303808
992.000000	0.303783
993.000000	0.303560
994.000000	0.303262
995.000000	0.303081
996.000000	0.302841
997.000000	0.302790
998.000000	0.302666
999.000000	0.302486
1000.000000	0.302495
1001.000000	0.302839
1002.000000	0.302560
1003.000000	0.302248
1004.000000	0.302015
1005.000000	0.301765
1006.000000	0.301578
1007.000000	0.301542
1008.000000	0.301499
1009.000000	0.301376
1010.000000	0.301118
1011.000000	0.300956
1012.000000	0.300872
1013.000000	0.300655
1014.000000	0.300682
1015.000000	0.300842
1016.000000	0.300795
1017.000000	0.300660
1018.000000	0.300601
1019.000000	0.300569
1020.000000	0.300721
1021.000000	0.300409
1022.000000	0.299976
1023.000000	0.300034
1024.000000	0.300001
1025.000000	0.300088
1026.000000	0.300278
1027.000000	0.300240
1028.000000	0.299958
1029.000000	0.299872
1030.000000	0.299904
1031.000000	0.300064
1032.000000	0.300364
1033.000000	0.300288
1034.000000	0.300299
1035.000000	0.300322
1036.000000	0.300357
1037.000000	0.300381
1038.000000	0.300345
1039.000000	0.300371
1040.000000	0.300463
1041.000000	0.300487
1042.000000	0.300555
1043.000000	0.300824
1044.000000	0.300877
1045.000000	0.300695
1046.000000	0.300593
1047.000000	0.300736
1048.000000	0.300934
1049.000000	0.301046
1050.000000	0.301406
1051.000000	0.301500
1052.000000	0.301189
1053.000000	0.301162
1054.000000	0.301451
1055.000000	0.301707
1056.000000	0.302098
1057.000000	0.302395
1058.000000	0.302622
1059.000000	0.302591
1060.000000	0.302530
1061.000000	0.302695
1062.000000	0.302969
1063.000000	0.303250
1064.000000	0.303493
1065.000000	0.303770
1066.000000	0.303960
1067.000000	0.304028
1068.000000	0.304134
1069.000000	0.304096
1070.000000	0.304230
1071.000000	0.304521
1072.000000	0.304721
1073.000000	0.304974
1074.000000	0.305461
1075.000000	0.305517
1076.000000	0.305510
1077.000000	0.305533
1078.000000	0.305441
1079.000000	0.305530
1080.000000	0.305797
1081.000000	0.305960
1082.000000	0.306189
1083.000000	0.306455
1084.000000	0.306835
1085.000000	0.307087
1086.000000	0.307297
1087.000000	0.307567
1088.000000	0.307650
1089.000000	0.307791
1090.000000	0.308071
1091.000000	0.308171
1092.000000	0.308178
1093.000000	0.308443
1094.000000	0.308579
1095.000000	0.308571
1096.000000	0.308812
1097.000000	0.309184
1098.000000	0.309453
1099.000000	0.309764
1100.000000	0.310075
1101.000000	0.310271
1102.000000	0.310480
1103.000000	0.310742
1104.000000	0.310958
1105.000000	0.311045
1106.000000	0.311226
1107.000000	0.311420
1108.000000	0.311576
1109.000000	0.311819
1110.000000	0.312015
1111.000000	0.312207
1112.000000	0.312366
1113.000000	0.312584
1114.000000	0.312853
1115.000000	0.313043
1116.000000	0.313285
1117.000000	0.313380
1118.000000	0.313263
1119.000000	0.313300
1120.000000	0.313314
1121.000000	0.313397
1122.000000	0.313764
1123.000000	0.314110
1124.000000	0.314194
1125.000000	0.314365
1126.000000	0.314472
1127.000000	0.314540
1128.000000	0.314594
1129.000000	0.314681
1130.000000	0.314805
1131.000000	0.314931
1132.000000	0.315023
1133.000000	0.315226
1134.000000	0.315350
1135.000000	0.315311
1136.000000	0.315385
1137.000000	0.315574
1138.000000	0.315571
1139.000000	0.315529
1140.000000	0.315642
1141.000000	0.315662
1142.000000	0.315729
1143.000000	0.315931
1144.000000	0.316112
1145.000000	0.316094
1146.000000	0.315951
1147.000000	0.315929
1148.000000	0.315792
1149.000000	0.315781
1150.000000	0.315887
1151.000000	0.315944
1152.000000	0.315964
1153.000000	0.315997
1154.000000	0.315983
1155.000000	0.315974
1156.000000	0.315976
1157.000000	0.315985
1158.000000	0.315968
1159.000000	0.315933
1160.000000	0.315835
1161.000000	0.315792
1162.000000	0.315807
1163.000000	0.315955
1164.000000	0.315991
1165.000000	0.316073
1166.000000	0.316101
1167.000000	0.316011
1168.000000	0.315968
1169.000000	0.315964
1170.000000	0.315964
1171.000000	0.316015
1172.000000	0.316058
1173.000000	0.316073
1174.000000	0.316074
1175.000000	0.316037
1176.000000	0.315983
1177.000000	0.315979
1178.000000	0.315979
1179.000000	0.316002
1180.000000	0.315919
1181.000000	0.315828
1182.000000	0.315817
1183.000000	0.315809
1184.000000	0.315803
1185.000000	0.315793
1186.000000	0.315832
1187.000000	0.315798
1188.000000	0.315706
1189.000000	0.315646
1190.000000	0.315631
1191.000000	0.315605
1192.000000	0.315685
1193.000000	0.315775
1194.000000	0.315746
1195.000000	0.315751
1196.000000	0.315688
1197.000000	0.315673
1198.000000	0.315729
1199.000000	0.315736
1200.000000	0.315738
1201.000000	0.315718
1202.000000	0.315617
1203.000000	0.315563
1204.000000	0.315528
1205.000000	0.315495
1206.000000	0.315444
1207.000000	0.315515
1208.000000	0.315472
1209.000000	0.315428
1210.000000	0.315398
1211.000000	0.315338
1212.000000	0.315296
1213.000000	0.315336
1214.000000	0.315326
1215.000000	0.315245
1216.000000	0.315224
1217.000000	0.315191
1218.000000	0.315130
1219.000000	0.315116
1220.000000	0.315106
1221.000000	0.315076
1222.000000	0.315063
1223.000000	0.315087
1224.000000	0.315112
1225.000000	0.315052
1226.000000	0.314997
1227.000000	0.314938
1228.000000	0.314975
1229.000000	0.314931
1230.000000	0.314879
1231.000000	0.314769
1232.000000	0.314687
1233.000000	0.314710
1234.000000	0.314772
1235.000000	0.314768
1236.000000	0.314698
1237.000000	0.314688
1238.000000	0.314582
1239.000000	0.314534
1240.000000	0.314563
1241.000000	0.314528
1242.000000	0.314490
1243.000000	0.314535
1244.000000	0.314609
1245.000000	0.314771
1246.000000	0.314883
1247.000000	0.314998
1248.000000	0.315097
1249.000000	0.315132
1250.000000	0.315155
1251.000000	0.315208
1252.000000	0.315187
1253.000000	0.315126
1254.000000	0.315073
1255.000000	0.314971
1256.000000	0.314917
1257.000000	0.314931
1258.000000	0.314927
1259.000000	0.314844
1260.000000	0.314846
1261.000000	0.314790
1262.000000	0.314768
1263.000000	0.314836
1264.000000	0.314871
1265.000000	0.314855
1266.000000	0.314856
1267.000000	0.314801
1268.000000	0.314749
1269.000000	0.314717
1270.000000	0.314719
1271.000000	0.314709
1272.000000	0.314750
1273.000000	0.314789
1274.000000	0.314759
1275.000000	0.314742
1276.000000	0.314742
1277.000000	0.314796
1278.000000	0.314799
1279.000000	0.314780
1280.000000	0.314704
1281.000000	0.314606
1282.000000	0.314492
1283.000000	0.314485
1284.000000	0.314467
1285.000000	0.314453
1286.000000	0.314448
1287.000000	0.314429
1288.000000	0.314466
1289.000000	0.314431
1290.000000	0.314284
1291.000000	0.314207
1292.000000	0.314148
1293.000000	0.314046
1294.000000	0.314028
1295.000000	0.314047
1296.000000	0.314001
1297.000000	0.313999
1298.000000	0.314055
1299.000000	0.314071
1300.000000	0.314083
1301.000000	0.314065
1302.000000	0.313996
1303.000000	0.313976
1304.000000	0.313949
1305.000000	0.314029
1306.000000	0.314012
1307.000000	0.314021
1308.000000	0.314028
1309.000000	0.313965
1310.000000	0.313921
1311.000000	0.313926
1312.000000	0.313875
1313.000000	0.313846
1314.000000	0.313804
1315.000000	0.313688
1316.000000	0.313738
1317.000000	0.313786
1318.000000	0.313727
1319.000000	0.313698
1320.000000	0.313628
1321.000000	0.313492
1322.000000	0.313384
1323.000000	0.313274
1324.000000	0.313213
1325.000000	0.313121
1326.000000	0.312990
1327.000000	0.312934
1328.000000	0.312907
1329.000000	0.312764
1330.000000	0.312576
1331.000000	0.312444
1332.000000	0.312306
1333.000000	0.312181
1334.000000	0.312186
1335.000000	0.312148
1336.000000	0.312053
1337.000000	0.311957
1338.000000	0.311799
1339.000000	0.311697
1340.000000	0.311580
1341.000000	0.311474
1342.000000	0.311411
1343.000000	0.311247
1344.000000	0.311040
1345.000000	0.310860
1346.000000	0.310708
1347.000000	0.310413
1348.000000	0.310174
1349.000000	0.309953
1350.000000	0.309748
1351.000000	0.309580
1352.000000	0.309390
1353.000000	0.309195
1354.000000	0.309089
1355.000000	0.308954
1356.000000	0.308891
1357.000000	0.308806
1358.000000	0.308664
1359.000000	0.308537
1360.000000	0.308392
1361.000000	0.308264
1362.000000	0.308122
1363.000000	0.307922
1364.000000	0.307788
1365.000000	0.307649
1366.000000	0.307510
1367.000000	0.307376
1368.000000	0.307285
1369.000000	0.307236
1370.000000	0.307112
1371.000000	0.306956
1372.000000	0.306738
1373.000000	0.306506
1374.000000	0.306316
1375.000000	0.306111
1376.000000	0.306059
1377.000000	0.306012
1378.000000	0.305903
1379.000000	0.305759
1380.000000	0.305562
1381.000000	0.305339
1382.000000	0.305097
1383.000000	0.304907
1384.000000	0.304624
1385.000000	0.304320
1386.000000	0.304132
1387.000000	0.303883
1388.000000	0.303615
1389.000000	0.303413
1390.000000	0.303168
1391.000000	0.302854
1392.000000	0.302613
1393.000000	0.302312
1394.000000	0.301999
1395.000000	0.301686
1396.000000	0.301390
1397.000000	0.300968
1398.000000	0.300458
1399.000000	0.299955
1400.000000	0.299337
1401.000000	0.298777
1402.000000	0.298311
1403.000000	0.297735
1404.000000	0.297173
1405.000000	0.296595
1406.000000	0.295953
1407.000000	0.295322
1408.000000	0.294615
1409.000000	0.293964
1410.000000	0.293330
1411.000000	0.292561
1412.000000	0.291785
1413.000000	0.291063
1414.000000	0.290294
1415.000000	0.289570
1416.000000	0.288882
1417.000000	0.288127
1418.000000	0.287295
1419.000000	0.286545
1420.000000	0.285759
1421.000000	0.285025
1422.000000	0.284372
1423.000000	0.283760
1424.000000	0.283016
1425.000000	0.282276
1426.000000	0.281513
1427.000000	0.280736
1428.000000	0.280039
1429.000000	0.279393
1430.000000	0.278790
1431.000000	0.278185
1432.000000	0.277540
1433.000000	0.276891
1434.000000	0.276289
1435.000000	0.275743
1436.000000	0.275204
1437.000000	0.274733
1438.000000	0.274179
1439.000000	0.273589
1440.000000	0.273078
1441.000000	0.272594
1442.000000	0.272139
1443.000000	0.271671
1444.000000	0.271245
1445.000000	0.270822
1446.000000	0.270404
1447.000000	0.270023
1448.000000	0.269658
1449.000000	0.269285
1450.000000	0.268966
1451.000000	0.268724
1452.000000	0.268417
1453.000000	0.268127
1454.000000	0.267824
1455.000000	0.267492
1456.000000	0.267288
1457.000000	0.267103
1458.000000	0.266903
1459.000000	0.266733
1460.000000	0.266530
1461.000000	0.266319
1462.000000	0.266144
1463.000000	0.265920
1464.000000	0.265707
1465.000000	0.265597
1466.000000	0.265471
1467.000000	0.265359
1468.000000	0.265291
1469.000000	0.265235
1470.000000	0.265142
1471.000000	0.265122
1472.000000	0.265106
1473.000000	0.265131
1474.000000	0.265178
1475.000000	0.265249
1476.000000	0.265335
1477.000000	0.265427
1478.000000	0.265526
1479.000000	0.265633
1480.000000	0.265786
1481.000000	0.265955
1482.000000	0.266206
1483.000000	0.266454
1484.000000	0.266738
1485.000000	0.266994
1486.000000	0.267221
1487.000000	0.267477
1488.000000	0.267738
1489.000000	0.268031
1490.000000	0.268282
1491.000000	0.268558
1492.000000	0.268802
1493.000000	0.269065
1494.000000	0.269310
1495.000000	0.269529
1496.000000	0.269759
1497.000000	0.269960
1498.000000	0.270145
1499.000000	0.270298
1500.000000	0.270500
1501.000000	0.270685
1502.000000	0.270867
1503.000000	0.271109
1504.000000	0.271311
1505.000000	0.271496
1506.000000	0.271734
1507.000000	0.271912
1508.000000	0.272079
1509.000000	0.272282
1510.000000	0.272408
1511.000000	0.272509
1512.000000	0.272600
1513.000000	0.272669
1514.000000	0.272799
1515.000000	0.272916
1516.000000	0.273052
1517.000000	0.273150
1518.000000	0.273202
1519.000000	0.273214
1520.000000	0.273235
1521.000000	0.273241
1522.000000	0.273291
1523.000000	0.273398
1524.000000	0.273454
1525.000000	0.273534
1526.000000	0.273585
1527.000000	0.273628
1528.000000	0.273740
1529.000000	0.273810
1530.000000	0.273792
1531.000000	0.273839
1532.000000	0.273904
1533.000000	0.273955
1534.000000	0.274077
1535.000000	0.274186
1536.000000	0.274189
1537.000000	0.274242
1538.000000	0.274279
1539.000000	0.274245
1540.000000	0.274248
1541.000000	0.274292
1542.000000	0.274334
1543.000000	0.274396
1544.000000	0.274479
1545.000000	0.274568
1546.000000	0.274648
1547.000000	0.274734
1548.000000	0.274799
1549.000000	0.274826
1550.000000	0.274826
1551.000000	0.274819
1552.000000	0.274859
1553.000000	0.274901
1554.000000	0.274915
1555.000000	0.274958
1556.000000	0.275005
1557.000000	0.275004
1558.000000	0.275026
1559.000000	0.275025
1560.000000	0.275007
1561.000000	0.275002
1562.000000	0.274975
1563.000000	0.274968
1564.000000	0.274972
1565.000000	0.274963
1566.000000	0.274893
1567.000000	0.274901
1568.000000	0.274872
1569.000000	0.274851
1570.000000	0.274837
1571.000000	0.274824
1572.000000	0.274805
1573.000000	0.274796
1574.000000	0.274757
1575.000000	0.274716
1576.000000	0.274682
1577.000000	0.274609
1578.000000	0.274557
1579.000000	0.274591
1580.000000	0.274574
1581.000000	0.274591
1582.000000	0.274577
1583.000000	0.274521
1584.000000	0.274449
1585.000000	0.274430
1586.000000	0.274432
1587.000000	0.274426
1588.000000	0.274442
1589.000000	0.274506
1590.000000	0.274541
1591.000000	0.274590
1592.000000	0.274643
1593.000000	0.274721
1594.000000	0.274757
1595.000000	0.274822
1596.000000	0.274884
1597.000000	0.274951
1598.000000	0.274995
1599.000000	0.275082
1600.000000	0.275071
1601.000000	0.275059
1602.000000	0.275047
1603.000000	0.275014
1604.000000	0.274989
1605.000000	0.274993
1606.000000	0.274978
1607.000000	0.274987
1608.000000	0.274984
1609.000000	0.275033
1610.000000	0.275029
1611.000000	0.275001
1612.000000	0.275019
1613.000000	0.275127
1614.000000	0.275172
1615.000000	0.275275
1616.000000	0.275374
1617.000000	0.275393
1618.000000	0.275440
1619.000000	0.275503
1620.000000	0.275551
1621.000000	0.275579
1622.000000	0.275728
1623.000000	0.275927
1624.000000	0.276063
1625.000000	0.276102
1626.000000	0.276164
1627.000000	0.276198
1628.000000	0.276314
1629.000000	0.276504
1630.000000	0.276666
1631.000000	0.276756
1632.000000	0.276878
1633.000000	0.277039
1634.000000	0.277188
1635.000000	0.277378
1636.000000	0.277537
1637.000000	0.277690
1638.000000	0.277820
1639.000000	0.278006
1640.000000	0.278126
1641.000000	0.278259
1642.000000	0.278368
1643.000000	0.278475
1644.000000	0.278553
1645.000000	0.278595
1646.000000	0.278623
1647.000000	0.278643
1648.000000	0.278671
1649.000000	0.278764
1650.000000	0.278904
1651.000000	0.279107
1652.000000	0.279313
1653.000000	0.279516
1654.000000	0.279730
1655.000000	0.279904
1656.000000	0.280030
1657.000000	0.280225
1658.000000	0.280372
1659.000000	0.280572
1660.000000	0.280750
1661.000000	0.280838
1662.000000	0.280948
1663.000000	0.281005
1664.000000	0.281120
1665.000000	0.281258
1666.000000	0.281449
1667.000000	0.281611
1668.000000	0.281783
1669.000000	0.281953
1670.000000	0.282074
1671.000000	0.282288
1672.000000	0.282484
1673.000000	0.282634
1674.000000	0.282789
1675.000000	0.282922
1676.000000	0.283015
1677.000000	0.283072
1678.000000	0.283111
1679.000000	0.283152
1680.000000	0.283156
1681.000000	0.283201
1682.000000	0.283290
1683.000000	0.283383
1684.000000	0.283472
1685.000000	0.283564
1686.000000	0.283623
1687.000000	0.283696
1688.000000	0.283721
1689.000000	0.283748
1690.000000	0.283750
1691.000000	0.283819
1692.000000	0.283916
1693.000000	0.284036
1694.000000	0.284167
1695.000000	0.284310
1696.000000	0.284417
1697.000000	0.284467
1698.000000	0.284497
1699.000000	0.284591
1700.000000	0.284700
1701.000000	0.284862
1702.000000	0.284941
1703.000000	0.284988
1704.000000	0.285082
1705.000000	0.285168
1706.000000	0.285278
1707.000000	0.285393
1708.000000	0.285496
1709.000000	0.285529
1710.000000	0.285615
1711.000000	0.285711
1712.000000	0.285796
1713.000000	0.285879
1714.000000	0.286022
1715.000000	0.286145
1716.000000	0.286267
1717.000000	0.286366
1718.000000	0.286432
1719.000000	0.286485
1720.000000	0.286540
1721.000000	0.286619
1722.000000	0.286720
1723.000000	0.286808
1724.000000	0.286942
1725.000000	0.287042
1726.000000	0.287023
1727.000000	0.287071
1728.000000	0.287096
1729.000000	0.287044
1730.000000	0.287073
1731.000000	0.287120
1732.000000	0.287135
1733.000000	0.287242
1734.000000	0.287315
1735.000000	0.287410
1736.000000	0.287484
1737.000000	0.287577
1738.000000	0.287733
1739.000000	0.287826
1740.000000	0.287867
1741.000000	0.287938
1742.000000	0.288011
1743.000000	0.288131
1744.000000	0.288275
1745.000000	0.288342
1746.000000	0.288389
1747.000000	0.288375
1748.000000	0.288348
1749.000000	0.288315
1750.000000	0.288278
1751.000000	0.288348
1752.000000	0.288496
1753.000000	0.288569
1754.000000	0.288656
1755.000000	0.288761
1756.000000	0.288811
1757.000000	0.288807
1758.000000	0.288854
1759.000000	0.288862
1760.000000	0.288909
1761.000000	0.288962
1762.000000	0.289033
1763.000000	0.289164
1764.000000	0.289258
1765.000000	0.289306
1766.000000	0.289410
1767.000000	0.289443
1768.000000	0.289486
1769.000000	0.289661
1770.000000	0.289827
1771.000000	0.289969
1772.000000	0.290051
1773.000000	0.290042
1774.000000	0.290127
1775.000000	0.290257
1776.000000	0.290358
1777.000000	0.290486
1778.000000	0.290593
1779.000000	0.290627
1780.000000	0.290729
1781.000000	0.290861
1782.000000	0.290959
1783.000000	0.291069
1784.000000	0.291247
1785.000000	0.291361
1786.000000	0.291511
1787.000000	0.291726
1788.000000	0.291885
1789.000000	0.291993
1790.000000	0.292059
1791.000000	0.292082
1792.000000	0.292138
1793.000000	0.292185
1794.000000	0.292217
1795.000000	0.292295
1796.000000	0.292397
1797.000000	0.292455
1798.000000	0.292504
1799.000000	0.292554
1800.000000	0.292579
1801.000000	0.292179
1802.000000	0.292452
1803.000000	0.293006
1804.000000	0.293205
1805.000000	0.293347
1806.000000	0.293421
1807.000000	0.293210
1808.000000	0.293180
1809.000000	0.293137
1810.000000	0.293260
1811.000000	0.293255
1812.000000	0.293311
1813.000000	0.293242
1814.000000	0.293006
1815.000000	0.292956
1816.000000	0.292888
1817.000000	0.292824
1818.000000	0.292870
1819.000000	0.293188
1820.000000	0.293338
1821.000000	0.293275
1822.000000	0.293278
1823.000000	0.293130
1824.000000	0.293010
1825.000000	0.292789
1826.000000	0.292770
1827.000000	0.292794
1828.000000	0.292711
1829.000000	0.292587
1830.000000	0.292321
1831.000000	0.292161
1832.000000	0.291731
1833.000000	0.291725
1834.000000	0.292187
1835.000000	0.292304
1836.000000	0.292300
1837.000000	0.292333
1838.000000	0.292306
1839.000000	0.291919
1840.000000	0.291607
1841.000000	0.291527
1842.000000	0.291302
1843.000000	0.290816
1844.000000	0.290639
1845.000000	0.290602
1846.000000	0.290466
1847.000000	0.290203
1848.000000	0.290008
1849.000000	0.289828
1850.000000	0.289551
1851.000000	0.289438
1852.000000	0.289462
1853.000000	0.289401
1854.000000	0.289326
1855.000000	0.288923
1856.000000	0.288230
1857.000000	0.287546
1858.000000	0.286860
1859.000000	0.286164
1860.000000	0.285568
1861.000000	0.285237
1862.000000	0.284791
1863.000000	0.284504
1864.000000	0.283963
1865.000000	0.283375
1866.000000	0.282649
1867.000000	0.281703
1868.000000	0.280649
1869.000000	0.279536
1870.000000	0.278479
1871.000000	0.277363
1872.000000	0.276044
1873.000000	0.274997
1874.000000	0.274181
1875.000000	0.273214
1876.000000	0.272036
1877.000000	0.270853
1878.000000	0.269633
1879.000000	0.267964
1880.000000	0.266402
1881.000000	0.264941
1882.000000	0.263119
1883.000000	0.261163
1884.000000	0.259427
1885.000000	0.257601
1886.000000	0.255585
1887.000000	0.253564
1888.000000	0.251558
1889.000000	0.248995
1890.000000	0.246440
1891.000000	0.244165
1892.000000	0.241826
1893.000000	0.239656
1894.000000	0.237624
1895.000000	0.235265
1896.000000	0.232886
1897.000000	0.230362
1898.000000	0.227678
1899.000000	0.225111
1900.000000	0.222621
1901.000000	0.220007
1902.000000	0.217224
1903.000000	0.214446
1904.000000	0.211915
1905.000000	0.209248
1906.000000	0.206582
1907.000000	0.204016
1908.000000	0.201647
1909.000000	0.199167
1910.000000	0.196938
1911.000000	0.194816
1912.000000	0.192635
1913.000000	0.190554
1914.000000	0.188444
1915.000000	0.186355
1916.000000	0.184489
1917.000000	0.182650
1918.000000	0.180928
1919.000000	0.179206
1920.000000	0.177665
1921.000000	0.176438
1922.000000	0.175217
1923.000000	0.174090
1924.000000	0.173309
1925.000000	0.172553
1926.000000	0.171818
1927.000000	0.171505
1928.000000	0.171139
1929.000000	0.170940
1930.000000	0.170518
1931.000000	0.170205
1932.000000	0.170078
1933.000000	0.169921
1934.000000	0.169965
1935.000000	0.170327
1936.000000	0.170387
1937.000000	0.170253
1938.000000	0.170204
1939.000000	0.170034
1940.000000	0.169642
1941.000000	0.169416
1942.000000	0.169362
1943.000000	0.168939
1944.000000	0.168639
1945.000000	0.168199
1946.000000	0.167600
1947.000000	0.167469
1948.000000	0.167087
1949.000000	0.166730
1950.000000	0.166513
1951.000000	0.166114
1952.000000	0.165483
1953.000000	0.165206
1954.000000	0.164960
1955.000000	0.164445
1956.000000	0.163976
1957.000000	0.163378
1958.000000	0.162725
1959.000000	0.162401
1960.000000	0.162270
1961.000000	0.162153
1962.000000	0.162025
1963.000000	0.162037
1964.000000	0.161936
1965.000000	0.161688
1966.000000	0.161443
1967.000000	0.161172
1968.000000	0.161077
1969.000000	0.161110
1970.000000	0.161126
1971.000000	0.161017
1972.000000	0.160804
1973.000000	0.160628
1974.000000	0.160347
1975.000000	0.160338
1976.000000	0.160549
1977.000000	0.160737
1978.000000	0.160959
1979.000000	0.161272
1980.000000	0.161526
1981.000000	0.161921
1982.000000	0.162154
1983.000000	0.162487
1984.000000	0.162827
1985.000000	0.163117
1986.000000	0.163464
1987.000000	0.163975
1988.000000	0.164442
1989.000000	0.164782
1990.000000	0.165133
1991.000000	0.165579
1992.000000	0.166048
1993.000000	0.166546
1994.000000	0.167204
1995.000000	0.167719
1996.000000	0.168225
1997.000000	0.168885
1998.000000	0.169781
1999.000000	0.170506
2000.000000	0.171334
2001.000000	0.171982
2002.000000	0.172379
2003.000000	0.172839
2004.000000	0.173241
2005.000000	0.173564
2006.000000	0.174136
2007.000000	0.174742
2008.000000	0.175371
2009.000000	0.176049
2010.000000	0.176875
2011.000000	0.177712
2012.000000	0.178492
2013.000000	0.179342
2014.000000	0.180052
2015.000000	0.180834
2016.000000	0.181601
2017.000000	0.182267
2018.000000	0.183212
2019.000000	0.183953
2020.000000	0.184697
2021.000000	0.185531
2022.000000	0.186501
2023.000000	0.187195
2024.000000	0.187713
2025.000000	0.188423
2026.000000	0.188995
2027.000000	0.189659
2028.000000	0.190319
2029.000000	0.191235
2030.000000	0.192008
2031.000000	0.192589
2032.000000	0.193284
2033.000000	0.194074
2034.000000	0.194788
2035.000000	0.195505
2036.000000	0.196130
2037.000000	0.196866
2038.000000	0.197542
2039.000000	0.198174
2040.000000	0.198838
2041.000000	0.199529
2042.000000	0.200207
2043.000000	0.200747
2044.000000	0.201447
2045.000000	0.202051
2046.000000	0.202538
2047.000000	0.203239
2048.000000	0.204054
2049.000000	0.204822
2050.000000	0.205361
2051.000000	0.206047
2052.000000	0.206807
2053.000000	0.207311
2054.000000	0.207966
2055.000000	0.208661
2056.000000	0.208951
2057.000000	0.209120
2058.000000	0.209486
2059.000000	0.209973
2060.000000	0.210373
2061.000000	0.210875
2062.000000	0.211266
2063.000000	0.211581
2064.000000	0.211817
2065.000000	0.212105
2066.000000	0.212406
2067.000000	0.212744
2068.000000	0.213338
2069.000000	0.214246
2070.000000	0.215268
2071.000000	0.216208
2072.000000	0.217116
2073.000000	0.217595
2074.000000	0.218008
2075.000000	0.218567
2076.000000	0.219100
2077.000000	0.219659
2078.000000	0.220387
2079.000000	0.220895
2080.000000	0.221206
2081.000000	0.221708
2082.000000	0.222268
2083.000000	0.222825
2084.000000	0.223347
2085.000000	0.224016
2086.000000	0.224516
2087.000000	0.224950
2088.000000	0.225572
2089.000000	0.226278
2090.000000	0.226940
2091.000000	0.227694
2092.000000	0.228431
2093.000000	0.229249
2094.000000	0.229859
2095.000000	0.230499
2096.000000	0.230987
2097.000000	0.231187
2098.000000	0.231342
2099.000000	0.231629
2100.000000	0.232017
2101.000000	0.232628
2102.000000	0.233225
2103.000000	0.233479
2104.000000	0.233624
2105.000000	0.233889
2106.000000	0.233828
2107.000000	0.234283
2108.000000	0.235247
2109.000000	0.235912
2110.000000	0.236545
2111.000000	0.237044
2112.000000	0.237335
2113.000000	0.237394
2114.000000	0.237737
2115.000000	0.238340
2116.000000	0.238726
2117.000000	0.239110
2118.000000	0.239560
2119.000000	0.239869
2120.000000	0.240160
2121.000000	0.240503
2122.000000	0.240824
2123.000000	0.240989
2124.000000	0.241222
2125.000000	0.241687
2126.000000	0.241801
2127.000000	0.241517
2128.000000	0.241669
2129.000000	0.241742
2130.000000	0.242086
2131.000000	0.242414
2132.000000	0.242709
2133.000000	0.242852
2134.000000	0.242979
2135.000000	0.243017
2136.000000	0.243058
2137.000000	0.243105
2138.000000	0.242954
2139.000000	0.243059
2140.000000	0.243340
2141.000000	0.243567
2142.000000	0.243890
2143.000000	0.244090
2144.000000	0.244425
2145.000000	0.244775
2146.000000	0.245326
2147.000000	0.245828
2148.000000	0.245857
2149.000000	0.245919
2150.000000	0.245721
2151.000000	0.245193
2152.000000	0.244887
2153.000000	0.244851
2154.000000	0.244932
2155.000000	0.245361
2156.000000	0.245531
2157.000000	0.245792
2158.000000	0.245944
2159.000000	0.245934
2160.000000	0.246053
2161.000000	0.246277
2162.000000	0.246469
2163.000000	0.246562
2164.000000	0.246599
2165.000000	0.246612
2166.000000	0.246543
2167.000000	0.246578
2168.000000	0.246566
2169.000000	0.246683
2170.000000	0.246754
2171.000000	0.246706
2172.000000	0.246563
2173.000000	0.246501
2174.000000	0.246323
2175.000000	0.246351
2176.000000	0.246541
2177.000000	0.246750
2178.000000	0.247179
2179.000000	0.247395
2180.000000	0.247483
2181.000000	0.247765
2182.000000	0.247448
2183.000000	0.247445
2184.000000	0.247651
2185.000000	0.247503
2186.000000	0.247336
2187.000000	0.247585
2188.000000	0.247617
2189.000000	0.247353
2190.000000	0.247194
2191.000000	0.247266
2192.000000	0.247240
2193.000000	0.247314
2194.000000	0.247228
2195.000000	0.246932
2196.000000	0.247004
2197.000000	0.247175
2198.000000	0.247480
2199.000000	0.248663
2200.000000	0.248935
2201.000000	0.248258
2202.000000	0.248302
2203.000000	0.248300
2204.000000	0.247908
2205.000000	0.247724
2206.000000	0.248068
2207.000000	0.247921
2208.000000	0.247848
2209.000000	0.247720
2210.000000	0.248223
2211.000000	0.248556
2212.000000	0.248933
2213.000000	0.248945
2214.000000	0.248921
2215.000000	0.248808
2216.000000	0.248094
2217.000000	0.248134
2218.000000	0.248972
2219.000000	0.249287
2220.000000	0.249118
2221.000000	0.249377
2222.000000	0.249868
2223.000000	0.250179
2224.000000	0.250501
2225.000000	0.251582
2226.000000	0.250946
2227.000000	0.250077
2228.000000	0.249978
2229.000000	0.249400
2230.000000	0.250462
2231.000000	0.251926
2232.000000	0.252195
2233.000000	0.252398
2234.000000	0.251520
2235.000000	0.250703
2236.000000	0.250137
2237.000000	0.249733
2238.000000	0.249075
2239.000000	0.247881
2240.000000	0.247960
2241.000000	0.248748
2242.000000	0.249084
2243.000000	0.250348
2244.000000	0.250792
2245.000000	0.249862
2246.000000	0.250115
2247.000000	0.251246
2248.000000	0.251854
2249.000000	0.252914
2250.000000	0.253338
2251.000000	0.252637
2252.000000	0.251629
2253.000000	0.250944
2254.000000	0.250089
2255.000000	0.250469
2256.000000	0.250773
2257.000000	0.249492
2258.000000	0.249274
2259.000000	0.248776
2260.000000	0.247787
2261.000000	0.247683
2262.000000	0.248773
2263.000000	0.248627
2264.000000	0.247887
2265.000000	0.247948
2266.000000	0.248281
2267.000000	0.248348
2268.000000	0.248956
2269.000000	0.249264
2270.000000	0.249048
2271.000000	0.248520
2272.000000	0.247639
2273.000000	0.247309
2274.000000	0.246321
2275.000000	0.246381
2276.000000	0.247733
2277.000000	0.248689
2278.000000	0.248580
2279.000000	0.248615
2280.000000	0.247869
2281.000000	0.246358
2282.000000	0.245349
2283.000000	0.244798
2284.000000	0.244195
2285.000000	0.243477
2286.000000	0.243111
2287.000000	0.242860
2288.000000	0.242340
2289.000000	0.242406
2290.000000	0.241937
2291.000000	0.241171
2292.000000	0.240783
2293.000000	0.239544
2294.000000	0.239032
2295.000000	0.239002
2296.000000	0.238672
2297.000000	0.238652
2298.000000	0.238596
2299.000000	0.238340
2300.000000	0.238059
2301.000000	0.237749
2302.000000	0.237043
2303.000000	0.236401
2304.000000	0.235343
2305.000000	0.233729
2306.000000	0.232589
2307.000000	0.231096
2308.000000	0.229838
2309.000000	0.230058
2310.000000	0.230104
2311.000000	0.230844
2312.000000	0.231251
2313.000000	0.230832
2314.000000	0.230800
2315.000000	0.229870
2316.000000	0.229137
2317.000000	0.228675
2318.000000	0.228187
2319.000000	0.228099
2320.000000	0.227163
2321.000000	0.226396
2322.000000	0.225267
2323.000000	0.223648
2324.000000	0.223401
2325.000000	0.223328
2326.000000	0.222913
2327.000000	0.223127
2328.000000	0.222600
2329.000000	0.221462
2330.000000	0.220735
2331.000000	0.219337
2332.000000	0.217988
2333.000000	0.216944
2334.000000	0.215828
2335.000000	0.215239
2336.000000	0.214702
2337.000000	0.214233
2338.000000	0.213978
2339.000000	0.213522
2340.000000	0.213326
2341.000000	0.213127
2342.000000	0.212959
2343.000000	0.212629
2344.000000	0.211988
2345.000000	0.210874
2346.000000	0.209680
2347.000000	0.208458
2348.000000	0.206700
2349.000000	0.205822
2350.000000	0.204655
2351.000000	0.203479
2352.000000	0.202648
2353.000000	0.201311
2354.000000	0.199834
2355.000000	0.198573
2356.000000	0.197747
2357.000000	0.197434
2358.000000	0.197149
2359.000000	0.197488
2360.000000	0.197522
2361.000000	0.196481
2362.000000	0.195179
2363.000000	0.193310
2364.000000	0.190132
2365.000000	0.187901
2366.000000	0.186739
2367.000000	0.186651
2368.000000	0.188184
2369.000000	0.188000
2370.000000	0.186760
2371.000000	0.185052
2372.000000	0.182539
2373.000000	0.182402
2374.000000	0.182871
2375.000000	0.183750
2376.000000	0.185635
2377.000000	0.184502
2378.000000	0.184320
2379.000000	0.184270
2380.000000	0.180508
2381.000000	0.180349
2382.000000	0.180522
2383.000000	0.179208
2384.000000	0.180501
2385.000000	0.180210
2386.000000	0.179172
2387.000000	0.178177
2388.000000	0.177522
2389.000000	0.177260
2390.000000	0.175111
2391.000000	0.172691
2392.000000	0.170200
2393.000000	0.168076
2394.000000	0.167521
2395.000000	0.168701
2396.000000	0.169906
2397.000000	0.169979
2398.000000	0.170169
2399.000000	0.169005
2400.000000	0.166214
2401.000000	0.164044
2402.000000	0.163245
2403.000000	0.163474
2404.000000	0.164684
2405.000000	0.164812
2406.000000	0.164851
2407.000000	0.164969
2408.000000	0.163606
2409.000000	0.164208
2410.000000	0.163162
2411.000000	0.162188
2412.000000	0.163762
2413.000000	0.163998
2414.000000	0.165769
2415.000000	0.165726
2416.000000	0.164439
2417.000000	0.163064
2418.000000	0.160127
2419.000000	0.159365
2420.000000	0.159215
2421.000000	0.159368
2422.000000	0.160480
2423.000000	0.160294
2424.000000	0.158856
2425.000000	0.158546
2426.000000	0.158566
2427.000000	0.158734
2428.000000	0.159617
2429.000000	0.160602
2430.000000	0.162552
2431.000000	0.162324
2432.000000	0.162723
2433.000000	0.166055
2434.000000	0.165189
2435.000000	0.160986
2436.000000	0.160275
2437.000000	0.158558
2438.000000	0.154998
2439.000000	0.157227
2440.000000	0.157637
2441.000000	0.155444
2442.000000	0.158769
2443.000000	0.163974
2444.000000	0.166795
2445.000000	0.170787
2446.000000	0.171432
2447.000000	0.168755
2448.000000	0.169436
2449.000000	0.169172
2450.000000	0.164593
2451.000000	0.158466
2452.000000	0.155627
2453.000000	0.151131
2454.000000	0.154164
2455.000000	0.160650
2456.000000	0.158626
2457.000000	0.160316
2458.000000	0.163198
2459.000000	0.162163
2460.000000	0.166362
2461.000000	0.168036
2462.000000	0.157984
2463.000000	0.152149
2464.000000	0.148565
2465.000000	0.148092
2466.000000	0.153277
2467.000000	0.153653
2468.000000	0.151311
2469.000000	0.143808
2470.000000	0.137170
2471.000000	0.137834
2472.000000	0.142428
2473.000000	0.151408
2474.000000	0.155183
2475.000000	0.149139
2476.000000	0.143626
2477.000000	0.139379
2478.000000	0.139792
2479.000000	0.146028
2480.000000	0.149242
2481.000000	0.147951
2482.000000	0.142218
2483.000000	0.145355
2484.000000	0.148730
2485.000000	0.141822
2486.000000	0.138317
2487.000000	0.141296
2488.000000	0.139512
2489.000000	0.149874
2490.000000	0.163084
2491.000000	0.147779
2492.000000	0.133951
2493.000000	0.110186
2494.000000	0.094843
2495.000000	0.076458
2496.000000	0.067046
2497.000000	0.064188
2498.000000	0.063300
2499.000000	0.077866
2500.000000	0.087288
