# Wavelength	NAu-1-50_HEX-10_FV7-40_00002.asd.rts.txt
350.000000	0.139665
351.000000	0.137042
352.000000	0.134196
353.000000	0.133629
354.000000	0.136219
355.000000	0.138065
356.000000	0.137826
357.000000	0.138611
358.000000	0.144823
359.000000	0.141449
360.000000	0.136124
361.000000	0.139364
362.000000	0.141994
363.000000	0.141491
364.000000	0.137360
365.000000	0.132232
366.000000	0.129055
367.000000	0.128422
368.000000	0.129407
369.000000	0.132500
370.000000	0.134688
371.000000	0.133001
372.000000	0.132618
373.000000	0.134971
374.000000	0.138681
375.000000	0.134799
376.000000	0.132018
377.000000	0.133988
378.000000	0.140216
379.000000	0.142903
380.000000	0.142695
381.000000	0.143308
382.000000	0.142808
383.000000	0.143031
384.000000	0.145159
385.000000	0.147762
386.000000	0.147225
387.000000	0.144957
388.000000	0.147783
389.000000	0.149451
390.000000	0.150182
391.000000	0.151881
392.000000	0.151969
393.000000	0.152790
394.000000	0.155644
395.000000	0.156581
396.000000	0.157478
397.000000	0.158844
398.000000	0.159280
399.000000	0.160488
400.000000	0.162411
401.000000	0.164192
402.000000	0.166219
403.000000	0.167189
404.000000	0.166715
405.000000	0.168652
406.000000	0.169996
407.000000	0.169952
408.000000	0.171597
409.000000	0.173171
410.000000	0.174283
411.000000	0.175197
412.000000	0.175861
413.000000	0.176720
414.000000	0.178091
415.000000	0.178812
416.000000	0.179816
417.000000	0.181306
418.000000	0.181550
419.000000	0.181394
420.000000	0.181407
421.000000	0.182025
422.000000	0.182680
423.000000	0.182799
424.000000	0.182096
425.000000	0.182283
426.000000	0.182581
427.000000	0.182362
428.000000	0.182523
429.000000	0.182743
430.000000	0.182750
431.000000	0.182162
432.000000	0.182611
433.000000	0.183402
434.000000	0.182903
435.000000	0.182626
436.000000	0.182760
437.000000	0.183102
438.000000	0.183013
439.000000	0.182744
440.000000	0.182413
441.000000	0.181428
442.000000	0.180854
443.000000	0.180926
444.000000	0.181442
445.000000	0.181469
446.000000	0.181306
447.000000	0.181478
448.000000	0.182152
449.000000	0.183182
450.000000	0.184371
451.000000	0.185377
452.000000	0.186985
453.000000	0.189149
454.000000	0.191046
455.000000	0.192998
456.000000	0.195030
457.000000	0.196974
458.000000	0.199204
459.000000	0.201503
460.000000	0.203586
461.000000	0.205050
462.000000	0.206598
463.000000	0.208260
464.000000	0.209162
465.000000	0.210459
466.000000	0.211925
467.000000	0.212572
468.000000	0.213614
469.000000	0.214600
470.000000	0.215002
471.000000	0.215794
472.000000	0.216584
473.000000	0.217136
474.000000	0.217880
475.000000	0.218280
476.000000	0.218558
477.000000	0.219542
478.000000	0.220097
479.000000	0.220478
480.000000	0.221134
481.000000	0.221354
482.000000	0.221666
483.000000	0.222335
484.000000	0.222718
485.000000	0.223168
486.000000	0.223911
487.000000	0.224375
488.000000	0.224708
489.000000	0.225119
490.000000	0.225886
491.000000	0.226537
492.000000	0.227137
493.000000	0.227742
494.000000	0.228216
495.000000	0.228677
496.000000	0.229208
497.000000	0.229902
498.000000	0.230574
499.000000	0.231207
500.000000	0.231808
501.000000	0.232359
502.000000	0.232935
503.000000	0.233569
504.000000	0.234194
505.000000	0.234790
506.000000	0.235354
507.000000	0.235854
508.000000	0.236422
509.000000	0.237115
510.000000	0.237996
511.000000	0.238753
512.000000	0.239441
513.000000	0.240368
514.000000	0.241168
515.000000	0.241874
516.000000	0.242588
517.000000	0.243406
518.000000	0.244258
519.000000	0.245015
520.000000	0.245797
521.000000	0.246553
522.000000	0.247315
523.000000	0.248241
524.000000	0.249125
525.000000	0.249959
526.000000	0.250882
527.000000	0.251795
528.000000	0.252695
529.000000	0.253643
530.000000	0.254618
531.000000	0.255564
532.000000	0.256401
533.000000	0.257321
534.000000	0.258298
535.000000	0.259277
536.000000	0.260188
537.000000	0.261196
538.000000	0.262223
539.000000	0.263101
540.000000	0.264043
541.000000	0.265015
542.000000	0.265981
543.000000	0.266895
544.000000	0.267883
545.000000	0.268902
546.000000	0.269814
547.000000	0.270751
548.000000	0.271750
549.000000	0.272694
550.000000	0.273645
551.000000	0.274606
552.000000	0.275522
553.000000	0.276478
554.000000	0.277451
555.000000	0.278431
556.000000	0.279492
557.000000	0.280428
558.000000	0.281305
559.000000	0.282158
560.000000	0.283014
561.000000	0.283905
562.000000	0.284705
563.000000	0.285529
564.000000	0.286365
565.000000	0.287096
566.000000	0.287900
567.000000	0.288718
568.000000	0.289468
569.000000	0.290138
570.000000	0.290741
571.000000	0.291300
572.000000	0.291874
573.000000	0.292520
574.000000	0.293126
575.000000	0.293607
576.000000	0.294180
577.000000	0.294691
578.000000	0.295097
579.000000	0.295639
580.000000	0.296184
581.000000	0.296651
582.000000	0.297049
583.000000	0.297415
584.000000	0.297769
585.000000	0.298119
586.000000	0.298425
587.000000	0.298702
588.000000	0.298982
589.000000	0.299304
590.000000	0.299640
591.000000	0.299955
592.000000	0.300195
593.000000	0.300454
594.000000	0.300741
595.000000	0.300994
596.000000	0.301215
597.000000	0.301424
598.000000	0.301547
599.000000	0.301638
600.000000	0.301748
601.000000	0.301842
602.000000	0.301986
603.000000	0.302124
604.000000	0.302229
605.000000	0.302284
606.000000	0.302356
607.000000	0.302466
608.000000	0.302605
609.000000	0.302640
610.000000	0.302671
611.000000	0.302818
612.000000	0.302881
613.000000	0.302898
614.000000	0.302943
615.000000	0.302982
616.000000	0.302984
617.000000	0.302960
618.000000	0.303078
619.000000	0.303159
620.000000	0.303198
621.000000	0.303306
622.000000	0.303367
623.000000	0.303396
624.000000	0.303435
625.000000	0.303562
626.000000	0.303724
627.000000	0.303890
628.000000	0.304065
629.000000	0.304272
630.000000	0.304357
631.000000	0.304367
632.000000	0.304447
633.000000	0.304575
634.000000	0.304679
635.000000	0.304788
636.000000	0.304876
637.000000	0.304943
638.000000	0.305130
639.000000	0.305295
640.000000	0.305424
641.000000	0.305434
642.000000	0.305547
643.000000	0.305732
644.000000	0.305882
645.000000	0.305958
646.000000	0.306074
647.000000	0.306265
648.000000	0.306385
649.000000	0.306546
650.000000	0.306748
651.000000	0.306899
652.000000	0.307142
653.000000	0.307480
654.000000	0.307758
655.000000	0.307904
656.000000	0.308058
657.000000	0.308287
658.000000	0.308507
659.000000	0.308758
660.000000	0.309031
661.000000	0.309283
662.000000	0.309470
663.000000	0.309685
664.000000	0.309991
665.000000	0.310263
666.000000	0.310482
667.000000	0.310644
668.000000	0.310896
669.000000	0.311161
670.000000	0.311393
671.000000	0.311608
672.000000	0.311871
673.000000	0.312169
674.000000	0.312438
675.000000	0.312712
676.000000	0.313029
677.000000	0.313429
678.000000	0.313797
679.000000	0.314113
680.000000	0.314395
681.000000	0.314693
682.000000	0.315017
683.000000	0.315305
684.000000	0.315661
685.000000	0.315955
686.000000	0.316262
687.000000	0.316657
688.000000	0.317063
689.000000	0.317419
690.000000	0.317748
691.000000	0.318158
692.000000	0.318567
693.000000	0.318994
694.000000	0.319378
695.000000	0.319782
696.000000	0.320177
697.000000	0.320513
698.000000	0.320882
699.000000	0.321301
700.000000	0.321753
701.000000	0.322099
702.000000	0.322428
703.000000	0.322794
704.000000	0.323272
705.000000	0.323722
706.000000	0.324116
707.000000	0.324576
708.000000	0.325002
709.000000	0.325395
710.000000	0.325798
711.000000	0.326228
712.000000	0.326663
713.000000	0.327095
714.000000	0.327472
715.000000	0.327854
716.000000	0.328260
717.000000	0.328657
718.000000	0.329003
719.000000	0.329347
720.000000	0.329753
721.000000	0.330191
722.000000	0.330645
723.000000	0.331139
724.000000	0.331549
725.000000	0.331909
726.000000	0.332306
727.000000	0.332667
728.000000	0.332970
729.000000	0.333303
730.000000	0.333674
731.000000	0.334068
732.000000	0.334395
733.000000	0.334709
734.000000	0.335131
735.000000	0.335504
736.000000	0.335906
737.000000	0.336217
738.000000	0.336383
739.000000	0.336662
740.000000	0.337019
741.000000	0.337257
742.000000	0.337484
743.000000	0.337730
744.000000	0.338042
745.000000	0.338278
746.000000	0.338480
747.000000	0.338656
748.000000	0.338973
749.000000	0.339274
750.000000	0.339432
751.000000	0.339633
752.000000	0.339891
753.000000	0.340153
754.000000	0.340267
755.000000	0.340413
756.000000	0.340582
757.000000	0.340673
758.000000	0.340766
759.000000	0.340846
760.000000	0.340870
761.000000	0.341077
762.000000	0.341193
763.000000	0.341207
764.000000	0.341340
765.000000	0.341357
766.000000	0.341352
767.000000	0.341436
768.000000	0.341554
769.000000	0.341559
770.000000	0.341451
771.000000	0.341428
772.000000	0.341527
773.000000	0.341600
774.000000	0.341575
775.000000	0.341551
776.000000	0.341508
777.000000	0.341424
778.000000	0.341393
779.000000	0.341397
780.000000	0.341377
781.000000	0.341200
782.000000	0.341109
783.000000	0.341108
784.000000	0.340964
785.000000	0.340897
786.000000	0.340852
787.000000	0.340763
788.000000	0.340589
789.000000	0.340460
790.000000	0.340349
791.000000	0.340203
792.000000	0.340089
793.000000	0.339992
794.000000	0.339886
795.000000	0.339711
796.000000	0.339520
797.000000	0.339323
798.000000	0.339094
799.000000	0.338905
800.000000	0.338731
801.000000	0.338529
802.000000	0.338283
803.000000	0.338097
804.000000	0.337985
805.000000	0.337602
806.000000	0.337323
807.000000	0.337224
808.000000	0.337062
809.000000	0.336836
810.000000	0.336555
811.000000	0.336237
812.000000	0.335974
813.000000	0.335731
814.000000	0.335522
815.000000	0.335424
816.000000	0.335197
817.000000	0.334921
818.000000	0.334655
819.000000	0.334507
820.000000	0.334349
821.000000	0.334100
822.000000	0.333928
823.000000	0.333616
824.000000	0.333224
825.000000	0.333021
826.000000	0.332786
827.000000	0.332600
828.000000	0.332534
829.000000	0.332411
830.000000	0.332168
831.000000	0.331878
832.000000	0.331528
833.000000	0.331275
834.000000	0.331087
835.000000	0.330923
836.000000	0.330687
837.000000	0.330446
838.000000	0.330227
839.000000	0.329972
840.000000	0.329767
841.000000	0.329529
842.000000	0.329172
843.000000	0.328989
844.000000	0.328728
845.000000	0.328355
846.000000	0.328168
847.000000	0.327964
848.000000	0.327725
849.000000	0.327509
850.000000	0.327253
851.000000	0.326993
852.000000	0.326745
853.000000	0.326371
854.000000	0.325957
855.000000	0.325677
856.000000	0.325494
857.000000	0.325289
858.000000	0.325162
859.000000	0.325016
860.000000	0.324664
861.000000	0.324319
862.000000	0.324037
863.000000	0.323735
864.000000	0.323461
865.000000	0.323274
866.000000	0.323158
867.000000	0.322854
868.000000	0.322543
869.000000	0.322244
870.000000	0.322024
871.000000	0.321786
872.000000	0.321604
873.000000	0.321432
874.000000	0.321178
875.000000	0.320919
876.000000	0.320681
877.000000	0.320399
878.000000	0.320089
879.000000	0.319756
880.000000	0.319325
881.000000	0.319104
882.000000	0.318933
883.000000	0.318781
884.000000	0.318598
885.000000	0.318480
886.000000	0.318200
887.000000	0.317782
888.000000	0.317664
889.000000	0.317572
890.000000	0.317365
891.000000	0.317186
892.000000	0.316957
893.000000	0.316709
894.000000	0.316531
895.000000	0.316171
896.000000	0.315888
897.000000	0.315718
898.000000	0.315594
899.000000	0.315367
900.000000	0.315138
901.000000	0.314933
902.000000	0.314796
903.000000	0.314619
904.000000	0.314487
905.000000	0.314382
906.000000	0.314204
907.000000	0.314011
908.000000	0.313841
909.000000	0.313529
910.000000	0.313437
911.000000	0.313338
912.000000	0.313039
913.000000	0.312904
914.000000	0.312783
915.000000	0.312646
916.000000	0.312404
917.000000	0.312359
918.000000	0.312271
919.000000	0.311963
920.000000	0.311730
921.000000	0.311644
922.000000	0.311593
923.000000	0.311372
924.000000	0.311277
925.000000	0.311111
926.000000	0.310833
927.000000	0.310642
928.000000	0.310346
929.000000	0.310019
930.000000	0.309809
931.000000	0.309745
932.000000	0.309574
933.000000	0.309348
934.000000	0.309343
935.000000	0.309161
936.000000	0.309030
937.000000	0.309019
938.000000	0.308698
939.000000	0.308635
940.000000	0.308660
941.000000	0.308375
942.000000	0.308156
943.000000	0.308141
944.000000	0.308166
945.000000	0.308036
946.000000	0.307919
947.000000	0.307858
948.000000	0.307766
949.000000	0.307574
950.000000	0.307416
951.000000	0.307306
952.000000	0.307257
953.000000	0.307195
954.000000	0.306975
955.000000	0.306536
956.000000	0.306322
957.000000	0.306258
958.000000	0.306247
959.000000	0.306269
960.000000	0.306025
961.000000	0.305913
962.000000	0.305953
963.000000	0.305732
964.000000	0.305612
965.000000	0.305491
966.000000	0.305200
967.000000	0.305225
968.000000	0.305178
969.000000	0.305071
970.000000	0.305178
971.000000	0.305082
972.000000	0.304918
973.000000	0.304776
974.000000	0.304812
975.000000	0.304479
976.000000	0.304247
977.000000	0.304452
978.000000	0.304449
979.000000	0.304505
980.000000	0.304434
981.000000	0.304390
982.000000	0.304431
983.000000	0.304337
984.000000	0.304167
985.000000	0.304132
986.000000	0.304372
987.000000	0.304623
988.000000	0.304559
989.000000	0.304287
990.000000	0.304404
991.000000	0.304703
992.000000	0.304806
993.000000	0.304851
994.000000	0.304838
995.000000	0.304897
996.000000	0.304852
997.000000	0.304951
998.000000	0.304976
999.000000	0.304991
1000.000000	0.305276
1001.000000	0.305297
1002.000000	0.305170
1003.000000	0.304776
1004.000000	0.304426
1005.000000	0.303236
1006.000000	0.302831
1007.000000	0.302687
1008.000000	0.303508
1009.000000	0.304036
1010.000000	0.304610
1011.000000	0.305414
1012.000000	0.305399
1013.000000	0.305031
1014.000000	0.305208
1015.000000	0.305306
1016.000000	0.305303
1017.000000	0.305199
1018.000000	0.305326
1019.000000	0.305742
1020.000000	0.306782
1021.000000	0.306642
1022.000000	0.306406
1023.000000	0.306444
1024.000000	0.305725
1025.000000	0.305436
1026.000000	0.305428
1027.000000	0.305790
1028.000000	0.306331
1029.000000	0.306800
1030.000000	0.307474
1031.000000	0.307683
1032.000000	0.307469
1033.000000	0.307136
1034.000000	0.307229
1035.000000	0.307865
1036.000000	0.308170
1037.000000	0.308454
1038.000000	0.308667
1039.000000	0.308973
1040.000000	0.308859
1041.000000	0.308998
1042.000000	0.309720
1043.000000	0.310041
1044.000000	0.309791
1045.000000	0.309797
1046.000000	0.310091
1047.000000	0.310726
1048.000000	0.312054
1049.000000	0.312583
1050.000000	0.313062
1051.000000	0.313327
1052.000000	0.312883
1053.000000	0.312901
1054.000000	0.313279
1055.000000	0.313632
1056.000000	0.314070
1057.000000	0.314588
1058.000000	0.314879
1059.000000	0.315175
1060.000000	0.315671
1061.000000	0.316100
1062.000000	0.316453
1063.000000	0.316958
1064.000000	0.317559
1065.000000	0.318179
1066.000000	0.318555
1067.000000	0.318969
1068.000000	0.319376
1069.000000	0.319408
1070.000000	0.319597
1071.000000	0.320120
1072.000000	0.320408
1073.000000	0.320435
1074.000000	0.320739
1075.000000	0.321045
1076.000000	0.321583
1077.000000	0.321853
1078.000000	0.322093
1079.000000	0.322600
1080.000000	0.323267
1081.000000	0.323674
1082.000000	0.324403
1083.000000	0.324800
1084.000000	0.324712
1085.000000	0.325069
1086.000000	0.325537
1087.000000	0.326057
1088.000000	0.326786
1089.000000	0.327236
1090.000000	0.327612
1091.000000	0.327851
1092.000000	0.327838
1093.000000	0.328281
1094.000000	0.328608
1095.000000	0.328867
1096.000000	0.329353
1097.000000	0.330054
1098.000000	0.330561
1099.000000	0.331059
1100.000000	0.331595
1101.000000	0.331939
1102.000000	0.332390
1103.000000	0.333077
1104.000000	0.333522
1105.000000	0.333863
1106.000000	0.334128
1107.000000	0.333896
1108.000000	0.334091
1109.000000	0.334621
1110.000000	0.335080
1111.000000	0.335463
1112.000000	0.336067
1113.000000	0.336491
1114.000000	0.336640
1115.000000	0.336995
1116.000000	0.337511
1117.000000	0.337931
1118.000000	0.338328
1119.000000	0.338620
1120.000000	0.338863
1121.000000	0.339116
1122.000000	0.339368
1123.000000	0.339820
1124.000000	0.340016
1125.000000	0.340452
1126.000000	0.341079
1127.000000	0.341499
1128.000000	0.341883
1129.000000	0.342396
1130.000000	0.342754
1131.000000	0.342919
1132.000000	0.343164
1133.000000	0.343390
1134.000000	0.343847
1135.000000	0.344461
1136.000000	0.344795
1137.000000	0.345202
1138.000000	0.345441
1139.000000	0.345366
1140.000000	0.345616
1141.000000	0.345968
1142.000000	0.346307
1143.000000	0.346687
1144.000000	0.347129
1145.000000	0.347415
1146.000000	0.347658
1147.000000	0.347859
1148.000000	0.347967
1149.000000	0.348000
1150.000000	0.347852
1151.000000	0.348030
1152.000000	0.348185
1153.000000	0.348444
1154.000000	0.348901
1155.000000	0.349274
1156.000000	0.349705
1157.000000	0.349993
1158.000000	0.350197
1159.000000	0.350397
1160.000000	0.350444
1161.000000	0.350541
1162.000000	0.350713
1163.000000	0.351001
1164.000000	0.351381
1165.000000	0.351651
1166.000000	0.351935
1167.000000	0.352285
1168.000000	0.352465
1169.000000	0.352524
1170.000000	0.352643
1171.000000	0.352702
1172.000000	0.352948
1173.000000	0.353309
1174.000000	0.353532
1175.000000	0.353825
1176.000000	0.353941
1177.000000	0.353862
1178.000000	0.353930
1179.000000	0.353978
1180.000000	0.354079
1181.000000	0.354371
1182.000000	0.354686
1183.000000	0.354905
1184.000000	0.355107
1185.000000	0.355310
1186.000000	0.355434
1187.000000	0.355572
1188.000000	0.355721
1189.000000	0.355927
1190.000000	0.356175
1191.000000	0.356374
1192.000000	0.356834
1193.000000	0.357135
1194.000000	0.357089
1195.000000	0.357240
1196.000000	0.357348
1197.000000	0.357468
1198.000000	0.357716
1199.000000	0.357893
1200.000000	0.357997
1201.000000	0.358130
1202.000000	0.358268
1203.000000	0.358450
1204.000000	0.358544
1205.000000	0.358564
1206.000000	0.358538
1207.000000	0.358407
1208.000000	0.358469
1209.000000	0.358719
1210.000000	0.358899
1211.000000	0.359215
1212.000000	0.359342
1213.000000	0.359355
1214.000000	0.359449
1215.000000	0.359497
1216.000000	0.359545
1217.000000	0.359564
1218.000000	0.359627
1219.000000	0.359701
1220.000000	0.359820
1221.000000	0.360042
1222.000000	0.360177
1223.000000	0.360276
1224.000000	0.360404
1225.000000	0.360459
1226.000000	0.360635
1227.000000	0.360762
1228.000000	0.360909
1229.000000	0.361016
1230.000000	0.361124
1231.000000	0.361090
1232.000000	0.361094
1233.000000	0.361206
1234.000000	0.361210
1235.000000	0.361346
1236.000000	0.361578
1237.000000	0.361722
1238.000000	0.361775
1239.000000	0.361895
1240.000000	0.362019
1241.000000	0.362085
1242.000000	0.362273
1243.000000	0.362483
1244.000000	0.362495
1245.000000	0.362612
1246.000000	0.362676
1247.000000	0.362687
1248.000000	0.362817
1249.000000	0.362885
1250.000000	0.362882
1251.000000	0.362952
1252.000000	0.362982
1253.000000	0.363045
1254.000000	0.363041
1255.000000	0.362994
1256.000000	0.362931
1257.000000	0.362802
1258.000000	0.362824
1259.000000	0.362847
1260.000000	0.362899
1261.000000	0.362938
1262.000000	0.362979
1263.000000	0.362941
1264.000000	0.363181
1265.000000	0.363365
1266.000000	0.363423
1267.000000	0.363682
1268.000000	0.363792
1269.000000	0.363609
1270.000000	0.363614
1271.000000	0.363658
1272.000000	0.363579
1273.000000	0.363714
1274.000000	0.363851
1275.000000	0.363851
1276.000000	0.363716
1277.000000	0.363735
1278.000000	0.363636
1279.000000	0.363641
1280.000000	0.363655
1281.000000	0.363600
1282.000000	0.363604
1283.000000	0.363696
1284.000000	0.363718
1285.000000	0.363765
1286.000000	0.363814
1287.000000	0.363957
1288.000000	0.364052
1289.000000	0.363964
1290.000000	0.363867
1291.000000	0.363707
1292.000000	0.363642
1293.000000	0.363737
1294.000000	0.363730
1295.000000	0.363790
1296.000000	0.363852
1297.000000	0.363773
1298.000000	0.363755
1299.000000	0.363836
1300.000000	0.363857
1301.000000	0.363741
1302.000000	0.363696
1303.000000	0.363840
1304.000000	0.363834
1305.000000	0.364024
1306.000000	0.363989
1307.000000	0.363729
1308.000000	0.363720
1309.000000	0.363715
1310.000000	0.363714
1311.000000	0.363898
1312.000000	0.364024
1313.000000	0.363972
1314.000000	0.363744
1315.000000	0.363461
1316.000000	0.363301
1317.000000	0.363302
1318.000000	0.363364
1319.000000	0.363321
1320.000000	0.363319
1321.000000	0.363330
1322.000000	0.363214
1323.000000	0.363202
1324.000000	0.363295
1325.000000	0.363043
1326.000000	0.362756
1327.000000	0.362614
1328.000000	0.362431
1329.000000	0.362270
1330.000000	0.362228
1331.000000	0.362187
1332.000000	0.362226
1333.000000	0.362201
1334.000000	0.362265
1335.000000	0.362278
1336.000000	0.362173
1337.000000	0.362161
1338.000000	0.362121
1339.000000	0.362127
1340.000000	0.362182
1341.000000	0.362132
1342.000000	0.362069
1343.000000	0.362054
1344.000000	0.361966
1345.000000	0.361876
1346.000000	0.361897
1347.000000	0.361790
1348.000000	0.361788
1349.000000	0.361658
1350.000000	0.361556
1351.000000	0.361509
1352.000000	0.361265
1353.000000	0.361230
1354.000000	0.361232
1355.000000	0.360929
1356.000000	0.360887
1357.000000	0.360783
1358.000000	0.360426
1359.000000	0.360203
1360.000000	0.360088
1361.000000	0.360004
1362.000000	0.359986
1363.000000	0.360182
1364.000000	0.360225
1365.000000	0.360203
1366.000000	0.360109
1367.000000	0.359934
1368.000000	0.359776
1369.000000	0.359596
1370.000000	0.359310
1371.000000	0.359006
1372.000000	0.358602
1373.000000	0.358280
1374.000000	0.357934
1375.000000	0.357606
1376.000000	0.357454
1377.000000	0.357154
1378.000000	0.356949
1379.000000	0.356581
1380.000000	0.356077
1381.000000	0.355646
1382.000000	0.355068
1383.000000	0.354684
1384.000000	0.354146
1385.000000	0.353469
1386.000000	0.353021
1387.000000	0.352234
1388.000000	0.351382
1389.000000	0.350778
1390.000000	0.349997
1391.000000	0.349184
1392.000000	0.348539
1393.000000	0.347735
1394.000000	0.346829
1395.000000	0.345978
1396.000000	0.345117
1397.000000	0.344183
1398.000000	0.343168
1399.000000	0.342233
1400.000000	0.341273
1401.000000	0.340309
1402.000000	0.339447
1403.000000	0.338488
1404.000000	0.337516
1405.000000	0.336567
1406.000000	0.335640
1407.000000	0.334776
1408.000000	0.333765
1409.000000	0.332790
1410.000000	0.331972
1411.000000	0.331088
1412.000000	0.330282
1413.000000	0.329671
1414.000000	0.329101
1415.000000	0.328685
1416.000000	0.328442
1417.000000	0.328179
1418.000000	0.327928
1419.000000	0.327801
1420.000000	0.327592
1421.000000	0.327570
1422.000000	0.327512
1423.000000	0.327397
1424.000000	0.327206
1425.000000	0.326930
1426.000000	0.326637
1427.000000	0.326295
1428.000000	0.326013
1429.000000	0.325742
1430.000000	0.325439
1431.000000	0.325289
1432.000000	0.325097
1433.000000	0.324878
1434.000000	0.324816
1435.000000	0.324834
1436.000000	0.325024
1437.000000	0.325418
1438.000000	0.325846
1439.000000	0.326369
1440.000000	0.327033
1441.000000	0.327869
1442.000000	0.328713
1443.000000	0.329568
1444.000000	0.330659
1445.000000	0.331648
1446.000000	0.332387
1447.000000	0.333108
1448.000000	0.333680
1449.000000	0.334030
1450.000000	0.334505
1451.000000	0.335041
1452.000000	0.335336
1453.000000	0.335588
1454.000000	0.335788
1455.000000	0.335836
1456.000000	0.335940
1457.000000	0.336137
1458.000000	0.336266
1459.000000	0.336403
1460.000000	0.336588
1461.000000	0.336699
1462.000000	0.336808
1463.000000	0.336877
1464.000000	0.336952
1465.000000	0.337108
1466.000000	0.337184
1467.000000	0.337256
1468.000000	0.337450
1469.000000	0.337790
1470.000000	0.338029
1471.000000	0.338293
1472.000000	0.338520
1473.000000	0.338708
1474.000000	0.338927
1475.000000	0.339119
1476.000000	0.339375
1477.000000	0.339702
1478.000000	0.339963
1479.000000	0.340327
1480.000000	0.340677
1481.000000	0.340904
1482.000000	0.341029
1483.000000	0.341329
1484.000000	0.341644
1485.000000	0.341922
1486.000000	0.342290
1487.000000	0.342594
1488.000000	0.342804
1489.000000	0.343079
1490.000000	0.343292
1491.000000	0.343537
1492.000000	0.343704
1493.000000	0.343955
1494.000000	0.344257
1495.000000	0.344418
1496.000000	0.344484
1497.000000	0.344651
1498.000000	0.344832
1499.000000	0.344987
1500.000000	0.345177
1501.000000	0.345475
1502.000000	0.345673
1503.000000	0.345838
1504.000000	0.346058
1505.000000	0.346168
1506.000000	0.346348
1507.000000	0.346597
1508.000000	0.346814
1509.000000	0.347029
1510.000000	0.347075
1511.000000	0.347108
1512.000000	0.347200
1513.000000	0.347239
1514.000000	0.347423
1515.000000	0.347556
1516.000000	0.347725
1517.000000	0.348077
1518.000000	0.348359
1519.000000	0.348489
1520.000000	0.348568
1521.000000	0.348598
1522.000000	0.348691
1523.000000	0.348789
1524.000000	0.348892
1525.000000	0.349060
1526.000000	0.349166
1527.000000	0.349312
1528.000000	0.349490
1529.000000	0.349526
1530.000000	0.349439
1531.000000	0.349490
1532.000000	0.349652
1533.000000	0.349734
1534.000000	0.349819
1535.000000	0.349999
1536.000000	0.350095
1537.000000	0.350272
1538.000000	0.350529
1539.000000	0.350655
1540.000000	0.350799
1541.000000	0.351073
1542.000000	0.351403
1543.000000	0.351644
1544.000000	0.351688
1545.000000	0.351684
1546.000000	0.351721
1547.000000	0.351859
1548.000000	0.352103
1549.000000	0.352305
1550.000000	0.352398
1551.000000	0.352410
1552.000000	0.352485
1553.000000	0.352570
1554.000000	0.352468
1555.000000	0.352416
1556.000000	0.352410
1557.000000	0.352329
1558.000000	0.352324
1559.000000	0.352351
1560.000000	0.352340
1561.000000	0.352392
1562.000000	0.352311
1563.000000	0.352213
1564.000000	0.352235
1565.000000	0.352182
1566.000000	0.352146
1567.000000	0.352349
1568.000000	0.352413
1569.000000	0.352480
1570.000000	0.352506
1571.000000	0.352507
1572.000000	0.352486
1573.000000	0.352403
1574.000000	0.352338
1575.000000	0.352276
1576.000000	0.352329
1577.000000	0.352470
1578.000000	0.352457
1579.000000	0.352502
1580.000000	0.352481
1581.000000	0.352358
1582.000000	0.352329
1583.000000	0.352423
1584.000000	0.352373
1585.000000	0.352249
1586.000000	0.352282
1587.000000	0.352401
1588.000000	0.352466
1589.000000	0.352612
1590.000000	0.352727
1591.000000	0.352752
1592.000000	0.352864
1593.000000	0.353136
1594.000000	0.353306
1595.000000	0.353568
1596.000000	0.353659
1597.000000	0.353607
1598.000000	0.353614
1599.000000	0.353585
1600.000000	0.353559
1601.000000	0.353676
1602.000000	0.353709
1603.000000	0.353740
1604.000000	0.353750
1605.000000	0.353740
1606.000000	0.353736
1607.000000	0.353830
1608.000000	0.353787
1609.000000	0.353726
1610.000000	0.353659
1611.000000	0.353481
1612.000000	0.353412
1613.000000	0.353545
1614.000000	0.353557
1615.000000	0.353658
1616.000000	0.353706
1617.000000	0.353626
1618.000000	0.353551
1619.000000	0.353463
1620.000000	0.353339
1621.000000	0.353135
1622.000000	0.353135
1623.000000	0.353159
1624.000000	0.353177
1625.000000	0.353171
1626.000000	0.353149
1627.000000	0.353105
1628.000000	0.353130
1629.000000	0.353183
1630.000000	0.353294
1631.000000	0.353432
1632.000000	0.353435
1633.000000	0.353367
1634.000000	0.353402
1635.000000	0.353421
1636.000000	0.353475
1637.000000	0.353747
1638.000000	0.353778
1639.000000	0.353677
1640.000000	0.353679
1641.000000	0.353723
1642.000000	0.353765
1643.000000	0.353961
1644.000000	0.353973
1645.000000	0.353836
1646.000000	0.353756
1647.000000	0.353651
1648.000000	0.353590
1649.000000	0.353689
1650.000000	0.353717
1651.000000	0.353771
1652.000000	0.353828
1653.000000	0.353846
1654.000000	0.353857
1655.000000	0.353797
1656.000000	0.353672
1657.000000	0.353558
1658.000000	0.353439
1659.000000	0.353382
1660.000000	0.353416
1661.000000	0.353411
1662.000000	0.353433
1663.000000	0.353486
1664.000000	0.353520
1665.000000	0.353529
1666.000000	0.353647
1667.000000	0.353788
1668.000000	0.353820
1669.000000	0.353784
1670.000000	0.353713
1671.000000	0.353607
1672.000000	0.353780
1673.000000	0.354077
1674.000000	0.354287
1675.000000	0.354574
1676.000000	0.354681
1677.000000	0.354686
1678.000000	0.354652
1679.000000	0.354575
1680.000000	0.354606
1681.000000	0.354720
1682.000000	0.354881
1683.000000	0.355106
1684.000000	0.355011
1685.000000	0.354880
1686.000000	0.354892
1687.000000	0.354787
1688.000000	0.354738
1689.000000	0.354769
1690.000000	0.354655
1691.000000	0.354696
1692.000000	0.354856
1693.000000	0.354875
1694.000000	0.354804
1695.000000	0.354870
1696.000000	0.354691
1697.000000	0.354593
1698.000000	0.354633
1699.000000	0.354668
1700.000000	0.354831
1701.000000	0.354937
1702.000000	0.354747
1703.000000	0.354614
1704.000000	0.354517
1705.000000	0.354454
1706.000000	0.354499
1707.000000	0.354554
1708.000000	0.354613
1709.000000	0.354570
1710.000000	0.354632
1711.000000	0.354650
1712.000000	0.354563
1713.000000	0.354565
1714.000000	0.354690
1715.000000	0.354743
1716.000000	0.354774
1717.000000	0.354871
1718.000000	0.354957
1719.000000	0.354987
1720.000000	0.355180
1721.000000	0.355203
1722.000000	0.355067
1723.000000	0.354983
1724.000000	0.354843
1725.000000	0.354823
1726.000000	0.354796
1727.000000	0.354707
1728.000000	0.354558
1729.000000	0.354406
1730.000000	0.354330
1731.000000	0.354250
1732.000000	0.354244
1733.000000	0.354278
1734.000000	0.354145
1735.000000	0.354099
1736.000000	0.354093
1737.000000	0.354066
1738.000000	0.354046
1739.000000	0.354032
1740.000000	0.354023
1741.000000	0.353976
1742.000000	0.353887
1743.000000	0.353982
1744.000000	0.354178
1745.000000	0.354105
1746.000000	0.354004
1747.000000	0.353856
1748.000000	0.353622
1749.000000	0.353448
1750.000000	0.353271
1751.000000	0.353104
1752.000000	0.353057
1753.000000	0.352988
1754.000000	0.352936
1755.000000	0.352783
1756.000000	0.352734
1757.000000	0.352809
1758.000000	0.352866
1759.000000	0.353001
1760.000000	0.353037
1761.000000	0.352973
1762.000000	0.352892
1763.000000	0.352732
1764.000000	0.352660
1765.000000	0.352516
1766.000000	0.352535
1767.000000	0.352700
1768.000000	0.352617
1769.000000	0.352531
1770.000000	0.352596
1771.000000	0.352566
1772.000000	0.352529
1773.000000	0.352568
1774.000000	0.352586
1775.000000	0.352556
1776.000000	0.352540
1777.000000	0.352579
1778.000000	0.352576
1779.000000	0.352436
1780.000000	0.352448
1781.000000	0.352511
1782.000000	0.352626
1783.000000	0.352892
1784.000000	0.352964
1785.000000	0.352912
1786.000000	0.352932
1787.000000	0.352980
1788.000000	0.353067
1789.000000	0.353094
1790.000000	0.353319
1791.000000	0.353273
1792.000000	0.353302
1793.000000	0.353272
1794.000000	0.352858
1795.000000	0.352726
1796.000000	0.352862
1797.000000	0.352853
1798.000000	0.352823
1799.000000	0.352797
1800.000000	0.352773
1801.000000	0.354148
1802.000000	0.353183
1803.000000	0.351062
1804.000000	0.350556
1805.000000	0.350221
1806.000000	0.350226
1807.000000	0.351612
1808.000000	0.352237
1809.000000	0.352395
1810.000000	0.353019
1811.000000	0.353122
1812.000000	0.352795
1813.000000	0.352940
1814.000000	0.352815
1815.000000	0.353376
1816.000000	0.355341
1817.000000	0.355640
1818.000000	0.355712
1819.000000	0.355312
1820.000000	0.354119
1821.000000	0.353386
1822.000000	0.352629
1823.000000	0.351925
1824.000000	0.351530
1825.000000	0.351073
1826.000000	0.350803
1827.000000	0.351069
1828.000000	0.350930
1829.000000	0.350308
1830.000000	0.350039
1831.000000	0.349983
1832.000000	0.349831
1833.000000	0.350149
1834.000000	0.351188
1835.000000	0.351796
1836.000000	0.352579
1837.000000	0.353019
1838.000000	0.353404
1839.000000	0.352958
1840.000000	0.352440
1841.000000	0.351679
1842.000000	0.351074
1843.000000	0.349960
1844.000000	0.349770
1845.000000	0.350131
1846.000000	0.350196
1847.000000	0.350549
1848.000000	0.350780
1849.000000	0.349901
1850.000000	0.349131
1851.000000	0.348873
1852.000000	0.348355
1853.000000	0.348493
1854.000000	0.349422
1855.000000	0.349809
1856.000000	0.350439
1857.000000	0.350410
1858.000000	0.349745
1859.000000	0.348832
1860.000000	0.347723
1861.000000	0.346652
1862.000000	0.345851
1863.000000	0.345591
1864.000000	0.344976
1865.000000	0.344136
1866.000000	0.343668
1867.000000	0.343591
1868.000000	0.342838
1869.000000	0.341844
1870.000000	0.340974
1871.000000	0.340063
1872.000000	0.339463
1873.000000	0.338720
1874.000000	0.338464
1875.000000	0.337714
1876.000000	0.336495
1877.000000	0.334478
1878.000000	0.333380
1879.000000	0.331888
1880.000000	0.329597
1881.000000	0.328097
1882.000000	0.326256
1883.000000	0.323878
1884.000000	0.322040
1885.000000	0.321026
1886.000000	0.318757
1887.000000	0.315872
1888.000000	0.313114
1889.000000	0.309481
1890.000000	0.305777
1891.000000	0.302680
1892.000000	0.299259
1893.000000	0.296505
1894.000000	0.293077
1895.000000	0.289365
1896.000000	0.285356
1897.000000	0.281773
1898.000000	0.277295
1899.000000	0.274081
1900.000000	0.271486
1901.000000	0.268216
1902.000000	0.266100
1903.000000	0.264177
1904.000000	0.261610
1905.000000	0.259751
1906.000000	0.258193
1907.000000	0.256941
1908.000000	0.255510
1909.000000	0.254817
1910.000000	0.254766
1911.000000	0.254260
1912.000000	0.253884
1913.000000	0.253973
1914.000000	0.253583
1915.000000	0.253367
1916.000000	0.253642
1917.000000	0.253796
1918.000000	0.253968
1919.000000	0.254667
1920.000000	0.255556
1921.000000	0.255916
1922.000000	0.256495
1923.000000	0.256850
1924.000000	0.256804
1925.000000	0.257649
1926.000000	0.258239
1927.000000	0.258734
1928.000000	0.259341
1929.000000	0.260274
1930.000000	0.260286
1931.000000	0.260536
1932.000000	0.261377
1933.000000	0.261910
1934.000000	0.262599
1935.000000	0.263609
1936.000000	0.264393
1937.000000	0.265196
1938.000000	0.265602
1939.000000	0.265892
1940.000000	0.265934
1941.000000	0.266182
1942.000000	0.266150
1943.000000	0.266499
1944.000000	0.267348
1945.000000	0.267625
1946.000000	0.267757
1947.000000	0.267886
1948.000000	0.267930
1949.000000	0.268344
1950.000000	0.268890
1951.000000	0.269313
1952.000000	0.270010
1953.000000	0.270360
1954.000000	0.270559
1955.000000	0.270745
1956.000000	0.270937
1957.000000	0.271397
1958.000000	0.271655
1959.000000	0.271893
1960.000000	0.271665
1961.000000	0.271266
1962.000000	0.271344
1963.000000	0.271663
1964.000000	0.272010
1965.000000	0.272579
1966.000000	0.273128
1967.000000	0.273193
1968.000000	0.273233
1969.000000	0.273336
1970.000000	0.273529
1971.000000	0.273945
1972.000000	0.274709
1973.000000	0.275141
1974.000000	0.275850
1975.000000	0.276316
1976.000000	0.276699
1977.000000	0.276518
1978.000000	0.276551
1979.000000	0.276936
1980.000000	0.277376
1981.000000	0.277811
1982.000000	0.278294
1983.000000	0.279090
1984.000000	0.279685
1985.000000	0.280353
1986.000000	0.280857
1987.000000	0.281525
1988.000000	0.281662
1989.000000	0.281499
1990.000000	0.281457
1991.000000	0.281394
1992.000000	0.281595
1993.000000	0.282162
1994.000000	0.283247
1995.000000	0.285104
1996.000000	0.286437
1997.000000	0.287311
1998.000000	0.288184
1999.000000	0.288823
2000.000000	0.288647
2001.000000	0.288782
2002.000000	0.289615
2003.000000	0.289903
2004.000000	0.290447
2005.000000	0.290801
2006.000000	0.291211
2007.000000	0.292015
2008.000000	0.292812
2009.000000	0.294074
2010.000000	0.294822
2011.000000	0.295146
2012.000000	0.295624
2013.000000	0.296136
2014.000000	0.295584
2015.000000	0.295629
2016.000000	0.295982
2017.000000	0.295761
2018.000000	0.295968
2019.000000	0.296548
2020.000000	0.297322
2021.000000	0.298239
2022.000000	0.299681
2023.000000	0.300443
2024.000000	0.301193
2025.000000	0.301641
2026.000000	0.301332
2027.000000	0.301356
2028.000000	0.301589
2029.000000	0.302051
2030.000000	0.302704
2031.000000	0.303361
2032.000000	0.304174
2033.000000	0.304795
2034.000000	0.305225
2035.000000	0.305634
2036.000000	0.305954
2037.000000	0.305976
2038.000000	0.306434
2039.000000	0.307286
2040.000000	0.307931
2041.000000	0.308441
2042.000000	0.309200
2043.000000	0.309435
2044.000000	0.309304
2045.000000	0.309351
2046.000000	0.309182
2047.000000	0.309149
2048.000000	0.308820
2049.000000	0.309347
2050.000000	0.310070
2051.000000	0.310584
2052.000000	0.311372
2053.000000	0.311925
2054.000000	0.312404
2055.000000	0.313133
2056.000000	0.314018
2057.000000	0.314695
2058.000000	0.314851
2059.000000	0.314487
2060.000000	0.314325
2061.000000	0.313850
2062.000000	0.313624
2063.000000	0.313323
2064.000000	0.313468
2065.000000	0.314388
2066.000000	0.314648
2067.000000	0.315210
2068.000000	0.315967
2069.000000	0.315934
2070.000000	0.315421
2071.000000	0.315326
2072.000000	0.315649
2073.000000	0.316120
2074.000000	0.317190
2075.000000	0.317826
2076.000000	0.318451
2077.000000	0.318850
2078.000000	0.319104
2079.000000	0.319045
2080.000000	0.318553
2081.000000	0.318796
2082.000000	0.319064
2083.000000	0.319525
2084.000000	0.320669
2085.000000	0.321797
2086.000000	0.322448
2087.000000	0.321998
2088.000000	0.321284
2089.000000	0.321208
2090.000000	0.321082
2091.000000	0.321028
2092.000000	0.321352
2093.000000	0.322100
2094.000000	0.322275
2095.000000	0.322429
2096.000000	0.322781
2097.000000	0.322748
2098.000000	0.323132
2099.000000	0.323715
2100.000000	0.324179
2101.000000	0.324605
2102.000000	0.324640
2103.000000	0.324393
2104.000000	0.324428
2105.000000	0.324333
2106.000000	0.323922
2107.000000	0.323928
2108.000000	0.323980
2109.000000	0.324246
2110.000000	0.324774
2111.000000	0.324974
2112.000000	0.324988
2113.000000	0.325208
2114.000000	0.325082
2115.000000	0.324785
2116.000000	0.325006
2117.000000	0.325137
2118.000000	0.325820
2119.000000	0.327008
2120.000000	0.327474
2121.000000	0.327911
2122.000000	0.328274
2123.000000	0.328023
2124.000000	0.327902
2125.000000	0.327910
2126.000000	0.327750
2127.000000	0.327225
2128.000000	0.327304
2129.000000	0.327684
2130.000000	0.328315
2131.000000	0.327661
2132.000000	0.326526
2133.000000	0.326161
2134.000000	0.325409
2135.000000	0.325953
2136.000000	0.327732
2137.000000	0.328478
2138.000000	0.329175
2139.000000	0.329132
2140.000000	0.328270
2141.000000	0.327910
2142.000000	0.327120
2143.000000	0.326542
2144.000000	0.326433
2145.000000	0.326355
2146.000000	0.326243
2147.000000	0.326677
2148.000000	0.326963
2149.000000	0.327733
2150.000000	0.327835
2151.000000	0.328053
2152.000000	0.327705
2153.000000	0.326752
2154.000000	0.326317
2155.000000	0.325646
2156.000000	0.325232
2157.000000	0.325213
2158.000000	0.325227
2159.000000	0.325594
2160.000000	0.325708
2161.000000	0.325853
2162.000000	0.326067
2163.000000	0.325864
2164.000000	0.325683
2165.000000	0.325367
2166.000000	0.325697
2167.000000	0.325982
2168.000000	0.326021
2169.000000	0.325429
2170.000000	0.324151
2171.000000	0.323434
2172.000000	0.322000
2173.000000	0.321595
2174.000000	0.322344
2175.000000	0.322373
2176.000000	0.322418
2177.000000	0.322377
2178.000000	0.322116
2179.000000	0.322271
2180.000000	0.322109
2181.000000	0.322832
2182.000000	0.324125
2183.000000	0.324498
2184.000000	0.325063
2185.000000	0.326104
2186.000000	0.325547
2187.000000	0.325467
2188.000000	0.325623
2189.000000	0.324312
2190.000000	0.322985
2191.000000	0.323095
2192.000000	0.323225
2193.000000	0.323939
2194.000000	0.324233
2195.000000	0.325371
2196.000000	0.325209
2197.000000	0.323615
2198.000000	0.322722
2199.000000	0.321411
2200.000000	0.320622
2201.000000	0.320650
2202.000000	0.320356
2203.000000	0.319433
2204.000000	0.319620
2205.000000	0.320296
2206.000000	0.319058
2207.000000	0.317809
2208.000000	0.319017
2209.000000	0.320731
2210.000000	0.321732
2211.000000	0.323824
2212.000000	0.324940
2213.000000	0.325502
2214.000000	0.325141
2215.000000	0.324680
2216.000000	0.323882
2217.000000	0.323152
2218.000000	0.320689
2219.000000	0.320036
2220.000000	0.321396
2221.000000	0.320773
2222.000000	0.319593
2223.000000	0.319263
2224.000000	0.317963
2225.000000	0.317916
2226.000000	0.317768
2227.000000	0.317603
2228.000000	0.318322
2229.000000	0.316742
2230.000000	0.317427
2231.000000	0.319504
2232.000000	0.320348
2233.000000	0.321166
2234.000000	0.321104
2235.000000	0.320542
2236.000000	0.319800
2237.000000	0.318270
2238.000000	0.318045
2239.000000	0.317970
2240.000000	0.318217
2241.000000	0.320797
2242.000000	0.319942
2243.000000	0.316342
2244.000000	0.314711
2245.000000	0.310308
2246.000000	0.309499
2247.000000	0.313540
2248.000000	0.314887
2249.000000	0.315674
2250.000000	0.318537
2251.000000	0.318517
2252.000000	0.317662
2253.000000	0.318741
2254.000000	0.317056
2255.000000	0.314737
2256.000000	0.314129
2257.000000	0.311669
2258.000000	0.309295
2259.000000	0.310246
2260.000000	0.307466
2261.000000	0.306585
2262.000000	0.307841
2263.000000	0.307711
2264.000000	0.307146
2265.000000	0.306779
2266.000000	0.305477
2267.000000	0.304958
2268.000000	0.305805
2269.000000	0.304402
2270.000000	0.301600
2271.000000	0.299972
2272.000000	0.296667
2273.000000	0.295392
2274.000000	0.297253
2275.000000	0.297040
2276.000000	0.296461
2277.000000	0.295489
2278.000000	0.292848
2279.000000	0.290204
2280.000000	0.287077
2281.000000	0.282114
2282.000000	0.280383
2283.000000	0.279828
2284.000000	0.279535
2285.000000	0.281741
2286.000000	0.281362
2287.000000	0.280758
2288.000000	0.281829
2289.000000	0.281952
2290.000000	0.282172
2291.000000	0.281744
2292.000000	0.282007
2293.000000	0.283460
2294.000000	0.284657
2295.000000	0.287733
2296.000000	0.289363
2297.000000	0.288982
2298.000000	0.290175
2299.000000	0.292148
2300.000000	0.293305
2301.000000	0.295418
2302.000000	0.296904
2303.000000	0.297096
2304.000000	0.297432
2305.000000	0.297516
2306.000000	0.297206
2307.000000	0.295595
2308.000000	0.297532
2309.000000	0.296912
2310.000000	0.296966
2311.000000	0.297831
2312.000000	0.295919
2313.000000	0.296071
2314.000000	0.297476
2315.000000	0.297768
2316.000000	0.297810
2317.000000	0.295707
2318.000000	0.294884
2319.000000	0.296731
2320.000000	0.298597
2321.000000	0.302759
2322.000000	0.307384
2323.000000	0.309713
2324.000000	0.310706
2325.000000	0.309166
2326.000000	0.305430
2327.000000	0.300668
2328.000000	0.296765
2329.000000	0.296314
2330.000000	0.296559
2331.000000	0.297918
2332.000000	0.298469
2333.000000	0.296512
2334.000000	0.295032
2335.000000	0.294088
2336.000000	0.291664
2337.000000	0.291181
2338.000000	0.292378
2339.000000	0.292586
2340.000000	0.293135
2341.000000	0.293511
2342.000000	0.294264
2343.000000	0.294821
2344.000000	0.295242
2345.000000	0.293894
2346.000000	0.291457
2347.000000	0.288532
2348.000000	0.283458
2349.000000	0.281482
2350.000000	0.279555
2351.000000	0.278739
2352.000000	0.280067
2353.000000	0.282926
2354.000000	0.285807
2355.000000	0.287808
2356.000000	0.289101
2357.000000	0.285851
2358.000000	0.282671
2359.000000	0.281918
2360.000000	0.282662
2361.000000	0.282475
2362.000000	0.279677
2363.000000	0.277509
2364.000000	0.272181
2365.000000	0.272096
2366.000000	0.277571
2367.000000	0.280064
2368.000000	0.285419
2369.000000	0.290017
2370.000000	0.289417
2371.000000	0.290999
2372.000000	0.287847
2373.000000	0.282957
2374.000000	0.283246
2375.000000	0.281114
2376.000000	0.281324
2377.000000	0.279969
2378.000000	0.275289
2379.000000	0.268737
2380.000000	0.263455
2381.000000	0.264683
2382.000000	0.264435
2383.000000	0.268656
2384.000000	0.271430
2385.000000	0.266886
2386.000000	0.262767
2387.000000	0.255565
2388.000000	0.254474
2389.000000	0.259437
2390.000000	0.262075
2391.000000	0.264738
2392.000000	0.267428
2393.000000	0.263886
2394.000000	0.260312
2395.000000	0.260341
2396.000000	0.251950
2397.000000	0.248726
2398.000000	0.247974
2399.000000	0.243167
2400.000000	0.243506
2401.000000	0.235896
2402.000000	0.232236
2403.000000	0.236247
2404.000000	0.237283
2405.000000	0.244672
2406.000000	0.249582
2407.000000	0.250072
2408.000000	0.252101
2409.000000	0.253646
2410.000000	0.256207
2411.000000	0.258296
2412.000000	0.261624
2413.000000	0.264117
2414.000000	0.268134
2415.000000	0.267999
2416.000000	0.260008
2417.000000	0.262519
2418.000000	0.262766
2419.000000	0.260863
2420.000000	0.269475
2421.000000	0.263165
2422.000000	0.250235
2423.000000	0.239928
2424.000000	0.228230
2425.000000	0.228266
2426.000000	0.233805
2427.000000	0.241676
2428.000000	0.248862
2429.000000	0.247724
2430.000000	0.242106
2431.000000	0.231860
2432.000000	0.222159
2433.000000	0.218162
2434.000000	0.218112
2435.000000	0.220439
2436.000000	0.221307
2437.000000	0.226273
2438.000000	0.237622
2439.000000	0.248243
2440.000000	0.261481
2441.000000	0.262698
2442.000000	0.248341
2443.000000	0.251781
2444.000000	0.237151
2445.000000	0.207449
2446.000000	0.215190
2447.000000	0.214396
2448.000000	0.219080
2449.000000	0.253374
2450.000000	0.262734
2451.000000	0.257750
2452.000000	0.265806
2453.000000	0.263651
2454.000000	0.260552
2455.000000	0.258898
2456.000000	0.235404
2457.000000	0.216841
2458.000000	0.193734
2459.000000	0.169893
2460.000000	0.177128
2461.000000	0.185946
2462.000000	0.190056
2463.000000	0.203075
2464.000000	0.192084
2465.000000	0.169718
2466.000000	0.174265
2467.000000	0.154027
2468.000000	0.147779
2469.000000	0.170919
2470.000000	0.162778
2471.000000	0.178808
2472.000000	0.198615
2473.000000	0.198545
2474.000000	0.207938
2475.000000	0.214335
2476.000000	0.204420
2477.000000	0.195030
2478.000000	0.185508
2479.000000	0.160177
2480.000000	0.154261
2481.000000	0.145485
2482.000000	0.125193
2483.000000	0.136641
2484.000000	0.161799
2485.000000	0.171043
2486.000000	0.181491
2487.000000	0.204846
2488.000000	0.216468
2489.000000	0.205634
2490.000000	0.247231
2491.000000	0.282166
2492.000000	0.292400
2493.000000	0.339501
2494.000000	0.344142
2495.000000	0.281039
2496.000000	0.232578
2497.000000	0.169829
2498.000000	0.129674
2499.000000	0.078297
2500.000000	0.074891
