# Wavelength	Nau-1_50_FV7_50_00002.asd.rts.txt
350.000000	0.120189
351.000000	0.132674
352.000000	0.119751
353.000000	0.113099
354.000000	0.125664
355.000000	0.132295
356.000000	0.136088
357.000000	0.138205
358.000000	0.136808
359.000000	0.130207
360.000000	0.125572
361.000000	0.129950
362.000000	0.135923
363.000000	0.135642
364.000000	0.127362
365.000000	0.122868
366.000000	0.124960
367.000000	0.129874
368.000000	0.128271
369.000000	0.132908
370.000000	0.137490
371.000000	0.133209
372.000000	0.139271
373.000000	0.139999
374.000000	0.129502
375.000000	0.135485
376.000000	0.142448
377.000000	0.144439
378.000000	0.143945
379.000000	0.144006
380.000000	0.143640
381.000000	0.141648
382.000000	0.143494
383.000000	0.145098
384.000000	0.144575
385.000000	0.148683
386.000000	0.150695
387.000000	0.149326
388.000000	0.148119
389.000000	0.150557
390.000000	0.153951
391.000000	0.153740
392.000000	0.155220
393.000000	0.156878
394.000000	0.157375
395.000000	0.159081
396.000000	0.161007
397.000000	0.162435
398.000000	0.162864
399.000000	0.164304
400.000000	0.166093
401.000000	0.166507
402.000000	0.169101
403.000000	0.170847
404.000000	0.169687
405.000000	0.171547
406.000000	0.172975
407.000000	0.172832
408.000000	0.174096
409.000000	0.176290
410.000000	0.178362
411.000000	0.178777
412.000000	0.178879
413.000000	0.179482
414.000000	0.180984
415.000000	0.182318
416.000000	0.182864
417.000000	0.182821
418.000000	0.184243
419.000000	0.184477
420.000000	0.183554
421.000000	0.183726
422.000000	0.184139
423.000000	0.184774
424.000000	0.185733
425.000000	0.185759
426.000000	0.185536
427.000000	0.185682
428.000000	0.185913
429.000000	0.186389
430.000000	0.186912
431.000000	0.186710
432.000000	0.186579
433.000000	0.186532
434.000000	0.186351
435.000000	0.186349
436.000000	0.186429
437.000000	0.186419
438.000000	0.186377
439.000000	0.185789
440.000000	0.184879
441.000000	0.185246
442.000000	0.185077
443.000000	0.184403
444.000000	0.184644
445.000000	0.184647
446.000000	0.184725
447.000000	0.185291
448.000000	0.185506
449.000000	0.186022
450.000000	0.187300
451.000000	0.188946
452.000000	0.190607
453.000000	0.192101
454.000000	0.193558
455.000000	0.195698
456.000000	0.198081
457.000000	0.199723
458.000000	0.202003
459.000000	0.204469
460.000000	0.206482
461.000000	0.207676
462.000000	0.209063
463.000000	0.210782
464.000000	0.211819
465.000000	0.212617
466.000000	0.213349
467.000000	0.214189
468.000000	0.214990
469.000000	0.215684
470.000000	0.216389
471.000000	0.217214
472.000000	0.217899
473.000000	0.218376
474.000000	0.219090
475.000000	0.219562
476.000000	0.219880
477.000000	0.220454
478.000000	0.220776
479.000000	0.221178
480.000000	0.221956
481.000000	0.222426
482.000000	0.222919
483.000000	0.223579
484.000000	0.224132
485.000000	0.224466
486.000000	0.224757
487.000000	0.225183
488.000000	0.225576
489.000000	0.226045
490.000000	0.226861
491.000000	0.227470
492.000000	0.227883
493.000000	0.228183
494.000000	0.228740
495.000000	0.229474
496.000000	0.230189
497.000000	0.230645
498.000000	0.231238
499.000000	0.232045
500.000000	0.232573
501.000000	0.233145
502.000000	0.233802
503.000000	0.234403
504.000000	0.234919
505.000000	0.235419
506.000000	0.235980
507.000000	0.236522
508.000000	0.237199
509.000000	0.237990
510.000000	0.238622
511.000000	0.239299
512.000000	0.240020
513.000000	0.240575
514.000000	0.241289
515.000000	0.242108
516.000000	0.242817
517.000000	0.243509
518.000000	0.244269
519.000000	0.245066
520.000000	0.245895
521.000000	0.246695
522.000000	0.247450
523.000000	0.248166
524.000000	0.248978
525.000000	0.249850
526.000000	0.250696
527.000000	0.251566
528.000000	0.252408
529.000000	0.253204
530.000000	0.253925
531.000000	0.254794
532.000000	0.255787
533.000000	0.256558
534.000000	0.257431
535.000000	0.258448
536.000000	0.259414
537.000000	0.260321
538.000000	0.261192
539.000000	0.262070
540.000000	0.263052
541.000000	0.264009
542.000000	0.264864
543.000000	0.265773
544.000000	0.266668
545.000000	0.267474
546.000000	0.268358
547.000000	0.269172
548.000000	0.270002
549.000000	0.271001
550.000000	0.271891
551.000000	0.272764
552.000000	0.273725
553.000000	0.274571
554.000000	0.275387
555.000000	0.276261
556.000000	0.277191
557.000000	0.278088
558.000000	0.278983
559.000000	0.279665
560.000000	0.280412
561.000000	0.281246
562.000000	0.281916
563.000000	0.282639
564.000000	0.283427
565.000000	0.284145
566.000000	0.284866
567.000000	0.285519
568.000000	0.286073
569.000000	0.286667
570.000000	0.287296
571.000000	0.287939
572.000000	0.288584
573.000000	0.289149
574.000000	0.289639
575.000000	0.290146
576.000000	0.290599
577.000000	0.291051
578.000000	0.291590
579.000000	0.292062
580.000000	0.292456
581.000000	0.292793
582.000000	0.293150
583.000000	0.293514
584.000000	0.293903
585.000000	0.294344
586.000000	0.294640
587.000000	0.294880
588.000000	0.295205
589.000000	0.295558
590.000000	0.295871
591.000000	0.296109
592.000000	0.296308
593.000000	0.296506
594.000000	0.296739
595.000000	0.297059
596.000000	0.297263
597.000000	0.297459
598.000000	0.297760
599.000000	0.297926
600.000000	0.298146
601.000000	0.298461
602.000000	0.298500
603.000000	0.298512
604.000000	0.298614
605.000000	0.298648
606.000000	0.298701
607.000000	0.298739
608.000000	0.298656
609.000000	0.298690
610.000000	0.298841
611.000000	0.299022
612.000000	0.299069
613.000000	0.299131
614.000000	0.299327
615.000000	0.299499
616.000000	0.299592
617.000000	0.299622
618.000000	0.299799
619.000000	0.299875
620.000000	0.299864
621.000000	0.299934
622.000000	0.300012
623.000000	0.300092
624.000000	0.300179
625.000000	0.300309
626.000000	0.300421
627.000000	0.300498
628.000000	0.300565
629.000000	0.300778
630.000000	0.300977
631.000000	0.301115
632.000000	0.301112
633.000000	0.301130
634.000000	0.301296
635.000000	0.301319
636.000000	0.301387
637.000000	0.301576
638.000000	0.301741
639.000000	0.301892
640.000000	0.302061
641.000000	0.302142
642.000000	0.302222
643.000000	0.302327
644.000000	0.302463
645.000000	0.302585
646.000000	0.302690
647.000000	0.302772
648.000000	0.302920
649.000000	0.303143
650.000000	0.303386
651.000000	0.303559
652.000000	0.303716
653.000000	0.303897
654.000000	0.304053
655.000000	0.304274
656.000000	0.304524
657.000000	0.304712
658.000000	0.304948
659.000000	0.305110
660.000000	0.305173
661.000000	0.305345
662.000000	0.305542
663.000000	0.305776
664.000000	0.305996
665.000000	0.306232
666.000000	0.306512
667.000000	0.306821
668.000000	0.307134
669.000000	0.307448
670.000000	0.307745
671.000000	0.307940
672.000000	0.308173
673.000000	0.308450
674.000000	0.308690
675.000000	0.308945
676.000000	0.309189
677.000000	0.309411
678.000000	0.309746
679.000000	0.310036
680.000000	0.310221
681.000000	0.310534
682.000000	0.310911
683.000000	0.311238
684.000000	0.311563
685.000000	0.311907
686.000000	0.312258
687.000000	0.312537
688.000000	0.312809
689.000000	0.313104
690.000000	0.313465
691.000000	0.313861
692.000000	0.314176
693.000000	0.314462
694.000000	0.314790
695.000000	0.315075
696.000000	0.315382
697.000000	0.315827
698.000000	0.316246
699.000000	0.316629
700.000000	0.316997
701.000000	0.317349
702.000000	0.317740
703.000000	0.318154
704.000000	0.318534
705.000000	0.318897
706.000000	0.319210
707.000000	0.319528
708.000000	0.319870
709.000000	0.320229
710.000000	0.320625
711.000000	0.321098
712.000000	0.321535
713.000000	0.321933
714.000000	0.322394
715.000000	0.322771
716.000000	0.323078
717.000000	0.323371
718.000000	0.323670
719.000000	0.324008
720.000000	0.324414
721.000000	0.324826
722.000000	0.325159
723.000000	0.325468
724.000000	0.325802
725.000000	0.326062
726.000000	0.326356
727.000000	0.326695
728.000000	0.326997
729.000000	0.327348
730.000000	0.327751
731.000000	0.328127
732.000000	0.328451
733.000000	0.328743
734.000000	0.328950
735.000000	0.329155
736.000000	0.329466
737.000000	0.329722
738.000000	0.329932
739.000000	0.330177
740.000000	0.330344
741.000000	0.330541
742.000000	0.330829
743.000000	0.331142
744.000000	0.331361
745.000000	0.331533
746.000000	0.331730
747.000000	0.331919
748.000000	0.332099
749.000000	0.332278
750.000000	0.332441
751.000000	0.332660
752.000000	0.332859
753.000000	0.333027
754.000000	0.333175
755.000000	0.333347
756.000000	0.333543
757.000000	0.333694
758.000000	0.333802
759.000000	0.333924
760.000000	0.334023
761.000000	0.334161
762.000000	0.334282
763.000000	0.334316
764.000000	0.334276
765.000000	0.334325
766.000000	0.334412
767.000000	0.334451
768.000000	0.334490
769.000000	0.334506
770.000000	0.334485
771.000000	0.334412
772.000000	0.334401
773.000000	0.334370
774.000000	0.334311
775.000000	0.334313
776.000000	0.334335
777.000000	0.334323
778.000000	0.334315
779.000000	0.334314
780.000000	0.334296
781.000000	0.334184
782.000000	0.334062
783.000000	0.334098
784.000000	0.334209
785.000000	0.334143
786.000000	0.334049
787.000000	0.334012
788.000000	0.333955
789.000000	0.333893
790.000000	0.333767
791.000000	0.333552
792.000000	0.333378
793.000000	0.333308
794.000000	0.333336
795.000000	0.333278
796.000000	0.333085
797.000000	0.332812
798.000000	0.332639
799.000000	0.332507
800.000000	0.332380
801.000000	0.332231
802.000000	0.332084
803.000000	0.331935
804.000000	0.331817
805.000000	0.331699
806.000000	0.331524
807.000000	0.331372
808.000000	0.331222
809.000000	0.331108
810.000000	0.330916
811.000000	0.330579
812.000000	0.330302
813.000000	0.330085
814.000000	0.329915
815.000000	0.329786
816.000000	0.329636
817.000000	0.329474
818.000000	0.329239
819.000000	0.329054
820.000000	0.328803
821.000000	0.328474
822.000000	0.328403
823.000000	0.328175
824.000000	0.327835
825.000000	0.327695
826.000000	0.327534
827.000000	0.327301
828.000000	0.327043
829.000000	0.326817
830.000000	0.326559
831.000000	0.326315
832.000000	0.326023
833.000000	0.325810
834.000000	0.325686
835.000000	0.325613
836.000000	0.325320
837.000000	0.325024
838.000000	0.324822
839.000000	0.324661
840.000000	0.324467
841.000000	0.324231
842.000000	0.323933
843.000000	0.323655
844.000000	0.323410
845.000000	0.323164
846.000000	0.322917
847.000000	0.322691
848.000000	0.322522
849.000000	0.322430
850.000000	0.322152
851.000000	0.321804
852.000000	0.321548
853.000000	0.321480
854.000000	0.321263
855.000000	0.321085
856.000000	0.321028
857.000000	0.320748
858.000000	0.320372
859.000000	0.319977
860.000000	0.319789
861.000000	0.319628
862.000000	0.319383
863.000000	0.318936
864.000000	0.318608
865.000000	0.318446
866.000000	0.318429
867.000000	0.318395
868.000000	0.318200
869.000000	0.317875
870.000000	0.317641
871.000000	0.317353
872.000000	0.317172
873.000000	0.317096
874.000000	0.317010
875.000000	0.316784
876.000000	0.316464
877.000000	0.316112
878.000000	0.315787
879.000000	0.315445
880.000000	0.314994
881.000000	0.314816
882.000000	0.314632
883.000000	0.314432
884.000000	0.314243
885.000000	0.314119
886.000000	0.313942
887.000000	0.313701
888.000000	0.313516
889.000000	0.313347
890.000000	0.313050
891.000000	0.312707
892.000000	0.312419
893.000000	0.312244
894.000000	0.312237
895.000000	0.312049
896.000000	0.311821
897.000000	0.311621
898.000000	0.311488
899.000000	0.311370
900.000000	0.311134
901.000000	0.310784
902.000000	0.310649
903.000000	0.310454
904.000000	0.310328
905.000000	0.310336
906.000000	0.310368
907.000000	0.310277
908.000000	0.310052
909.000000	0.309655
910.000000	0.309226
911.000000	0.308944
912.000000	0.308912
913.000000	0.308922
914.000000	0.308699
915.000000	0.308348
916.000000	0.308097
917.000000	0.307917
918.000000	0.307702
919.000000	0.307406
920.000000	0.307281
921.000000	0.307150
922.000000	0.306981
923.000000	0.306793
924.000000	0.306659
925.000000	0.306511
926.000000	0.306322
927.000000	0.306030
928.000000	0.305879
929.000000	0.305786
930.000000	0.305613
931.000000	0.305616
932.000000	0.305483
933.000000	0.305237
934.000000	0.305161
935.000000	0.304921
936.000000	0.304752
937.000000	0.304713
938.000000	0.304337
939.000000	0.304075
940.000000	0.303954
941.000000	0.303894
942.000000	0.303808
943.000000	0.303623
944.000000	0.303268
945.000000	0.303102
946.000000	0.302869
947.000000	0.302748
948.000000	0.302819
949.000000	0.302434
950.000000	0.301995
951.000000	0.301731
952.000000	0.301751
953.000000	0.301579
954.000000	0.301401
955.000000	0.301335
956.000000	0.301283
957.000000	0.301209
958.000000	0.301061
959.000000	0.300944
960.000000	0.300984
961.000000	0.301063
962.000000	0.301015
963.000000	0.300724
964.000000	0.300457
965.000000	0.300297
966.000000	0.300187
967.000000	0.300399
968.000000	0.300318
969.000000	0.299970
970.000000	0.299796
971.000000	0.299430
972.000000	0.299209
973.000000	0.299193
974.000000	0.299228
975.000000	0.299030
976.000000	0.298726
977.000000	0.298525
978.000000	0.298628
979.000000	0.298621
980.000000	0.298350
981.000000	0.298296
982.000000	0.298546
983.000000	0.298463
984.000000	0.298099
985.000000	0.298091
986.000000	0.298118
987.000000	0.298225
988.000000	0.298275
989.000000	0.298004
990.000000	0.297845
991.000000	0.297913
992.000000	0.298171
993.000000	0.298223
994.000000	0.298331
995.000000	0.298476
996.000000	0.298126
997.000000	0.298378
998.000000	0.298494
999.000000	0.298336
1000.000000	0.298698
1001.000000	0.298332
1002.000000	0.298333
1003.000000	0.298863
1004.000000	0.298993
1005.000000	0.298067
1006.000000	0.297782
1007.000000	0.297800
1008.000000	0.298170
1009.000000	0.298505
1010.000000	0.299010
1011.000000	0.298936
1012.000000	0.299103
1013.000000	0.299047
1014.000000	0.298107
1015.000000	0.298098
1016.000000	0.298569
1017.000000	0.298608
1018.000000	0.299039
1019.000000	0.299189
1020.000000	0.298800
1021.000000	0.298767
1022.000000	0.299493
1023.000000	0.299933
1024.000000	0.300219
1025.000000	0.300721
1026.000000	0.301258
1027.000000	0.300292
1028.000000	0.299652
1029.000000	0.299636
1030.000000	0.299202
1031.000000	0.299481
1032.000000	0.299800
1033.000000	0.300128
1034.000000	0.300692
1035.000000	0.301503
1036.000000	0.301745
1037.000000	0.302136
1038.000000	0.302163
1039.000000	0.301503
1040.000000	0.301466
1041.000000	0.301868
1042.000000	0.302218
1043.000000	0.302575
1044.000000	0.303016
1045.000000	0.302792
1046.000000	0.302302
1047.000000	0.302800
1048.000000	0.303948
1049.000000	0.304281
1050.000000	0.304985
1051.000000	0.305322
1052.000000	0.304597
1053.000000	0.304540
1054.000000	0.305239
1055.000000	0.305669
1056.000000	0.306085
1057.000000	0.306450
1058.000000	0.306880
1059.000000	0.307043
1060.000000	0.307253
1061.000000	0.307498
1062.000000	0.307819
1063.000000	0.308227
1064.000000	0.308697
1065.000000	0.309369
1066.000000	0.309818
1067.000000	0.310250
1068.000000	0.310509
1069.000000	0.310508
1070.000000	0.310575
1071.000000	0.310426
1072.000000	0.310640
1073.000000	0.311190
1074.000000	0.311647
1075.000000	0.312121
1076.000000	0.312169
1077.000000	0.311976
1078.000000	0.312062
1079.000000	0.312465
1080.000000	0.313409
1081.000000	0.313957
1082.000000	0.314686
1083.000000	0.315254
1084.000000	0.315537
1085.000000	0.316084
1086.000000	0.316882
1087.000000	0.317371
1088.000000	0.317718
1089.000000	0.318041
1090.000000	0.318022
1091.000000	0.318212
1092.000000	0.318643
1093.000000	0.318977
1094.000000	0.319134
1095.000000	0.319052
1096.000000	0.319375
1097.000000	0.319633
1098.000000	0.320114
1099.000000	0.320971
1100.000000	0.321628
1101.000000	0.322279
1102.000000	0.322755
1103.000000	0.323105
1104.000000	0.323523
1105.000000	0.323766
1106.000000	0.324098
1107.000000	0.324601
1108.000000	0.324908
1109.000000	0.325176
1110.000000	0.325296
1111.000000	0.325613
1112.000000	0.325870
1113.000000	0.326294
1114.000000	0.326994
1115.000000	0.327433
1116.000000	0.327799
1117.000000	0.328169
1118.000000	0.328497
1119.000000	0.328694
1120.000000	0.328776
1121.000000	0.328982
1122.000000	0.329154
1123.000000	0.329612
1124.000000	0.330151
1125.000000	0.330585
1126.000000	0.331008
1127.000000	0.331285
1128.000000	0.331464
1129.000000	0.331483
1130.000000	0.331752
1131.000000	0.332044
1132.000000	0.332331
1133.000000	0.332871
1134.000000	0.333186
1135.000000	0.333201
1136.000000	0.333471
1137.000000	0.333910
1138.000000	0.334105
1139.000000	0.334382
1140.000000	0.334674
1141.000000	0.334635
1142.000000	0.334838
1143.000000	0.335258
1144.000000	0.335629
1145.000000	0.335933
1146.000000	0.336024
1147.000000	0.336123
1148.000000	0.335970
1149.000000	0.336012
1150.000000	0.335951
1151.000000	0.336297
1152.000000	0.337019
1153.000000	0.337277
1154.000000	0.337471
1155.000000	0.337689
1156.000000	0.337525
1157.000000	0.337660
1158.000000	0.338089
1159.000000	0.338371
1160.000000	0.338554
1161.000000	0.338800
1162.000000	0.339181
1163.000000	0.339601
1164.000000	0.339829
1165.000000	0.340023
1166.000000	0.340167
1167.000000	0.340035
1168.000000	0.340178
1169.000000	0.340500
1170.000000	0.340735
1171.000000	0.341191
1172.000000	0.341346
1173.000000	0.341073
1174.000000	0.341227
1175.000000	0.341527
1176.000000	0.341649
1177.000000	0.342063
1178.000000	0.342291
1179.000000	0.342143
1180.000000	0.342144
1181.000000	0.342292
1182.000000	0.342511
1183.000000	0.342818
1184.000000	0.343069
1185.000000	0.343202
1186.000000	0.343265
1187.000000	0.343378
1188.000000	0.343379
1189.000000	0.343478
1190.000000	0.343780
1191.000000	0.343911
1192.000000	0.344060
1193.000000	0.344287
1194.000000	0.344352
1195.000000	0.344459
1196.000000	0.344541
1197.000000	0.344640
1198.000000	0.344777
1199.000000	0.344908
1200.000000	0.345054
1201.000000	0.345156
1202.000000	0.345290
1203.000000	0.345339
1204.000000	0.345331
1205.000000	0.345484
1206.000000	0.345592
1207.000000	0.345837
1208.000000	0.345915
1209.000000	0.345974
1210.000000	0.346128
1211.000000	0.346281
1212.000000	0.346324
1213.000000	0.346491
1214.000000	0.346609
1215.000000	0.346485
1216.000000	0.346524
1217.000000	0.346714
1218.000000	0.346769
1219.000000	0.346762
1220.000000	0.346890
1221.000000	0.346954
1222.000000	0.346831
1223.000000	0.346820
1224.000000	0.346836
1225.000000	0.346810
1226.000000	0.346802
1227.000000	0.346679
1228.000000	0.346766
1229.000000	0.346872
1230.000000	0.347087
1231.000000	0.347138
1232.000000	0.347358
1233.000000	0.347514
1234.000000	0.347503
1235.000000	0.347558
1236.000000	0.347591
1237.000000	0.347610
1238.000000	0.347558
1239.000000	0.347501
1240.000000	0.347384
1241.000000	0.347303
1242.000000	0.347335
1243.000000	0.347431
1244.000000	0.347669
1245.000000	0.347771
1246.000000	0.347853
1247.000000	0.347966
1248.000000	0.347977
1249.000000	0.348152
1250.000000	0.348293
1251.000000	0.348411
1252.000000	0.348427
1253.000000	0.348407
1254.000000	0.348350
1255.000000	0.348125
1256.000000	0.348105
1257.000000	0.348236
1258.000000	0.348359
1259.000000	0.348486
1260.000000	0.348629
1261.000000	0.348673
1262.000000	0.348779
1263.000000	0.349013
1264.000000	0.349114
1265.000000	0.349197
1266.000000	0.349323
1267.000000	0.349431
1268.000000	0.349425
1269.000000	0.349311
1270.000000	0.349365
1271.000000	0.349327
1272.000000	0.349305
1273.000000	0.349447
1274.000000	0.349517
1275.000000	0.349577
1276.000000	0.349687
1277.000000	0.349817
1278.000000	0.349885
1279.000000	0.349801
1280.000000	0.349521
1281.000000	0.349397
1282.000000	0.349263
1283.000000	0.349272
1284.000000	0.349463
1285.000000	0.349431
1286.000000	0.349199
1287.000000	0.349164
1288.000000	0.349132
1289.000000	0.349050
1290.000000	0.349171
1291.000000	0.349169
1292.000000	0.349103
1293.000000	0.349096
1294.000000	0.348940
1295.000000	0.348910
1296.000000	0.348921
1297.000000	0.348863
1298.000000	0.348859
1299.000000	0.348753
1300.000000	0.348685
1301.000000	0.348661
1302.000000	0.348603
1303.000000	0.348738
1304.000000	0.348755
1305.000000	0.348839
1306.000000	0.348804
1307.000000	0.348758
1308.000000	0.348760
1309.000000	0.348713
1310.000000	0.348665
1311.000000	0.348737
1312.000000	0.348552
1313.000000	0.348385
1314.000000	0.348361
1315.000000	0.348290
1316.000000	0.348427
1317.000000	0.348674
1318.000000	0.348661
1319.000000	0.348492
1320.000000	0.348418
1321.000000	0.348373
1322.000000	0.348323
1323.000000	0.348334
1324.000000	0.348458
1325.000000	0.348383
1326.000000	0.348218
1327.000000	0.348354
1328.000000	0.348477
1329.000000	0.348366
1330.000000	0.348131
1331.000000	0.348130
1332.000000	0.348086
1333.000000	0.348035
1334.000000	0.348343
1335.000000	0.348366
1336.000000	0.348067
1337.000000	0.347948
1338.000000	0.347811
1339.000000	0.347655
1340.000000	0.347550
1341.000000	0.347609
1342.000000	0.347744
1343.000000	0.347779
1344.000000	0.347687
1345.000000	0.347530
1346.000000	0.347472
1347.000000	0.347250
1348.000000	0.347046
1349.000000	0.347004
1350.000000	0.346857
1351.000000	0.346656
1352.000000	0.346703
1353.000000	0.346676
1354.000000	0.346660
1355.000000	0.346656
1356.000000	0.346552
1357.000000	0.346363
1358.000000	0.346134
1359.000000	0.345961
1360.000000	0.345794
1361.000000	0.345664
1362.000000	0.345585
1363.000000	0.345514
1364.000000	0.345475
1365.000000	0.345449
1366.000000	0.345420
1367.000000	0.345397
1368.000000	0.345390
1369.000000	0.345451
1370.000000	0.345476
1371.000000	0.345319
1372.000000	0.345019
1373.000000	0.344653
1374.000000	0.344298
1375.000000	0.344070
1376.000000	0.344020
1377.000000	0.343807
1378.000000	0.343473
1379.000000	0.343123
1380.000000	0.342690
1381.000000	0.342277
1382.000000	0.341965
1383.000000	0.341647
1384.000000	0.341233
1385.000000	0.340863
1386.000000	0.340421
1387.000000	0.339907
1388.000000	0.339393
1389.000000	0.338813
1390.000000	0.338368
1391.000000	0.337949
1392.000000	0.337429
1393.000000	0.336826
1394.000000	0.336193
1395.000000	0.335619
1396.000000	0.334975
1397.000000	0.334285
1398.000000	0.333605
1399.000000	0.332886
1400.000000	0.332052
1401.000000	0.331301
1402.000000	0.330608
1403.000000	0.329969
1404.000000	0.329431
1405.000000	0.328740
1406.000000	0.328128
1407.000000	0.327562
1408.000000	0.326948
1409.000000	0.326462
1410.000000	0.326094
1411.000000	0.325779
1412.000000	0.325349
1413.000000	0.325034
1414.000000	0.324782
1415.000000	0.324501
1416.000000	0.324337
1417.000000	0.324302
1418.000000	0.324277
1419.000000	0.324202
1420.000000	0.324154
1421.000000	0.324268
1422.000000	0.324248
1423.000000	0.324214
1424.000000	0.324183
1425.000000	0.324045
1426.000000	0.323796
1427.000000	0.323630
1428.000000	0.323369
1429.000000	0.323073
1430.000000	0.322959
1431.000000	0.322911
1432.000000	0.322900
1433.000000	0.322981
1434.000000	0.323132
1435.000000	0.323433
1436.000000	0.323765
1437.000000	0.324123
1438.000000	0.324592
1439.000000	0.325204
1440.000000	0.325836
1441.000000	0.326592
1442.000000	0.327431
1443.000000	0.328283
1444.000000	0.329084
1445.000000	0.329996
1446.000000	0.330772
1447.000000	0.331449
1448.000000	0.332024
1449.000000	0.332390
1450.000000	0.332834
1451.000000	0.333362
1452.000000	0.333719
1453.000000	0.334087
1454.000000	0.334395
1455.000000	0.334409
1456.000000	0.334466
1457.000000	0.334636
1458.000000	0.334747
1459.000000	0.334997
1460.000000	0.335228
1461.000000	0.335148
1462.000000	0.335158
1463.000000	0.335199
1464.000000	0.335148
1465.000000	0.335359
1466.000000	0.335512
1467.000000	0.335582
1468.000000	0.335739
1469.000000	0.335924
1470.000000	0.336149
1471.000000	0.336404
1472.000000	0.336575
1473.000000	0.336828
1474.000000	0.337015
1475.000000	0.337193
1476.000000	0.337408
1477.000000	0.337600
1478.000000	0.337849
1479.000000	0.338104
1480.000000	0.338235
1481.000000	0.338293
1482.000000	0.338276
1483.000000	0.338404
1484.000000	0.338524
1485.000000	0.338665
1486.000000	0.338887
1487.000000	0.339069
1488.000000	0.339249
1489.000000	0.339386
1490.000000	0.339409
1491.000000	0.339505
1492.000000	0.339461
1493.000000	0.339559
1494.000000	0.339744
1495.000000	0.339839
1496.000000	0.339905
1497.000000	0.340047
1498.000000	0.340226
1499.000000	0.340391
1500.000000	0.340593
1501.000000	0.340741
1502.000000	0.340776
1503.000000	0.340968
1504.000000	0.341175
1505.000000	0.341284
1506.000000	0.341516
1507.000000	0.341709
1508.000000	0.341948
1509.000000	0.342187
1510.000000	0.342304
1511.000000	0.342401
1512.000000	0.342386
1513.000000	0.342372
1514.000000	0.342366
1515.000000	0.342294
1516.000000	0.342333
1517.000000	0.342362
1518.000000	0.342428
1519.000000	0.342452
1520.000000	0.342442
1521.000000	0.342479
1522.000000	0.342640
1523.000000	0.342865
1524.000000	0.342938
1525.000000	0.343073
1526.000000	0.343143
1527.000000	0.343181
1528.000000	0.343449
1529.000000	0.343575
1530.000000	0.343570
1531.000000	0.343679
1532.000000	0.343659
1533.000000	0.343586
1534.000000	0.343574
1535.000000	0.343500
1536.000000	0.343430
1537.000000	0.343579
1538.000000	0.343729
1539.000000	0.343792
1540.000000	0.343787
1541.000000	0.343725
1542.000000	0.343775
1543.000000	0.343847
1544.000000	0.343817
1545.000000	0.343905
1546.000000	0.344145
1547.000000	0.344270
1548.000000	0.344421
1549.000000	0.344632
1550.000000	0.344578
1551.000000	0.344530
1552.000000	0.344620
1553.000000	0.344639
1554.000000	0.344730
1555.000000	0.344819
1556.000000	0.344833
1557.000000	0.344772
1558.000000	0.344704
1559.000000	0.344436
1560.000000	0.344390
1561.000000	0.344513
1562.000000	0.344497
1563.000000	0.344523
1564.000000	0.344580
1565.000000	0.344577
1566.000000	0.344525
1567.000000	0.344680
1568.000000	0.344703
1569.000000	0.344607
1570.000000	0.344652
1571.000000	0.344766
1572.000000	0.344835
1573.000000	0.344973
1574.000000	0.345044
1575.000000	0.345082
1576.000000	0.345091
1577.000000	0.345025
1578.000000	0.344998
1579.000000	0.345034
1580.000000	0.345053
1581.000000	0.345174
1582.000000	0.345214
1583.000000	0.345171
1584.000000	0.345150
1585.000000	0.345219
1586.000000	0.345276
1587.000000	0.345315
1588.000000	0.345390
1589.000000	0.345483
1590.000000	0.345607
1591.000000	0.345847
1592.000000	0.345981
1593.000000	0.346170
1594.000000	0.346198
1595.000000	0.346083
1596.000000	0.346070
1597.000000	0.346054
1598.000000	0.346014
1599.000000	0.346079
1600.000000	0.346037
1601.000000	0.346016
1602.000000	0.345951
1603.000000	0.345827
1604.000000	0.345764
1605.000000	0.345684
1606.000000	0.345679
1607.000000	0.345886
1608.000000	0.345918
1609.000000	0.345950
1610.000000	0.345947
1611.000000	0.345875
1612.000000	0.345804
1613.000000	0.345832
1614.000000	0.345786
1615.000000	0.345723
1616.000000	0.345755
1617.000000	0.345824
1618.000000	0.345827
1619.000000	0.345802
1620.000000	0.345745
1621.000000	0.345595
1622.000000	0.345674
1623.000000	0.345879
1624.000000	0.345956
1625.000000	0.345964
1626.000000	0.345836
1627.000000	0.345505
1628.000000	0.345431
1629.000000	0.345428
1630.000000	0.345432
1631.000000	0.345501
1632.000000	0.345442
1633.000000	0.345344
1634.000000	0.345238
1635.000000	0.345102
1636.000000	0.345010
1637.000000	0.344926
1638.000000	0.344810
1639.000000	0.344768
1640.000000	0.344734
1641.000000	0.344756
1642.000000	0.344768
1643.000000	0.344875
1644.000000	0.344895
1645.000000	0.344843
1646.000000	0.344796
1647.000000	0.344744
1648.000000	0.344713
1649.000000	0.344810
1650.000000	0.344839
1651.000000	0.344894
1652.000000	0.344961
1653.000000	0.344940
1654.000000	0.345017
1655.000000	0.345081
1656.000000	0.345112
1657.000000	0.345249
1658.000000	0.345293
1659.000000	0.345454
1660.000000	0.345510
1661.000000	0.345358
1662.000000	0.345350
1663.000000	0.345329
1664.000000	0.345276
1665.000000	0.345275
1666.000000	0.345311
1667.000000	0.345214
1668.000000	0.345166
1669.000000	0.345172
1670.000000	0.345013
1671.000000	0.344822
1672.000000	0.344866
1673.000000	0.344951
1674.000000	0.345055
1675.000000	0.345180
1676.000000	0.345148
1677.000000	0.345020
1678.000000	0.344896
1679.000000	0.344870
1680.000000	0.344912
1681.000000	0.344867
1682.000000	0.344918
1683.000000	0.344980
1684.000000	0.344798
1685.000000	0.344744
1686.000000	0.344707
1687.000000	0.344584
1688.000000	0.344569
1689.000000	0.344569
1690.000000	0.344403
1691.000000	0.344422
1692.000000	0.344548
1693.000000	0.344585
1694.000000	0.344517
1695.000000	0.344498
1696.000000	0.344404
1697.000000	0.344223
1698.000000	0.344147
1699.000000	0.344110
1700.000000	0.343918
1701.000000	0.343927
1702.000000	0.343935
1703.000000	0.343934
1704.000000	0.344131
1705.000000	0.344199
1706.000000	0.344219
1707.000000	0.344311
1708.000000	0.344345
1709.000000	0.344330
1710.000000	0.344607
1711.000000	0.344622
1712.000000	0.344365
1713.000000	0.344263
1714.000000	0.344092
1715.000000	0.344083
1716.000000	0.344375
1717.000000	0.344399
1718.000000	0.344281
1719.000000	0.344213
1720.000000	0.344034
1721.000000	0.344017
1722.000000	0.344247
1723.000000	0.344223
1724.000000	0.344156
1725.000000	0.344086
1726.000000	0.343707
1727.000000	0.343599
1728.000000	0.343626
1729.000000	0.343454
1730.000000	0.343402
1731.000000	0.343338
1732.000000	0.343283
1733.000000	0.343095
1734.000000	0.342687
1735.000000	0.342488
1736.000000	0.342106
1737.000000	0.342005
1738.000000	0.342283
1739.000000	0.342249
1740.000000	0.342076
1741.000000	0.342050
1742.000000	0.342013
1743.000000	0.342099
1744.000000	0.342335
1745.000000	0.342353
1746.000000	0.342300
1747.000000	0.342188
1748.000000	0.342085
1749.000000	0.342033
1750.000000	0.341941
1751.000000	0.341938
1752.000000	0.342064
1753.000000	0.342157
1754.000000	0.342178
1755.000000	0.342193
1756.000000	0.342131
1757.000000	0.341893
1758.000000	0.341781
1759.000000	0.341614
1760.000000	0.341603
1761.000000	0.341764
1762.000000	0.341780
1763.000000	0.341852
1764.000000	0.341882
1765.000000	0.341780
1766.000000	0.341694
1767.000000	0.341471
1768.000000	0.341367
1769.000000	0.341353
1770.000000	0.341428
1771.000000	0.341739
1772.000000	0.341716
1773.000000	0.341420
1774.000000	0.341310
1775.000000	0.341167
1776.000000	0.341103
1777.000000	0.341224
1778.000000	0.341103
1779.000000	0.340752
1780.000000	0.340693
1781.000000	0.340607
1782.000000	0.340667
1783.000000	0.341053
1784.000000	0.341163
1785.000000	0.341079
1786.000000	0.340915
1787.000000	0.340978
1788.000000	0.341168
1789.000000	0.341215
1790.000000	0.341166
1791.000000	0.341083
1792.000000	0.340876
1793.000000	0.340825
1794.000000	0.340916
1795.000000	0.341051
1796.000000	0.341269
1797.000000	0.341457
1798.000000	0.341735
1799.000000	0.341830
1800.000000	0.341964
1801.000000	0.341058
1802.000000	0.341833
1803.000000	0.342638
1804.000000	0.343163
1805.000000	0.344464
1806.000000	0.344464
1807.000000	0.342613
1808.000000	0.342327
1809.000000	0.342308
1810.000000	0.342226
1811.000000	0.342382
1812.000000	0.343809
1813.000000	0.344005
1814.000000	0.343466
1815.000000	0.343151
1816.000000	0.342473
1817.000000	0.342027
1818.000000	0.341217
1819.000000	0.341383
1820.000000	0.342359
1821.000000	0.343090
1822.000000	0.343360
1823.000000	0.343926
1824.000000	0.343678
1825.000000	0.341824
1826.000000	0.341501
1827.000000	0.341610
1828.000000	0.341689
1829.000000	0.341846
1830.000000	0.341858
1831.000000	0.342195
1832.000000	0.342370
1833.000000	0.342590
1834.000000	0.343726
1835.000000	0.343683
1836.000000	0.342387
1837.000000	0.342054
1838.000000	0.341657
1839.000000	0.341263
1840.000000	0.341084
1841.000000	0.340369
1842.000000	0.340099
1843.000000	0.339133
1844.000000	0.339154
1845.000000	0.340312
1846.000000	0.340682
1847.000000	0.340485
1848.000000	0.341061
1849.000000	0.341313
1850.000000	0.341745
1851.000000	0.341821
1852.000000	0.341912
1853.000000	0.341750
1854.000000	0.340725
1855.000000	0.340058
1856.000000	0.338952
1857.000000	0.338864
1858.000000	0.339375
1859.000000	0.339926
1860.000000	0.340349
1861.000000	0.339821
1862.000000	0.339015
1863.000000	0.336822
1864.000000	0.336020
1865.000000	0.335724
1866.000000	0.335364
1867.000000	0.335490
1868.000000	0.335224
1869.000000	0.334797
1870.000000	0.334337
1871.000000	0.333802
1872.000000	0.333592
1873.000000	0.333121
1874.000000	0.332543
1875.000000	0.331835
1876.000000	0.330938
1877.000000	0.329263
1878.000000	0.327789
1879.000000	0.326426
1880.000000	0.324982
1881.000000	0.324326
1882.000000	0.323377
1883.000000	0.322377
1884.000000	0.321318
1885.000000	0.320070
1886.000000	0.318359
1887.000000	0.316528
1888.000000	0.314050
1889.000000	0.311501
1890.000000	0.309428
1891.000000	0.306889
1892.000000	0.304344
1893.000000	0.301967
1894.000000	0.299399
1895.000000	0.296686
1896.000000	0.294013
1897.000000	0.291824
1898.000000	0.289063
1899.000000	0.286420
1900.000000	0.284499
1901.000000	0.282538
1902.000000	0.281232
1903.000000	0.280066
1904.000000	0.278676
1905.000000	0.277642
1906.000000	0.276364
1907.000000	0.274833
1908.000000	0.273552
1909.000000	0.272706
1910.000000	0.272014
1911.000000	0.272211
1912.000000	0.272919
1913.000000	0.274141
1914.000000	0.275044
1915.000000	0.275436
1916.000000	0.275979
1917.000000	0.276535
1918.000000	0.276913
1919.000000	0.278050
1920.000000	0.278965
1921.000000	0.279326
1922.000000	0.279905
1923.000000	0.280118
1924.000000	0.280296
1925.000000	0.281371
1926.000000	0.282734
1927.000000	0.283983
1928.000000	0.284955
1929.000000	0.286264
1930.000000	0.286877
1931.000000	0.286798
1932.000000	0.286589
1933.000000	0.286619
1934.000000	0.286848
1935.000000	0.287323
1936.000000	0.288295
1937.000000	0.288790
1938.000000	0.289217
1939.000000	0.289706
1940.000000	0.290190
1941.000000	0.290233
1942.000000	0.290792
1943.000000	0.291469
1944.000000	0.291896
1945.000000	0.292282
1946.000000	0.292751
1947.000000	0.293286
1948.000000	0.293631
1949.000000	0.294181
1950.000000	0.294756
1951.000000	0.294993
1952.000000	0.294969
1953.000000	0.294919
1954.000000	0.295008
1955.000000	0.295018
1956.000000	0.295299
1957.000000	0.296152
1958.000000	0.296781
1959.000000	0.297346
1960.000000	0.297978
1961.000000	0.298129
1962.000000	0.298336
1963.000000	0.298570
1964.000000	0.298913
1965.000000	0.298741
1966.000000	0.298682
1967.000000	0.298956
1968.000000	0.299440
1969.000000	0.300014
1970.000000	0.300669
1971.000000	0.300913
1972.000000	0.300742
1973.000000	0.300752
1974.000000	0.300843
1975.000000	0.301011
1976.000000	0.301112
1977.000000	0.301863
1978.000000	0.302582
1979.000000	0.303192
1980.000000	0.304177
1981.000000	0.304395
1982.000000	0.304453
1983.000000	0.305340
1984.000000	0.305776
1985.000000	0.306231
1986.000000	0.306634
1987.000000	0.307107
1988.000000	0.307107
1989.000000	0.307331
1990.000000	0.307761
1991.000000	0.308349
1992.000000	0.308712
1993.000000	0.308806
1994.000000	0.308896
1995.000000	0.309291
1996.000000	0.309842
1997.000000	0.310140
1998.000000	0.310772
1999.000000	0.311214
2000.000000	0.311297
2001.000000	0.311265
2002.000000	0.312029
2003.000000	0.312648
2004.000000	0.312944
2005.000000	0.313172
2006.000000	0.313118
2007.000000	0.313357
2008.000000	0.313936
2009.000000	0.315001
2010.000000	0.315705
2011.000000	0.316823
2012.000000	0.317062
2013.000000	0.316595
2014.000000	0.316038
2015.000000	0.315733
2016.000000	0.314912
2017.000000	0.315135
2018.000000	0.315723
2019.000000	0.316144
2020.000000	0.316773
2021.000000	0.316986
2022.000000	0.316740
2023.000000	0.317066
2024.000000	0.317354
2025.000000	0.317744
2026.000000	0.318624
2027.000000	0.318802
2028.000000	0.318386
2029.000000	0.318692
2030.000000	0.318733
2031.000000	0.318501
2032.000000	0.318840
2033.000000	0.319308
2034.000000	0.319413
2035.000000	0.319559
2036.000000	0.319500
2037.000000	0.318993
2038.000000	0.319008
2039.000000	0.319260
2040.000000	0.319777
2041.000000	0.320356
2042.000000	0.320811
2043.000000	0.320669
2044.000000	0.320506
2045.000000	0.320302
2046.000000	0.319917
2047.000000	0.320150
2048.000000	0.320777
2049.000000	0.321497
2050.000000	0.322565
2051.000000	0.323138
2052.000000	0.323284
2053.000000	0.323518
2054.000000	0.324030
2055.000000	0.323975
2056.000000	0.324278
2057.000000	0.324727
2058.000000	0.324824
2059.000000	0.324711
2060.000000	0.324508
2061.000000	0.324039
2062.000000	0.323822
2063.000000	0.323467
2064.000000	0.323500
2065.000000	0.324648
2066.000000	0.324620
2067.000000	0.324625
2068.000000	0.324175
2069.000000	0.323306
2070.000000	0.322699
2071.000000	0.322435
2072.000000	0.322776
2073.000000	0.323506
2074.000000	0.323828
2075.000000	0.324276
2076.000000	0.325133
2077.000000	0.325284
2078.000000	0.325028
2079.000000	0.324849
2080.000000	0.324376
2081.000000	0.324042
2082.000000	0.323772
2083.000000	0.323353
2084.000000	0.323227
2085.000000	0.323297
2086.000000	0.323533
2087.000000	0.324309
2088.000000	0.324432
2089.000000	0.324300
2090.000000	0.324596
2091.000000	0.325023
2092.000000	0.325210
2093.000000	0.325740
2094.000000	0.325918
2095.000000	0.325817
2096.000000	0.325782
2097.000000	0.325466
2098.000000	0.325414
2099.000000	0.325598
2100.000000	0.325571
2101.000000	0.325474
2102.000000	0.325068
2103.000000	0.324314
2104.000000	0.323683
2105.000000	0.323627
2106.000000	0.324368
2107.000000	0.324449
2108.000000	0.324411
2109.000000	0.324748
2110.000000	0.324734
2111.000000	0.324877
2112.000000	0.325601
2113.000000	0.325696
2114.000000	0.325142
2115.000000	0.325103
2116.000000	0.325457
2117.000000	0.324954
2118.000000	0.324859
2119.000000	0.325384
2120.000000	0.325360
2121.000000	0.324960
2122.000000	0.325174
2123.000000	0.325579
2124.000000	0.325665
2125.000000	0.325922
2126.000000	0.326032
2127.000000	0.325988
2128.000000	0.325820
2129.000000	0.325244
2130.000000	0.325519
2131.000000	0.324887
2132.000000	0.324136
2133.000000	0.323621
2134.000000	0.323491
2135.000000	0.323738
2136.000000	0.324015
2137.000000	0.324598
2138.000000	0.325988
2139.000000	0.326168
2140.000000	0.326160
2141.000000	0.325882
2142.000000	0.324400
2143.000000	0.323736
2144.000000	0.323306
2145.000000	0.323282
2146.000000	0.323810
2147.000000	0.324792
2148.000000	0.325693
2149.000000	0.326674
2150.000000	0.326371
2151.000000	0.325433
2152.000000	0.323895
2153.000000	0.322195
2154.000000	0.321138
2155.000000	0.320090
2156.000000	0.319968
2157.000000	0.320739
2158.000000	0.321386
2159.000000	0.323119
2160.000000	0.323950
2161.000000	0.324414
2162.000000	0.324886
2163.000000	0.324811
2164.000000	0.324851
2165.000000	0.325181
2166.000000	0.324911
2167.000000	0.324233
2168.000000	0.323433
2169.000000	0.323490
2170.000000	0.323719
2171.000000	0.323756
2172.000000	0.324400
2173.000000	0.324869
2174.000000	0.325073
2175.000000	0.324985
2176.000000	0.325388
2177.000000	0.324863
2178.000000	0.322419
2179.000000	0.322126
2180.000000	0.322662
2181.000000	0.323353
2182.000000	0.324812
2183.000000	0.326180
2184.000000	0.326208
2185.000000	0.325486
2186.000000	0.324184
2187.000000	0.323048
2188.000000	0.322470
2189.000000	0.322402
2190.000000	0.322540
2191.000000	0.323351
2192.000000	0.323667
2193.000000	0.323770
2194.000000	0.323379
2195.000000	0.322717
2196.000000	0.322264
2197.000000	0.321050
2198.000000	0.320480
2199.000000	0.320634
2200.000000	0.320644
2201.000000	0.320703
2202.000000	0.321392
2203.000000	0.322553
2204.000000	0.323831
2205.000000	0.323384
2206.000000	0.321810
2207.000000	0.320788
2208.000000	0.317371
2209.000000	0.316562
2210.000000	0.317756
2211.000000	0.315873
2212.000000	0.315826
2213.000000	0.316257
2214.000000	0.316121
2215.000000	0.317481
2216.000000	0.321311
2217.000000	0.323736
2218.000000	0.326623
2219.000000	0.328243
2220.000000	0.329832
2221.000000	0.329071
2222.000000	0.325174
2223.000000	0.323602
2224.000000	0.320328
2225.000000	0.321414
2226.000000	0.320989
2227.000000	0.321011
2228.000000	0.323062
2229.000000	0.320830
2230.000000	0.320330
2231.000000	0.321220
2232.000000	0.319918
2233.000000	0.320214
2234.000000	0.321126
2235.000000	0.322183
2236.000000	0.322877
2237.000000	0.323667
2238.000000	0.323325
2239.000000	0.322723
2240.000000	0.321198
2241.000000	0.317642
2242.000000	0.316115
2243.000000	0.313920
2244.000000	0.314063
2245.000000	0.317452
2246.000000	0.318204
2247.000000	0.318604
2248.000000	0.319599
2249.000000	0.319963
2250.000000	0.320217
2251.000000	0.320584
2252.000000	0.321071
2253.000000	0.319733
2254.000000	0.317973
2255.000000	0.318028
2256.000000	0.316488
2257.000000	0.315209
2258.000000	0.314139
2259.000000	0.311636
2260.000000	0.312689
2261.000000	0.313143
2262.000000	0.314766
2263.000000	0.314244
2264.000000	0.313365
2265.000000	0.311939
2266.000000	0.308461
2267.000000	0.307085
2268.000000	0.306328
2269.000000	0.306019
2270.000000	0.307694
2271.000000	0.306953
2272.000000	0.305079
2273.000000	0.304003
2274.000000	0.301741
2275.000000	0.300041
2276.000000	0.298845
2277.000000	0.298650
2278.000000	0.297623
2279.000000	0.296267
2280.000000	0.295130
2281.000000	0.293715
2282.000000	0.292387
2283.000000	0.290373
2284.000000	0.289861
2285.000000	0.289459
2286.000000	0.289192
2287.000000	0.289629
2288.000000	0.289495
2289.000000	0.291022
2290.000000	0.293132
2291.000000	0.295289
2292.000000	0.296985
2293.000000	0.297403
2294.000000	0.297659
2295.000000	0.297073
2296.000000	0.295909
2297.000000	0.293179
2298.000000	0.293157
2299.000000	0.293692
2300.000000	0.294995
2301.000000	0.298832
2302.000000	0.301014
2303.000000	0.302470
2304.000000	0.304175
2305.000000	0.306580
2306.000000	0.307401
2307.000000	0.307935
2308.000000	0.306084
2309.000000	0.304938
2310.000000	0.304589
2311.000000	0.305126
2312.000000	0.306223
2313.000000	0.305576
2314.000000	0.304645
2315.000000	0.303527
2316.000000	0.303630
2317.000000	0.304393
2318.000000	0.304162
2319.000000	0.302936
2320.000000	0.300945
2321.000000	0.300107
2322.000000	0.301647
2323.000000	0.304015
2324.000000	0.307584
2325.000000	0.309525
2326.000000	0.308686
2327.000000	0.308530
2328.000000	0.305499
2329.000000	0.302926
2330.000000	0.302862
2331.000000	0.301762
2332.000000	0.303562
2333.000000	0.307651
2334.000000	0.309819
2335.000000	0.310962
2336.000000	0.311324
2337.000000	0.310793
2338.000000	0.307551
2339.000000	0.305389
2340.000000	0.302798
2341.000000	0.301762
2342.000000	0.301459
2343.000000	0.302099
2344.000000	0.305047
2345.000000	0.306315
2346.000000	0.307010
2347.000000	0.306868
2348.000000	0.306116
2349.000000	0.305456
2350.000000	0.302385
2351.000000	0.298743
2352.000000	0.296135
2353.000000	0.293567
2354.000000	0.293967
2355.000000	0.295627
2356.000000	0.294670
2357.000000	0.293364
2358.000000	0.290337
2359.000000	0.288750
2360.000000	0.290680
2361.000000	0.291877
2362.000000	0.291404
2363.000000	0.290321
2364.000000	0.290240
2365.000000	0.289796
2366.000000	0.288302
2367.000000	0.288165
2368.000000	0.286288
2369.000000	0.286190
2370.000000	0.289636
2371.000000	0.292385
2372.000000	0.295105
2373.000000	0.296240
2374.000000	0.295502
2375.000000	0.291146
2376.000000	0.287922
2377.000000	0.286966
2378.000000	0.284275
2379.000000	0.288309
2380.000000	0.290869
2381.000000	0.286798
2382.000000	0.285166
2383.000000	0.283254
2384.000000	0.282101
2385.000000	0.281864
2386.000000	0.278419
2387.000000	0.274270
2388.000000	0.274568
2389.000000	0.275912
2390.000000	0.278648
2391.000000	0.281653
2392.000000	0.275586
2393.000000	0.269253
2394.000000	0.267034
2395.000000	0.268137
2396.000000	0.269663
2397.000000	0.269704
2398.000000	0.271639
2399.000000	0.265992
2400.000000	0.264590
2401.000000	0.266590
2402.000000	0.262640
2403.000000	0.260439
2404.000000	0.254558
2405.000000	0.253274
2406.000000	0.255094
2407.000000	0.254103
2408.000000	0.256017
2409.000000	0.257422
2410.000000	0.260727
2411.000000	0.265516
2412.000000	0.267563
2413.000000	0.265607
2414.000000	0.266314
2415.000000	0.271485
2416.000000	0.276150
2417.000000	0.283036
2418.000000	0.288516
2419.000000	0.278780
2420.000000	0.267016
2421.000000	0.266106
2422.000000	0.260503
2423.000000	0.265004
2424.000000	0.274448
2425.000000	0.271984
2426.000000	0.271403
2427.000000	0.265235
2428.000000	0.264684
2429.000000	0.275465
2430.000000	0.274812
2431.000000	0.278000
2432.000000	0.282454
2433.000000	0.270382
2434.000000	0.267219
2435.000000	0.269320
2436.000000	0.255031
2437.000000	0.247126
2438.000000	0.249823
2439.000000	0.250562
2440.000000	0.251996
2441.000000	0.255475
2442.000000	0.260271
2443.000000	0.260093
2444.000000	0.265022
2445.000000	0.269215
2446.000000	0.261921
2447.000000	0.250206
2448.000000	0.243242
2449.000000	0.246811
2450.000000	0.243584
2451.000000	0.237256
2452.000000	0.234860
2453.000000	0.226060
2454.000000	0.227196
2455.000000	0.245962
2456.000000	0.268623
2457.000000	0.289490
2458.000000	0.301587
2459.000000	0.306003
2460.000000	0.300916
2461.000000	0.291255
2462.000000	0.294386
2463.000000	0.291363
2464.000000	0.274883
2465.000000	0.273456
2466.000000	0.262764
2467.000000	0.233447
2468.000000	0.234976
2469.000000	0.247100
2470.000000	0.258311
2471.000000	0.281945
2472.000000	0.293536
2473.000000	0.275245
2474.000000	0.225038
2475.000000	0.200567
2476.000000	0.197079
2477.000000	0.176398
2478.000000	0.191646
2479.000000	0.194975
2480.000000	0.169873
2481.000000	0.194829
2482.000000	0.219169
2483.000000	0.268018
2484.000000	0.310186
2485.000000	0.281985
2486.000000	0.257125
2487.000000	0.212900
2488.000000	0.175928
2489.000000	0.176628
2490.000000	0.168665
2491.000000	0.188078
2492.000000	0.193924
2493.000000	0.231219
2494.000000	0.249463
2495.000000	0.227435
2496.000000	0.219321
2497.000000	0.195082
2498.000000	0.192303
2499.000000	0.223134
2500.000000	0.245915
