# Wavelength	NAu-1-60_HEX-30_FV7-10_00000.asd.rts.txt
350.000000	0.159625
351.000000	0.134086
352.000000	0.124933
353.000000	0.125207
354.000000	0.126930
355.000000	0.122363
356.000000	0.117655
357.000000	0.114822
358.000000	0.111127
359.000000	0.112483
360.000000	0.114497
361.000000	0.111647
362.000000	0.109558
363.000000	0.110941
364.000000	0.115285
365.000000	0.116989
366.000000	0.115855
367.000000	0.114569
368.000000	0.119085
369.000000	0.121574
370.000000	0.119438
371.000000	0.113485
372.000000	0.116745
373.000000	0.120083
374.000000	0.117613
375.000000	0.116012
376.000000	0.117798
377.000000	0.120568
378.000000	0.117069
379.000000	0.116236
380.000000	0.117795
381.000000	0.119137
382.000000	0.121081
383.000000	0.123482
384.000000	0.125850
385.000000	0.125924
386.000000	0.128726
387.000000	0.133182
388.000000	0.131071
389.000000	0.132611
390.000000	0.136071
391.000000	0.136075
392.000000	0.138393
393.000000	0.139996
394.000000	0.138883
395.000000	0.139872
396.000000	0.142003
397.000000	0.144461
398.000000	0.146876
399.000000	0.148204
400.000000	0.149677
401.000000	0.153218
402.000000	0.155651
403.000000	0.156639
404.000000	0.156962
405.000000	0.159088
406.000000	0.161044
407.000000	0.162216
408.000000	0.164462
409.000000	0.166097
410.000000	0.167048
411.000000	0.168092
412.000000	0.168587
413.000000	0.169342
414.000000	0.171097
415.000000	0.172376
416.000000	0.173113
417.000000	0.173550
418.000000	0.174351
419.000000	0.174880
420.000000	0.175153
421.000000	0.175717
422.000000	0.176367
423.000000	0.176633
424.000000	0.176205
425.000000	0.176517
426.000000	0.177036
427.000000	0.177171
428.000000	0.176939
429.000000	0.176937
430.000000	0.177118
431.000000	0.176508
432.000000	0.176086
433.000000	0.175866
434.000000	0.175555
435.000000	0.175759
436.000000	0.175864
437.000000	0.175305
438.000000	0.174860
439.000000	0.174488
440.000000	0.174141
441.000000	0.173594
442.000000	0.173082
443.000000	0.172590
444.000000	0.172045
445.000000	0.172424
446.000000	0.172999
447.000000	0.172731
448.000000	0.173207
449.000000	0.174404
450.000000	0.176082
451.000000	0.177861
452.000000	0.180259
453.000000	0.183121
454.000000	0.185658
455.000000	0.188690
456.000000	0.192137
457.000000	0.195446
458.000000	0.198686
459.000000	0.202045
460.000000	0.205522
461.000000	0.208019
462.000000	0.210223
463.000000	0.212478
464.000000	0.214989
465.000000	0.216707
466.000000	0.217766
467.000000	0.219196
468.000000	0.220590
469.000000	0.221772
470.000000	0.222805
471.000000	0.223924
472.000000	0.224861
473.000000	0.225554
474.000000	0.226514
475.000000	0.227255
476.000000	0.227876
477.000000	0.228829
478.000000	0.229520
479.000000	0.230180
480.000000	0.231022
481.000000	0.231690
482.000000	0.232392
483.000000	0.233157
484.000000	0.234007
485.000000	0.234709
486.000000	0.235351
487.000000	0.236070
488.000000	0.236764
489.000000	0.237498
490.000000	0.238432
491.000000	0.239045
492.000000	0.239631
493.000000	0.240499
494.000000	0.241351
495.000000	0.242212
496.000000	0.243059
497.000000	0.243778
498.000000	0.244607
499.000000	0.245619
500.000000	0.246517
501.000000	0.247355
502.000000	0.248207
503.000000	0.249094
504.000000	0.250017
505.000000	0.250977
506.000000	0.251972
507.000000	0.252989
508.000000	0.254029
509.000000	0.255060
510.000000	0.256117
511.000000	0.257214
512.000000	0.258334
513.000000	0.259371
514.000000	0.260486
515.000000	0.261653
516.000000	0.262729
517.000000	0.263780
518.000000	0.264959
519.000000	0.266257
520.000000	0.267509
521.000000	0.268750
522.000000	0.270006
523.000000	0.271247
524.000000	0.272566
525.000000	0.273935
526.000000	0.275314
527.000000	0.276795
528.000000	0.278256
529.000000	0.279630
530.000000	0.281066
531.000000	0.282604
532.000000	0.284148
533.000000	0.285663
534.000000	0.287162
535.000000	0.288667
536.000000	0.290262
537.000000	0.291884
538.000000	0.293484
539.000000	0.295009
540.000000	0.296511
541.000000	0.298132
542.000000	0.299938
543.000000	0.301436
544.000000	0.302987
545.000000	0.304678
546.000000	0.306316
547.000000	0.308005
548.000000	0.309719
549.000000	0.311237
550.000000	0.312799
551.000000	0.314404
552.000000	0.315936
553.000000	0.317482
554.000000	0.319020
555.000000	0.320552
556.000000	0.322195
557.000000	0.323747
558.000000	0.325270
559.000000	0.326738
560.000000	0.328128
561.000000	0.329527
562.000000	0.330897
563.000000	0.332252
564.000000	0.333589
565.000000	0.334788
566.000000	0.335957
567.000000	0.337141
568.000000	0.338313
569.000000	0.339408
570.000000	0.340388
571.000000	0.341294
572.000000	0.342287
573.000000	0.343221
574.000000	0.344089
575.000000	0.344985
576.000000	0.345782
577.000000	0.346471
578.000000	0.347152
579.000000	0.347878
580.000000	0.348549
581.000000	0.349140
582.000000	0.349740
583.000000	0.350305
584.000000	0.350818
585.000000	0.351277
586.000000	0.351667
587.000000	0.352009
588.000000	0.352337
589.000000	0.352661
590.000000	0.352993
591.000000	0.353312
592.000000	0.353501
593.000000	0.353699
594.000000	0.353936
595.000000	0.354150
596.000000	0.354325
597.000000	0.354482
598.000000	0.354542
599.000000	0.354552
600.000000	0.354604
601.000000	0.354674
602.000000	0.354789
603.000000	0.354821
604.000000	0.354770
605.000000	0.354815
606.000000	0.354918
607.000000	0.355015
608.000000	0.355009
609.000000	0.355016
610.000000	0.355063
611.000000	0.355139
612.000000	0.355176
613.000000	0.355191
614.000000	0.355231
615.000000	0.355195
616.000000	0.355135
617.000000	0.355093
618.000000	0.355250
619.000000	0.355227
620.000000	0.355081
621.000000	0.355097
622.000000	0.355094
623.000000	0.355094
624.000000	0.355134
625.000000	0.355213
626.000000	0.355242
627.000000	0.355225
628.000000	0.355317
629.000000	0.355490
630.000000	0.355553
631.000000	0.355557
632.000000	0.355608
633.000000	0.355679
634.000000	0.355718
635.000000	0.355862
636.000000	0.356002
637.000000	0.356099
638.000000	0.356401
639.000000	0.356590
640.000000	0.356694
641.000000	0.356824
642.000000	0.356940
643.000000	0.357027
644.000000	0.357095
645.000000	0.357293
646.000000	0.357494
647.000000	0.357583
648.000000	0.357757
649.000000	0.357962
650.000000	0.358152
651.000000	0.358359
652.000000	0.358546
653.000000	0.358773
654.000000	0.359034
655.000000	0.359276
656.000000	0.359547
657.000000	0.359824
658.000000	0.360068
659.000000	0.360338
660.000000	0.360643
661.000000	0.360967
662.000000	0.361253
663.000000	0.361559
664.000000	0.361884
665.000000	0.362321
666.000000	0.362789
667.000000	0.363153
668.000000	0.363519
669.000000	0.363914
670.000000	0.364344
671.000000	0.364750
672.000000	0.365106
673.000000	0.365448
674.000000	0.365897
675.000000	0.366334
676.000000	0.366741
677.000000	0.367159
678.000000	0.367625
679.000000	0.368099
680.000000	0.368569
681.000000	0.369056
682.000000	0.369590
683.000000	0.370092
684.000000	0.370654
685.000000	0.371209
686.000000	0.371788
687.000000	0.372381
688.000000	0.372928
689.000000	0.373495
690.000000	0.374164
691.000000	0.374864
692.000000	0.375455
693.000000	0.376012
694.000000	0.376652
695.000000	0.377279
696.000000	0.377900
697.000000	0.378561
698.000000	0.379246
699.000000	0.379946
700.000000	0.380660
701.000000	0.381373
702.000000	0.382080
703.000000	0.382755
704.000000	0.383402
705.000000	0.384088
706.000000	0.384807
707.000000	0.385625
708.000000	0.386376
709.000000	0.387070
710.000000	0.387773
711.000000	0.388526
712.000000	0.389242
713.000000	0.389942
714.000000	0.390730
715.000000	0.391486
716.000000	0.392190
717.000000	0.392841
718.000000	0.393584
719.000000	0.394334
720.000000	0.395014
721.000000	0.395650
722.000000	0.396286
723.000000	0.397002
724.000000	0.397701
725.000000	0.398335
726.000000	0.399014
727.000000	0.399693
728.000000	0.400391
729.000000	0.401051
730.000000	0.401578
731.000000	0.402096
732.000000	0.402659
733.000000	0.403325
734.000000	0.404012
735.000000	0.404573
736.000000	0.405194
737.000000	0.405846
738.000000	0.406403
739.000000	0.406987
740.000000	0.407478
741.000000	0.407978
742.000000	0.408426
743.000000	0.408815
744.000000	0.409312
745.000000	0.409714
746.000000	0.410116
747.000000	0.410555
748.000000	0.410995
749.000000	0.411401
750.000000	0.411721
751.000000	0.412034
752.000000	0.412299
753.000000	0.412554
754.000000	0.412869
755.000000	0.413233
756.000000	0.413565
757.000000	0.413740
758.000000	0.413975
759.000000	0.414225
760.000000	0.414368
761.000000	0.414525
762.000000	0.414676
763.000000	0.414815
764.000000	0.415031
765.000000	0.415068
766.000000	0.415026
767.000000	0.415042
768.000000	0.415086
769.000000	0.415119
770.000000	0.415124
771.000000	0.415113
772.000000	0.415122
773.000000	0.415033
774.000000	0.414857
775.000000	0.414709
776.000000	0.414575
777.000000	0.414403
778.000000	0.414179
779.000000	0.413982
780.000000	0.413829
781.000000	0.413641
782.000000	0.413482
783.000000	0.413421
784.000000	0.413274
785.000000	0.413048
786.000000	0.412753
787.000000	0.412422
788.000000	0.412168
789.000000	0.411886
790.000000	0.411538
791.000000	0.411183
792.000000	0.410883
793.000000	0.410594
794.000000	0.410270
795.000000	0.409900
796.000000	0.409484
797.000000	0.409044
798.000000	0.408652
799.000000	0.408180
800.000000	0.407666
801.000000	0.407193
802.000000	0.406773
803.000000	0.406389
804.000000	0.406051
805.000000	0.405648
806.000000	0.405192
807.000000	0.404778
808.000000	0.404336
809.000000	0.403881
810.000000	0.403388
811.000000	0.402839
812.000000	0.402326
813.000000	0.401781
814.000000	0.401224
815.000000	0.400779
816.000000	0.400323
817.000000	0.399812
818.000000	0.399161
819.000000	0.398702
820.000000	0.398317
821.000000	0.397888
822.000000	0.397523
823.000000	0.397132
824.000000	0.396611
825.000000	0.396027
826.000000	0.395432
827.000000	0.394859
828.000000	0.394362
829.000000	0.393866
830.000000	0.393246
831.000000	0.392623
832.000000	0.392043
833.000000	0.391555
834.000000	0.391113
835.000000	0.390709
836.000000	0.390343
837.000000	0.389918
838.000000	0.389442
839.000000	0.388941
840.000000	0.388383
841.000000	0.387856
842.000000	0.387383
843.000000	0.386916
844.000000	0.386542
845.000000	0.386192
846.000000	0.385723
847.000000	0.385250
848.000000	0.384806
849.000000	0.384425
850.000000	0.384021
851.000000	0.383558
852.000000	0.383092
853.000000	0.382665
854.000000	0.382206
855.000000	0.381802
856.000000	0.381337
857.000000	0.380761
858.000000	0.380372
859.000000	0.380123
860.000000	0.379683
861.000000	0.379192
862.000000	0.378792
863.000000	0.378501
864.000000	0.378149
865.000000	0.377749
866.000000	0.377376
867.000000	0.377100
868.000000	0.376758
869.000000	0.376291
870.000000	0.375837
871.000000	0.375429
872.000000	0.375041
873.000000	0.374625
874.000000	0.374372
875.000000	0.374090
876.000000	0.373776
877.000000	0.373428
878.000000	0.373078
879.000000	0.372784
880.000000	0.372408
881.000000	0.372043
882.000000	0.371747
883.000000	0.371487
884.000000	0.371118
885.000000	0.370802
886.000000	0.370484
887.000000	0.370154
888.000000	0.369817
889.000000	0.369612
890.000000	0.369396
891.000000	0.369199
892.000000	0.368981
893.000000	0.368749
894.000000	0.368613
895.000000	0.368364
896.000000	0.368056
897.000000	0.367800
898.000000	0.367686
899.000000	0.367534
900.000000	0.367336
901.000000	0.367089
902.000000	0.366934
903.000000	0.366868
904.000000	0.366806
905.000000	0.366557
906.000000	0.366361
907.000000	0.366175
908.000000	0.366032
909.000000	0.365841
910.000000	0.365643
911.000000	0.365497
912.000000	0.365434
913.000000	0.365254
914.000000	0.365018
915.000000	0.364859
916.000000	0.364752
917.000000	0.364625
918.000000	0.364500
919.000000	0.364386
920.000000	0.364318
921.000000	0.364225
922.000000	0.364207
923.000000	0.364364
924.000000	0.364300
925.000000	0.364041
926.000000	0.363772
927.000000	0.363728
928.000000	0.363718
929.000000	0.363634
930.000000	0.363462
931.000000	0.363492
932.000000	0.363498
933.000000	0.363430
934.000000	0.363328
935.000000	0.363234
936.000000	0.363296
937.000000	0.363414
938.000000	0.363184
939.000000	0.363083
940.000000	0.363114
941.000000	0.363184
942.000000	0.363291
943.000000	0.363372
944.000000	0.363325
945.000000	0.363520
946.000000	0.363567
947.000000	0.363593
948.000000	0.363713
949.000000	0.363570
950.000000	0.363533
951.000000	0.363597
952.000000	0.363522
953.000000	0.363426
954.000000	0.363344
955.000000	0.363233
956.000000	0.363249
957.000000	0.363210
958.000000	0.363312
959.000000	0.363878
960.000000	0.363861
961.000000	0.363733
962.000000	0.363780
963.000000	0.364002
964.000000	0.364126
965.000000	0.364215
966.000000	0.364226
967.000000	0.364206
968.000000	0.364248
969.000000	0.364210
970.000000	0.364085
971.000000	0.364449
972.000000	0.364946
973.000000	0.365200
974.000000	0.365170
975.000000	0.365138
976.000000	0.365091
977.000000	0.365081
978.000000	0.365626
979.000000	0.366064
980.000000	0.366001
981.000000	0.365881
982.000000	0.366128
983.000000	0.366345
984.000000	0.366509
985.000000	0.366850
986.000000	0.367114
987.000000	0.367234
988.000000	0.367216
989.000000	0.367687
990.000000	0.368031
991.000000	0.368215
992.000000	0.368446
993.000000	0.368696
994.000000	0.368808
995.000000	0.369082
996.000000	0.369609
997.000000	0.370249
998.000000	0.370686
999.000000	0.370899
1000.000000	0.371011
1001.000000	0.370754
1002.000000	0.370547
1003.000000	0.371295
1004.000000	0.371743
1005.000000	0.371150
1006.000000	0.371167
1007.000000	0.371913
1008.000000	0.372626
1009.000000	0.372456
1010.000000	0.372530
1011.000000	0.373721
1012.000000	0.374526
1013.000000	0.374779
1014.000000	0.375161
1015.000000	0.374870
1016.000000	0.374629
1017.000000	0.374972
1018.000000	0.375709
1019.000000	0.376450
1020.000000	0.377940
1021.000000	0.378141
1022.000000	0.377999
1023.000000	0.378377
1024.000000	0.378241
1025.000000	0.378295
1026.000000	0.379077
1027.000000	0.379533
1028.000000	0.380336
1029.000000	0.381204
1030.000000	0.381491
1031.000000	0.382286
1032.000000	0.382847
1033.000000	0.382776
1034.000000	0.383087
1035.000000	0.383703
1036.000000	0.383955
1037.000000	0.383777
1038.000000	0.384315
1039.000000	0.385401
1040.000000	0.386153
1041.000000	0.386889
1042.000000	0.387372
1043.000000	0.387524
1044.000000	0.387975
1045.000000	0.388438
1046.000000	0.388991
1047.000000	0.389956
1048.000000	0.391299
1049.000000	0.391694
1050.000000	0.391996
1051.000000	0.392537
1052.000000	0.392319
1053.000000	0.392571
1054.000000	0.393881
1055.000000	0.394524
1056.000000	0.394788
1057.000000	0.395060
1058.000000	0.395293
1059.000000	0.395887
1060.000000	0.397193
1061.000000	0.398227
1062.000000	0.398664
1063.000000	0.399523
1064.000000	0.400139
1065.000000	0.400034
1066.000000	0.400495
1067.000000	0.401469
1068.000000	0.402001
1069.000000	0.402219
1070.000000	0.402757
1071.000000	0.403458
1072.000000	0.403978
1073.000000	0.404470
1074.000000	0.405230
1075.000000	0.406163
1076.000000	0.407095
1077.000000	0.407821
1078.000000	0.408405
1079.000000	0.409019
1080.000000	0.409259
1081.000000	0.409831
1082.000000	0.410883
1083.000000	0.411647
1084.000000	0.412261
1085.000000	0.412958
1086.000000	0.413732
1087.000000	0.414402
1088.000000	0.414753
1089.000000	0.415426
1090.000000	0.416477
1091.000000	0.416861
1092.000000	0.417383
1093.000000	0.418332
1094.000000	0.418845
1095.000000	0.418749
1096.000000	0.419451
1097.000000	0.420498
1098.000000	0.421301
1099.000000	0.422113
1100.000000	0.423230
1101.000000	0.424561
1102.000000	0.425417
1103.000000	0.426402
1104.000000	0.427177
1105.000000	0.427032
1106.000000	0.427548
1107.000000	0.428537
1108.000000	0.429278
1109.000000	0.430151
1110.000000	0.431143
1111.000000	0.431796
1112.000000	0.432109
1113.000000	0.432815
1114.000000	0.433630
1115.000000	0.434279
1116.000000	0.434946
1117.000000	0.435707
1118.000000	0.436328
1119.000000	0.436998
1120.000000	0.438107
1121.000000	0.438705
1122.000000	0.438824
1123.000000	0.439616
1124.000000	0.440244
1125.000000	0.440910
1126.000000	0.441908
1127.000000	0.442641
1128.000000	0.443224
1129.000000	0.443574
1130.000000	0.444117
1131.000000	0.444550
1132.000000	0.445261
1133.000000	0.446287
1134.000000	0.447077
1135.000000	0.447960
1136.000000	0.448570
1137.000000	0.448946
1138.000000	0.449257
1139.000000	0.449410
1140.000000	0.449897
1141.000000	0.450304
1142.000000	0.450870
1143.000000	0.451778
1144.000000	0.452546
1145.000000	0.452954
1146.000000	0.453397
1147.000000	0.453827
1148.000000	0.453963
1149.000000	0.454359
1150.000000	0.454892
1151.000000	0.455459
1152.000000	0.456155
1153.000000	0.456562
1154.000000	0.456682
1155.000000	0.457116
1156.000000	0.457522
1157.000000	0.457961
1158.000000	0.458605
1159.000000	0.459171
1160.000000	0.459560
1161.000000	0.460036
1162.000000	0.460715
1163.000000	0.461508
1164.000000	0.462157
1165.000000	0.462681
1166.000000	0.463198
1167.000000	0.463589
1168.000000	0.463969
1169.000000	0.464273
1170.000000	0.464761
1171.000000	0.465428
1172.000000	0.466006
1173.000000	0.466522
1174.000000	0.467121
1175.000000	0.467757
1176.000000	0.468197
1177.000000	0.468770
1178.000000	0.469247
1179.000000	0.469440
1180.000000	0.469711
1181.000000	0.470165
1182.000000	0.470586
1183.000000	0.471024
1184.000000	0.471532
1185.000000	0.472020
1186.000000	0.472583
1187.000000	0.472926
1188.000000	0.473129
1189.000000	0.473441
1190.000000	0.473735
1191.000000	0.474089
1192.000000	0.474760
1193.000000	0.475371
1194.000000	0.475672
1195.000000	0.476119
1196.000000	0.476545
1197.000000	0.477008
1198.000000	0.477699
1199.000000	0.478190
1200.000000	0.478591
1201.000000	0.478872
1202.000000	0.479274
1203.000000	0.479638
1204.000000	0.479991
1205.000000	0.480560
1206.000000	0.480908
1207.000000	0.481239
1208.000000	0.481462
1209.000000	0.481670
1210.000000	0.481986
1211.000000	0.482301
1212.000000	0.482559
1213.000000	0.482977
1214.000000	0.483319
1215.000000	0.483433
1216.000000	0.483728
1217.000000	0.484100
1218.000000	0.484406
1219.000000	0.484772
1220.000000	0.485218
1221.000000	0.485420
1222.000000	0.485635
1223.000000	0.485840
1224.000000	0.485963
1225.000000	0.486165
1226.000000	0.486483
1227.000000	0.486691
1228.000000	0.486904
1229.000000	0.487088
1230.000000	0.487195
1231.000000	0.487317
1232.000000	0.487622
1233.000000	0.487995
1234.000000	0.488474
1235.000000	0.488762
1236.000000	0.488773
1237.000000	0.489027
1238.000000	0.489216
1239.000000	0.489395
1240.000000	0.489690
1241.000000	0.490000
1242.000000	0.490046
1243.000000	0.490070
1244.000000	0.490336
1245.000000	0.490769
1246.000000	0.491030
1247.000000	0.491383
1248.000000	0.491653
1249.000000	0.491737
1250.000000	0.491951
1251.000000	0.492251
1252.000000	0.492479
1253.000000	0.492709
1254.000000	0.492898
1255.000000	0.493044
1256.000000	0.493197
1257.000000	0.493296
1258.000000	0.493564
1259.000000	0.493939
1260.000000	0.494221
1261.000000	0.494426
1262.000000	0.494591
1263.000000	0.494720
1264.000000	0.494647
1265.000000	0.494849
1266.000000	0.495111
1267.000000	0.495180
1268.000000	0.495304
1269.000000	0.495470
1270.000000	0.495492
1271.000000	0.495434
1272.000000	0.495718
1273.000000	0.496035
1274.000000	0.496189
1275.000000	0.496374
1276.000000	0.496776
1277.000000	0.496974
1278.000000	0.496827
1279.000000	0.496831
1280.000000	0.496718
1281.000000	0.496672
1282.000000	0.496726
1283.000000	0.496952
1284.000000	0.497224
1285.000000	0.497409
1286.000000	0.497623
1287.000000	0.497736
1288.000000	0.497860
1289.000000	0.497872
1290.000000	0.497788
1291.000000	0.497813
1292.000000	0.497849
1293.000000	0.497834
1294.000000	0.497769
1295.000000	0.497735
1296.000000	0.497606
1297.000000	0.497591
1298.000000	0.497778
1299.000000	0.497864
1300.000000	0.498083
1301.000000	0.498215
1302.000000	0.498093
1303.000000	0.497931
1304.000000	0.497786
1305.000000	0.497578
1306.000000	0.497473
1307.000000	0.497608
1308.000000	0.497651
1309.000000	0.497687
1310.000000	0.497608
1311.000000	0.497464
1312.000000	0.497333
1313.000000	0.497225
1314.000000	0.497014
1315.000000	0.496946
1316.000000	0.497023
1317.000000	0.496854
1318.000000	0.496704
1319.000000	0.496530
1320.000000	0.496205
1321.000000	0.495803
1322.000000	0.495542
1323.000000	0.495489
1324.000000	0.495379
1325.000000	0.495331
1326.000000	0.495264
1327.000000	0.494931
1328.000000	0.494682
1329.000000	0.494388
1330.000000	0.494057
1331.000000	0.493865
1332.000000	0.493903
1333.000000	0.493721
1334.000000	0.493595
1335.000000	0.493551
1336.000000	0.493386
1337.000000	0.493170
1338.000000	0.492975
1339.000000	0.492729
1340.000000	0.492170
1341.000000	0.491873
1342.000000	0.491691
1343.000000	0.491386
1344.000000	0.491216
1345.000000	0.490963
1346.000000	0.490673
1347.000000	0.490250
1348.000000	0.489931
1349.000000	0.489504
1350.000000	0.489076
1351.000000	0.488752
1352.000000	0.488303
1353.000000	0.487928
1354.000000	0.487687
1355.000000	0.487195
1356.000000	0.486751
1357.000000	0.486325
1358.000000	0.485917
1359.000000	0.485640
1360.000000	0.485348
1361.000000	0.485214
1362.000000	0.484946
1363.000000	0.484550
1364.000000	0.484276
1365.000000	0.484074
1366.000000	0.483735
1367.000000	0.483351
1368.000000	0.482929
1369.000000	0.482602
1370.000000	0.481993
1371.000000	0.481227
1372.000000	0.480451
1373.000000	0.479595
1374.000000	0.478757
1375.000000	0.477985
1376.000000	0.477283
1377.000000	0.476387
1378.000000	0.475368
1379.000000	0.474165
1380.000000	0.472881
1381.000000	0.471491
1382.000000	0.469823
1383.000000	0.468198
1384.000000	0.466414
1385.000000	0.464489
1386.000000	0.462606
1387.000000	0.460481
1388.000000	0.458233
1389.000000	0.456050
1390.000000	0.453755
1391.000000	0.451454
1392.000000	0.449310
1393.000000	0.446902
1394.000000	0.444328
1395.000000	0.441828
1396.000000	0.439229
1397.000000	0.436516
1398.000000	0.433762
1399.000000	0.431110
1400.000000	0.428329
1401.000000	0.425654
1402.000000	0.423237
1403.000000	0.420492
1404.000000	0.417789
1405.000000	0.415187
1406.000000	0.412436
1407.000000	0.409749
1408.000000	0.407072
1409.000000	0.404596
1410.000000	0.402295
1411.000000	0.399940
1412.000000	0.397657
1413.000000	0.395506
1414.000000	0.393613
1415.000000	0.392082
1416.000000	0.390842
1417.000000	0.389882
1418.000000	0.388872
1419.000000	0.387966
1420.000000	0.387169
1421.000000	0.386449
1422.000000	0.385638
1423.000000	0.384821
1424.000000	0.383973
1425.000000	0.382984
1426.000000	0.381780
1427.000000	0.380641
1428.000000	0.379452
1429.000000	0.378155
1430.000000	0.377080
1431.000000	0.376167
1432.000000	0.375468
1433.000000	0.374956
1434.000000	0.374645
1435.000000	0.374634
1436.000000	0.374843
1437.000000	0.375220
1438.000000	0.375855
1439.000000	0.376797
1440.000000	0.377893
1441.000000	0.379317
1442.000000	0.380738
1443.000000	0.382223
1444.000000	0.383874
1445.000000	0.385357
1446.000000	0.386665
1447.000000	0.387829
1448.000000	0.388814
1449.000000	0.389735
1450.000000	0.390480
1451.000000	0.391014
1452.000000	0.391440
1453.000000	0.391729
1454.000000	0.391780
1455.000000	0.391912
1456.000000	0.392184
1457.000000	0.392354
1458.000000	0.392503
1459.000000	0.392618
1460.000000	0.392621
1461.000000	0.392587
1462.000000	0.392611
1463.000000	0.392618
1464.000000	0.392638
1465.000000	0.392817
1466.000000	0.393016
1467.000000	0.393180
1468.000000	0.393333
1469.000000	0.393568
1470.000000	0.393929
1471.000000	0.394444
1472.000000	0.394955
1473.000000	0.395564
1474.000000	0.396102
1475.000000	0.396587
1476.000000	0.397270
1477.000000	0.398102
1478.000000	0.398865
1479.000000	0.399707
1480.000000	0.400576
1481.000000	0.401348
1482.000000	0.402106
1483.000000	0.402932
1484.000000	0.403717
1485.000000	0.404512
1486.000000	0.405301
1487.000000	0.406094
1488.000000	0.406952
1489.000000	0.407810
1490.000000	0.408554
1491.000000	0.409307
1492.000000	0.409942
1493.000000	0.410660
1494.000000	0.411315
1495.000000	0.412012
1496.000000	0.412790
1497.000000	0.413530
1498.000000	0.414282
1499.000000	0.415036
1500.000000	0.415772
1501.000000	0.416414
1502.000000	0.416997
1503.000000	0.417695
1504.000000	0.418404
1505.000000	0.418977
1506.000000	0.419507
1507.000000	0.420013
1508.000000	0.420591
1509.000000	0.421237
1510.000000	0.421869
1511.000000	0.422502
1512.000000	0.423035
1513.000000	0.423548
1514.000000	0.424146
1515.000000	0.424651
1516.000000	0.425087
1517.000000	0.425426
1518.000000	0.425823
1519.000000	0.426146
1520.000000	0.426411
1521.000000	0.426756
1522.000000	0.427105
1523.000000	0.427510
1524.000000	0.427878
1525.000000	0.428135
1526.000000	0.428401
1527.000000	0.428727
1528.000000	0.429129
1529.000000	0.429510
1530.000000	0.429721
1531.000000	0.429999
1532.000000	0.430294
1533.000000	0.430554
1534.000000	0.430886
1535.000000	0.431235
1536.000000	0.431498
1537.000000	0.431840
1538.000000	0.432151
1539.000000	0.432258
1540.000000	0.432310
1541.000000	0.432460
1542.000000	0.432732
1543.000000	0.433128
1544.000000	0.433515
1545.000000	0.433791
1546.000000	0.434034
1547.000000	0.434157
1548.000000	0.434244
1549.000000	0.434423
1550.000000	0.434533
1551.000000	0.434660
1552.000000	0.434823
1553.000000	0.434942
1554.000000	0.435012
1555.000000	0.435144
1556.000000	0.435356
1557.000000	0.435536
1558.000000	0.435701
1559.000000	0.435808
1560.000000	0.435871
1561.000000	0.435888
1562.000000	0.435963
1563.000000	0.436139
1564.000000	0.436354
1565.000000	0.436637
1566.000000	0.436636
1567.000000	0.436610
1568.000000	0.436706
1569.000000	0.436783
1570.000000	0.437003
1571.000000	0.437517
1572.000000	0.437686
1573.000000	0.437669
1574.000000	0.437742
1575.000000	0.437690
1576.000000	0.437831
1577.000000	0.438171
1578.000000	0.438300
1579.000000	0.438487
1580.000000	0.438587
1581.000000	0.438577
1582.000000	0.438665
1583.000000	0.438839
1584.000000	0.438882
1585.000000	0.438978
1586.000000	0.439125
1587.000000	0.439169
1588.000000	0.439316
1589.000000	0.439645
1590.000000	0.439809
1591.000000	0.439948
1592.000000	0.440107
1593.000000	0.440337
1594.000000	0.440398
1595.000000	0.440394
1596.000000	0.440483
1597.000000	0.440527
1598.000000	0.440523
1599.000000	0.440686
1600.000000	0.440703
1601.000000	0.440574
1602.000000	0.440660
1603.000000	0.440962
1604.000000	0.441027
1605.000000	0.441092
1606.000000	0.441181
1607.000000	0.441230
1608.000000	0.441252
1609.000000	0.441416
1610.000000	0.441521
1611.000000	0.441479
1612.000000	0.441593
1613.000000	0.442048
1614.000000	0.442193
1615.000000	0.442280
1616.000000	0.442509
1617.000000	0.442610
1618.000000	0.442763
1619.000000	0.443050
1620.000000	0.443195
1621.000000	0.443280
1622.000000	0.443433
1623.000000	0.443495
1624.000000	0.443640
1625.000000	0.443671
1626.000000	0.443653
1627.000000	0.443667
1628.000000	0.443740
1629.000000	0.443756
1630.000000	0.443850
1631.000000	0.443930
1632.000000	0.443988
1633.000000	0.444027
1634.000000	0.444175
1635.000000	0.444457
1636.000000	0.444664
1637.000000	0.444957
1638.000000	0.445119
1639.000000	0.445258
1640.000000	0.445421
1641.000000	0.445669
1642.000000	0.445845
1643.000000	0.446034
1644.000000	0.446209
1645.000000	0.446325
1646.000000	0.446447
1647.000000	0.446622
1648.000000	0.446765
1649.000000	0.447017
1650.000000	0.447250
1651.000000	0.447540
1652.000000	0.447820
1653.000000	0.448020
1654.000000	0.448303
1655.000000	0.448571
1656.000000	0.448658
1657.000000	0.448751
1658.000000	0.448944
1659.000000	0.449149
1660.000000	0.449631
1661.000000	0.450326
1662.000000	0.450752
1663.000000	0.451139
1664.000000	0.451474
1665.000000	0.451651
1666.000000	0.451949
1667.000000	0.452216
1668.000000	0.452408
1669.000000	0.452482
1670.000000	0.452536
1671.000000	0.452685
1672.000000	0.452939
1673.000000	0.453214
1674.000000	0.453437
1675.000000	0.453587
1676.000000	0.453687
1677.000000	0.453774
1678.000000	0.453942
1679.000000	0.454095
1680.000000	0.454260
1681.000000	0.454385
1682.000000	0.454343
1683.000000	0.454428
1684.000000	0.454436
1685.000000	0.454420
1686.000000	0.454619
1687.000000	0.454797
1688.000000	0.454828
1689.000000	0.454982
1690.000000	0.454990
1691.000000	0.455057
1692.000000	0.455164
1693.000000	0.455261
1694.000000	0.455379
1695.000000	0.455578
1696.000000	0.455806
1697.000000	0.455906
1698.000000	0.456194
1699.000000	0.456293
1700.000000	0.455999
1701.000000	0.456147
1702.000000	0.456178
1703.000000	0.456182
1704.000000	0.456629
1705.000000	0.456850
1706.000000	0.456947
1707.000000	0.457040
1708.000000	0.457026
1709.000000	0.456972
1710.000000	0.456940
1711.000000	0.456997
1712.000000	0.457231
1713.000000	0.457266
1714.000000	0.457234
1715.000000	0.457311
1716.000000	0.457377
1717.000000	0.457403
1718.000000	0.457480
1719.000000	0.457498
1720.000000	0.457387
1721.000000	0.457464
1722.000000	0.457783
1723.000000	0.457867
1724.000000	0.457952
1725.000000	0.458025
1726.000000	0.457815
1727.000000	0.457748
1728.000000	0.457622
1729.000000	0.457576
1730.000000	0.457781
1731.000000	0.457869
1732.000000	0.458112
1733.000000	0.458207
1734.000000	0.457909
1735.000000	0.457883
1736.000000	0.457813
1737.000000	0.457897
1738.000000	0.458214
1739.000000	0.458341
1740.000000	0.458433
1741.000000	0.458506
1742.000000	0.458507
1743.000000	0.458631
1744.000000	0.458809
1745.000000	0.458854
1746.000000	0.458848
1747.000000	0.458866
1748.000000	0.458788
1749.000000	0.458714
1750.000000	0.458576
1751.000000	0.458472
1752.000000	0.458551
1753.000000	0.458468
1754.000000	0.458500
1755.000000	0.458674
1756.000000	0.458702
1757.000000	0.458734
1758.000000	0.458730
1759.000000	0.458552
1760.000000	0.458460
1761.000000	0.458332
1762.000000	0.458231
1763.000000	0.458228
1764.000000	0.458150
1765.000000	0.457921
1766.000000	0.457899
1767.000000	0.457938
1768.000000	0.457742
1769.000000	0.457632
1770.000000	0.457622
1771.000000	0.457348
1772.000000	0.457298
1773.000000	0.457463
1774.000000	0.457530
1775.000000	0.457716
1776.000000	0.457707
1777.000000	0.457571
1778.000000	0.457505
1779.000000	0.457289
1780.000000	0.457224
1781.000000	0.457201
1782.000000	0.457275
1783.000000	0.457444
1784.000000	0.457761
1785.000000	0.457984
1786.000000	0.458189
1787.000000	0.458476
1788.000000	0.458694
1789.000000	0.458845
1790.000000	0.458951
1791.000000	0.458922
1792.000000	0.458867
1793.000000	0.458864
1794.000000	0.458837
1795.000000	0.458880
1796.000000	0.459014
1797.000000	0.459068
1798.000000	0.458979
1799.000000	0.459054
1800.000000	0.459375
1801.000000	0.458258
1802.000000	0.458880
1803.000000	0.460271
1804.000000	0.461188
1805.000000	0.462553
1806.000000	0.463218
1807.000000	0.463749
1808.000000	0.463610
1809.000000	0.462736
1810.000000	0.461754
1811.000000	0.461227
1812.000000	0.460429
1813.000000	0.460204
1814.000000	0.460520
1815.000000	0.460892
1816.000000	0.461897
1817.000000	0.461917
1818.000000	0.461693
1819.000000	0.461618
1820.000000	0.462106
1821.000000	0.461453
1822.000000	0.461149
1823.000000	0.461366
1824.000000	0.460953
1825.000000	0.459393
1826.000000	0.458925
1827.000000	0.458542
1828.000000	0.458382
1829.000000	0.459371
1830.000000	0.459976
1831.000000	0.460129
1832.000000	0.460351
1833.000000	0.460217
1834.000000	0.459138
1835.000000	0.458863
1836.000000	0.458801
1837.000000	0.458799
1838.000000	0.458927
1839.000000	0.459174
1840.000000	0.458752
1841.000000	0.457816
1842.000000	0.457552
1843.000000	0.457286
1844.000000	0.456824
1845.000000	0.456695
1846.000000	0.456656
1847.000000	0.456413
1848.000000	0.455531
1849.000000	0.455274
1850.000000	0.453883
1851.000000	0.452868
1852.000000	0.451440
1853.000000	0.450171
1854.000000	0.448593
1855.000000	0.447437
1856.000000	0.446174
1857.000000	0.444783
1858.000000	0.444381
1859.000000	0.444091
1860.000000	0.442368
1861.000000	0.441072
1862.000000	0.439386
1863.000000	0.436825
1864.000000	0.434904
1865.000000	0.433442
1866.000000	0.431423
1867.000000	0.429043
1868.000000	0.427115
1869.000000	0.425064
1870.000000	0.422351
1871.000000	0.419458
1872.000000	0.416636
1873.000000	0.413006
1874.000000	0.408240
1875.000000	0.404418
1876.000000	0.400605
1877.000000	0.395658
1878.000000	0.391423
1879.000000	0.387181
1880.000000	0.382592
1881.000000	0.378051
1882.000000	0.373514
1883.000000	0.368354
1884.000000	0.362834
1885.000000	0.356521
1886.000000	0.350006
1887.000000	0.342933
1888.000000	0.335787
1889.000000	0.328177
1890.000000	0.321553
1891.000000	0.315142
1892.000000	0.308736
1893.000000	0.302676
1894.000000	0.296101
1895.000000	0.289532
1896.000000	0.283149
1897.000000	0.276178
1898.000000	0.268574
1899.000000	0.262168
1900.000000	0.255106
1901.000000	0.248732
1902.000000	0.243968
1903.000000	0.238719
1904.000000	0.234604
1905.000000	0.231572
1906.000000	0.228249
1907.000000	0.225057
1908.000000	0.222420
1909.000000	0.220477
1910.000000	0.218608
1911.000000	0.216938
1912.000000	0.216094
1913.000000	0.215183
1914.000000	0.213909
1915.000000	0.213095
1916.000000	0.212542
1917.000000	0.211868
1918.000000	0.211136
1919.000000	0.210805
1920.000000	0.210733
1921.000000	0.210579
1922.000000	0.210898
1923.000000	0.211458
1924.000000	0.211594
1925.000000	0.212178
1926.000000	0.212802
1927.000000	0.213096
1928.000000	0.213563
1929.000000	0.214438
1930.000000	0.214457
1931.000000	0.214419
1932.000000	0.214876
1933.000000	0.214714
1934.000000	0.215801
1935.000000	0.217288
1936.000000	0.218284
1937.000000	0.219530
1938.000000	0.219926
1939.000000	0.220286
1940.000000	0.220313
1941.000000	0.220471
1942.000000	0.220463
1943.000000	0.220691
1944.000000	0.220580
1945.000000	0.220633
1946.000000	0.221021
1947.000000	0.221230
1948.000000	0.221474
1949.000000	0.221290
1950.000000	0.220586
1951.000000	0.220151
1952.000000	0.219499
1953.000000	0.219376
1954.000000	0.219848
1955.000000	0.220581
1956.000000	0.221363
1957.000000	0.221908
1958.000000	0.221952
1959.000000	0.221788
1960.000000	0.222015
1961.000000	0.222224
1962.000000	0.222561
1963.000000	0.223178
1964.000000	0.224163
1965.000000	0.224426
1966.000000	0.224537
1967.000000	0.224388
1968.000000	0.224032
1969.000000	0.224464
1970.000000	0.225081
1971.000000	0.225826
1972.000000	0.226874
1973.000000	0.227630
1974.000000	0.228224
1975.000000	0.228824
1976.000000	0.229391
1977.000000	0.230158
1978.000000	0.230727
1979.000000	0.231150
1980.000000	0.231769
1981.000000	0.232980
1982.000000	0.234131
1983.000000	0.234931
1984.000000	0.235631
1985.000000	0.236121
1986.000000	0.236746
1987.000000	0.237106
1988.000000	0.238131
1989.000000	0.239320
1990.000000	0.239876
1991.000000	0.240454
1992.000000	0.241257
1993.000000	0.242606
1994.000000	0.244247
1995.000000	0.245275
1996.000000	0.246467
1997.000000	0.247413
1998.000000	0.247479
1999.000000	0.248552
2000.000000	0.250189
2001.000000	0.251616
2002.000000	0.253408
2003.000000	0.255293
2004.000000	0.256434
2005.000000	0.257560
2006.000000	0.258582
2007.000000	0.259330
2008.000000	0.260351
2009.000000	0.261432
2010.000000	0.262493
2011.000000	0.263390
2012.000000	0.264670
2013.000000	0.266050
2014.000000	0.267446
2015.000000	0.269118
2016.000000	0.270768
2017.000000	0.271917
2018.000000	0.273060
2019.000000	0.273873
2020.000000	0.274738
2021.000000	0.276050
2022.000000	0.277634
2023.000000	0.278895
2024.000000	0.280471
2025.000000	0.281845
2026.000000	0.282690
2027.000000	0.283972
2028.000000	0.285106
2029.000000	0.286174
2030.000000	0.287135
2031.000000	0.287994
2032.000000	0.288900
2033.000000	0.290334
2034.000000	0.291501
2035.000000	0.292549
2036.000000	0.293687
2037.000000	0.294998
2038.000000	0.296330
2039.000000	0.297747
2040.000000	0.299661
2041.000000	0.301045
2042.000000	0.302061
2043.000000	0.302948
2044.000000	0.303563
2045.000000	0.304243
2046.000000	0.304925
2047.000000	0.305548
2048.000000	0.305840
2049.000000	0.306722
2050.000000	0.307480
2051.000000	0.308309
2052.000000	0.309266
2053.000000	0.310329
2054.000000	0.311534
2055.000000	0.313117
2056.000000	0.315106
2057.000000	0.316776
2058.000000	0.317980
2059.000000	0.319100
2060.000000	0.320112
2061.000000	0.320748
2062.000000	0.321541
2063.000000	0.322421
2064.000000	0.323308
2065.000000	0.324518
2066.000000	0.325188
2067.000000	0.326198
2068.000000	0.326744
2069.000000	0.326843
2070.000000	0.327192
2071.000000	0.327059
2072.000000	0.327414
2073.000000	0.328411
2074.000000	0.329670
2075.000000	0.330785
2076.000000	0.332673
2077.000000	0.333663
2078.000000	0.333842
2079.000000	0.334463
2080.000000	0.334910
2081.000000	0.335817
2082.000000	0.337028
2083.000000	0.338332
2084.000000	0.339634
2085.000000	0.341373
2086.000000	0.342531
2087.000000	0.343428
2088.000000	0.344418
2089.000000	0.345412
2090.000000	0.346138
2091.000000	0.346702
2092.000000	0.347341
2093.000000	0.347713
2094.000000	0.348279
2095.000000	0.349258
2096.000000	0.349928
2097.000000	0.350161
2098.000000	0.350812
2099.000000	0.351432
2100.000000	0.352337
2101.000000	0.353711
2102.000000	0.354454
2103.000000	0.355483
2104.000000	0.356258
2105.000000	0.356746
2106.000000	0.356984
2107.000000	0.357682
2108.000000	0.357981
2109.000000	0.358704
2110.000000	0.359853
2111.000000	0.360700
2112.000000	0.361335
2113.000000	0.361973
2114.000000	0.362690
2115.000000	0.363136
2116.000000	0.363473
2117.000000	0.363947
2118.000000	0.364121
2119.000000	0.364723
2120.000000	0.364981
2121.000000	0.364826
2122.000000	0.364945
2123.000000	0.365105
2124.000000	0.365207
2125.000000	0.365245
2126.000000	0.365711
2127.000000	0.366477
2128.000000	0.367232
2129.000000	0.368406
2130.000000	0.369210
2131.000000	0.369253
2132.000000	0.368705
2133.000000	0.367896
2134.000000	0.367701
2135.000000	0.367880
2136.000000	0.367889
2137.000000	0.367903
2138.000000	0.368027
2139.000000	0.368008
2140.000000	0.367702
2141.000000	0.367916
2142.000000	0.368340
2143.000000	0.368466
2144.000000	0.369055
2145.000000	0.369517
2146.000000	0.370155
2147.000000	0.370697
2148.000000	0.370754
2149.000000	0.370164
2150.000000	0.368827
2151.000000	0.367523
2152.000000	0.366280
2153.000000	0.365919
2154.000000	0.365764
2155.000000	0.366312
2156.000000	0.366292
2157.000000	0.366494
2158.000000	0.366674
2159.000000	0.366429
2160.000000	0.366987
2161.000000	0.368377
2162.000000	0.369013
2163.000000	0.370129
2164.000000	0.369972
2165.000000	0.368432
2166.000000	0.367190
2167.000000	0.366081
2168.000000	0.365425
2169.000000	0.366019
2170.000000	0.367114
2171.000000	0.368030
2172.000000	0.369883
2173.000000	0.370046
2174.000000	0.369407
2175.000000	0.368850
2176.000000	0.366733
2177.000000	0.365834
2178.000000	0.365724
2179.000000	0.365919
2180.000000	0.366761
2181.000000	0.367344
2182.000000	0.367551
2183.000000	0.367567
2184.000000	0.367459
2185.000000	0.367582
2186.000000	0.367322
2187.000000	0.366185
2188.000000	0.364715
2189.000000	0.362809
2190.000000	0.361562
2191.000000	0.360905
2192.000000	0.360108
2193.000000	0.359656
2194.000000	0.358825
2195.000000	0.357759
2196.000000	0.357464
2197.000000	0.357203
2198.000000	0.356754
2199.000000	0.357679
2200.000000	0.357575
2201.000000	0.355923
2202.000000	0.355427
2203.000000	0.355672
2204.000000	0.354258
2205.000000	0.353603
2206.000000	0.354240
2207.000000	0.351201
2208.000000	0.348271
2209.000000	0.347200
2210.000000	0.345881
2211.000000	0.348010
2212.000000	0.350998
2213.000000	0.352769
2214.000000	0.354563
2215.000000	0.355486
2216.000000	0.354819
2217.000000	0.356193
2218.000000	0.356879
2219.000000	0.358775
2220.000000	0.364344
2221.000000	0.366681
2222.000000	0.368111
2223.000000	0.368938
2224.000000	0.368259
2225.000000	0.366592
2226.000000	0.365670
2227.000000	0.366549
2228.000000	0.368271
2229.000000	0.367549
2230.000000	0.366816
2231.000000	0.365999
2232.000000	0.364950
2233.000000	0.363633
2234.000000	0.362303
2235.000000	0.361353
2236.000000	0.360702
2237.000000	0.360719
2238.000000	0.360115
2239.000000	0.359045
2240.000000	0.358963
2241.000000	0.358569
2242.000000	0.358370
2243.000000	0.359328
2244.000000	0.359851
2245.000000	0.359466
2246.000000	0.360404
2247.000000	0.363157
2248.000000	0.364512
2249.000000	0.366368
2250.000000	0.366416
2251.000000	0.365471
2252.000000	0.362809
2253.000000	0.360868
2254.000000	0.360525
2255.000000	0.360734
2256.000000	0.361974
2257.000000	0.363137
2258.000000	0.362518
2259.000000	0.360204
2260.000000	0.356727
2261.000000	0.352994
2262.000000	0.346742
2263.000000	0.344347
2264.000000	0.343494
2265.000000	0.342337
2266.000000	0.343398
2267.000000	0.342401
2268.000000	0.340970
2269.000000	0.338910
2270.000000	0.336298
2271.000000	0.332586
2272.000000	0.326748
2273.000000	0.322178
2274.000000	0.317616
2275.000000	0.313360
2276.000000	0.309232
2277.000000	0.306301
2278.000000	0.302839
2279.000000	0.299849
2280.000000	0.300201
2281.000000	0.299372
2282.000000	0.298493
2283.000000	0.298926
2284.000000	0.297972
2285.000000	0.297811
2286.000000	0.298491
2287.000000	0.298194
2288.000000	0.296946
2289.000000	0.295245
2290.000000	0.293927
2291.000000	0.294191
2292.000000	0.295017
2293.000000	0.296416
2294.000000	0.297304
2295.000000	0.296914
2296.000000	0.298207
2297.000000	0.300075
2298.000000	0.302904
2299.000000	0.308356
2300.000000	0.310960
2301.000000	0.312228
2302.000000	0.313572
2303.000000	0.313999
2304.000000	0.314585
2305.000000	0.315802
2306.000000	0.316774
2307.000000	0.317190
2308.000000	0.316101
2309.000000	0.317817
2310.000000	0.319142
2311.000000	0.321796
2312.000000	0.323976
2313.000000	0.322966
2314.000000	0.320778
2315.000000	0.315935
2316.000000	0.312985
2317.000000	0.310729
2318.000000	0.309492
2319.000000	0.312404
2320.000000	0.313613
2321.000000	0.314179
2322.000000	0.315031
2323.000000	0.314744
2324.000000	0.313396
2325.000000	0.313069
2326.000000	0.314226
2327.000000	0.311642
2328.000000	0.307961
2329.000000	0.308112
2330.000000	0.306043
2331.000000	0.303190
2332.000000	0.304272
2333.000000	0.301802
2334.000000	0.298307
2335.000000	0.298069
2336.000000	0.300575
2337.000000	0.301014
2338.000000	0.302943
2339.000000	0.303036
2340.000000	0.302194
2341.000000	0.299162
2342.000000	0.292245
2343.000000	0.289606
2344.000000	0.287563
2345.000000	0.286676
2346.000000	0.290707
2347.000000	0.291449
2348.000000	0.291611
2349.000000	0.287011
2350.000000	0.283138
2351.000000	0.282001
2352.000000	0.279367
2353.000000	0.278849
2354.000000	0.279146
2355.000000	0.276243
2356.000000	0.273173
2357.000000	0.271507
2358.000000	0.272655
2359.000000	0.271226
2360.000000	0.270137
2361.000000	0.270959
2362.000000	0.267237
2363.000000	0.264299
2364.000000	0.259931
2365.000000	0.252271
2366.000000	0.249038
2367.000000	0.248888
2368.000000	0.250109
2369.000000	0.253867
2370.000000	0.254399
2371.000000	0.251589
2372.000000	0.249486
2373.000000	0.246925
2374.000000	0.244576
2375.000000	0.243866
2376.000000	0.243677
2377.000000	0.242389
2378.000000	0.241957
2379.000000	0.242070
2380.000000	0.235569
2381.000000	0.229335
2382.000000	0.224682
2383.000000	0.217511
2384.000000	0.217413
2385.000000	0.217369
2386.000000	0.215939
2387.000000	0.221971
2388.000000	0.223263
2389.000000	0.223030
2390.000000	0.226450
2391.000000	0.222366
2392.000000	0.219084
2393.000000	0.216879
2394.000000	0.210765
2395.000000	0.204252
2396.000000	0.196717
2397.000000	0.196456
2398.000000	0.201455
2399.000000	0.205302
2400.000000	0.211626
2401.000000	0.216426
2402.000000	0.216050
2403.000000	0.216528
2404.000000	0.222528
2405.000000	0.222646
2406.000000	0.221200
2407.000000	0.220463
2408.000000	0.212909
2409.000000	0.210400
2410.000000	0.206653
2411.000000	0.198519
2412.000000	0.190075
2413.000000	0.187398
2414.000000	0.190771
2415.000000	0.192339
2416.000000	0.203817
2417.000000	0.205084
2418.000000	0.190990
2419.000000	0.180858
2420.000000	0.163139
2421.000000	0.151668
2422.000000	0.151068
2423.000000	0.161799
2424.000000	0.182754
2425.000000	0.195468
2426.000000	0.205387
2427.000000	0.202769
2428.000000	0.193701
2429.000000	0.191141
2430.000000	0.196541
2431.000000	0.208256
2432.000000	0.210219
2433.000000	0.223373
2434.000000	0.238149
2435.000000	0.230168
2436.000000	0.229616
2437.000000	0.223785
2438.000000	0.203098
2439.000000	0.195492
2440.000000	0.195107
2441.000000	0.194597
2442.000000	0.203291
2443.000000	0.217342
2444.000000	0.217111
2445.000000	0.212659
2446.000000	0.212684
2447.000000	0.202566
2448.000000	0.209437
2449.000000	0.233870
2450.000000	0.231680
2451.000000	0.227316
2452.000000	0.219708
2453.000000	0.186776
2454.000000	0.167430
2455.000000	0.152074
2456.000000	0.138453
2457.000000	0.137622
2458.000000	0.135387
2459.000000	0.148408
2460.000000	0.164579
2461.000000	0.175396
2462.000000	0.190361
2463.000000	0.189719
2464.000000	0.188962
2465.000000	0.187147
2466.000000	0.176556
2467.000000	0.179422
2468.000000	0.166540
2469.000000	0.142477
2470.000000	0.140146
2471.000000	0.136709
2472.000000	0.145847
2473.000000	0.180083
2474.000000	0.193531
2475.000000	0.186620
2476.000000	0.175447
2477.000000	0.154064
2478.000000	0.148289
2479.000000	0.158599
2480.000000	0.158856
2481.000000	0.154817
2482.000000	0.145651
2483.000000	0.146897
2484.000000	0.146236
2485.000000	0.159596
2486.000000	0.194708
2487.000000	0.196404
2488.000000	0.230042
2489.000000	0.277053
2490.000000	0.265354
2491.000000	0.262292
2492.000000	0.231275
2493.000000	0.153429
2494.000000	0.118513
2495.000000	0.083342
2496.000000	0.067841
2497.000000	0.090924
2498.000000	0.082656
2499.000000	0.080916
2500.000000	0.077834
