# Wavelength	NAu-2-30_HEX-30_FV7-40_00000.asd.rts.txt
350.000000	0.144618
351.000000	0.126219
352.000000	0.104391
353.000000	0.106684
354.000000	0.133494
355.000000	0.135265
356.000000	0.128134
357.000000	0.123020
358.000000	0.127302
359.000000	0.137867
360.000000	0.148375
361.000000	0.152243
362.000000	0.146046
363.000000	0.139726
364.000000	0.140063
365.000000	0.147890
366.000000	0.146950
367.000000	0.138306
368.000000	0.137940
369.000000	0.142696
370.000000	0.145850
371.000000	0.141626
372.000000	0.143474
373.000000	0.144513
374.000000	0.141514
375.000000	0.146443
376.000000	0.143438
377.000000	0.135072
378.000000	0.142078
379.000000	0.148452
380.000000	0.150402
381.000000	0.149114
382.000000	0.151015
383.000000	0.152561
384.000000	0.151783
385.000000	0.153866
386.000000	0.154723
387.000000	0.153514
388.000000	0.152370
389.000000	0.151852
390.000000	0.152389
391.000000	0.153868
392.000000	0.154358
393.000000	0.154237
394.000000	0.154119
395.000000	0.154103
396.000000	0.154412
397.000000	0.155027
398.000000	0.155820
399.000000	0.155878
400.000000	0.155350
401.000000	0.154877
402.000000	0.156944
403.000000	0.159013
404.000000	0.158923
405.000000	0.159004
406.000000	0.158740
407.000000	0.158204
408.000000	0.158689
409.000000	0.158874
410.000000	0.158972
411.000000	0.160002
412.000000	0.159828
413.000000	0.159691
414.000000	0.160917
415.000000	0.160449
416.000000	0.160135
417.000000	0.161068
418.000000	0.162107
419.000000	0.163009
420.000000	0.163559
421.000000	0.163552
422.000000	0.163287
423.000000	0.163073
424.000000	0.163259
425.000000	0.163964
426.000000	0.164643
427.000000	0.164965
428.000000	0.165534
429.000000	0.165932
430.000000	0.166082
431.000000	0.166323
432.000000	0.166690
433.000000	0.166963
434.000000	0.166904
435.000000	0.167429
436.000000	0.167991
437.000000	0.168002
438.000000	0.168174
439.000000	0.168197
440.000000	0.168156
441.000000	0.168859
442.000000	0.169250
443.000000	0.169264
444.000000	0.169626
445.000000	0.169841
446.000000	0.169865
447.000000	0.169757
448.000000	0.170495
449.000000	0.171182
450.000000	0.171298
451.000000	0.171806
452.000000	0.172451
453.000000	0.172903
454.000000	0.172778
455.000000	0.173259
456.000000	0.174119
457.000000	0.174438
458.000000	0.174493
459.000000	0.174593
460.000000	0.174989
461.000000	0.175522
462.000000	0.175845
463.000000	0.175890
464.000000	0.176508
465.000000	0.176798
466.000000	0.176800
467.000000	0.177225
468.000000	0.177468
469.000000	0.177714
470.000000	0.178319
471.000000	0.178443
472.000000	0.178596
473.000000	0.179087
474.000000	0.179300
475.000000	0.179511
476.000000	0.179879
477.000000	0.180206
478.000000	0.180473
479.000000	0.180850
480.000000	0.181314
481.000000	0.181410
482.000000	0.181485
483.000000	0.181735
484.000000	0.181977
485.000000	0.182377
486.000000	0.182968
487.000000	0.183072
488.000000	0.183084
489.000000	0.183231
490.000000	0.183663
491.000000	0.183935
492.000000	0.184108
493.000000	0.184261
494.000000	0.184282
495.000000	0.184452
496.000000	0.184852
497.000000	0.185050
498.000000	0.185107
499.000000	0.185185
500.000000	0.185455
501.000000	0.185747
502.000000	0.185986
503.000000	0.186078
504.000000	0.186232
505.000000	0.186438
506.000000	0.186659
507.000000	0.186934
508.000000	0.187286
509.000000	0.187664
510.000000	0.187960
511.000000	0.188322
512.000000	0.188723
513.000000	0.188951
514.000000	0.189236
515.000000	0.189583
516.000000	0.189892
517.000000	0.190252
518.000000	0.190669
519.000000	0.191067
520.000000	0.191431
521.000000	0.191821
522.000000	0.192268
523.000000	0.192755
524.000000	0.193251
525.000000	0.193764
526.000000	0.194362
527.000000	0.195054
528.000000	0.195772
529.000000	0.196487
530.000000	0.197260
531.000000	0.198175
532.000000	0.199160
533.000000	0.199990
534.000000	0.200932
535.000000	0.201970
536.000000	0.202821
537.000000	0.203716
538.000000	0.204620
539.000000	0.205403
540.000000	0.206244
541.000000	0.207041
542.000000	0.207735
543.000000	0.208496
544.000000	0.209293
545.000000	0.210048
546.000000	0.210773
547.000000	0.211593
548.000000	0.212457
549.000000	0.213114
550.000000	0.213927
551.000000	0.214868
552.000000	0.215776
553.000000	0.216866
554.000000	0.217956
555.000000	0.218945
556.000000	0.220063
557.000000	0.221273
558.000000	0.222605
559.000000	0.223890
560.000000	0.225050
561.000000	0.226194
562.000000	0.227409
563.000000	0.228626
564.000000	0.229806
565.000000	0.230846
566.000000	0.231862
567.000000	0.232825
568.000000	0.233712
569.000000	0.234615
570.000000	0.235465
571.000000	0.236223
572.000000	0.236881
573.000000	0.237504
574.000000	0.238086
575.000000	0.238638
576.000000	0.239074
577.000000	0.239446
578.000000	0.239855
579.000000	0.240264
580.000000	0.240587
581.000000	0.240812
582.000000	0.241060
583.000000	0.241222
584.000000	0.241307
585.000000	0.241390
586.000000	0.241501
587.000000	0.241576
588.000000	0.241553
589.000000	0.241536
590.000000	0.241455
591.000000	0.241294
592.000000	0.241219
593.000000	0.241135
594.000000	0.241007
595.000000	0.240871
596.000000	0.240628
597.000000	0.240360
598.000000	0.240129
599.000000	0.239853
600.000000	0.239548
601.000000	0.239194
602.000000	0.238916
603.000000	0.238581
604.000000	0.238202
605.000000	0.238057
606.000000	0.237804
607.000000	0.237461
608.000000	0.237261
609.000000	0.237089
610.000000	0.236874
611.000000	0.236570
612.000000	0.236251
613.000000	0.235926
614.000000	0.235635
615.000000	0.235383
616.000000	0.235162
617.000000	0.234932
618.000000	0.234694
619.000000	0.234350
620.000000	0.233989
621.000000	0.233800
622.000000	0.233571
623.000000	0.233344
624.000000	0.233160
625.000000	0.232918
626.000000	0.232667
627.000000	0.232434
628.000000	0.232201
629.000000	0.232127
630.000000	0.232071
631.000000	0.231952
632.000000	0.231899
633.000000	0.231886
634.000000	0.231851
635.000000	0.231851
636.000000	0.231868
637.000000	0.231863
638.000000	0.231809
639.000000	0.231820
640.000000	0.231926
641.000000	0.231966
642.000000	0.231923
643.000000	0.231885
644.000000	0.231965
645.000000	0.232058
646.000000	0.232158
647.000000	0.232252
648.000000	0.232379
649.000000	0.232549
650.000000	0.232747
651.000000	0.232989
652.000000	0.233171
653.000000	0.233365
654.000000	0.233649
655.000000	0.233881
656.000000	0.234156
657.000000	0.234508
658.000000	0.234794
659.000000	0.235093
660.000000	0.235430
661.000000	0.235764
662.000000	0.236113
663.000000	0.236510
664.000000	0.236911
665.000000	0.237355
666.000000	0.237861
667.000000	0.238396
668.000000	0.238842
669.000000	0.239303
670.000000	0.239856
671.000000	0.240480
672.000000	0.241139
673.000000	0.241775
674.000000	0.242330
675.000000	0.242947
676.000000	0.243601
677.000000	0.244237
678.000000	0.244908
679.000000	0.245590
680.000000	0.246271
681.000000	0.246960
682.000000	0.247728
683.000000	0.248501
684.000000	0.249234
685.000000	0.250016
686.000000	0.250859
687.000000	0.251707
688.000000	0.252613
689.000000	0.253492
690.000000	0.254336
691.000000	0.255271
692.000000	0.256207
693.000000	0.257157
694.000000	0.258097
695.000000	0.259082
696.000000	0.260092
697.000000	0.261080
698.000000	0.262161
699.000000	0.263296
700.000000	0.264426
701.000000	0.265498
702.000000	0.266588
703.000000	0.267713
704.000000	0.268859
705.000000	0.270033
706.000000	0.271195
707.000000	0.272373
708.000000	0.273574
709.000000	0.274731
710.000000	0.275835
711.000000	0.277039
712.000000	0.278286
713.000000	0.279553
714.000000	0.280813
715.000000	0.282084
716.000000	0.283345
717.000000	0.284537
718.000000	0.285715
719.000000	0.286881
720.000000	0.288038
721.000000	0.289168
722.000000	0.290295
723.000000	0.291475
724.000000	0.292648
725.000000	0.293770
726.000000	0.294940
727.000000	0.296150
728.000000	0.297285
729.000000	0.298418
730.000000	0.299566
731.000000	0.300715
732.000000	0.301840
733.000000	0.302961
734.000000	0.304046
735.000000	0.305057
736.000000	0.306124
737.000000	0.307177
738.000000	0.308138
739.000000	0.309106
740.000000	0.310011
741.000000	0.310989
742.000000	0.311941
743.000000	0.312808
744.000000	0.313661
745.000000	0.314453
746.000000	0.315273
747.000000	0.316128
748.000000	0.316926
749.000000	0.317715
750.000000	0.318477
751.000000	0.319104
752.000000	0.319752
753.000000	0.320449
754.000000	0.321088
755.000000	0.321743
756.000000	0.322409
757.000000	0.323014
758.000000	0.323614
759.000000	0.324210
760.000000	0.324736
761.000000	0.325296
762.000000	0.325745
763.000000	0.326115
764.000000	0.326622
765.000000	0.327084
766.000000	0.327548
767.000000	0.328063
768.000000	0.328547
769.000000	0.328918
770.000000	0.329207
771.000000	0.329594
772.000000	0.329980
773.000000	0.330304
774.000000	0.330657
775.000000	0.330981
776.000000	0.331277
777.000000	0.331528
778.000000	0.331710
779.000000	0.331893
780.000000	0.332093
781.000000	0.332253
782.000000	0.332425
783.000000	0.332694
784.000000	0.332941
785.000000	0.333147
786.000000	0.333365
787.000000	0.333592
788.000000	0.333744
789.000000	0.333805
790.000000	0.333802
791.000000	0.333847
792.000000	0.333971
793.000000	0.334124
794.000000	0.334254
795.000000	0.334315
796.000000	0.334367
797.000000	0.334436
798.000000	0.334531
799.000000	0.334651
800.000000	0.334716
801.000000	0.334669
802.000000	0.334704
803.000000	0.334742
804.000000	0.334772
805.000000	0.334808
806.000000	0.334745
807.000000	0.334688
808.000000	0.334675
809.000000	0.334646
810.000000	0.334644
811.000000	0.334674
812.000000	0.334661
813.000000	0.334659
814.000000	0.334666
815.000000	0.334662
816.000000	0.334640
817.000000	0.334649
818.000000	0.334648
819.000000	0.334718
820.000000	0.334721
821.000000	0.334585
822.000000	0.334511
823.000000	0.334409
824.000000	0.334292
825.000000	0.334310
826.000000	0.334253
827.000000	0.334142
828.000000	0.334055
829.000000	0.333979
830.000000	0.333827
831.000000	0.333696
832.000000	0.333601
833.000000	0.333551
834.000000	0.333514
835.000000	0.333482
836.000000	0.333365
837.000000	0.333244
838.000000	0.333156
839.000000	0.333059
840.000000	0.333050
841.000000	0.333048
842.000000	0.332928
843.000000	0.332780
844.000000	0.332686
845.000000	0.332580
846.000000	0.332317
847.000000	0.332138
848.000000	0.332041
849.000000	0.331984
850.000000	0.331845
851.000000	0.331706
852.000000	0.331628
853.000000	0.331526
854.000000	0.331292
855.000000	0.331131
856.000000	0.331078
857.000000	0.330862
858.000000	0.330735
859.000000	0.330683
860.000000	0.330476
861.000000	0.330299
862.000000	0.330201
863.000000	0.330085
864.000000	0.329889
865.000000	0.329673
866.000000	0.329512
867.000000	0.329412
868.000000	0.329271
869.000000	0.329000
870.000000	0.328680
871.000000	0.328534
872.000000	0.328392
873.000000	0.328113
874.000000	0.327912
875.000000	0.327688
876.000000	0.327470
877.000000	0.327248
878.000000	0.326907
879.000000	0.326653
880.000000	0.326443
881.000000	0.326236
882.000000	0.326051
883.000000	0.325843
884.000000	0.325505
885.000000	0.325272
886.000000	0.325080
887.000000	0.324889
888.000000	0.324658
889.000000	0.324468
890.000000	0.324219
891.000000	0.323976
892.000000	0.323599
893.000000	0.323282
894.000000	0.323212
895.000000	0.323097
896.000000	0.322928
897.000000	0.322762
898.000000	0.322653
899.000000	0.322418
900.000000	0.322081
901.000000	0.321712
902.000000	0.321559
903.000000	0.321436
904.000000	0.321294
905.000000	0.321014
906.000000	0.320653
907.000000	0.320370
908.000000	0.320206
909.000000	0.319886
910.000000	0.319551
911.000000	0.319346
912.000000	0.319324
913.000000	0.319130
914.000000	0.318895
915.000000	0.318644
916.000000	0.318166
917.000000	0.317920
918.000000	0.317742
919.000000	0.317459
920.000000	0.317269
921.000000	0.317012
922.000000	0.316737
923.000000	0.316547
924.000000	0.316268
925.000000	0.315965
926.000000	0.315695
927.000000	0.315335
928.000000	0.315007
929.000000	0.314754
930.000000	0.314557
931.000000	0.314213
932.000000	0.313960
933.000000	0.313807
934.000000	0.313384
935.000000	0.312940
936.000000	0.312640
937.000000	0.312422
938.000000	0.312050
939.000000	0.311872
940.000000	0.311822
941.000000	0.311729
942.000000	0.311405
943.000000	0.311018
944.000000	0.310640
945.000000	0.310539
946.000000	0.310301
947.000000	0.310044
948.000000	0.309911
949.000000	0.309633
950.000000	0.309340
951.000000	0.309073
952.000000	0.308894
953.000000	0.308821
954.000000	0.308635
955.000000	0.308196
956.000000	0.307962
957.000000	0.307760
958.000000	0.307526
959.000000	0.307350
960.000000	0.307110
961.000000	0.306810
962.000000	0.306478
963.000000	0.306227
964.000000	0.306060
965.000000	0.305957
966.000000	0.305767
967.000000	0.305525
968.000000	0.305229
969.000000	0.304822
970.000000	0.304383
971.000000	0.304009
972.000000	0.303974
973.000000	0.304115
974.000000	0.303942
975.000000	0.303785
976.000000	0.303522
977.000000	0.303106
978.000000	0.302974
979.000000	0.302927
980.000000	0.302684
981.000000	0.302450
982.000000	0.302228
983.000000	0.302014
984.000000	0.301844
985.000000	0.301648
986.000000	0.301572
987.000000	0.301458
988.000000	0.301089
989.000000	0.300638
990.000000	0.300447
991.000000	0.300419
992.000000	0.300361
993.000000	0.300295
994.000000	0.300174
995.000000	0.300189
996.000000	0.300245
997.000000	0.299987
998.000000	0.299892
999.000000	0.300098
1000.000000	0.299858
1001.000000	0.300138
1002.000000	0.299859
1003.000000	0.299850
1004.000000	0.299961
1005.000000	0.300912
1006.000000	0.301107
1007.000000	0.301011
1008.000000	0.300917
1009.000000	0.300563
1010.000000	0.300010
1011.000000	0.300361
1012.000000	0.300404
1013.000000	0.300370
1014.000000	0.300556
1015.000000	0.299852
1016.000000	0.299798
1017.000000	0.299865
1018.000000	0.299340
1019.000000	0.299198
1020.000000	0.299189
1021.000000	0.298936
1022.000000	0.298998
1023.000000	0.299286
1024.000000	0.299410
1025.000000	0.299988
1026.000000	0.300333
1027.000000	0.300290
1028.000000	0.300395
1029.000000	0.299900
1030.000000	0.299407
1031.000000	0.299257
1032.000000	0.299325
1033.000000	0.299374
1034.000000	0.299465
1035.000000	0.299747
1036.000000	0.300059
1037.000000	0.300641
1038.000000	0.300575
1039.000000	0.300450
1040.000000	0.299988
1041.000000	0.299699
1042.000000	0.299771
1043.000000	0.299785
1044.000000	0.300021
1045.000000	0.300301
1046.000000	0.300197
1047.000000	0.300471
1048.000000	0.301423
1049.000000	0.301594
1050.000000	0.301321
1051.000000	0.301300
1052.000000	0.301033
1053.000000	0.300886
1054.000000	0.300954
1055.000000	0.301164
1056.000000	0.301270
1057.000000	0.301898
1058.000000	0.302791
1059.000000	0.303081
1060.000000	0.303468
1061.000000	0.303337
1062.000000	0.302733
1063.000000	0.302946
1064.000000	0.303142
1065.000000	0.303451
1066.000000	0.303826
1067.000000	0.304515
1068.000000	0.304774
1069.000000	0.304712
1070.000000	0.305013
1071.000000	0.305527
1072.000000	0.305825
1073.000000	0.306334
1074.000000	0.306674
1075.000000	0.306530
1076.000000	0.306369
1077.000000	0.306812
1078.000000	0.307033
1079.000000	0.307152
1080.000000	0.307464
1081.000000	0.307555
1082.000000	0.307246
1083.000000	0.307334
1084.000000	0.307758
1085.000000	0.308011
1086.000000	0.308277
1087.000000	0.308533
1088.000000	0.308496
1089.000000	0.308672
1090.000000	0.308881
1091.000000	0.309318
1092.000000	0.309504
1093.000000	0.309761
1094.000000	0.309941
1095.000000	0.309686
1096.000000	0.310090
1097.000000	0.311023
1098.000000	0.311440
1099.000000	0.311956
1100.000000	0.312206
1101.000000	0.311886
1102.000000	0.311882
1103.000000	0.311838
1104.000000	0.312012
1105.000000	0.312368
1106.000000	0.312657
1107.000000	0.313211
1108.000000	0.313417
1109.000000	0.313286
1110.000000	0.313357
1111.000000	0.313513
1112.000000	0.313485
1113.000000	0.313898
1114.000000	0.314921
1115.000000	0.315192
1116.000000	0.315237
1117.000000	0.315431
1118.000000	0.315236
1119.000000	0.315298
1120.000000	0.315807
1121.000000	0.315932
1122.000000	0.315960
1123.000000	0.316099
1124.000000	0.315703
1125.000000	0.315736
1126.000000	0.315980
1127.000000	0.316088
1128.000000	0.316231
1129.000000	0.316631
1130.000000	0.316803
1131.000000	0.316762
1132.000000	0.316893
1133.000000	0.317159
1134.000000	0.317368
1135.000000	0.317471
1136.000000	0.317710
1137.000000	0.318199
1138.000000	0.318262
1139.000000	0.318190
1140.000000	0.318317
1141.000000	0.317982
1142.000000	0.318115
1143.000000	0.318899
1144.000000	0.319296
1145.000000	0.319410
1146.000000	0.319596
1147.000000	0.319531
1148.000000	0.318841
1149.000000	0.318876
1150.000000	0.319216
1151.000000	0.319411
1152.000000	0.319918
1153.000000	0.319989
1154.000000	0.319637
1155.000000	0.319555
1156.000000	0.319371
1157.000000	0.319350
1158.000000	0.319586
1159.000000	0.319590
1160.000000	0.319441
1161.000000	0.319405
1162.000000	0.319370
1163.000000	0.319451
1164.000000	0.319739
1165.000000	0.319848
1166.000000	0.319910
1167.000000	0.319857
1168.000000	0.319875
1169.000000	0.319808
1170.000000	0.319925
1171.000000	0.320280
1172.000000	0.320456
1173.000000	0.320546
1174.000000	0.320670
1175.000000	0.320768
1176.000000	0.320776
1177.000000	0.320792
1178.000000	0.320891
1179.000000	0.320958
1180.000000	0.320946
1181.000000	0.321045
1182.000000	0.321187
1183.000000	0.321207
1184.000000	0.321211
1185.000000	0.321230
1186.000000	0.321261
1187.000000	0.321259
1188.000000	0.321229
1189.000000	0.321199
1190.000000	0.321224
1191.000000	0.321218
1192.000000	0.321238
1193.000000	0.321418
1194.000000	0.321581
1195.000000	0.321682
1196.000000	0.321778
1197.000000	0.321857
1198.000000	0.321871
1199.000000	0.321917
1200.000000	0.321919
1201.000000	0.322097
1202.000000	0.322148
1203.000000	0.322139
1204.000000	0.322278
1205.000000	0.322380
1206.000000	0.322344
1207.000000	0.322378
1208.000000	0.322311
1209.000000	0.322040
1210.000000	0.322067
1211.000000	0.322313
1212.000000	0.322357
1213.000000	0.322503
1214.000000	0.322539
1215.000000	0.322321
1216.000000	0.322273
1217.000000	0.322286
1218.000000	0.322283
1219.000000	0.322355
1220.000000	0.322383
1221.000000	0.322460
1222.000000	0.322480
1223.000000	0.322444
1224.000000	0.322556
1225.000000	0.322555
1226.000000	0.322410
1227.000000	0.322321
1228.000000	0.322388
1229.000000	0.322512
1230.000000	0.322803
1231.000000	0.322918
1232.000000	0.323211
1233.000000	0.323345
1234.000000	0.323247
1235.000000	0.323268
1236.000000	0.323189
1237.000000	0.323221
1238.000000	0.323242
1239.000000	0.323339
1240.000000	0.323540
1241.000000	0.323707
1242.000000	0.323696
1243.000000	0.323653
1244.000000	0.323664
1245.000000	0.323620
1246.000000	0.323768
1247.000000	0.324088
1248.000000	0.324160
1249.000000	0.324136
1250.000000	0.324113
1251.000000	0.324137
1252.000000	0.324189
1253.000000	0.324401
1254.000000	0.324407
1255.000000	0.324288
1256.000000	0.324239
1257.000000	0.324172
1258.000000	0.324128
1259.000000	0.324104
1260.000000	0.324080
1261.000000	0.323833
1262.000000	0.323763
1263.000000	0.323789
1264.000000	0.323893
1265.000000	0.324146
1266.000000	0.324325
1267.000000	0.324343
1268.000000	0.324403
1269.000000	0.324342
1270.000000	0.324342
1271.000000	0.324439
1272.000000	0.324502
1273.000000	0.324709
1274.000000	0.324981
1275.000000	0.325090
1276.000000	0.325253
1277.000000	0.325351
1278.000000	0.325135
1279.000000	0.325111
1280.000000	0.325145
1281.000000	0.325090
1282.000000	0.325028
1283.000000	0.325100
1284.000000	0.325132
1285.000000	0.325208
1286.000000	0.325365
1287.000000	0.325494
1288.000000	0.325579
1289.000000	0.325558
1290.000000	0.325554
1291.000000	0.325621
1292.000000	0.325626
1293.000000	0.325594
1294.000000	0.325516
1295.000000	0.325409
1296.000000	0.325329
1297.000000	0.325226
1298.000000	0.325270
1299.000000	0.325497
1300.000000	0.325658
1301.000000	0.325730
1302.000000	0.325654
1303.000000	0.325434
1304.000000	0.325297
1305.000000	0.325245
1306.000000	0.325169
1307.000000	0.325138
1308.000000	0.325184
1309.000000	0.325278
1310.000000	0.325276
1311.000000	0.325308
1312.000000	0.325360
1313.000000	0.325355
1314.000000	0.325279
1315.000000	0.325338
1316.000000	0.325447
1317.000000	0.325417
1318.000000	0.325473
1319.000000	0.325473
1320.000000	0.325328
1321.000000	0.325256
1322.000000	0.325137
1323.000000	0.324940
1324.000000	0.324986
1325.000000	0.324937
1326.000000	0.324807
1327.000000	0.324837
1328.000000	0.324937
1329.000000	0.324887
1330.000000	0.324762
1331.000000	0.324724
1332.000000	0.324690
1333.000000	0.324665
1334.000000	0.324861
1335.000000	0.324910
1336.000000	0.324808
1337.000000	0.324751
1338.000000	0.324602
1339.000000	0.324535
1340.000000	0.324391
1341.000000	0.324267
1342.000000	0.324125
1343.000000	0.323900
1344.000000	0.323854
1345.000000	0.323981
1346.000000	0.324228
1347.000000	0.324382
1348.000000	0.324318
1349.000000	0.324081
1350.000000	0.323972
1351.000000	0.323762
1352.000000	0.323665
1353.000000	0.323677
1354.000000	0.323495
1355.000000	0.323260
1356.000000	0.323097
1357.000000	0.322983
1358.000000	0.322941
1359.000000	0.322900
1360.000000	0.322859
1361.000000	0.322877
1362.000000	0.322807
1363.000000	0.322677
1364.000000	0.322639
1365.000000	0.322603
1366.000000	0.322567
1367.000000	0.322595
1368.000000	0.322450
1369.000000	0.322350
1370.000000	0.322176
1371.000000	0.321986
1372.000000	0.321811
1373.000000	0.321735
1374.000000	0.321639
1375.000000	0.321396
1376.000000	0.321353
1377.000000	0.321300
1378.000000	0.321170
1379.000000	0.321000
1380.000000	0.320667
1381.000000	0.320205
1382.000000	0.319693
1383.000000	0.319313
1384.000000	0.318912
1385.000000	0.318534
1386.000000	0.318294
1387.000000	0.317984
1388.000000	0.317523
1389.000000	0.316955
1390.000000	0.316411
1391.000000	0.315751
1392.000000	0.315085
1393.000000	0.314386
1394.000000	0.313722
1395.000000	0.312923
1396.000000	0.312066
1397.000000	0.311166
1398.000000	0.310108
1399.000000	0.309163
1400.000000	0.308246
1401.000000	0.307249
1402.000000	0.306287
1403.000000	0.305274
1404.000000	0.304350
1405.000000	0.303420
1406.000000	0.302624
1407.000000	0.301930
1408.000000	0.301126
1409.000000	0.300398
1410.000000	0.299757
1411.000000	0.299172
1412.000000	0.298606
1413.000000	0.298071
1414.000000	0.297599
1415.000000	0.297266
1416.000000	0.297122
1417.000000	0.296993
1418.000000	0.296702
1419.000000	0.296307
1420.000000	0.295722
1421.000000	0.295314
1422.000000	0.295068
1423.000000	0.294899
1424.000000	0.294706
1425.000000	0.294368
1426.000000	0.293965
1427.000000	0.293688
1428.000000	0.293331
1429.000000	0.293032
1430.000000	0.292870
1431.000000	0.292548
1432.000000	0.292275
1433.000000	0.292152
1434.000000	0.291891
1435.000000	0.291565
1436.000000	0.291376
1437.000000	0.291194
1438.000000	0.291002
1439.000000	0.290921
1440.000000	0.290859
1441.000000	0.290757
1442.000000	0.290759
1443.000000	0.290784
1444.000000	0.290903
1445.000000	0.291015
1446.000000	0.291212
1447.000000	0.291424
1448.000000	0.291540
1449.000000	0.291726
1450.000000	0.292039
1451.000000	0.292374
1452.000000	0.292682
1453.000000	0.292929
1454.000000	0.293039
1455.000000	0.293146
1456.000000	0.293242
1457.000000	0.293330
1458.000000	0.293484
1459.000000	0.293514
1460.000000	0.293576
1461.000000	0.293702
1462.000000	0.293652
1463.000000	0.293612
1464.000000	0.293709
1465.000000	0.293833
1466.000000	0.293943
1467.000000	0.294106
1468.000000	0.294283
1469.000000	0.294425
1470.000000	0.294464
1471.000000	0.294540
1472.000000	0.294635
1473.000000	0.294789
1474.000000	0.294951
1475.000000	0.295153
1476.000000	0.295298
1477.000000	0.295471
1478.000000	0.295822
1479.000000	0.296076
1480.000000	0.296288
1481.000000	0.296532
1482.000000	0.296798
1483.000000	0.297017
1484.000000	0.297278
1485.000000	0.297495
1486.000000	0.297564
1487.000000	0.297764
1488.000000	0.298061
1489.000000	0.298370
1490.000000	0.298660
1491.000000	0.298944
1492.000000	0.299164
1493.000000	0.299389
1494.000000	0.299544
1495.000000	0.299712
1496.000000	0.299868
1497.000000	0.300095
1498.000000	0.300382
1499.000000	0.300665
1500.000000	0.300908
1501.000000	0.301053
1502.000000	0.301203
1503.000000	0.301454
1504.000000	0.301720
1505.000000	0.302038
1506.000000	0.302319
1507.000000	0.302479
1508.000000	0.302685
1509.000000	0.302928
1510.000000	0.303109
1511.000000	0.303260
1512.000000	0.303346
1513.000000	0.303480
1514.000000	0.303717
1515.000000	0.303818
1516.000000	0.303989
1517.000000	0.304208
1518.000000	0.304310
1519.000000	0.304416
1520.000000	0.304559
1521.000000	0.304555
1522.000000	0.304612
1523.000000	0.304765
1524.000000	0.304818
1525.000000	0.304856
1526.000000	0.304789
1527.000000	0.304810
1528.000000	0.304957
1529.000000	0.304955
1530.000000	0.304877
1531.000000	0.304825
1532.000000	0.304753
1533.000000	0.304777
1534.000000	0.304927
1535.000000	0.305072
1536.000000	0.305051
1537.000000	0.305120
1538.000000	0.305262
1539.000000	0.305335
1540.000000	0.305484
1541.000000	0.305628
1542.000000	0.305752
1543.000000	0.305792
1544.000000	0.305711
1545.000000	0.305728
1546.000000	0.305749
1547.000000	0.305705
1548.000000	0.305776
1549.000000	0.305870
1550.000000	0.305828
1551.000000	0.305856
1552.000000	0.306032
1553.000000	0.306133
1554.000000	0.306200
1555.000000	0.306368
1556.000000	0.306409
1557.000000	0.306358
1558.000000	0.306447
1559.000000	0.306633
1560.000000	0.306620
1561.000000	0.306557
1562.000000	0.306554
1563.000000	0.306496
1564.000000	0.306522
1565.000000	0.306685
1566.000000	0.306725
1567.000000	0.306815
1568.000000	0.306804
1569.000000	0.306817
1570.000000	0.306811
1571.000000	0.306690
1572.000000	0.306635
1573.000000	0.306621
1574.000000	0.306590
1575.000000	0.306592
1576.000000	0.306596
1577.000000	0.306593
1578.000000	0.306555
1579.000000	0.306595
1580.000000	0.306549
1581.000000	0.306443
1582.000000	0.306410
1583.000000	0.306358
1584.000000	0.306325
1585.000000	0.306479
1586.000000	0.306574
1587.000000	0.306619
1588.000000	0.306670
1589.000000	0.306730
1590.000000	0.306782
1591.000000	0.306881
1592.000000	0.306919
1593.000000	0.306950
1594.000000	0.306969
1595.000000	0.306979
1596.000000	0.307017
1597.000000	0.307065
1598.000000	0.307150
1599.000000	0.307393
1600.000000	0.307389
1601.000000	0.307314
1602.000000	0.307313
1603.000000	0.307222
1604.000000	0.307189
1605.000000	0.307285
1606.000000	0.307327
1607.000000	0.307409
1608.000000	0.307410
1609.000000	0.307444
1610.000000	0.307471
1611.000000	0.307423
1612.000000	0.307417
1613.000000	0.307560
1614.000000	0.307641
1615.000000	0.307786
1616.000000	0.307838
1617.000000	0.307792
1618.000000	0.307780
1619.000000	0.307671
1620.000000	0.307651
1621.000000	0.307761
1622.000000	0.307840
1623.000000	0.307831
1624.000000	0.307883
1625.000000	0.307806
1626.000000	0.307821
1627.000000	0.307998
1628.000000	0.308106
1629.000000	0.308198
1630.000000	0.308301
1631.000000	0.308281
1632.000000	0.308299
1633.000000	0.308354
1634.000000	0.308456
1635.000000	0.308665
1636.000000	0.308728
1637.000000	0.308800
1638.000000	0.308780
1639.000000	0.308626
1640.000000	0.308611
1641.000000	0.308717
1642.000000	0.308782
1643.000000	0.308918
1644.000000	0.309006
1645.000000	0.309084
1646.000000	0.309069
1647.000000	0.309037
1648.000000	0.309006
1649.000000	0.308972
1650.000000	0.309036
1651.000000	0.309187
1652.000000	0.309346
1653.000000	0.309550
1654.000000	0.309669
1655.000000	0.309725
1656.000000	0.309680
1657.000000	0.309558
1658.000000	0.309513
1659.000000	0.309567
1660.000000	0.309670
1661.000000	0.309736
1662.000000	0.309858
1663.000000	0.310049
1664.000000	0.310089
1665.000000	0.310041
1666.000000	0.310182
1667.000000	0.310240
1668.000000	0.310334
1669.000000	0.310550
1670.000000	0.310618
1671.000000	0.310658
1672.000000	0.310802
1673.000000	0.310973
1674.000000	0.311218
1675.000000	0.311385
1676.000000	0.311453
1677.000000	0.311431
1678.000000	0.311329
1679.000000	0.311266
1680.000000	0.311106
1681.000000	0.310978
1682.000000	0.311076
1683.000000	0.311073
1684.000000	0.311095
1685.000000	0.311312
1686.000000	0.311346
1687.000000	0.311513
1688.000000	0.311749
1689.000000	0.311939
1690.000000	0.312031
1691.000000	0.311895
1692.000000	0.311760
1693.000000	0.311696
1694.000000	0.311632
1695.000000	0.311779
1696.000000	0.311936
1697.000000	0.311929
1698.000000	0.311856
1699.000000	0.311875
1700.000000	0.311875
1701.000000	0.311927
1702.000000	0.311864
1703.000000	0.311842
1704.000000	0.311975
1705.000000	0.311948
1706.000000	0.311846
1707.000000	0.311887
1708.000000	0.311905
1709.000000	0.311822
1710.000000	0.311930
1711.000000	0.311976
1712.000000	0.311850
1713.000000	0.311813
1714.000000	0.311950
1715.000000	0.312002
1716.000000	0.312068
1717.000000	0.312019
1718.000000	0.311838
1719.000000	0.311695
1720.000000	0.311509
1721.000000	0.311385
1722.000000	0.311309
1723.000000	0.311290
1724.000000	0.311301
1725.000000	0.311390
1726.000000	0.311576
1727.000000	0.311579
1728.000000	0.311457
1729.000000	0.311336
1730.000000	0.311152
1731.000000	0.311183
1732.000000	0.311370
1733.000000	0.311585
1734.000000	0.311781
1735.000000	0.311984
1736.000000	0.312217
1737.000000	0.312340
1738.000000	0.312446
1739.000000	0.312560
1740.000000	0.312613
1741.000000	0.312585
1742.000000	0.312521
1743.000000	0.312612
1744.000000	0.312674
1745.000000	0.312637
1746.000000	0.312697
1747.000000	0.312468
1748.000000	0.312302
1749.000000	0.312302
1750.000000	0.312198
1751.000000	0.312191
1752.000000	0.312200
1753.000000	0.311944
1754.000000	0.311859
1755.000000	0.311771
1756.000000	0.311756
1757.000000	0.311950
1758.000000	0.312045
1759.000000	0.312093
1760.000000	0.312153
1761.000000	0.312092
1762.000000	0.312140
1763.000000	0.312339
1764.000000	0.312423
1765.000000	0.312429
1766.000000	0.312527
1767.000000	0.312611
1768.000000	0.312515
1769.000000	0.312420
1770.000000	0.312477
1771.000000	0.312387
1772.000000	0.312400
1773.000000	0.312607
1774.000000	0.312685
1775.000000	0.312743
1776.000000	0.312737
1777.000000	0.312637
1778.000000	0.312640
1779.000000	0.312593
1780.000000	0.312594
1781.000000	0.312682
1782.000000	0.312714
1783.000000	0.312731
1784.000000	0.312755
1785.000000	0.312730
1786.000000	0.312823
1787.000000	0.312999
1788.000000	0.313239
1789.000000	0.313403
1790.000000	0.313357
1791.000000	0.313222
1792.000000	0.312945
1793.000000	0.312823
1794.000000	0.312719
1795.000000	0.312688
1796.000000	0.312802
1797.000000	0.312885
1798.000000	0.313014
1799.000000	0.313092
1800.000000	0.313187
1801.000000	0.312822
1802.000000	0.312944
1803.000000	0.313526
1804.000000	0.313439
1805.000000	0.312895
1806.000000	0.312828
1807.000000	0.312341
1808.000000	0.312221
1809.000000	0.312772
1810.000000	0.313180
1811.000000	0.313239
1812.000000	0.313412
1813.000000	0.312987
1814.000000	0.311557
1815.000000	0.311435
1816.000000	0.311551
1817.000000	0.311527
1818.000000	0.312047
1819.000000	0.313192
1820.000000	0.313229
1821.000000	0.313111
1822.000000	0.312746
1823.000000	0.311711
1824.000000	0.311312
1825.000000	0.310934
1826.000000	0.310508
1827.000000	0.310214
1828.000000	0.310151
1829.000000	0.309344
1830.000000	0.308400
1831.000000	0.308327
1832.000000	0.308756
1833.000000	0.309050
1834.000000	0.310029
1835.000000	0.310571
1836.000000	0.310897
1837.000000	0.311050
1838.000000	0.311092
1839.000000	0.310817
1840.000000	0.310526
1841.000000	0.309489
1842.000000	0.308937
1843.000000	0.308110
1844.000000	0.308038
1845.000000	0.308667
1846.000000	0.308860
1847.000000	0.309253
1848.000000	0.309035
1849.000000	0.308731
1850.000000	0.308441
1851.000000	0.308352
1852.000000	0.308496
1853.000000	0.308447
1854.000000	0.308181
1855.000000	0.307817
1856.000000	0.307367
1857.000000	0.306742
1858.000000	0.305668
1859.000000	0.305292
1860.000000	0.304655
1861.000000	0.303914
1862.000000	0.303274
1863.000000	0.302534
1864.000000	0.302366
1865.000000	0.302788
1866.000000	0.302709
1867.000000	0.303095
1868.000000	0.302976
1869.000000	0.301716
1870.000000	0.300021
1871.000000	0.298623
1872.000000	0.297298
1873.000000	0.295868
1874.000000	0.294655
1875.000000	0.293366
1876.000000	0.291703
1877.000000	0.289660
1878.000000	0.288554
1879.000000	0.286543
1880.000000	0.284434
1881.000000	0.282202
1882.000000	0.279636
1883.000000	0.276766
1884.000000	0.274437
1885.000000	0.272565
1886.000000	0.270519
1887.000000	0.268632
1888.000000	0.266346
1889.000000	0.263811
1890.000000	0.260930
1891.000000	0.258012
1892.000000	0.254988
1893.000000	0.252072
1894.000000	0.248810
1895.000000	0.245444
1896.000000	0.241633
1897.000000	0.238699
1898.000000	0.235914
1899.000000	0.233141
1900.000000	0.230710
1901.000000	0.227845
1902.000000	0.225059
1903.000000	0.222978
1904.000000	0.221263
1905.000000	0.219554
1906.000000	0.218046
1907.000000	0.216870
1908.000000	0.215671
1909.000000	0.214559
1910.000000	0.214136
1911.000000	0.213707
1912.000000	0.213107
1913.000000	0.212638
1914.000000	0.211915
1915.000000	0.211712
1916.000000	0.212234
1917.000000	0.212548
1918.000000	0.213264
1919.000000	0.213955
1920.000000	0.213988
1921.000000	0.213785
1922.000000	0.213845
1923.000000	0.214124
1924.000000	0.214310
1925.000000	0.215018
1926.000000	0.215207
1927.000000	0.214864
1928.000000	0.214881
1929.000000	0.215414
1930.000000	0.214820
1931.000000	0.214503
1932.000000	0.214944
1933.000000	0.214665
1934.000000	0.214810
1935.000000	0.214827
1936.000000	0.214857
1937.000000	0.215184
1938.000000	0.215069
1939.000000	0.215194
1940.000000	0.215581
1941.000000	0.215801
1942.000000	0.215458
1943.000000	0.215367
1944.000000	0.215251
1945.000000	0.214921
1946.000000	0.215127
1947.000000	0.215390
1948.000000	0.215333
1949.000000	0.215574
1950.000000	0.215241
1951.000000	0.214969
1952.000000	0.214643
1953.000000	0.214922
1954.000000	0.214686
1955.000000	0.214346
1956.000000	0.214129
1957.000000	0.213625
1958.000000	0.213460
1959.000000	0.214181
1960.000000	0.214617
1961.000000	0.214961
1962.000000	0.215045
1963.000000	0.214872
1964.000000	0.214244
1965.000000	0.214032
1966.000000	0.213385
1967.000000	0.213011
1968.000000	0.213047
1969.000000	0.212968
1970.000000	0.213397
1971.000000	0.213868
1972.000000	0.213985
1973.000000	0.214186
1974.000000	0.214419
1975.000000	0.215076
1976.000000	0.216022
1977.000000	0.216826
1978.000000	0.217947
1979.000000	0.218133
1980.000000	0.217766
1981.000000	0.218250
1982.000000	0.218823
1983.000000	0.219212
1984.000000	0.219599
1985.000000	0.220174
1986.000000	0.220324
1987.000000	0.220069
1988.000000	0.220486
1989.000000	0.220330
1990.000000	0.220650
1991.000000	0.221340
1992.000000	0.221752
1993.000000	0.222615
1994.000000	0.223693
1995.000000	0.224512
1996.000000	0.224786
1997.000000	0.225223
1998.000000	0.225528
1999.000000	0.226163
2000.000000	0.226930
2001.000000	0.227708
2002.000000	0.228566
2003.000000	0.229264
2004.000000	0.228928
2005.000000	0.228837
2006.000000	0.229560
2007.000000	0.230179
2008.000000	0.230783
2009.000000	0.231964
2010.000000	0.232632
2011.000000	0.232377
2012.000000	0.232851
2013.000000	0.233451
2014.000000	0.234398
2015.000000	0.235525
2016.000000	0.236610
2017.000000	0.236893
2018.000000	0.237094
2019.000000	0.237672
2020.000000	0.238064
2021.000000	0.238524
2022.000000	0.239427
2023.000000	0.239845
2024.000000	0.239686
2025.000000	0.240045
2026.000000	0.240477
2027.000000	0.240870
2028.000000	0.241381
2029.000000	0.242351
2030.000000	0.242782
2031.000000	0.242911
2032.000000	0.243650
2033.000000	0.244447
2034.000000	0.245229
2035.000000	0.246596
2036.000000	0.247474
2037.000000	0.248237
2038.000000	0.248792
2039.000000	0.249267
2040.000000	0.249675
2041.000000	0.249533
2042.000000	0.249806
2043.000000	0.249939
2044.000000	0.250008
2045.000000	0.250214
2046.000000	0.249817
2047.000000	0.250334
2048.000000	0.251279
2049.000000	0.252192
2050.000000	0.253789
2051.000000	0.254433
2052.000000	0.254258
2053.000000	0.254312
2054.000000	0.254147
2055.000000	0.254254
2056.000000	0.254831
2057.000000	0.255487
2058.000000	0.255847
2059.000000	0.256355
2060.000000	0.256844
2061.000000	0.257182
2062.000000	0.257423
2063.000000	0.257938
2064.000000	0.257981
2065.000000	0.257622
2066.000000	0.257638
2067.000000	0.257941
2068.000000	0.258230
2069.000000	0.258673
2070.000000	0.259278
2071.000000	0.259439
2072.000000	0.259739
2073.000000	0.259886
2074.000000	0.260350
2075.000000	0.260830
2076.000000	0.261441
2077.000000	0.261885
2078.000000	0.262599
2079.000000	0.262648
2080.000000	0.262091
2081.000000	0.262066
2082.000000	0.261762
2083.000000	0.261904
2084.000000	0.262651
2085.000000	0.263501
2086.000000	0.264527
2087.000000	0.265221
2088.000000	0.265827
2089.000000	0.266546
2090.000000	0.267285
2091.000000	0.268243
2092.000000	0.268786
2093.000000	0.269541
2094.000000	0.269590
2095.000000	0.268525
2096.000000	0.268389
2097.000000	0.268343
2098.000000	0.268140
2099.000000	0.268475
2100.000000	0.269216
2101.000000	0.269097
2102.000000	0.269295
2103.000000	0.269816
2104.000000	0.269812
2105.000000	0.270014
2106.000000	0.270339
2107.000000	0.270507
2108.000000	0.270500
2109.000000	0.270665
2110.000000	0.270661
2111.000000	0.270935
2112.000000	0.271194
2113.000000	0.271536
2114.000000	0.272434
2115.000000	0.272851
2116.000000	0.272874
2117.000000	0.272843
2118.000000	0.272893
2119.000000	0.273169
2120.000000	0.273943
2121.000000	0.276083
2122.000000	0.276620
2123.000000	0.276553
2124.000000	0.276573
2125.000000	0.275445
2126.000000	0.275058
2127.000000	0.275316
2128.000000	0.275561
2129.000000	0.275623
2130.000000	0.276409
2131.000000	0.276652
2132.000000	0.276302
2133.000000	0.276260
2134.000000	0.275915
2135.000000	0.276386
2136.000000	0.277359
2137.000000	0.277707
2138.000000	0.278082
2139.000000	0.278292
2140.000000	0.277826
2141.000000	0.277897
2142.000000	0.278223
2143.000000	0.278402
2144.000000	0.278736
2145.000000	0.279372
2146.000000	0.280486
2147.000000	0.281735
2148.000000	0.281533
2149.000000	0.281070
2150.000000	0.280856
2151.000000	0.279704
2152.000000	0.279264
2153.000000	0.278796
2154.000000	0.278330
2155.000000	0.277315
2156.000000	0.276908
2157.000000	0.276929
2158.000000	0.277314
2159.000000	0.278146
2160.000000	0.278598
2161.000000	0.279492
2162.000000	0.280095
2163.000000	0.280309
2164.000000	0.280285
2165.000000	0.280236
2166.000000	0.279761
2167.000000	0.279244
2168.000000	0.278219
2169.000000	0.278639
2170.000000	0.279356
2171.000000	0.279654
2172.000000	0.280720
2173.000000	0.280752
2174.000000	0.279718
2175.000000	0.279253
2176.000000	0.278255
2177.000000	0.278096
2178.000000	0.278621
2179.000000	0.278975
2180.000000	0.280207
2181.000000	0.280795
2182.000000	0.280200
2183.000000	0.279898
2184.000000	0.280761
2185.000000	0.279307
2186.000000	0.279170
2187.000000	0.280652
2188.000000	0.281140
2189.000000	0.282685
2190.000000	0.283246
2191.000000	0.282765
2192.000000	0.282113
2193.000000	0.280032
2194.000000	0.279139
2195.000000	0.278100
2196.000000	0.277864
2197.000000	0.278763
2198.000000	0.278901
2199.000000	0.280039
2200.000000	0.280520
2201.000000	0.280165
2202.000000	0.279956
2203.000000	0.279940
2204.000000	0.277624
2205.000000	0.277395
2206.000000	0.276276
2207.000000	0.275460
2208.000000	0.277061
2209.000000	0.276045
2210.000000	0.275887
2211.000000	0.276237
2212.000000	0.276138
2213.000000	0.276267
2214.000000	0.277143
2215.000000	0.277502
2216.000000	0.276774
2217.000000	0.277360
2218.000000	0.279025
2219.000000	0.280436
2220.000000	0.283574
2221.000000	0.283888
2222.000000	0.282263
2223.000000	0.280856
2224.000000	0.277033
2225.000000	0.275486
2226.000000	0.276214
2227.000000	0.276534
2228.000000	0.277223
2229.000000	0.277221
2230.000000	0.274710
2231.000000	0.273479
2232.000000	0.273023
2233.000000	0.272013
2234.000000	0.272966
2235.000000	0.271792
2236.000000	0.271710
2237.000000	0.271797
2238.000000	0.271684
2239.000000	0.272341
2240.000000	0.272955
2241.000000	0.273801
2242.000000	0.273806
2243.000000	0.271862
2244.000000	0.272037
2245.000000	0.272743
2246.000000	0.273794
2247.000000	0.278098
2248.000000	0.279305
2249.000000	0.279519
2250.000000	0.277313
2251.000000	0.275487
2252.000000	0.274063
2253.000000	0.273483
2254.000000	0.273999
2255.000000	0.274210
2256.000000	0.275514
2257.000000	0.277108
2258.000000	0.277537
2259.000000	0.279331
2260.000000	0.279540
2261.000000	0.279369
2262.000000	0.279770
2263.000000	0.279473
2264.000000	0.277659
2265.000000	0.276967
2266.000000	0.276481
2267.000000	0.274512
2268.000000	0.271572
2269.000000	0.269490
2270.000000	0.266874
2271.000000	0.265419
2272.000000	0.265724
2273.000000	0.265592
2274.000000	0.265136
2275.000000	0.265401
2276.000000	0.266892
2277.000000	0.265957
2278.000000	0.265329
2279.000000	0.264024
2280.000000	0.262735
2281.000000	0.260000
2282.000000	0.259108
2283.000000	0.258807
2284.000000	0.257407
2285.000000	0.257303
2286.000000	0.254884
2287.000000	0.252309
2288.000000	0.251326
2289.000000	0.249612
2290.000000	0.248903
2291.000000	0.249795
2292.000000	0.250597
2293.000000	0.250821
2294.000000	0.250281
2295.000000	0.249108
2296.000000	0.248250
2297.000000	0.246205
2298.000000	0.246066
2299.000000	0.247651
2300.000000	0.248302
2301.000000	0.248692
2302.000000	0.249141
2303.000000	0.249729
2304.000000	0.250091
2305.000000	0.250300
2306.000000	0.251457
2307.000000	0.253228
2308.000000	0.253870
2309.000000	0.254714
2310.000000	0.254330
2311.000000	0.253738
2312.000000	0.253162
2313.000000	0.250566
2314.000000	0.251747
2315.000000	0.253503
2316.000000	0.253978
2317.000000	0.257046
2318.000000	0.258229
2319.000000	0.257878
2320.000000	0.256545
2321.000000	0.254930
2322.000000	0.253847
2323.000000	0.252359
2324.000000	0.251381
2325.000000	0.251427
2326.000000	0.252653
2327.000000	0.251969
2328.000000	0.251584
2329.000000	0.252438
2330.000000	0.250013
2331.000000	0.248621
2332.000000	0.248226
2333.000000	0.246703
2334.000000	0.246157
2335.000000	0.245702
2336.000000	0.244817
2337.000000	0.244346
2338.000000	0.244381
2339.000000	0.244124
2340.000000	0.244183
2341.000000	0.244731
2342.000000	0.245194
2343.000000	0.245302
2344.000000	0.246522
2345.000000	0.245831
2346.000000	0.243562
2347.000000	0.242351
2348.000000	0.240841
2349.000000	0.238382
2350.000000	0.239108
2351.000000	0.239490
2352.000000	0.239429
2353.000000	0.240280
2354.000000	0.238348
2355.000000	0.235143
2356.000000	0.233105
2357.000000	0.231195
2358.000000	0.230767
2359.000000	0.232074
2360.000000	0.235151
2361.000000	0.239405
2362.000000	0.239266
2363.000000	0.238299
2364.000000	0.233856
2365.000000	0.227781
2366.000000	0.227814
2367.000000	0.227485
2368.000000	0.231299
2369.000000	0.233743
2370.000000	0.229474
2371.000000	0.228810
2372.000000	0.226374
2373.000000	0.224589
2374.000000	0.225676
2375.000000	0.224104
2376.000000	0.222292
2377.000000	0.217496
2378.000000	0.214234
2379.000000	0.215962
2380.000000	0.215247
2381.000000	0.219715
2382.000000	0.221020
2383.000000	0.215197
2384.000000	0.214064
2385.000000	0.210731
2386.000000	0.208824
2387.000000	0.209203
2388.000000	0.210917
2389.000000	0.208151
2390.000000	0.202028
2391.000000	0.199456
2392.000000	0.194453
2393.000000	0.198551
2394.000000	0.205649
2395.000000	0.213045
2396.000000	0.222721
2397.000000	0.218511
2398.000000	0.214896
2399.000000	0.210077
2400.000000	0.197395
2401.000000	0.194472
2402.000000	0.194750
2403.000000	0.199450
2404.000000	0.209167
2405.000000	0.210013
2406.000000	0.209197
2407.000000	0.203599
2408.000000	0.199010
2409.000000	0.200525
2410.000000	0.194328
2411.000000	0.191071
2412.000000	0.193003
2413.000000	0.197569
2414.000000	0.210184
2415.000000	0.219333
2416.000000	0.221198
2417.000000	0.215840
2418.000000	0.208191
2419.000000	0.210659
2420.000000	0.216117
2421.000000	0.226208
2422.000000	0.232471
2423.000000	0.225031
2424.000000	0.218354
2425.000000	0.206479
2426.000000	0.201196
2427.000000	0.202822
2428.000000	0.192982
2429.000000	0.187991
2430.000000	0.189687
2431.000000	0.195354
2432.000000	0.205873
2433.000000	0.214739
2434.000000	0.217945
2435.000000	0.211293
2436.000000	0.209565
2437.000000	0.211141
2438.000000	0.208792
2439.000000	0.207905
2440.000000	0.198387
2441.000000	0.185908
2442.000000	0.177639
2443.000000	0.174633
2444.000000	0.188740
2445.000000	0.214523
2446.000000	0.236649
2447.000000	0.245311
2448.000000	0.235989
2449.000000	0.213746
2450.000000	0.195944
2451.000000	0.198489
2452.000000	0.213235
2453.000000	0.225315
2454.000000	0.232807
2455.000000	0.221237
2456.000000	0.201784
2457.000000	0.200866
2458.000000	0.185933
2459.000000	0.181038
2460.000000	0.198756
2461.000000	0.187481
2462.000000	0.199321
2463.000000	0.200684
2464.000000	0.171766
2465.000000	0.182711
2466.000000	0.177399
2467.000000	0.169815
2468.000000	0.189992
2469.000000	0.189238
2470.000000	0.178805
2471.000000	0.179824
2472.000000	0.180984
2473.000000	0.166378
2474.000000	0.171924
2475.000000	0.190708
2476.000000	0.181184
2477.000000	0.194808
2478.000000	0.208921
2479.000000	0.198872
2480.000000	0.225003
2481.000000	0.203748
2482.000000	0.161922
2483.000000	0.154749
2484.000000	0.114107
2485.000000	0.119495
2486.000000	0.144901
2487.000000	0.144508
2488.000000	0.171210
2489.000000	0.190251
2490.000000	0.187556
2491.000000	0.171878
2492.000000	0.157419
2493.000000	0.123939
2494.000000	0.131257
2495.000000	0.182866
2496.000000	0.192972
2497.000000	0.198519
2498.000000	0.218955
2499.000000	0.263857
2500.000000	0.260918
