# Wavelength	NAu-2-20_HEX-60_FV7-20_000000000.asd.rts.txt
350.000000	0.189300
351.000000	0.187876
352.000000	0.187562
353.000000	0.184097
354.000000	0.179613
355.000000	0.182422
356.000000	0.184442
357.000000	0.185654
358.000000	0.188298
359.000000	0.188031
360.000000	0.185919
361.000000	0.184159
362.000000	0.185861
363.000000	0.187318
364.000000	0.186151
365.000000	0.185676
366.000000	0.184945
367.000000	0.184023
368.000000	0.184286
369.000000	0.185915
370.000000	0.186930
371.000000	0.185370
372.000000	0.185408
373.000000	0.185482
374.000000	0.184954
375.000000	0.185893
376.000000	0.186380
377.000000	0.186315
378.000000	0.187616
379.000000	0.188575
380.000000	0.188825
381.000000	0.189017
382.000000	0.188074
383.000000	0.187563
384.000000	0.188543
385.000000	0.189382
386.000000	0.190050
387.000000	0.190622
388.000000	0.190960
389.000000	0.191441
390.000000	0.192078
391.000000	0.192444
392.000000	0.191402
393.000000	0.190649
394.000000	0.191349
395.000000	0.191876
396.000000	0.192312
397.000000	0.192663
398.000000	0.192871
399.000000	0.192890
400.000000	0.193094
401.000000	0.193863
402.000000	0.193987
403.000000	0.193693
404.000000	0.193618
405.000000	0.194418
406.000000	0.195198
407.000000	0.195525
408.000000	0.195543
409.000000	0.195765
410.000000	0.196246
411.000000	0.196731
412.000000	0.196952
413.000000	0.197019
414.000000	0.197144
415.000000	0.197336
416.000000	0.197639
417.000000	0.198074
418.000000	0.198671
419.000000	0.198995
420.000000	0.199080
421.000000	0.199349
422.000000	0.199630
423.000000	0.199839
424.000000	0.200006
425.000000	0.200439
426.000000	0.200894
427.000000	0.201205
428.000000	0.201746
429.000000	0.202152
430.000000	0.202337
431.000000	0.202534
432.000000	0.202815
433.000000	0.203103
434.000000	0.203334
435.000000	0.203751
436.000000	0.204177
437.000000	0.204417
438.000000	0.204657
439.000000	0.204869
440.000000	0.205121
441.000000	0.205437
442.000000	0.205707
443.000000	0.205910
444.000000	0.206222
445.000000	0.206394
446.000000	0.206705
447.000000	0.207306
448.000000	0.207547
449.000000	0.207775
450.000000	0.208246
451.000000	0.208655
452.000000	0.208961
453.000000	0.209220
454.000000	0.209818
455.000000	0.210272
456.000000	0.210599
457.000000	0.210865
458.000000	0.211092
459.000000	0.211398
460.000000	0.211877
461.000000	0.212273
462.000000	0.212708
463.000000	0.213097
464.000000	0.213399
465.000000	0.213715
466.000000	0.214007
467.000000	0.214259
468.000000	0.214599
469.000000	0.214965
470.000000	0.215368
471.000000	0.215639
472.000000	0.215858
473.000000	0.216129
474.000000	0.216465
475.000000	0.216722
476.000000	0.216993
477.000000	0.217353
478.000000	0.217570
479.000000	0.217835
480.000000	0.218196
481.000000	0.218450
482.000000	0.218749
483.000000	0.219073
484.000000	0.219488
485.000000	0.219772
486.000000	0.219993
487.000000	0.220262
488.000000	0.220456
489.000000	0.220654
490.000000	0.221052
491.000000	0.221267
492.000000	0.221443
493.000000	0.221707
494.000000	0.221861
495.000000	0.222032
496.000000	0.222265
497.000000	0.222434
498.000000	0.222591
499.000000	0.222809
500.000000	0.223025
501.000000	0.223211
502.000000	0.223403
503.000000	0.223590
504.000000	0.223747
505.000000	0.223929
506.000000	0.224183
507.000000	0.224425
508.000000	0.224718
509.000000	0.225052
510.000000	0.225388
511.000000	0.225715
512.000000	0.226061
513.000000	0.226436
514.000000	0.226799
515.000000	0.227163
516.000000	0.227506
517.000000	0.227835
518.000000	0.228201
519.000000	0.228573
520.000000	0.228988
521.000000	0.229403
522.000000	0.229822
523.000000	0.230308
524.000000	0.230830
525.000000	0.231383
526.000000	0.232007
527.000000	0.232677
528.000000	0.233399
529.000000	0.234211
530.000000	0.234973
531.000000	0.235823
532.000000	0.236760
533.000000	0.237686
534.000000	0.238636
535.000000	0.239613
536.000000	0.240624
537.000000	0.241627
538.000000	0.242592
539.000000	0.243490
540.000000	0.244381
541.000000	0.245219
542.000000	0.245997
543.000000	0.246786
544.000000	0.247600
545.000000	0.248396
546.000000	0.249235
547.000000	0.250088
548.000000	0.250962
549.000000	0.251796
550.000000	0.252693
551.000000	0.253678
552.000000	0.254702
553.000000	0.255748
554.000000	0.256860
555.000000	0.258060
556.000000	0.259268
557.000000	0.260470
558.000000	0.261762
559.000000	0.263038
560.000000	0.264307
561.000000	0.265623
562.000000	0.266922
563.000000	0.268186
564.000000	0.269448
565.000000	0.270639
566.000000	0.271770
567.000000	0.272866
568.000000	0.273910
569.000000	0.274859
570.000000	0.275741
571.000000	0.276565
572.000000	0.277360
573.000000	0.278068
574.000000	0.278672
575.000000	0.279227
576.000000	0.279733
577.000000	0.280188
578.000000	0.280640
579.000000	0.281009
580.000000	0.281322
581.000000	0.281591
582.000000	0.281819
583.000000	0.282013
584.000000	0.282173
585.000000	0.282297
586.000000	0.282396
587.000000	0.282450
588.000000	0.282443
589.000000	0.282438
590.000000	0.282393
591.000000	0.282288
592.000000	0.282169
593.000000	0.282070
594.000000	0.281956
595.000000	0.281717
596.000000	0.281523
597.000000	0.281377
598.000000	0.281126
599.000000	0.280817
600.000000	0.280528
601.000000	0.280237
602.000000	0.279921
603.000000	0.279637
604.000000	0.279400
605.000000	0.279135
606.000000	0.278851
607.000000	0.278548
608.000000	0.278220
609.000000	0.277876
610.000000	0.277563
611.000000	0.277306
612.000000	0.276933
613.000000	0.276560
614.000000	0.276290
615.000000	0.275998
616.000000	0.275690
617.000000	0.275347
618.000000	0.275024
619.000000	0.274767
620.000000	0.274537
621.000000	0.274312
622.000000	0.274064
623.000000	0.273800
624.000000	0.273538
625.000000	0.273300
626.000000	0.273111
627.000000	0.272947
628.000000	0.272683
629.000000	0.272511
630.000000	0.272327
631.000000	0.272135
632.000000	0.271971
633.000000	0.271852
634.000000	0.271766
635.000000	0.271683
636.000000	0.271637
637.000000	0.271633
638.000000	0.271673
639.000000	0.271749
640.000000	0.271864
641.000000	0.271884
642.000000	0.271947
643.000000	0.272052
644.000000	0.272162
645.000000	0.272269
646.000000	0.272385
647.000000	0.272497
648.000000	0.272618
649.000000	0.272763
650.000000	0.272921
651.000000	0.273107
652.000000	0.273282
653.000000	0.273483
654.000000	0.273698
655.000000	0.273943
656.000000	0.274233
657.000000	0.274527
658.000000	0.274857
659.000000	0.275207
660.000000	0.275555
661.000000	0.275922
662.000000	0.276288
663.000000	0.276692
664.000000	0.277112
665.000000	0.277552
666.000000	0.278015
667.000000	0.278479
668.000000	0.278997
669.000000	0.279542
670.000000	0.280101
671.000000	0.280675
672.000000	0.281299
673.000000	0.281954
674.000000	0.282593
675.000000	0.283235
676.000000	0.283893
677.000000	0.284598
678.000000	0.285343
679.000000	0.286097
680.000000	0.286842
681.000000	0.287557
682.000000	0.288339
683.000000	0.289152
684.000000	0.290034
685.000000	0.290899
686.000000	0.291775
687.000000	0.292677
688.000000	0.293618
689.000000	0.294570
690.000000	0.295546
691.000000	0.296563
692.000000	0.297579
693.000000	0.298644
694.000000	0.299750
695.000000	0.300830
696.000000	0.301902
697.000000	0.303019
698.000000	0.304164
699.000000	0.305338
700.000000	0.306540
701.000000	0.307708
702.000000	0.308900
703.000000	0.310099
704.000000	0.311236
705.000000	0.312435
706.000000	0.313673
707.000000	0.314956
708.000000	0.316225
709.000000	0.317489
710.000000	0.318791
711.000000	0.320148
712.000000	0.321506
713.000000	0.322858
714.000000	0.324198
715.000000	0.325513
716.000000	0.326822
717.000000	0.328135
718.000000	0.329473
719.000000	0.330808
720.000000	0.332131
721.000000	0.333473
722.000000	0.334767
723.000000	0.336068
724.000000	0.337405
725.000000	0.338724
726.000000	0.340079
727.000000	0.341389
728.000000	0.342680
729.000000	0.343949
730.000000	0.345139
731.000000	0.346318
732.000000	0.347496
733.000000	0.348703
734.000000	0.349869
735.000000	0.351008
736.000000	0.352228
737.000000	0.353385
738.000000	0.354472
739.000000	0.355612
740.000000	0.356695
741.000000	0.357750
742.000000	0.358782
743.000000	0.359760
744.000000	0.360715
745.000000	0.361649
746.000000	0.362596
747.000000	0.363489
748.000000	0.364417
749.000000	0.365344
750.000000	0.366200
751.000000	0.367037
752.000000	0.367822
753.000000	0.368590
754.000000	0.369401
755.000000	0.370162
756.000000	0.370879
757.000000	0.371533
758.000000	0.372189
759.000000	0.372843
760.000000	0.373431
761.000000	0.374113
762.000000	0.374782
763.000000	0.375376
764.000000	0.375954
765.000000	0.376504
766.000000	0.377036
767.000000	0.377538
768.000000	0.377978
769.000000	0.378373
770.000000	0.378752
771.000000	0.379145
772.000000	0.379583
773.000000	0.379982
774.000000	0.380372
775.000000	0.380741
776.000000	0.381100
777.000000	0.381433
778.000000	0.381719
779.000000	0.381946
780.000000	0.382142
781.000000	0.382349
782.000000	0.382538
783.000000	0.382807
784.000000	0.383040
785.000000	0.383206
786.000000	0.383369
787.000000	0.383560
788.000000	0.383747
789.000000	0.383943
790.000000	0.384131
791.000000	0.384331
792.000000	0.384429
793.000000	0.384500
794.000000	0.384621
795.000000	0.384724
796.000000	0.384836
797.000000	0.384943
798.000000	0.385007
799.000000	0.385080
800.000000	0.385166
801.000000	0.385256
802.000000	0.385358
803.000000	0.385412
804.000000	0.385453
805.000000	0.385544
806.000000	0.385559
807.000000	0.385567
808.000000	0.385542
809.000000	0.385534
810.000000	0.385539
811.000000	0.385533
812.000000	0.385537
813.000000	0.385534
814.000000	0.385505
815.000000	0.385459
816.000000	0.385421
817.000000	0.385426
818.000000	0.385391
819.000000	0.385361
820.000000	0.385322
821.000000	0.385215
822.000000	0.385107
823.000000	0.385032
824.000000	0.384927
825.000000	0.384854
826.000000	0.384821
827.000000	0.384784
828.000000	0.384768
829.000000	0.384767
830.000000	0.384707
831.000000	0.384641
832.000000	0.384487
833.000000	0.384375
834.000000	0.384286
835.000000	0.384216
836.000000	0.384112
837.000000	0.383990
838.000000	0.383878
839.000000	0.383761
840.000000	0.383652
841.000000	0.383558
842.000000	0.383436
843.000000	0.383317
844.000000	0.383226
845.000000	0.383132
846.000000	0.383044
847.000000	0.382949
848.000000	0.382779
849.000000	0.382530
850.000000	0.382332
851.000000	0.382126
852.000000	0.381943
853.000000	0.381826
854.000000	0.381639
855.000000	0.381510
856.000000	0.381394
857.000000	0.381266
858.000000	0.381229
859.000000	0.381205
860.000000	0.381123
861.000000	0.381003
862.000000	0.380875
863.000000	0.380677
864.000000	0.380456
865.000000	0.380244
866.000000	0.380075
867.000000	0.379890
868.000000	0.379717
869.000000	0.379486
870.000000	0.379248
871.000000	0.379048
872.000000	0.378818
873.000000	0.378496
874.000000	0.378323
875.000000	0.378081
876.000000	0.377792
877.000000	0.377497
878.000000	0.377240
879.000000	0.377108
880.000000	0.376955
881.000000	0.376797
882.000000	0.376616
883.000000	0.376395
884.000000	0.376061
885.000000	0.375786
886.000000	0.375497
887.000000	0.375208
888.000000	0.375053
889.000000	0.374903
890.000000	0.374645
891.000000	0.374453
892.000000	0.374273
893.000000	0.374007
894.000000	0.373772
895.000000	0.373557
896.000000	0.373257
897.000000	0.372928
898.000000	0.372661
899.000000	0.372355
900.000000	0.372054
901.000000	0.371774
902.000000	0.371636
903.000000	0.371485
904.000000	0.371363
905.000000	0.371222
906.000000	0.371121
907.000000	0.370905
908.000000	0.370599
909.000000	0.370208
910.000000	0.369854
911.000000	0.369571
912.000000	0.369364
913.000000	0.369121
914.000000	0.368893
915.000000	0.368731
916.000000	0.368477
917.000000	0.368150
918.000000	0.367889
919.000000	0.367735
920.000000	0.367533
921.000000	0.367310
922.000000	0.367070
923.000000	0.366784
924.000000	0.366562
925.000000	0.366355
926.000000	0.366122
927.000000	0.365708
928.000000	0.365354
929.000000	0.365055
930.000000	0.364745
931.000000	0.364498
932.000000	0.364259
933.000000	0.364044
934.000000	0.363824
935.000000	0.363565
936.000000	0.363297
937.000000	0.362950
938.000000	0.362636
939.000000	0.362395
940.000000	0.362143
941.000000	0.361921
942.000000	0.361715
943.000000	0.361559
944.000000	0.361309
945.000000	0.361005
946.000000	0.360673
947.000000	0.360431
948.000000	0.360282
949.000000	0.360014
950.000000	0.359848
951.000000	0.359716
952.000000	0.359419
953.000000	0.359185
954.000000	0.358897
955.000000	0.358424
956.000000	0.358088
957.000000	0.357827
958.000000	0.357604
959.000000	0.357507
960.000000	0.357361
961.000000	0.357194
962.000000	0.356964
963.000000	0.356612
964.000000	0.356440
965.000000	0.356301
966.000000	0.355922
967.000000	0.355593
968.000000	0.355391
969.000000	0.355202
970.000000	0.354980
971.000000	0.354710
972.000000	0.354573
973.000000	0.354473
974.000000	0.354194
975.000000	0.354043
976.000000	0.353911
977.000000	0.353698
978.000000	0.353650
979.000000	0.353571
980.000000	0.353254
981.000000	0.353061
982.000000	0.352871
983.000000	0.352660
984.000000	0.352467
985.000000	0.352210
986.000000	0.352007
987.000000	0.351822
988.000000	0.351538
989.000000	0.351405
990.000000	0.351475
991.000000	0.351467
992.000000	0.351195
993.000000	0.351200
994.000000	0.351105
995.000000	0.351009
996.000000	0.350890
997.000000	0.350662
998.000000	0.350539
999.000000	0.350676
1000.000000	0.350785
1001.000000	0.350823
1002.000000	0.350641
1003.000000	0.350536
1004.000000	0.350373
1005.000000	0.349947
1006.000000	0.349526
1007.000000	0.349095
1008.000000	0.348947
1009.000000	0.348966
1010.000000	0.348858
1011.000000	0.349400
1012.000000	0.349933
1013.000000	0.349553
1014.000000	0.349436
1015.000000	0.349360
1016.000000	0.349187
1017.000000	0.349408
1018.000000	0.349629
1019.000000	0.349665
1020.000000	0.349663
1021.000000	0.349387
1022.000000	0.349173
1023.000000	0.349181
1024.000000	0.348966
1025.000000	0.349063
1026.000000	0.349208
1027.000000	0.348935
1028.000000	0.349057
1029.000000	0.349225
1030.000000	0.349132
1031.000000	0.349213
1032.000000	0.349375
1033.000000	0.349651
1034.000000	0.349821
1035.000000	0.350129
1036.000000	0.350301
1037.000000	0.350299
1038.000000	0.350233
1039.000000	0.350198
1040.000000	0.350415
1041.000000	0.350356
1042.000000	0.350242
1043.000000	0.350503
1044.000000	0.350828
1045.000000	0.351135
1046.000000	0.351543
1047.000000	0.351846
1048.000000	0.352034
1049.000000	0.352107
1050.000000	0.352038
1051.000000	0.352107
1052.000000	0.352067
1053.000000	0.352080
1054.000000	0.352479
1055.000000	0.352777
1056.000000	0.353057
1057.000000	0.353284
1058.000000	0.353548
1059.000000	0.353568
1060.000000	0.353870
1061.000000	0.354186
1062.000000	0.354269
1063.000000	0.354557
1064.000000	0.354789
1065.000000	0.354831
1066.000000	0.355003
1067.000000	0.355267
1068.000000	0.355478
1069.000000	0.355562
1070.000000	0.355757
1071.000000	0.356125
1072.000000	0.356384
1073.000000	0.356631
1074.000000	0.357065
1075.000000	0.357268
1076.000000	0.357499
1077.000000	0.357701
1078.000000	0.357820
1079.000000	0.357967
1080.000000	0.358141
1081.000000	0.358317
1082.000000	0.358571
1083.000000	0.358811
1084.000000	0.359126
1085.000000	0.359404
1086.000000	0.359686
1087.000000	0.359910
1088.000000	0.359913
1089.000000	0.360040
1090.000000	0.360192
1091.000000	0.360263
1092.000000	0.360275
1093.000000	0.360609
1094.000000	0.360852
1095.000000	0.360946
1096.000000	0.361288
1097.000000	0.361919
1098.000000	0.362222
1099.000000	0.362377
1100.000000	0.362643
1101.000000	0.362707
1102.000000	0.362888
1103.000000	0.363208
1104.000000	0.363482
1105.000000	0.363737
1106.000000	0.363959
1107.000000	0.364020
1108.000000	0.364209
1109.000000	0.364531
1110.000000	0.364804
1111.000000	0.365091
1112.000000	0.365509
1113.000000	0.365815
1114.000000	0.366060
1115.000000	0.366270
1116.000000	0.366464
1117.000000	0.366657
1118.000000	0.366763
1119.000000	0.366863
1120.000000	0.367003
1121.000000	0.367102
1122.000000	0.367211
1123.000000	0.367551
1124.000000	0.367721
1125.000000	0.367955
1126.000000	0.368238
1127.000000	0.368402
1128.000000	0.368510
1129.000000	0.368580
1130.000000	0.368754
1131.000000	0.368963
1132.000000	0.369050
1133.000000	0.369226
1134.000000	0.369354
1135.000000	0.369268
1136.000000	0.369310
1137.000000	0.369468
1138.000000	0.369488
1139.000000	0.369506
1140.000000	0.369666
1141.000000	0.369819
1142.000000	0.369937
1143.000000	0.370023
1144.000000	0.370239
1145.000000	0.370260
1146.000000	0.370236
1147.000000	0.370243
1148.000000	0.370146
1149.000000	0.370182
1150.000000	0.370271
1151.000000	0.370363
1152.000000	0.370470
1153.000000	0.370580
1154.000000	0.370662
1155.000000	0.370673
1156.000000	0.370670
1157.000000	0.370680
1158.000000	0.370556
1159.000000	0.370498
1160.000000	0.370506
1161.000000	0.370462
1162.000000	0.370456
1163.000000	0.370538
1164.000000	0.370571
1165.000000	0.370620
1166.000000	0.370709
1167.000000	0.370832
1168.000000	0.370811
1169.000000	0.370780
1170.000000	0.370761
1171.000000	0.370684
1172.000000	0.370718
1173.000000	0.370761
1174.000000	0.370821
1175.000000	0.370926
1176.000000	0.370935
1177.000000	0.371017
1178.000000	0.371063
1179.000000	0.371027
1180.000000	0.370965
1181.000000	0.370992
1182.000000	0.370987
1183.000000	0.371036
1184.000000	0.371157
1185.000000	0.371219
1186.000000	0.371305
1187.000000	0.371342
1188.000000	0.371316
1189.000000	0.371307
1190.000000	0.371381
1191.000000	0.371386
1192.000000	0.371439
1193.000000	0.371602
1194.000000	0.371656
1195.000000	0.371718
1196.000000	0.371776
1197.000000	0.371831
1198.000000	0.371878
1199.000000	0.371923
1200.000000	0.371947
1201.000000	0.372010
1202.000000	0.372059
1203.000000	0.372104
1204.000000	0.372161
1205.000000	0.372238
1206.000000	0.372227
1207.000000	0.372258
1208.000000	0.372255
1209.000000	0.372264
1210.000000	0.372294
1211.000000	0.372370
1212.000000	0.372373
1213.000000	0.372380
1214.000000	0.372433
1215.000000	0.372453
1216.000000	0.372454
1217.000000	0.372428
1218.000000	0.372417
1219.000000	0.372389
1220.000000	0.372451
1221.000000	0.372572
1222.000000	0.372640
1223.000000	0.372689
1224.000000	0.372773
1225.000000	0.372809
1226.000000	0.372847
1227.000000	0.372831
1228.000000	0.372822
1229.000000	0.372782
1230.000000	0.372669
1231.000000	0.372605
1232.000000	0.372705
1233.000000	0.372829
1234.000000	0.372984
1235.000000	0.373052
1236.000000	0.372952
1237.000000	0.373023
1238.000000	0.373090
1239.000000	0.373137
1240.000000	0.373267
1241.000000	0.373350
1242.000000	0.373330
1243.000000	0.373341
1244.000000	0.373389
1245.000000	0.373538
1246.000000	0.373630
1247.000000	0.373757
1248.000000	0.373921
1249.000000	0.374001
1250.000000	0.374092
1251.000000	0.374218
1252.000000	0.374283
1253.000000	0.374339
1254.000000	0.374392
1255.000000	0.374402
1256.000000	0.374441
1257.000000	0.374523
1258.000000	0.374620
1259.000000	0.374636
1260.000000	0.374752
1261.000000	0.374848
1262.000000	0.374922
1263.000000	0.375032
1264.000000	0.375176
1265.000000	0.375257
1266.000000	0.375285
1267.000000	0.375368
1268.000000	0.375402
1269.000000	0.375320
1270.000000	0.375438
1271.000000	0.375546
1272.000000	0.375577
1273.000000	0.375707
1274.000000	0.375765
1275.000000	0.375798
1276.000000	0.375827
1277.000000	0.375928
1278.000000	0.375929
1279.000000	0.375937
1280.000000	0.375886
1281.000000	0.375811
1282.000000	0.375733
1283.000000	0.375814
1284.000000	0.375883
1285.000000	0.375964
1286.000000	0.376114
1287.000000	0.376210
1288.000000	0.376253
1289.000000	0.376264
1290.000000	0.376191
1291.000000	0.376140
1292.000000	0.376160
1293.000000	0.376175
1294.000000	0.376203
1295.000000	0.376305
1296.000000	0.376353
1297.000000	0.376376
1298.000000	0.376495
1299.000000	0.376593
1300.000000	0.376668
1301.000000	0.376692
1302.000000	0.376610
1303.000000	0.376499
1304.000000	0.376421
1305.000000	0.376456
1306.000000	0.376415
1307.000000	0.376440
1308.000000	0.376452
1309.000000	0.376397
1310.000000	0.376338
1311.000000	0.376329
1312.000000	0.376253
1313.000000	0.376119
1314.000000	0.376005
1315.000000	0.375836
1316.000000	0.375783
1317.000000	0.375774
1318.000000	0.375700
1319.000000	0.375620
1320.000000	0.375534
1321.000000	0.375370
1322.000000	0.375209
1323.000000	0.375110
1324.000000	0.375057
1325.000000	0.374958
1326.000000	0.374820
1327.000000	0.374677
1328.000000	0.374539
1329.000000	0.374342
1330.000000	0.374123
1331.000000	0.373971
1332.000000	0.373891
1333.000000	0.373753
1334.000000	0.373695
1335.000000	0.373644
1336.000000	0.373563
1337.000000	0.373455
1338.000000	0.373326
1339.000000	0.373125
1340.000000	0.372862
1341.000000	0.372646
1342.000000	0.372386
1343.000000	0.372131
1344.000000	0.371952
1345.000000	0.371731
1346.000000	0.371640
1347.000000	0.371487
1348.000000	0.371295
1349.000000	0.371062
1350.000000	0.370856
1351.000000	0.370598
1352.000000	0.370312
1353.000000	0.370014
1354.000000	0.369710
1355.000000	0.369407
1356.000000	0.369165
1357.000000	0.368862
1358.000000	0.368562
1359.000000	0.368285
1360.000000	0.368016
1361.000000	0.367821
1362.000000	0.367565
1363.000000	0.367256
1364.000000	0.367009
1365.000000	0.366719
1366.000000	0.366490
1367.000000	0.366318
1368.000000	0.366109
1369.000000	0.366013
1370.000000	0.365761
1371.000000	0.365414
1372.000000	0.365094
1373.000000	0.364726
1374.000000	0.364386
1375.000000	0.364053
1376.000000	0.363750
1377.000000	0.363410
1378.000000	0.363018
1379.000000	0.362535
1380.000000	0.362042
1381.000000	0.361499
1382.000000	0.360864
1383.000000	0.360301
1384.000000	0.359597
1385.000000	0.358775
1386.000000	0.358053
1387.000000	0.357280
1388.000000	0.356427
1389.000000	0.355577
1390.000000	0.354673
1391.000000	0.353645
1392.000000	0.352618
1393.000000	0.351480
1394.000000	0.350284
1395.000000	0.349078
1396.000000	0.347827
1397.000000	0.346477
1398.000000	0.345034
1399.000000	0.343625
1400.000000	0.342132
1401.000000	0.340622
1402.000000	0.339165
1403.000000	0.337676
1404.000000	0.336220
1405.000000	0.334689
1406.000000	0.333187
1407.000000	0.331779
1408.000000	0.330336
1409.000000	0.329047
1410.000000	0.327892
1411.000000	0.326660
1412.000000	0.325361
1413.000000	0.324088
1414.000000	0.322839
1415.000000	0.321652
1416.000000	0.320494
1417.000000	0.319418
1418.000000	0.318291
1419.000000	0.317156
1420.000000	0.316076
1421.000000	0.315075
1422.000000	0.314038
1423.000000	0.313086
1424.000000	0.312079
1425.000000	0.311060
1426.000000	0.310027
1427.000000	0.309067
1428.000000	0.308180
1429.000000	0.307278
1430.000000	0.306440
1431.000000	0.305626
1432.000000	0.304804
1433.000000	0.304014
1434.000000	0.303233
1435.000000	0.302514
1436.000000	0.301840
1437.000000	0.301178
1438.000000	0.300512
1439.000000	0.299913
1440.000000	0.299375
1441.000000	0.298870
1442.000000	0.298428
1443.000000	0.297994
1444.000000	0.297621
1445.000000	0.297283
1446.000000	0.296967
1447.000000	0.296717
1448.000000	0.296485
1449.000000	0.296265
1450.000000	0.296071
1451.000000	0.295932
1452.000000	0.295799
1453.000000	0.295650
1454.000000	0.295521
1455.000000	0.295393
1456.000000	0.295301
1457.000000	0.295255
1458.000000	0.295198
1459.000000	0.295130
1460.000000	0.295062
1461.000000	0.294972
1462.000000	0.294893
1463.000000	0.294810
1464.000000	0.294750
1465.000000	0.294740
1466.000000	0.294686
1467.000000	0.294607
1468.000000	0.294565
1469.000000	0.294576
1470.000000	0.294572
1471.000000	0.294707
1472.000000	0.294849
1473.000000	0.295057
1474.000000	0.295299
1475.000000	0.295523
1476.000000	0.295812
1477.000000	0.296146
1478.000000	0.296494
1479.000000	0.296883
1480.000000	0.297294
1481.000000	0.297679
1482.000000	0.298093
1483.000000	0.298562
1484.000000	0.299050
1485.000000	0.299531
1486.000000	0.300033
1487.000000	0.300540
1488.000000	0.301067
1489.000000	0.301611
1490.000000	0.302072
1491.000000	0.302564
1492.000000	0.303018
1493.000000	0.303484
1494.000000	0.303906
1495.000000	0.304379
1496.000000	0.304888
1497.000000	0.305359
1498.000000	0.305861
1499.000000	0.306329
1500.000000	0.306763
1501.000000	0.307117
1502.000000	0.307447
1503.000000	0.307851
1504.000000	0.308227
1505.000000	0.308576
1506.000000	0.308999
1507.000000	0.309344
1508.000000	0.309713
1509.000000	0.310140
1510.000000	0.310473
1511.000000	0.310824
1512.000000	0.311112
1513.000000	0.311365
1514.000000	0.311710
1515.000000	0.311979
1516.000000	0.312228
1517.000000	0.312437
1518.000000	0.312622
1519.000000	0.312791
1520.000000	0.312999
1521.000000	0.313191
1522.000000	0.313390
1523.000000	0.313612
1524.000000	0.313772
1525.000000	0.314001
1526.000000	0.314209
1527.000000	0.314355
1528.000000	0.314552
1529.000000	0.314707
1530.000000	0.314787
1531.000000	0.314967
1532.000000	0.315124
1533.000000	0.315228
1534.000000	0.315377
1535.000000	0.315508
1536.000000	0.315578
1537.000000	0.315751
1538.000000	0.315914
1539.000000	0.315956
1540.000000	0.316042
1541.000000	0.316147
1542.000000	0.316183
1543.000000	0.316263
1544.000000	0.316338
1545.000000	0.316387
1546.000000	0.316472
1547.000000	0.316542
1548.000000	0.316597
1549.000000	0.316643
1550.000000	0.316638
1551.000000	0.316652
1552.000000	0.316696
1553.000000	0.316697
1554.000000	0.316728
1555.000000	0.316816
1556.000000	0.316892
1557.000000	0.316956
1558.000000	0.317054
1559.000000	0.317119
1560.000000	0.317152
1561.000000	0.317246
1562.000000	0.317266
1563.000000	0.317260
1564.000000	0.317286
1565.000000	0.317303
1566.000000	0.317222
1567.000000	0.317201
1568.000000	0.317155
1569.000000	0.317114
1570.000000	0.317095
1571.000000	0.317076
1572.000000	0.317048
1573.000000	0.317019
1574.000000	0.317003
1575.000000	0.317019
1576.000000	0.317061
1577.000000	0.317112
1578.000000	0.317105
1579.000000	0.317146
1580.000000	0.317149
1581.000000	0.317175
1582.000000	0.317197
1583.000000	0.317199
1584.000000	0.317191
1585.000000	0.317262
1586.000000	0.317302
1587.000000	0.317336
1588.000000	0.317357
1589.000000	0.317368
1590.000000	0.317368
1591.000000	0.317374
1592.000000	0.317400
1593.000000	0.317461
1594.000000	0.317464
1595.000000	0.317506
1596.000000	0.317518
1597.000000	0.317506
1598.000000	0.317503
1599.000000	0.317541
1600.000000	0.317529
1601.000000	0.317556
1602.000000	0.317564
1603.000000	0.317568
1604.000000	0.317587
1605.000000	0.317642
1606.000000	0.317699
1607.000000	0.317830
1608.000000	0.317908
1609.000000	0.318007
1610.000000	0.318093
1611.000000	0.318208
1612.000000	0.318280
1613.000000	0.318398
1614.000000	0.318529
1615.000000	0.318714
1616.000000	0.318893
1617.000000	0.319077
1618.000000	0.319210
1619.000000	0.319249
1620.000000	0.319342
1621.000000	0.319458
1622.000000	0.319678
1623.000000	0.319936
1624.000000	0.320161
1625.000000	0.320303
1626.000000	0.320412
1627.000000	0.320471
1628.000000	0.320651
1629.000000	0.320874
1630.000000	0.321089
1631.000000	0.321298
1632.000000	0.321459
1633.000000	0.321567
1634.000000	0.321765
1635.000000	0.322071
1636.000000	0.322269
1637.000000	0.322478
1638.000000	0.322650
1639.000000	0.322788
1640.000000	0.322941
1641.000000	0.323176
1642.000000	0.323375
1643.000000	0.323571
1644.000000	0.323788
1645.000000	0.324018
1646.000000	0.324215
1647.000000	0.324457
1648.000000	0.324643
1649.000000	0.324877
1650.000000	0.325128
1651.000000	0.325412
1652.000000	0.325684
1653.000000	0.325917
1654.000000	0.326171
1655.000000	0.326368
1656.000000	0.326478
1657.000000	0.326631
1658.000000	0.326769
1659.000000	0.326953
1660.000000	0.327169
1661.000000	0.327330
1662.000000	0.327528
1663.000000	0.327697
1664.000000	0.327877
1665.000000	0.328074
1666.000000	0.328370
1667.000000	0.328637
1668.000000	0.328861
1669.000000	0.329110
1670.000000	0.329240
1671.000000	0.329352
1672.000000	0.329576
1673.000000	0.329790
1674.000000	0.330050
1675.000000	0.330350
1676.000000	0.330565
1677.000000	0.330737
1678.000000	0.330851
1679.000000	0.330952
1680.000000	0.331041
1681.000000	0.331138
1682.000000	0.331321
1683.000000	0.331504
1684.000000	0.331639
1685.000000	0.331795
1686.000000	0.331843
1687.000000	0.331888
1688.000000	0.331939
1689.000000	0.331992
1690.000000	0.332027
1691.000000	0.332142
1692.000000	0.332251
1693.000000	0.332340
1694.000000	0.332415
1695.000000	0.332552
1696.000000	0.332627
1697.000000	0.332663
1698.000000	0.332750
1699.000000	0.332854
1700.000000	0.332941
1701.000000	0.333112
1702.000000	0.333143
1703.000000	0.333173
1704.000000	0.333319
1705.000000	0.333423
1706.000000	0.333543
1707.000000	0.333679
1708.000000	0.333790
1709.000000	0.333828
1710.000000	0.333944
1711.000000	0.334061
1712.000000	0.334143
1713.000000	0.334252
1714.000000	0.334449
1715.000000	0.334619
1716.000000	0.334811
1717.000000	0.334960
1718.000000	0.335037
1719.000000	0.335144
1720.000000	0.335300
1721.000000	0.335430
1722.000000	0.335580
1723.000000	0.335718
1724.000000	0.335848
1725.000000	0.336014
1726.000000	0.336108
1727.000000	0.336241
1728.000000	0.336364
1729.000000	0.336378
1730.000000	0.336466
1731.000000	0.336574
1732.000000	0.336635
1733.000000	0.336829
1734.000000	0.336996
1735.000000	0.337157
1736.000000	0.337314
1737.000000	0.337443
1738.000000	0.337584
1739.000000	0.337703
1740.000000	0.337775
1741.000000	0.337855
1742.000000	0.337935
1743.000000	0.338075
1744.000000	0.338221
1745.000000	0.338306
1746.000000	0.338393
1747.000000	0.338384
1748.000000	0.338374
1749.000000	0.338396
1750.000000	0.338371
1751.000000	0.338471
1752.000000	0.338630
1753.000000	0.338609
1754.000000	0.338675
1755.000000	0.338776
1756.000000	0.338838
1757.000000	0.338911
1758.000000	0.339012
1759.000000	0.339087
1760.000000	0.339166
1761.000000	0.339255
1762.000000	0.339295
1763.000000	0.339296
1764.000000	0.339333
1765.000000	0.339300
1766.000000	0.339367
1767.000000	0.339409
1768.000000	0.339461
1769.000000	0.339685
1770.000000	0.339872
1771.000000	0.340003
1772.000000	0.340153
1773.000000	0.340265
1774.000000	0.340369
1775.000000	0.340542
1776.000000	0.340660
1777.000000	0.340698
1778.000000	0.340753
1779.000000	0.340774
1780.000000	0.340848
1781.000000	0.340901
1782.000000	0.340951
1783.000000	0.341062
1784.000000	0.341210
1785.000000	0.341255
1786.000000	0.341402
1787.000000	0.341674
1788.000000	0.341852
1789.000000	0.341931
1790.000000	0.341951
1791.000000	0.341946
1792.000000	0.341992
1793.000000	0.342055
1794.000000	0.342134
1795.000000	0.342263
1796.000000	0.342448
1797.000000	0.342567
1798.000000	0.342666
1799.000000	0.342754
1800.000000	0.342833
1801.000000	0.342802
1802.000000	0.342884
1803.000000	0.342567
1804.000000	0.342717
1805.000000	0.343142
1806.000000	0.343412
1807.000000	0.343945
1808.000000	0.344176
1809.000000	0.344201
1810.000000	0.344087
1811.000000	0.344158
1812.000000	0.344167
1813.000000	0.344310
1814.000000	0.344812
1815.000000	0.344892
1816.000000	0.344745
1817.000000	0.344557
1818.000000	0.344061
1819.000000	0.344029
1820.000000	0.344201
1821.000000	0.344116
1822.000000	0.344132
1823.000000	0.344234
1824.000000	0.344078
1825.000000	0.343581
1826.000000	0.343518
1827.000000	0.343478
1828.000000	0.343278
1829.000000	0.343547
1830.000000	0.343678
1831.000000	0.343509
1832.000000	0.342969
1833.000000	0.342805
1834.000000	0.342593
1835.000000	0.342428
1836.000000	0.342278
1837.000000	0.342326
1838.000000	0.342398
1839.000000	0.342368
1840.000000	0.342443
1841.000000	0.342447
1842.000000	0.342133
1843.000000	0.341226
1844.000000	0.340797
1845.000000	0.340339
1846.000000	0.339956
1847.000000	0.339590
1848.000000	0.339101
1849.000000	0.338882
1850.000000	0.338542
1851.000000	0.338232
1852.000000	0.338177
1853.000000	0.337799
1854.000000	0.336941
1855.000000	0.336154
1856.000000	0.335214
1857.000000	0.334097
1858.000000	0.333214
1859.000000	0.332658
1860.000000	0.331950
1861.000000	0.331367
1862.000000	0.330284
1863.000000	0.328797
1864.000000	0.327551
1865.000000	0.326241
1866.000000	0.324679
1867.000000	0.323017
1868.000000	0.321424
1869.000000	0.319376
1870.000000	0.317438
1871.000000	0.315815
1872.000000	0.314068
1873.000000	0.312063
1874.000000	0.309848
1875.000000	0.307612
1876.000000	0.305079
1877.000000	0.302117
1878.000000	0.299231
1879.000000	0.296376
1880.000000	0.293198
1881.000000	0.290123
1882.000000	0.286895
1883.000000	0.283232
1884.000000	0.279738
1885.000000	0.276038
1886.000000	0.272213
1887.000000	0.268348
1888.000000	0.264247
1889.000000	0.259821
1890.000000	0.255380
1891.000000	0.250870
1892.000000	0.246414
1893.000000	0.242078
1894.000000	0.237640
1895.000000	0.233070
1896.000000	0.228438
1897.000000	0.223989
1898.000000	0.219497
1899.000000	0.215274
1900.000000	0.211473
1901.000000	0.207520
1902.000000	0.203583
1903.000000	0.200019
1904.000000	0.196468
1905.000000	0.193174
1906.000000	0.190171
1907.000000	0.187558
1908.000000	0.185072
1909.000000	0.183018
1910.000000	0.180963
1911.000000	0.179045
1912.000000	0.177338
1913.000000	0.175495
1914.000000	0.173875
1915.000000	0.172216
1916.000000	0.170710
1917.000000	0.169262
1918.000000	0.167925
1919.000000	0.166682
1920.000000	0.165648
1921.000000	0.164576
1922.000000	0.163816
1923.000000	0.163352
1924.000000	0.163053
1925.000000	0.162870
1926.000000	0.162607
1927.000000	0.162505
1928.000000	0.162419
1929.000000	0.162408
1930.000000	0.162445
1931.000000	0.162517
1932.000000	0.162532
1933.000000	0.162657
1934.000000	0.162699
1935.000000	0.162777
1936.000000	0.162920
1937.000000	0.162726
1938.000000	0.162641
1939.000000	0.162599
1940.000000	0.162582
1941.000000	0.162531
1942.000000	0.162621
1943.000000	0.162431
1944.000000	0.162278
1945.000000	0.162146
1946.000000	0.162067
1947.000000	0.162146
1948.000000	0.162100
1949.000000	0.161909
1950.000000	0.161590
1951.000000	0.161218
1952.000000	0.160781
1953.000000	0.160267
1954.000000	0.159858
1955.000000	0.159564
1956.000000	0.159230
1957.000000	0.158947
1958.000000	0.158713
1959.000000	0.158407
1960.000000	0.158063
1961.000000	0.157896
1962.000000	0.157639
1963.000000	0.157393
1964.000000	0.157134
1965.000000	0.156877
1966.000000	0.156614
1967.000000	0.156599
1968.000000	0.156617
1969.000000	0.156630
1970.000000	0.156778
1971.000000	0.156937
1972.000000	0.157138
1973.000000	0.157312
1974.000000	0.157702
1975.000000	0.157918
1976.000000	0.158010
1977.000000	0.158241
1978.000000	0.158326
1979.000000	0.158537
1980.000000	0.158961
1981.000000	0.159244
1982.000000	0.159746
1983.000000	0.160386
1984.000000	0.160829
1985.000000	0.161200
1986.000000	0.161617
1987.000000	0.161977
1988.000000	0.162408
1989.000000	0.163059
1990.000000	0.163741
1991.000000	0.164469
1992.000000	0.165141
1993.000000	0.165712
1994.000000	0.166356
1995.000000	0.166834
1996.000000	0.167465
1997.000000	0.168213
1998.000000	0.169058
1999.000000	0.169929
2000.000000	0.171049
2001.000000	0.171963
2002.000000	0.172661
2003.000000	0.173606
2004.000000	0.174368
2005.000000	0.175015
2006.000000	0.176002
2007.000000	0.176986
2008.000000	0.178009
2009.000000	0.179262
2010.000000	0.180326
2011.000000	0.181208
2012.000000	0.182077
2013.000000	0.182816
2014.000000	0.183503
2015.000000	0.184397
2016.000000	0.185341
2017.000000	0.186374
2018.000000	0.187452
2019.000000	0.188367
2020.000000	0.189448
2021.000000	0.190530
2022.000000	0.191616
2023.000000	0.192659
2024.000000	0.193796
2025.000000	0.194871
2026.000000	0.195782
2027.000000	0.196691
2028.000000	0.197825
2029.000000	0.198826
2030.000000	0.199603
2031.000000	0.200620
2032.000000	0.201577
2033.000000	0.202415
2034.000000	0.203341
2035.000000	0.204489
2036.000000	0.205354
2037.000000	0.206268
2038.000000	0.207100
2039.000000	0.207771
2040.000000	0.208653
2041.000000	0.209463
2042.000000	0.210242
2043.000000	0.211205
2044.000000	0.211990
2045.000000	0.212846
2046.000000	0.213595
2047.000000	0.214413
2048.000000	0.215177
2049.000000	0.216142
2050.000000	0.217007
2051.000000	0.217859
2052.000000	0.218720
2053.000000	0.219445
2054.000000	0.220303
2055.000000	0.221042
2056.000000	0.221700
2057.000000	0.222452
2058.000000	0.223084
2059.000000	0.223793
2060.000000	0.224570
2061.000000	0.225473
2062.000000	0.226213
2063.000000	0.227050
2064.000000	0.227652
2065.000000	0.228212
2066.000000	0.228722
2067.000000	0.229328
2068.000000	0.229936
2069.000000	0.230447
2070.000000	0.231324
2071.000000	0.232090
2072.000000	0.232849
2073.000000	0.233745
2074.000000	0.234339
2075.000000	0.235168
2076.000000	0.236136
2077.000000	0.236959
2078.000000	0.237816
2079.000000	0.238635
2080.000000	0.239366
2081.000000	0.240114
2082.000000	0.240931
2083.000000	0.241709
2084.000000	0.242266
2085.000000	0.242919
2086.000000	0.243561
2087.000000	0.244189
2088.000000	0.244933
2089.000000	0.245704
2090.000000	0.246542
2091.000000	0.247509
2092.000000	0.248440
2093.000000	0.249479
2094.000000	0.250410
2095.000000	0.251457
2096.000000	0.252266
2097.000000	0.252924
2098.000000	0.253377
2099.000000	0.253610
2100.000000	0.253928
2101.000000	0.254576
2102.000000	0.255374
2103.000000	0.256081
2104.000000	0.256649
2105.000000	0.257331
2106.000000	0.257813
2107.000000	0.258529
2108.000000	0.259556
2109.000000	0.260403
2110.000000	0.261052
2111.000000	0.261689
2112.000000	0.262275
2113.000000	0.262655
2114.000000	0.262842
2115.000000	0.263011
2116.000000	0.263255
2117.000000	0.263489
2118.000000	0.263926
2119.000000	0.264392
2120.000000	0.264819
2121.000000	0.265148
2122.000000	0.265562
2123.000000	0.266033
2124.000000	0.266544
2125.000000	0.267204
2126.000000	0.267626
2127.000000	0.267987
2128.000000	0.268413
2129.000000	0.268626
2130.000000	0.268909
2131.000000	0.269197
2132.000000	0.269306
2133.000000	0.269480
2134.000000	0.269628
2135.000000	0.269706
2136.000000	0.270000
2137.000000	0.270344
2138.000000	0.270776
2139.000000	0.271171
2140.000000	0.271752
2141.000000	0.272122
2142.000000	0.272300
2143.000000	0.272364
2144.000000	0.272572
2145.000000	0.272690
2146.000000	0.272606
2147.000000	0.273019
2148.000000	0.273337
2149.000000	0.273662
2150.000000	0.274184
2151.000000	0.274475
2152.000000	0.274371
2153.000000	0.274262
2154.000000	0.274140
2155.000000	0.273813
2156.000000	0.273703
2157.000000	0.273697
2158.000000	0.273764
2159.000000	0.273949
2160.000000	0.274227
2161.000000	0.274750
2162.000000	0.275082
2163.000000	0.275402
2164.000000	0.275539
2165.000000	0.275517
2166.000000	0.275286
2167.000000	0.275253
2168.000000	0.274681
2169.000000	0.274223
2170.000000	0.274191
2171.000000	0.274252
2172.000000	0.274591
2173.000000	0.274925
2174.000000	0.275446
2175.000000	0.275809
2176.000000	0.276247
2177.000000	0.276525
2178.000000	0.276884
2179.000000	0.277046
2180.000000	0.276727
2181.000000	0.276940
2182.000000	0.276712
2183.000000	0.276647
2184.000000	0.276996
2185.000000	0.277131
2186.000000	0.277065
2187.000000	0.277120
2188.000000	0.277078
2189.000000	0.276698
2190.000000	0.276267
2191.000000	0.276180
2192.000000	0.275953
2193.000000	0.275718
2194.000000	0.275484
2195.000000	0.275322
2196.000000	0.275160
2197.000000	0.274798
2198.000000	0.274702
2199.000000	0.274967
2200.000000	0.275122
2201.000000	0.275516
2202.000000	0.275731
2203.000000	0.275824
2204.000000	0.275383
2205.000000	0.274598
2206.000000	0.274653
2207.000000	0.274709
2208.000000	0.275313
2209.000000	0.276697
2210.000000	0.277476
2211.000000	0.277354
2212.000000	0.277714
2213.000000	0.277652
2214.000000	0.276595
2215.000000	0.276347
2216.000000	0.276467
2217.000000	0.276814
2218.000000	0.277785
2219.000000	0.278202
2220.000000	0.278603
2221.000000	0.278707
2222.000000	0.278222
2223.000000	0.278097
2224.000000	0.278049
2225.000000	0.278286
2226.000000	0.277808
2227.000000	0.276798
2228.000000	0.276743
2229.000000	0.276094
2230.000000	0.276075
2231.000000	0.276947
2232.000000	0.276952
2233.000000	0.276718
2234.000000	0.276638
2235.000000	0.277085
2236.000000	0.277214
2237.000000	0.277423
2238.000000	0.277593
2239.000000	0.277736
2240.000000	0.277394
2241.000000	0.277065
2242.000000	0.276449
2243.000000	0.274848
2244.000000	0.274111
2245.000000	0.273346
2246.000000	0.273041
2247.000000	0.273631
2248.000000	0.273833
2249.000000	0.274091
2250.000000	0.274574
2251.000000	0.274650
2252.000000	0.274479
2253.000000	0.274468
2254.000000	0.274580
2255.000000	0.274953
2256.000000	0.275268
2257.000000	0.275368
2258.000000	0.275498
2259.000000	0.275535
2260.000000	0.274895
2261.000000	0.274232
2262.000000	0.273608
2263.000000	0.272838
2264.000000	0.271289
2265.000000	0.270883
2266.000000	0.271481
2267.000000	0.270575
2268.000000	0.269532
2269.000000	0.268736
2270.000000	0.266786
2271.000000	0.265665
2272.000000	0.265617
2273.000000	0.264997
2274.000000	0.263428
2275.000000	0.263182
2276.000000	0.264285
2277.000000	0.263815
2278.000000	0.263186
2279.000000	0.262896
2280.000000	0.260773
2281.000000	0.258473
2282.000000	0.257628
2283.000000	0.256817
2284.000000	0.256171
2285.000000	0.255908
2286.000000	0.255688
2287.000000	0.255084
2288.000000	0.254057
2289.000000	0.252996
2290.000000	0.251416
2291.000000	0.249856
2292.000000	0.248477
2293.000000	0.247142
2294.000000	0.245680
2295.000000	0.243798
2296.000000	0.242732
2297.000000	0.241721
2298.000000	0.241251
2299.000000	0.241701
2300.000000	0.241465
2301.000000	0.241368
2302.000000	0.240982
2303.000000	0.240150
2304.000000	0.239761
2305.000000	0.239186
2306.000000	0.238941
2307.000000	0.238936
2308.000000	0.239312
2309.000000	0.239238
2310.000000	0.239404
2311.000000	0.240063
2312.000000	0.239899
2313.000000	0.239975
2314.000000	0.240291
2315.000000	0.239770
2316.000000	0.239172
2317.000000	0.238497
2318.000000	0.238300
2319.000000	0.238697
2320.000000	0.238512
2321.000000	0.238464
2322.000000	0.237635
2323.000000	0.235438
2324.000000	0.234066
2325.000000	0.233093
2326.000000	0.232501
2327.000000	0.232739
2328.000000	0.232802
2329.000000	0.232404
2330.000000	0.231701
2331.000000	0.231121
2332.000000	0.230644
2333.000000	0.229612
2334.000000	0.227551
2335.000000	0.226457
2336.000000	0.224570
2337.000000	0.223662
2338.000000	0.224369
2339.000000	0.224157
2340.000000	0.224372
2341.000000	0.223422
2342.000000	0.220971
2343.000000	0.219192
2344.000000	0.216453
2345.000000	0.214835
2346.000000	0.214628
2347.000000	0.213874
2348.000000	0.213271
2349.000000	0.212861
2350.000000	0.211674
2351.000000	0.210638
2352.000000	0.210040
2353.000000	0.209219
2354.000000	0.207863
2355.000000	0.206538
2356.000000	0.204726
2357.000000	0.202792
2358.000000	0.201987
2359.000000	0.201606
2360.000000	0.201592
2361.000000	0.200811
2362.000000	0.198273
2363.000000	0.196641
2364.000000	0.194175
2365.000000	0.192238
2366.000000	0.192145
2367.000000	0.190422
2368.000000	0.188907
2369.000000	0.187923
2370.000000	0.186471
2371.000000	0.185632
2372.000000	0.186529
2373.000000	0.187691
2374.000000	0.186628
2375.000000	0.185487
2376.000000	0.183101
2377.000000	0.178497
2378.000000	0.177677
2379.000000	0.178105
2380.000000	0.176251
2381.000000	0.175824
2382.000000	0.173625
2383.000000	0.170268
2384.000000	0.170017
2385.000000	0.171121
2386.000000	0.171339
2387.000000	0.170503
2388.000000	0.169585
2389.000000	0.167904
2390.000000	0.166438
2391.000000	0.165954
2392.000000	0.166064
2393.000000	0.166627
2394.000000	0.167194
2395.000000	0.167375
2396.000000	0.165747
2397.000000	0.163614
2398.000000	0.162558
2399.000000	0.161941
2400.000000	0.161190
2401.000000	0.160663
2402.000000	0.160740
2403.000000	0.163270
2404.000000	0.166075
2405.000000	0.166034
2406.000000	0.166842
2407.000000	0.165970
2408.000000	0.164214
2409.000000	0.164158
2410.000000	0.161166
2411.000000	0.155980
2412.000000	0.152310
2413.000000	0.150992
2414.000000	0.151045
2415.000000	0.154316
2416.000000	0.157688
2417.000000	0.157421
2418.000000	0.157452
2419.000000	0.157796
2420.000000	0.157030
2421.000000	0.156949
2422.000000	0.157192
2423.000000	0.157213
2424.000000	0.156744
2425.000000	0.157212
2426.000000	0.157280
2427.000000	0.153918
2428.000000	0.154039
2429.000000	0.158133
2430.000000	0.161887
2431.000000	0.164898
2432.000000	0.163691
2433.000000	0.159886
2434.000000	0.154133
2435.000000	0.151284
2436.000000	0.151634
2437.000000	0.148255
2438.000000	0.151507
2439.000000	0.155932
2440.000000	0.155287
2441.000000	0.160503
2442.000000	0.162025
2443.000000	0.156771
2444.000000	0.156209
2445.000000	0.156321
2446.000000	0.152871
2447.000000	0.155307
2448.000000	0.157159
2449.000000	0.156883
2450.000000	0.155264
2451.000000	0.148331
2452.000000	0.144363
2453.000000	0.140761
2454.000000	0.139765
2455.000000	0.139720
2456.000000	0.136686
2457.000000	0.133926
2458.000000	0.130506
2459.000000	0.130487
2460.000000	0.136160
2461.000000	0.144326
2462.000000	0.146454
2463.000000	0.144236
2464.000000	0.145596
2465.000000	0.146777
2466.000000	0.147971
2467.000000	0.152325
2468.000000	0.152186
2469.000000	0.145813
2470.000000	0.144740
2471.000000	0.143233
2472.000000	0.140778
2473.000000	0.143406
2474.000000	0.138510
2475.000000	0.137181
2476.000000	0.137905
2477.000000	0.126176
2478.000000	0.123232
2479.000000	0.123263
2480.000000	0.119069
2481.000000	0.121997
2482.000000	0.118694
2483.000000	0.108957
2484.000000	0.109703
2485.000000	0.116278
2486.000000	0.119610
2487.000000	0.133895
2488.000000	0.143812
2489.000000	0.142879
2490.000000	0.148853
2491.000000	0.141134
2492.000000	0.135306
2493.000000	0.124896
2494.000000	0.130357
2495.000000	0.152864
2496.000000	0.158563
2497.000000	0.171425
2498.000000	0.171007
2499.000000	0.147756
2500.000000	0.137662
