# Wavelength	NAu-1-20_HEX-70_FV7-10_00000.asd.rts.txt
350.000000	0.209856
351.000000	0.201949
352.000000	0.215542
353.000000	0.225053
354.000000	0.220618
355.000000	0.213677
356.000000	0.202660
357.000000	0.198420
358.000000	0.218817
359.000000	0.222973
360.000000	0.217196
361.000000	0.216102
362.000000	0.214822
363.000000	0.212891
364.000000	0.211259
365.000000	0.217130
366.000000	0.215843
367.000000	0.208291
368.000000	0.208891
369.000000	0.208883
370.000000	0.208582
371.000000	0.209760
372.000000	0.204481
373.000000	0.202612
374.000000	0.209339
375.000000	0.212425
376.000000	0.212526
377.000000	0.212075
378.000000	0.215815
379.000000	0.221168
380.000000	0.223218
381.000000	0.218767
382.000000	0.218315
383.000000	0.220540
384.000000	0.222903
385.000000	0.223393
386.000000	0.222426
387.000000	0.222347
388.000000	0.227994
389.000000	0.230139
390.000000	0.229640
391.000000	0.230457
392.000000	0.232434
393.000000	0.233670
394.000000	0.233343
395.000000	0.234655
396.000000	0.237483
397.000000	0.240558
398.000000	0.240975
399.000000	0.240803
400.000000	0.241854
401.000000	0.245516
402.000000	0.247120
403.000000	0.247721
404.000000	0.249054
405.000000	0.250265
406.000000	0.252259
407.000000	0.254772
408.000000	0.255280
409.000000	0.255268
410.000000	0.255646
411.000000	0.257074
412.000000	0.259126
413.000000	0.260774
414.000000	0.261326
415.000000	0.262514
416.000000	0.263479
417.000000	0.263795
418.000000	0.264357
419.000000	0.264731
420.000000	0.264945
421.000000	0.265373
422.000000	0.266615
423.000000	0.267710
424.000000	0.267525
425.000000	0.267586
426.000000	0.267400
427.000000	0.266696
428.000000	0.266739
429.000000	0.267100
430.000000	0.267429
431.000000	0.267423
432.000000	0.267153
433.000000	0.266828
434.000000	0.266863
435.000000	0.267287
436.000000	0.267545
437.000000	0.267259
438.000000	0.267582
439.000000	0.267464
440.000000	0.266696
441.000000	0.266497
442.000000	0.266236
443.000000	0.265788
444.000000	0.265506
445.000000	0.265325
446.000000	0.265598
447.000000	0.266425
448.000000	0.266947
449.000000	0.267491
450.000000	0.268473
451.000000	0.270165
452.000000	0.272418
453.000000	0.274747
454.000000	0.276415
455.000000	0.278739
456.000000	0.281541
457.000000	0.283869
458.000000	0.286210
459.000000	0.288663
460.000000	0.291202
461.000000	0.293252
462.000000	0.295100
463.000000	0.296726
464.000000	0.298073
465.000000	0.299415
466.000000	0.300647
467.000000	0.301573
468.000000	0.302649
469.000000	0.303568
470.000000	0.304144
471.000000	0.304869
472.000000	0.305668
473.000000	0.306467
474.000000	0.307215
475.000000	0.307812
476.000000	0.308428
477.000000	0.309121
478.000000	0.309581
479.000000	0.310119
480.000000	0.310833
481.000000	0.311253
482.000000	0.311858
483.000000	0.312741
484.000000	0.313248
485.000000	0.313649
486.000000	0.314268
487.000000	0.314777
488.000000	0.315210
489.000000	0.315718
490.000000	0.316527
491.000000	0.317210
492.000000	0.317857
493.000000	0.318507
494.000000	0.319130
495.000000	0.319769
496.000000	0.320411
497.000000	0.321088
498.000000	0.321743
499.000000	0.322438
500.000000	0.323156
501.000000	0.323820
502.000000	0.324522
503.000000	0.325311
504.000000	0.325975
505.000000	0.326585
506.000000	0.327253
507.000000	0.327934
508.000000	0.328765
509.000000	0.329690
510.000000	0.330396
511.000000	0.331163
512.000000	0.332040
513.000000	0.332830
514.000000	0.333646
515.000000	0.334507
516.000000	0.335336
517.000000	0.336228
518.000000	0.337111
519.000000	0.337864
520.000000	0.338799
521.000000	0.339748
522.000000	0.340653
523.000000	0.341595
524.000000	0.342550
525.000000	0.343504
526.000000	0.344497
527.000000	0.345417
528.000000	0.346341
529.000000	0.347413
530.000000	0.348460
531.000000	0.349479
532.000000	0.350423
533.000000	0.351555
534.000000	0.352694
535.000000	0.353765
536.000000	0.354844
537.000000	0.355861
538.000000	0.356884
539.000000	0.358008
540.000000	0.359211
541.000000	0.360373
542.000000	0.361439
543.000000	0.362444
544.000000	0.363468
545.000000	0.364502
546.000000	0.365737
547.000000	0.366872
548.000000	0.367923
549.000000	0.368995
550.000000	0.370005
551.000000	0.371034
552.000000	0.372112
553.000000	0.373140
554.000000	0.374151
555.000000	0.375173
556.000000	0.376142
557.000000	0.377102
558.000000	0.378186
559.000000	0.379129
560.000000	0.380065
561.000000	0.381088
562.000000	0.382069
563.000000	0.382952
564.000000	0.383808
565.000000	0.384586
566.000000	0.385436
567.000000	0.386265
568.000000	0.387002
569.000000	0.387765
570.000000	0.388513
571.000000	0.389202
572.000000	0.389811
573.000000	0.390433
574.000000	0.391038
575.000000	0.391641
576.000000	0.392260
577.000000	0.392764
578.000000	0.393175
579.000000	0.393712
580.000000	0.394247
581.000000	0.394710
582.000000	0.395120
583.000000	0.395531
584.000000	0.395975
585.000000	0.396473
586.000000	0.396830
587.000000	0.397090
588.000000	0.397364
589.000000	0.397712
590.000000	0.398054
591.000000	0.398322
592.000000	0.398491
593.000000	0.398739
594.000000	0.399049
595.000000	0.399201
596.000000	0.399389
597.000000	0.399651
598.000000	0.399824
599.000000	0.399819
600.000000	0.399877
601.000000	0.400082
602.000000	0.400282
603.000000	0.400435
604.000000	0.400542
605.000000	0.400616
606.000000	0.400708
607.000000	0.400824
608.000000	0.400933
609.000000	0.401086
610.000000	0.401232
611.000000	0.401300
612.000000	0.401270
613.000000	0.401318
614.000000	0.401536
615.000000	0.401578
616.000000	0.401616
617.000000	0.401654
618.000000	0.401664
619.000000	0.401748
620.000000	0.401830
621.000000	0.401861
622.000000	0.401901
623.000000	0.401920
624.000000	0.401909
625.000000	0.401994
626.000000	0.402074
627.000000	0.402125
628.000000	0.402266
629.000000	0.402441
630.000000	0.402499
631.000000	0.402613
632.000000	0.402823
633.000000	0.402990
634.000000	0.402987
635.000000	0.403123
636.000000	0.403277
637.000000	0.403356
638.000000	0.403489
639.000000	0.403612
640.000000	0.403781
641.000000	0.403931
642.000000	0.404097
643.000000	0.404291
644.000000	0.404506
645.000000	0.404585
646.000000	0.404713
647.000000	0.404964
648.000000	0.405124
649.000000	0.405286
650.000000	0.405458
651.000000	0.405619
652.000000	0.405732
653.000000	0.405895
654.000000	0.406141
655.000000	0.406403
656.000000	0.406664
657.000000	0.406853
658.000000	0.407062
659.000000	0.407274
660.000000	0.407471
661.000000	0.407712
662.000000	0.407930
663.000000	0.408178
664.000000	0.408432
665.000000	0.408691
666.000000	0.408957
667.000000	0.409195
668.000000	0.409467
669.000000	0.409762
670.000000	0.410072
671.000000	0.410365
672.000000	0.410668
673.000000	0.410982
674.000000	0.411328
675.000000	0.411625
676.000000	0.411894
677.000000	0.412201
678.000000	0.412525
679.000000	0.412848
680.000000	0.413175
681.000000	0.413511
682.000000	0.413911
683.000000	0.414288
684.000000	0.414719
685.000000	0.415100
686.000000	0.415464
687.000000	0.415819
688.000000	0.416212
689.000000	0.416593
690.000000	0.416970
691.000000	0.417370
692.000000	0.417756
693.000000	0.418171
694.000000	0.418505
695.000000	0.418910
696.000000	0.419366
697.000000	0.419795
698.000000	0.420275
699.000000	0.420766
700.000000	0.421232
701.000000	0.421657
702.000000	0.422059
703.000000	0.422427
704.000000	0.422780
705.000000	0.423216
706.000000	0.423682
707.000000	0.424183
708.000000	0.424714
709.000000	0.425205
710.000000	0.425651
711.000000	0.426170
712.000000	0.426686
713.000000	0.427179
714.000000	0.427619
715.000000	0.428069
716.000000	0.428530
717.000000	0.428936
718.000000	0.429337
719.000000	0.429752
720.000000	0.430198
721.000000	0.430621
722.000000	0.431030
723.000000	0.431502
724.000000	0.431962
725.000000	0.432300
726.000000	0.432655
727.000000	0.433035
728.000000	0.433469
729.000000	0.433910
730.000000	0.434260
731.000000	0.434680
732.000000	0.435067
733.000000	0.435434
734.000000	0.435782
735.000000	0.436078
736.000000	0.436497
737.000000	0.436917
738.000000	0.437265
739.000000	0.437629
740.000000	0.437863
741.000000	0.438167
742.000000	0.438465
743.000000	0.438703
744.000000	0.438976
745.000000	0.439199
746.000000	0.439422
747.000000	0.439592
748.000000	0.439776
749.000000	0.439994
750.000000	0.440209
751.000000	0.440448
752.000000	0.440699
753.000000	0.440955
754.000000	0.441175
755.000000	0.441388
756.000000	0.441608
757.000000	0.441772
758.000000	0.441872
759.000000	0.441993
760.000000	0.442092
761.000000	0.442253
762.000000	0.442371
763.000000	0.442432
764.000000	0.442586
765.000000	0.442676
766.000000	0.442752
767.000000	0.442856
768.000000	0.442829
769.000000	0.442838
770.000000	0.442923
771.000000	0.442915
772.000000	0.442939
773.000000	0.442913
774.000000	0.442873
775.000000	0.442804
776.000000	0.442738
777.000000	0.442674
778.000000	0.442608
779.000000	0.442549
780.000000	0.442495
781.000000	0.442407
782.000000	0.442278
783.000000	0.442224
784.000000	0.442121
785.000000	0.442004
786.000000	0.441889
787.000000	0.441773
788.000000	0.441629
789.000000	0.441478
790.000000	0.441295
791.000000	0.441118
792.000000	0.441042
793.000000	0.440980
794.000000	0.440868
795.000000	0.440803
796.000000	0.440658
797.000000	0.440422
798.000000	0.440220
799.000000	0.440022
800.000000	0.439834
801.000000	0.439660
802.000000	0.439420
803.000000	0.439184
804.000000	0.439023
805.000000	0.438812
806.000000	0.438528
807.000000	0.438290
808.000000	0.438067
809.000000	0.437798
810.000000	0.437527
811.000000	0.437271
812.000000	0.436976
813.000000	0.436742
814.000000	0.436551
815.000000	0.436304
816.000000	0.436055
817.000000	0.435851
818.000000	0.435607
819.000000	0.435370
820.000000	0.435141
821.000000	0.434856
822.000000	0.434564
823.000000	0.434306
824.000000	0.434011
825.000000	0.433751
826.000000	0.433606
827.000000	0.433418
828.000000	0.433155
829.000000	0.432864
830.000000	0.432556
831.000000	0.432301
832.000000	0.431970
833.000000	0.431677
834.000000	0.431443
835.000000	0.431302
836.000000	0.431185
837.000000	0.430923
838.000000	0.430558
839.000000	0.430247
840.000000	0.430021
841.000000	0.429849
842.000000	0.429626
843.000000	0.429332
844.000000	0.429095
845.000000	0.428882
846.000000	0.428597
847.000000	0.428325
848.000000	0.428001
849.000000	0.427621
850.000000	0.427405
851.000000	0.427132
852.000000	0.426803
853.000000	0.426606
854.000000	0.426340
855.000000	0.426121
856.000000	0.425886
857.000000	0.425648
858.000000	0.425541
859.000000	0.425444
860.000000	0.425145
861.000000	0.424849
862.000000	0.424595
863.000000	0.424260
864.000000	0.423943
865.000000	0.423707
866.000000	0.423555
867.000000	0.423267
868.000000	0.423055
869.000000	0.422856
870.000000	0.422649
871.000000	0.422279
872.000000	0.421967
873.000000	0.421776
874.000000	0.421720
875.000000	0.421476
876.000000	0.421097
877.000000	0.420720
878.000000	0.420480
879.000000	0.420320
880.000000	0.420020
881.000000	0.419793
882.000000	0.419587
883.000000	0.419404
884.000000	0.419184
885.000000	0.419093
886.000000	0.418931
887.000000	0.418658
888.000000	0.418478
889.000000	0.418263
890.000000	0.417921
891.000000	0.417688
892.000000	0.417529
893.000000	0.417412
894.000000	0.417402
895.000000	0.417185
896.000000	0.416846
897.000000	0.416504
898.000000	0.416270
899.000000	0.416031
900.000000	0.415893
901.000000	0.415830
902.000000	0.415808
903.000000	0.415578
904.000000	0.415291
905.000000	0.415045
906.000000	0.414934
907.000000	0.414873
908.000000	0.414823
909.000000	0.414571
910.000000	0.414454
911.000000	0.414308
912.000000	0.414006
913.000000	0.413878
914.000000	0.413791
915.000000	0.413725
916.000000	0.413531
917.000000	0.413350
918.000000	0.413283
919.000000	0.413293
920.000000	0.413133
921.000000	0.413019
922.000000	0.412963
923.000000	0.412845
924.000000	0.412804
925.000000	0.412625
926.000000	0.412335
927.000000	0.412276
928.000000	0.412136
929.000000	0.411916
930.000000	0.411740
931.000000	0.411741
932.000000	0.411702
933.000000	0.411592
934.000000	0.411450
935.000000	0.411161
936.000000	0.410953
937.000000	0.410859
938.000000	0.410694
939.000000	0.410725
940.000000	0.410749
941.000000	0.410541
942.000000	0.410290
943.000000	0.410159
944.000000	0.410050
945.000000	0.409994
946.000000	0.409793
947.000000	0.409655
948.000000	0.409716
949.000000	0.409626
950.000000	0.409357
951.000000	0.409033
952.000000	0.409059
953.000000	0.409019
954.000000	0.408840
955.000000	0.408536
956.000000	0.408554
957.000000	0.408602
958.000000	0.408559
959.000000	0.408536
960.000000	0.408390
961.000000	0.408220
962.000000	0.408113
963.000000	0.408191
964.000000	0.408200
965.000000	0.408136
966.000000	0.407929
967.000000	0.407847
968.000000	0.407730
969.000000	0.407577
970.000000	0.407615
971.000000	0.407691
972.000000	0.407843
973.000000	0.407934
974.000000	0.407873
975.000000	0.407973
976.000000	0.408027
977.000000	0.407784
978.000000	0.407186
979.000000	0.407226
980.000000	0.407365
981.000000	0.407182
982.000000	0.407246
983.000000	0.407383
984.000000	0.407487
985.000000	0.407391
986.000000	0.407563
987.000000	0.407751
988.000000	0.407653
989.000000	0.407767
990.000000	0.407808
991.000000	0.407775
992.000000	0.407853
993.000000	0.408275
994.000000	0.408291
995.000000	0.408143
996.000000	0.408233
997.000000	0.408309
998.000000	0.408328
999.000000	0.408396
1000.000000	0.408460
1001.000000	0.408803
1002.000000	0.408138
1003.000000	0.408242
1004.000000	0.408198
1005.000000	0.407498
1006.000000	0.407320
1007.000000	0.407996
1008.000000	0.407690
1009.000000	0.407332
1010.000000	0.407775
1011.000000	0.408246
1012.000000	0.408865
1013.000000	0.408972
1014.000000	0.409058
1015.000000	0.409103
1016.000000	0.408788
1017.000000	0.408826
1018.000000	0.409202
1019.000000	0.409578
1020.000000	0.410219
1021.000000	0.410510
1022.000000	0.411473
1023.000000	0.411917
1024.000000	0.411712
1025.000000	0.411829
1026.000000	0.412050
1027.000000	0.411539
1028.000000	0.411504
1029.000000	0.412377
1030.000000	0.412625
1031.000000	0.412256
1032.000000	0.412586
1033.000000	0.412974
1034.000000	0.413227
1035.000000	0.413678
1036.000000	0.414040
1037.000000	0.414236
1038.000000	0.414328
1039.000000	0.414247
1040.000000	0.415109
1041.000000	0.415483
1042.000000	0.415124
1043.000000	0.415705
1044.000000	0.416535
1045.000000	0.417071
1046.000000	0.417572
1047.000000	0.418001
1048.000000	0.418125
1049.000000	0.418076
1050.000000	0.417841
1051.000000	0.418068
1052.000000	0.418058
1053.000000	0.418213
1054.000000	0.419073
1055.000000	0.419899
1056.000000	0.420797
1057.000000	0.421694
1058.000000	0.422470
1059.000000	0.422511
1060.000000	0.422722
1061.000000	0.423094
1062.000000	0.423246
1063.000000	0.423760
1064.000000	0.424063
1065.000000	0.423865
1066.000000	0.424128
1067.000000	0.424708
1068.000000	0.425039
1069.000000	0.425274
1070.000000	0.425666
1071.000000	0.426077
1072.000000	0.426477
1073.000000	0.427134
1074.000000	0.427742
1075.000000	0.427840
1076.000000	0.428309
1077.000000	0.428713
1078.000000	0.429255
1079.000000	0.429671
1080.000000	0.430168
1081.000000	0.430596
1082.000000	0.431120
1083.000000	0.431441
1084.000000	0.431594
1085.000000	0.432190
1086.000000	0.432949
1087.000000	0.433423
1088.000000	0.433929
1089.000000	0.434426
1090.000000	0.434693
1091.000000	0.434768
1092.000000	0.435173
1093.000000	0.435990
1094.000000	0.436084
1095.000000	0.435522
1096.000000	0.435792
1097.000000	0.435957
1098.000000	0.436471
1099.000000	0.437631
1100.000000	0.438494
1101.000000	0.439353
1102.000000	0.439986
1103.000000	0.440629
1104.000000	0.441039
1105.000000	0.440801
1106.000000	0.441113
1107.000000	0.441707
1108.000000	0.442012
1109.000000	0.442457
1110.000000	0.443010
1111.000000	0.443276
1112.000000	0.443019
1113.000000	0.443530
1114.000000	0.444407
1115.000000	0.445033
1116.000000	0.446070
1117.000000	0.446537
1118.000000	0.446499
1119.000000	0.446671
1120.000000	0.446600
1121.000000	0.446846
1122.000000	0.447589
1123.000000	0.448209
1124.000000	0.448545
1125.000000	0.448958
1126.000000	0.449160
1127.000000	0.449320
1128.000000	0.449466
1129.000000	0.449639
1130.000000	0.450021
1131.000000	0.450475
1132.000000	0.450806
1133.000000	0.451309
1134.000000	0.451841
1135.000000	0.452310
1136.000000	0.452585
1137.000000	0.452893
1138.000000	0.453099
1139.000000	0.453221
1140.000000	0.453346
1141.000000	0.453313
1142.000000	0.453467
1143.000000	0.453480
1144.000000	0.453702
1145.000000	0.453989
1146.000000	0.454137
1147.000000	0.454256
1148.000000	0.454112
1149.000000	0.454209
1150.000000	0.454384
1151.000000	0.454578
1152.000000	0.454814
1153.000000	0.454982
1154.000000	0.455096
1155.000000	0.455164
1156.000000	0.455076
1157.000000	0.455188
1158.000000	0.455349
1159.000000	0.455450
1160.000000	0.455628
1161.000000	0.455768
1162.000000	0.455846
1163.000000	0.456213
1164.000000	0.456395
1165.000000	0.456368
1166.000000	0.456561
1167.000000	0.456664
1168.000000	0.456786
1169.000000	0.457136
1170.000000	0.457288
1171.000000	0.457282
1172.000000	0.457467
1173.000000	0.457627
1174.000000	0.457843
1175.000000	0.458227
1176.000000	0.458378
1177.000000	0.458513
1178.000000	0.458665
1179.000000	0.458736
1180.000000	0.458707
1181.000000	0.458705
1182.000000	0.458788
1183.000000	0.458976
1184.000000	0.459191
1185.000000	0.459389
1186.000000	0.459761
1187.000000	0.459878
1188.000000	0.459791
1189.000000	0.459801
1190.000000	0.459836
1191.000000	0.459921
1192.000000	0.460167
1193.000000	0.460525
1194.000000	0.460853
1195.000000	0.461068
1196.000000	0.461199
1197.000000	0.461341
1198.000000	0.461374
1199.000000	0.461484
1200.000000	0.461629
1201.000000	0.461810
1202.000000	0.461974
1203.000000	0.462227
1204.000000	0.462361
1205.000000	0.462421
1206.000000	0.462357
1207.000000	0.462252
1208.000000	0.462157
1209.000000	0.462015
1210.000000	0.462049
1211.000000	0.462170
1212.000000	0.462277
1213.000000	0.462543
1214.000000	0.462816
1215.000000	0.463151
1216.000000	0.463294
1217.000000	0.463343
1218.000000	0.463341
1219.000000	0.463105
1220.000000	0.463161
1221.000000	0.463303
1222.000000	0.463475
1223.000000	0.463735
1224.000000	0.463900
1225.000000	0.463951
1226.000000	0.463976
1227.000000	0.463878
1228.000000	0.463878
1229.000000	0.463891
1230.000000	0.463909
1231.000000	0.463901
1232.000000	0.464091
1233.000000	0.464306
1234.000000	0.464538
1235.000000	0.464688
1236.000000	0.464635
1237.000000	0.464818
1238.000000	0.465045
1239.000000	0.465146
1240.000000	0.465249
1241.000000	0.465485
1242.000000	0.465566
1243.000000	0.465522
1244.000000	0.465512
1245.000000	0.465534
1246.000000	0.465494
1247.000000	0.465658
1248.000000	0.465926
1249.000000	0.466182
1250.000000	0.466365
1251.000000	0.466425
1252.000000	0.466488
1253.000000	0.466504
1254.000000	0.466549
1255.000000	0.466629
1256.000000	0.466643
1257.000000	0.466613
1258.000000	0.466752
1259.000000	0.466838
1260.000000	0.466961
1261.000000	0.467116
1262.000000	0.467205
1263.000000	0.467196
1264.000000	0.467358
1265.000000	0.467577
1266.000000	0.467594
1267.000000	0.467728
1268.000000	0.467788
1269.000000	0.467806
1270.000000	0.468025
1271.000000	0.468077
1272.000000	0.468154
1273.000000	0.468229
1274.000000	0.468292
1275.000000	0.468325
1276.000000	0.468406
1277.000000	0.468585
1278.000000	0.468629
1279.000000	0.468668
1280.000000	0.468773
1281.000000	0.468726
1282.000000	0.468523
1283.000000	0.468632
1284.000000	0.468714
1285.000000	0.468823
1286.000000	0.469078
1287.000000	0.469263
1288.000000	0.469234
1289.000000	0.469296
1290.000000	0.469139
1291.000000	0.468931
1292.000000	0.469003
1293.000000	0.468819
1294.000000	0.468540
1295.000000	0.468569
1296.000000	0.468383
1297.000000	0.468263
1298.000000	0.468443
1299.000000	0.468435
1300.000000	0.468505
1301.000000	0.468496
1302.000000	0.468339
1303.000000	0.468181
1304.000000	0.468083
1305.000000	0.468051
1306.000000	0.468039
1307.000000	0.468271
1308.000000	0.468265
1309.000000	0.468120
1310.000000	0.467963
1311.000000	0.467712
1312.000000	0.467454
1313.000000	0.467335
1314.000000	0.467204
1315.000000	0.467085
1316.000000	0.467021
1317.000000	0.466936
1318.000000	0.466842
1319.000000	0.466577
1320.000000	0.466309
1321.000000	0.465968
1322.000000	0.465533
1323.000000	0.465238
1324.000000	0.465025
1325.000000	0.464713
1326.000000	0.464356
1327.000000	0.463934
1328.000000	0.463667
1329.000000	0.463351
1330.000000	0.462997
1331.000000	0.462784
1332.000000	0.462846
1333.000000	0.462639
1334.000000	0.462519
1335.000000	0.462310
1336.000000	0.461885
1337.000000	0.461528
1338.000000	0.461126
1339.000000	0.460604
1340.000000	0.460216
1341.000000	0.459810
1342.000000	0.459292
1343.000000	0.459003
1344.000000	0.458566
1345.000000	0.458024
1346.000000	0.457872
1347.000000	0.457461
1348.000000	0.457076
1349.000000	0.456715
1350.000000	0.456116
1351.000000	0.455606
1352.000000	0.455182
1353.000000	0.454718
1354.000000	0.454299
1355.000000	0.453757
1356.000000	0.453360
1357.000000	0.452941
1358.000000	0.452454
1359.000000	0.452081
1360.000000	0.451695
1361.000000	0.451342
1362.000000	0.450878
1363.000000	0.450386
1364.000000	0.449939
1365.000000	0.449297
1366.000000	0.448859
1367.000000	0.448559
1368.000000	0.448248
1369.000000	0.448081
1370.000000	0.447651
1371.000000	0.447043
1372.000000	0.446355
1373.000000	0.445434
1374.000000	0.444661
1375.000000	0.444024
1376.000000	0.443473
1377.000000	0.443045
1378.000000	0.442450
1379.000000	0.441547
1380.000000	0.440626
1381.000000	0.439520
1382.000000	0.438304
1383.000000	0.437357
1384.000000	0.436195
1385.000000	0.434799
1386.000000	0.433631
1387.000000	0.432309
1388.000000	0.430728
1389.000000	0.429327
1390.000000	0.427940
1391.000000	0.426280
1392.000000	0.424622
1393.000000	0.422931
1394.000000	0.421179
1395.000000	0.419451
1396.000000	0.417900
1397.000000	0.415965
1398.000000	0.413702
1399.000000	0.411590
1400.000000	0.409288
1401.000000	0.407043
1402.000000	0.404973
1403.000000	0.402833
1404.000000	0.400620
1405.000000	0.398342
1406.000000	0.395996
1407.000000	0.393661
1408.000000	0.391225
1409.000000	0.388864
1410.000000	0.386580
1411.000000	0.384264
1412.000000	0.381988
1413.000000	0.379768
1414.000000	0.377618
1415.000000	0.375643
1416.000000	0.373637
1417.000000	0.371647
1418.000000	0.369694
1419.000000	0.367808
1420.000000	0.365970
1421.000000	0.364213
1422.000000	0.362450
1423.000000	0.360776
1424.000000	0.358942
1425.000000	0.357157
1426.000000	0.355453
1427.000000	0.353728
1428.000000	0.352159
1429.000000	0.350603
1430.000000	0.348946
1431.000000	0.347384
1432.000000	0.345935
1433.000000	0.344483
1434.000000	0.343308
1435.000000	0.342521
1436.000000	0.341598
1437.000000	0.340727
1438.000000	0.339920
1439.000000	0.339068
1440.000000	0.338455
1441.000000	0.338104
1442.000000	0.337801
1443.000000	0.337543
1444.000000	0.337402
1445.000000	0.337197
1446.000000	0.336783
1447.000000	0.336501
1448.000000	0.336241
1449.000000	0.335990
1450.000000	0.335911
1451.000000	0.335600
1452.000000	0.335077
1453.000000	0.334667
1454.000000	0.334165
1455.000000	0.333756
1456.000000	0.333525
1457.000000	0.333223
1458.000000	0.332885
1459.000000	0.332603
1460.000000	0.332358
1461.000000	0.332138
1462.000000	0.331905
1463.000000	0.331556
1464.000000	0.331295
1465.000000	0.331097
1466.000000	0.330895
1467.000000	0.330775
1468.000000	0.330624
1469.000000	0.330626
1470.000000	0.330713
1471.000000	0.330848
1472.000000	0.330956
1473.000000	0.331137
1474.000000	0.331302
1475.000000	0.331476
1476.000000	0.331841
1477.000000	0.332355
1478.000000	0.332877
1479.000000	0.333470
1480.000000	0.334168
1481.000000	0.334744
1482.000000	0.335203
1483.000000	0.335876
1484.000000	0.336642
1485.000000	0.337363
1486.000000	0.338142
1487.000000	0.338970
1488.000000	0.339823
1489.000000	0.340598
1490.000000	0.341321
1491.000000	0.342045
1492.000000	0.342580
1493.000000	0.343310
1494.000000	0.344137
1495.000000	0.344837
1496.000000	0.345507
1497.000000	0.346208
1498.000000	0.346891
1499.000000	0.347574
1500.000000	0.348315
1501.000000	0.348931
1502.000000	0.349353
1503.000000	0.349865
1504.000000	0.350369
1505.000000	0.350914
1506.000000	0.351556
1507.000000	0.352054
1508.000000	0.352616
1509.000000	0.353146
1510.000000	0.353541
1511.000000	0.353961
1512.000000	0.354382
1513.000000	0.354758
1514.000000	0.355122
1515.000000	0.355551
1516.000000	0.355877
1517.000000	0.356093
1518.000000	0.356357
1519.000000	0.356544
1520.000000	0.356807
1521.000000	0.357023
1522.000000	0.357347
1523.000000	0.357693
1524.000000	0.357894
1525.000000	0.358165
1526.000000	0.358324
1527.000000	0.358531
1528.000000	0.358877
1529.000000	0.359165
1530.000000	0.359416
1531.000000	0.359696
1532.000000	0.359871
1533.000000	0.360065
1534.000000	0.360278
1535.000000	0.360372
1536.000000	0.360455
1537.000000	0.360659
1538.000000	0.360848
1539.000000	0.361008
1540.000000	0.361188
1541.000000	0.361377
1542.000000	0.361584
1543.000000	0.361742
1544.000000	0.361853
1545.000000	0.361983
1546.000000	0.362046
1547.000000	0.362106
1548.000000	0.362277
1549.000000	0.362417
1550.000000	0.362418
1551.000000	0.362503
1552.000000	0.362734
1553.000000	0.362823
1554.000000	0.362858
1555.000000	0.362953
1556.000000	0.362913
1557.000000	0.362924
1558.000000	0.362993
1559.000000	0.363100
1560.000000	0.363135
1561.000000	0.363226
1562.000000	0.363218
1563.000000	0.363184
1564.000000	0.363212
1565.000000	0.363235
1566.000000	0.363109
1567.000000	0.363079
1568.000000	0.363010
1569.000000	0.362862
1570.000000	0.362832
1571.000000	0.362865
1572.000000	0.362878
1573.000000	0.362986
1574.000000	0.362961
1575.000000	0.362895
1576.000000	0.362821
1577.000000	0.362574
1578.000000	0.362488
1579.000000	0.362565
1580.000000	0.362576
1581.000000	0.362750
1582.000000	0.362823
1583.000000	0.362781
1584.000000	0.362822
1585.000000	0.363018
1586.000000	0.363088
1587.000000	0.363121
1588.000000	0.363125
1589.000000	0.363039
1590.000000	0.363045
1591.000000	0.363128
1592.000000	0.363248
1593.000000	0.363476
1594.000000	0.363553
1595.000000	0.363658
1596.000000	0.363678
1597.000000	0.363552
1598.000000	0.363574
1599.000000	0.363711
1600.000000	0.363772
1601.000000	0.364014
1602.000000	0.364070
1603.000000	0.363946
1604.000000	0.363983
1605.000000	0.364046
1606.000000	0.364129
1607.000000	0.364417
1608.000000	0.364544
1609.000000	0.364659
1610.000000	0.364760
1611.000000	0.364763
1612.000000	0.364941
1613.000000	0.365373
1614.000000	0.365544
1615.000000	0.365748
1616.000000	0.365996
1617.000000	0.366047
1618.000000	0.366222
1619.000000	0.366526
1620.000000	0.366768
1621.000000	0.367014
1622.000000	0.367292
1623.000000	0.367504
1624.000000	0.367762
1625.000000	0.367873
1626.000000	0.368047
1627.000000	0.368398
1628.000000	0.368652
1629.000000	0.368807
1630.000000	0.369050
1631.000000	0.369101
1632.000000	0.369378
1633.000000	0.369858
1634.000000	0.370289
1635.000000	0.370903
1636.000000	0.371330
1637.000000	0.371741
1638.000000	0.372069
1639.000000	0.372343
1640.000000	0.372634
1641.000000	0.372901
1642.000000	0.373245
1643.000000	0.373722
1644.000000	0.374047
1645.000000	0.374329
1646.000000	0.374573
1647.000000	0.374739
1648.000000	0.374981
1649.000000	0.375367
1650.000000	0.375752
1651.000000	0.376237
1652.000000	0.376638
1653.000000	0.376981
1654.000000	0.377340
1655.000000	0.377537
1656.000000	0.377769
1657.000000	0.378187
1658.000000	0.378366
1659.000000	0.378520
1660.000000	0.378854
1661.000000	0.379009
1662.000000	0.379336
1663.000000	0.379851
1664.000000	0.380276
1665.000000	0.380697
1666.000000	0.381101
1667.000000	0.381427
1668.000000	0.381788
1669.000000	0.382091
1670.000000	0.382309
1671.000000	0.382652
1672.000000	0.383022
1673.000000	0.383263
1674.000000	0.383653
1675.000000	0.383977
1676.000000	0.384068
1677.000000	0.384189
1678.000000	0.384352
1679.000000	0.384624
1680.000000	0.384896
1681.000000	0.385126
1682.000000	0.385353
1683.000000	0.385598
1684.000000	0.385874
1685.000000	0.386184
1686.000000	0.386400
1687.000000	0.386625
1688.000000	0.386889
1689.000000	0.387184
1690.000000	0.387461
1691.000000	0.387800
1692.000000	0.388026
1693.000000	0.388134
1694.000000	0.388219
1695.000000	0.388448
1696.000000	0.388656
1697.000000	0.388792
1698.000000	0.389014
1699.000000	0.389238
1700.000000	0.389400
1701.000000	0.389687
1702.000000	0.389861
1703.000000	0.389960
1704.000000	0.390080
1705.000000	0.390303
1706.000000	0.390598
1707.000000	0.390887
1708.000000	0.391345
1709.000000	0.391502
1710.000000	0.391583
1711.000000	0.391712
1712.000000	0.391663
1713.000000	0.391770
1714.000000	0.392042
1715.000000	0.392297
1716.000000	0.392669
1717.000000	0.392939
1718.000000	0.393153
1719.000000	0.393308
1720.000000	0.393423
1721.000000	0.393570
1722.000000	0.393721
1723.000000	0.393867
1724.000000	0.394076
1725.000000	0.394233
1726.000000	0.394208
1727.000000	0.394300
1728.000000	0.394313
1729.000000	0.394365
1730.000000	0.394693
1731.000000	0.394834
1732.000000	0.394946
1733.000000	0.395117
1734.000000	0.394984
1735.000000	0.395182
1736.000000	0.395539
1737.000000	0.395775
1738.000000	0.396116
1739.000000	0.396444
1740.000000	0.396694
1741.000000	0.396918
1742.000000	0.397238
1743.000000	0.397478
1744.000000	0.397539
1745.000000	0.397759
1746.000000	0.398068
1747.000000	0.398281
1748.000000	0.398366
1749.000000	0.398181
1750.000000	0.398193
1751.000000	0.398503
1752.000000	0.398811
1753.000000	0.399167
1754.000000	0.399369
1755.000000	0.399262
1756.000000	0.399300
1757.000000	0.399360
1758.000000	0.399444
1759.000000	0.399614
1760.000000	0.399720
1761.000000	0.399739
1762.000000	0.399738
1763.000000	0.399663
1764.000000	0.399745
1765.000000	0.399792
1766.000000	0.399992
1767.000000	0.400404
1768.000000	0.400511
1769.000000	0.400597
1770.000000	0.400809
1771.000000	0.400887
1772.000000	0.400991
1773.000000	0.401124
1774.000000	0.401290
1775.000000	0.401480
1776.000000	0.401664
1777.000000	0.401933
1778.000000	0.402061
1779.000000	0.402007
1780.000000	0.402142
1781.000000	0.402276
1782.000000	0.402453
1783.000000	0.402759
1784.000000	0.403083
1785.000000	0.403362
1786.000000	0.403640
1787.000000	0.403938
1788.000000	0.404418
1789.000000	0.404698
1790.000000	0.404963
1791.000000	0.405137
1792.000000	0.405073
1793.000000	0.405208
1794.000000	0.405559
1795.000000	0.405801
1796.000000	0.406080
1797.000000	0.406285
1798.000000	0.406330
1799.000000	0.406490
1800.000000	0.406722
1801.000000	0.406958
1802.000000	0.406791
1803.000000	0.405793
1804.000000	0.405536
1805.000000	0.405941
1806.000000	0.405997
1807.000000	0.405818
1808.000000	0.405836
1809.000000	0.405918
1810.000000	0.406039
1811.000000	0.406411
1812.000000	0.407026
1813.000000	0.407409
1814.000000	0.408367
1815.000000	0.408563
1816.000000	0.408204
1817.000000	0.407728
1818.000000	0.406748
1819.000000	0.405888
1820.000000	0.405970
1821.000000	0.407078
1822.000000	0.407422
1823.000000	0.408350
1824.000000	0.408596
1825.000000	0.407598
1826.000000	0.407525
1827.000000	0.407627
1828.000000	0.408220
1829.000000	0.408151
1830.000000	0.408214
1831.000000	0.408109
1832.000000	0.407679
1833.000000	0.407317
1834.000000	0.407044
1835.000000	0.406637
1836.000000	0.405867
1837.000000	0.405298
1838.000000	0.404432
1839.000000	0.403976
1840.000000	0.403507
1841.000000	0.403520
1842.000000	0.403225
1843.000000	0.402599
1844.000000	0.402597
1845.000000	0.402911
1846.000000	0.402820
1847.000000	0.403005
1848.000000	0.402821
1849.000000	0.401267
1850.000000	0.400018
1851.000000	0.398937
1852.000000	0.397293
1853.000000	0.396443
1854.000000	0.396121
1855.000000	0.395306
1856.000000	0.394375
1857.000000	0.393725
1858.000000	0.392309
1859.000000	0.390056
1860.000000	0.387681
1861.000000	0.385385
1862.000000	0.383755
1863.000000	0.382990
1864.000000	0.381469
1865.000000	0.380731
1866.000000	0.378745
1867.000000	0.375587
1868.000000	0.372643
1869.000000	0.369610
1870.000000	0.365642
1871.000000	0.361900
1872.000000	0.358340
1873.000000	0.354926
1874.000000	0.351656
1875.000000	0.348263
1876.000000	0.344799
1877.000000	0.341158
1878.000000	0.336786
1879.000000	0.331870
1880.000000	0.328194
1881.000000	0.323866
1882.000000	0.319095
1883.000000	0.314942
1884.000000	0.310320
1885.000000	0.304500
1886.000000	0.299371
1887.000000	0.294660
1888.000000	0.289658
1889.000000	0.283973
1890.000000	0.278106
1891.000000	0.272398
1892.000000	0.266344
1893.000000	0.260777
1894.000000	0.255323
1895.000000	0.249515
1896.000000	0.243677
1897.000000	0.237758
1898.000000	0.231370
1899.000000	0.225585
1900.000000	0.220152
1901.000000	0.215515
1902.000000	0.211327
1903.000000	0.207040
1904.000000	0.203155
1905.000000	0.198185
1906.000000	0.193902
1907.000000	0.189689
1908.000000	0.186412
1909.000000	0.182912
1910.000000	0.180138
1911.000000	0.176868
1912.000000	0.173220
1913.000000	0.170018
1914.000000	0.166981
1915.000000	0.164425
1916.000000	0.162408
1917.000000	0.160459
1918.000000	0.158895
1919.000000	0.157181
1920.000000	0.155588
1921.000000	0.154286
1922.000000	0.153521
1923.000000	0.153004
1924.000000	0.152156
1925.000000	0.151413
1926.000000	0.150303
1927.000000	0.149141
1928.000000	0.148604
1929.000000	0.148690
1930.000000	0.149137
1931.000000	0.149208
1932.000000	0.149530
1933.000000	0.150013
1934.000000	0.149841
1935.000000	0.149825
1936.000000	0.149769
1937.000000	0.149532
1938.000000	0.149958
1939.000000	0.150194
1940.000000	0.150560
1941.000000	0.150825
1942.000000	0.151184
1943.000000	0.150894
1944.000000	0.150577
1945.000000	0.150493
1946.000000	0.149763
1947.000000	0.148821
1948.000000	0.148184
1949.000000	0.147363
1950.000000	0.146996
1951.000000	0.146752
1952.000000	0.146963
1953.000000	0.146755
1954.000000	0.146620
1955.000000	0.146236
1956.000000	0.145211
1957.000000	0.144122
1958.000000	0.143252
1959.000000	0.142537
1960.000000	0.142067
1961.000000	0.142255
1962.000000	0.142290
1963.000000	0.142514
1964.000000	0.142481
1965.000000	0.142712
1966.000000	0.142326
1967.000000	0.141834
1968.000000	0.141641
1969.000000	0.141335
1970.000000	0.141614
1971.000000	0.141979
1972.000000	0.142361
1973.000000	0.142588
1974.000000	0.142691
1975.000000	0.142859
1976.000000	0.143027
1977.000000	0.143228
1978.000000	0.143314
1979.000000	0.143935
1980.000000	0.143988
1981.000000	0.144419
1982.000000	0.145493
1983.000000	0.146312
1984.000000	0.146959
1985.000000	0.147773
1986.000000	0.148148
1987.000000	0.148143
1988.000000	0.148188
1989.000000	0.148085
1990.000000	0.148728
1991.000000	0.149368
1992.000000	0.150096
1993.000000	0.151297
1994.000000	0.152372
1995.000000	0.153464
1996.000000	0.154677
1997.000000	0.155873
1998.000000	0.157471
1999.000000	0.158500
2000.000000	0.159308
2001.000000	0.159773
2002.000000	0.160440
2003.000000	0.160928
2004.000000	0.162104
2005.000000	0.164350
2006.000000	0.166374
2007.000000	0.168345
2008.000000	0.169852
2009.000000	0.171042
2010.000000	0.172002
2011.000000	0.172208
2012.000000	0.172787
2013.000000	0.173287
2014.000000	0.173747
2015.000000	0.174845
2016.000000	0.177174
2017.000000	0.179326
2018.000000	0.181918
2019.000000	0.184120
2020.000000	0.185164
2021.000000	0.186299
2022.000000	0.187028
2023.000000	0.187752
2024.000000	0.187964
2025.000000	0.188890
2026.000000	0.190099
2027.000000	0.190998
2028.000000	0.192141
2029.000000	0.193538
2030.000000	0.194645
2031.000000	0.196361
2032.000000	0.198039
2033.000000	0.199967
2034.000000	0.201542
2035.000000	0.202804
2036.000000	0.204033
2037.000000	0.205414
2038.000000	0.206438
2039.000000	0.207116
2040.000000	0.208286
2041.000000	0.209153
2042.000000	0.209898
2043.000000	0.211419
2044.000000	0.213219
2045.000000	0.214731
2046.000000	0.216680
2047.000000	0.217754
2048.000000	0.217679
2049.000000	0.218456
2050.000000	0.218854
2051.000000	0.219528
2052.000000	0.220921
2053.000000	0.221956
2054.000000	0.223042
2055.000000	0.223853
2056.000000	0.224726
2057.000000	0.225513
2058.000000	0.226675
2059.000000	0.228008
2060.000000	0.229272
2061.000000	0.230728
2062.000000	0.232049
2063.000000	0.233315
2064.000000	0.234432
2065.000000	0.235965
2066.000000	0.236906
2067.000000	0.237579
2068.000000	0.238415
2069.000000	0.238883
2070.000000	0.239619
2071.000000	0.240416
2072.000000	0.241248
2073.000000	0.242325
2074.000000	0.243730
2075.000000	0.244872
2076.000000	0.245940
2077.000000	0.247076
2078.000000	0.248131
2079.000000	0.248993
2080.000000	0.250114
2081.000000	0.251174
2082.000000	0.251766
2083.000000	0.252922
2084.000000	0.254259
2085.000000	0.254943
2086.000000	0.256719
2087.000000	0.258089
2088.000000	0.259212
2089.000000	0.261124
2090.000000	0.262530
2091.000000	0.263606
2092.000000	0.264689
2093.000000	0.265783
2094.000000	0.266654
2095.000000	0.267053
2096.000000	0.268224
2097.000000	0.269920
2098.000000	0.271051
2099.000000	0.272477
2100.000000	0.273304
2101.000000	0.273410
2102.000000	0.273346
2103.000000	0.273445
2104.000000	0.274573
2105.000000	0.275375
2106.000000	0.276442
2107.000000	0.277502
2108.000000	0.278309
2109.000000	0.279241
2110.000000	0.280647
2111.000000	0.281460
2112.000000	0.281595
2113.000000	0.282378
2114.000000	0.283140
2115.000000	0.283444
2116.000000	0.284867
2117.000000	0.285976
2118.000000	0.286696
2119.000000	0.286925
2120.000000	0.287269
2121.000000	0.287268
2122.000000	0.287700
2123.000000	0.288300
2124.000000	0.288864
2125.000000	0.289341
2126.000000	0.289860
2127.000000	0.290639
2128.000000	0.291495
2129.000000	0.292384
2130.000000	0.293383
2131.000000	0.294194
2132.000000	0.293753
2133.000000	0.293443
2134.000000	0.293805
2135.000000	0.293933
2136.000000	0.293774
2137.000000	0.293628
2138.000000	0.293175
2139.000000	0.293029
2140.000000	0.293046
2141.000000	0.293085
2142.000000	0.292890
2143.000000	0.293082
2144.000000	0.293701
2145.000000	0.294344
2146.000000	0.295090
2147.000000	0.297161
2148.000000	0.298262
2149.000000	0.299122
2150.000000	0.300441
2151.000000	0.299953
2152.000000	0.298511
2153.000000	0.297867
2154.000000	0.297185
2155.000000	0.295622
2156.000000	0.295636
2157.000000	0.297162
2158.000000	0.297836
2159.000000	0.299158
2160.000000	0.300075
2161.000000	0.300359
2162.000000	0.300657
2163.000000	0.300957
2164.000000	0.300840
2165.000000	0.299940
2166.000000	0.299992
2167.000000	0.300057
2168.000000	0.300194
2169.000000	0.299973
2170.000000	0.299881
2171.000000	0.299684
2172.000000	0.298787
2173.000000	0.298809
2174.000000	0.299639
2175.000000	0.299826
2176.000000	0.299789
2177.000000	0.299911
2178.000000	0.299889
2179.000000	0.300339
2180.000000	0.301749
2181.000000	0.302515
2182.000000	0.303020
2183.000000	0.302259
2184.000000	0.301033
2185.000000	0.299879
2186.000000	0.298227
2187.000000	0.297532
2188.000000	0.298038
2189.000000	0.297830
2190.000000	0.298833
2191.000000	0.300645
2192.000000	0.301148
2193.000000	0.301049
2194.000000	0.300803
2195.000000	0.299174
2196.000000	0.298890
2197.000000	0.299233
2198.000000	0.298902
2199.000000	0.299118
2200.000000	0.299088
2201.000000	0.298498
2202.000000	0.298048
2203.000000	0.297418
2204.000000	0.297344
2205.000000	0.295974
2206.000000	0.293744
2207.000000	0.293490
2208.000000	0.293135
2209.000000	0.293585
2210.000000	0.295602
2211.000000	0.295521
2212.000000	0.295707
2213.000000	0.295506
2214.000000	0.294267
2215.000000	0.293926
2216.000000	0.293373
2217.000000	0.294110
2218.000000	0.296242
2219.000000	0.297261
2220.000000	0.298378
2221.000000	0.299674
2222.000000	0.300621
2223.000000	0.301535
2224.000000	0.302663
2225.000000	0.304674
2226.000000	0.303998
2227.000000	0.302701
2228.000000	0.302757
2229.000000	0.302785
2230.000000	0.302966
2231.000000	0.303114
2232.000000	0.301731
2233.000000	0.298562
2234.000000	0.296817
2235.000000	0.297645
2236.000000	0.298481
2237.000000	0.301468
2238.000000	0.302726
2239.000000	0.304114
2240.000000	0.304443
2241.000000	0.303038
2242.000000	0.303430
2243.000000	0.303759
2244.000000	0.303972
2245.000000	0.305270
2246.000000	0.306181
2247.000000	0.306961
2248.000000	0.307837
2249.000000	0.308929
2250.000000	0.310619
2251.000000	0.309198
2252.000000	0.305523
2253.000000	0.304843
2254.000000	0.303321
2255.000000	0.302876
2256.000000	0.305756
2257.000000	0.307276
2258.000000	0.305934
2259.000000	0.305147
2260.000000	0.304516
2261.000000	0.304140
2262.000000	0.303994
2263.000000	0.303665
2264.000000	0.304127
2265.000000	0.303463
2266.000000	0.301841
2267.000000	0.299274
2268.000000	0.294853
2269.000000	0.292490
2270.000000	0.290137
2271.000000	0.289092
2272.000000	0.291028
2273.000000	0.290759
2274.000000	0.289794
2275.000000	0.288237
2276.000000	0.284991
2277.000000	0.283357
2278.000000	0.280568
2279.000000	0.277483
2280.000000	0.276749
2281.000000	0.275312
2282.000000	0.274662
2283.000000	0.275284
2284.000000	0.274868
2285.000000	0.272859
2286.000000	0.272115
2287.000000	0.271453
2288.000000	0.269631
2289.000000	0.268863
2290.000000	0.268277
2291.000000	0.268061
2292.000000	0.268710
2293.000000	0.268753
2294.000000	0.268901
2295.000000	0.268990
2296.000000	0.268280
2297.000000	0.267621
2298.000000	0.266825
2299.000000	0.264815
2300.000000	0.263688
2301.000000	0.262782
2302.000000	0.261923
2303.000000	0.260722
2304.000000	0.260860
2305.000000	0.262560
2306.000000	0.262682
2307.000000	0.262820
2308.000000	0.263157
2309.000000	0.261198
2310.000000	0.259781
2311.000000	0.260200
2312.000000	0.260250
2313.000000	0.259669
2314.000000	0.259723
2315.000000	0.259688
2316.000000	0.259048
2317.000000	0.257817
2318.000000	0.255491
2319.000000	0.251878
2320.000000	0.248118
2321.000000	0.245742
2322.000000	0.243723
2323.000000	0.242953
2324.000000	0.242161
2325.000000	0.240417
2326.000000	0.240448
2327.000000	0.239234
2328.000000	0.236816
2329.000000	0.234892
2330.000000	0.231376
2331.000000	0.229197
2332.000000	0.227801
2333.000000	0.224497
2334.000000	0.223319
2335.000000	0.223739
2336.000000	0.226076
2337.000000	0.224838
2338.000000	0.223316
2339.000000	0.222147
2340.000000	0.217485
2341.000000	0.215654
2342.000000	0.217611
2343.000000	0.217859
2344.000000	0.217437
2345.000000	0.217124
2346.000000	0.217345
2347.000000	0.215570
2348.000000	0.212727
2349.000000	0.209278
2350.000000	0.205623
2351.000000	0.203514
2352.000000	0.201085
2353.000000	0.199466
2354.000000	0.198677
2355.000000	0.199113
2356.000000	0.200590
2357.000000	0.200487
2358.000000	0.199380
2359.000000	0.196354
2360.000000	0.191955
2361.000000	0.189172
2362.000000	0.186291
2363.000000	0.183640
2364.000000	0.184127
2365.000000	0.185061
2366.000000	0.183852
2367.000000	0.182838
2368.000000	0.182351
2369.000000	0.180353
2370.000000	0.179395
2371.000000	0.179299
2372.000000	0.178275
2373.000000	0.177616
2374.000000	0.172800
2375.000000	0.165736
2376.000000	0.157240
2377.000000	0.152509
2378.000000	0.151742
2379.000000	0.151255
2380.000000	0.159877
2381.000000	0.163292
2382.000000	0.161340
2383.000000	0.165020
2384.000000	0.164080
2385.000000	0.162832
2386.000000	0.164091
2387.000000	0.159648
2388.000000	0.153683
2389.000000	0.150588
2390.000000	0.146416
2391.000000	0.145676
2392.000000	0.145424
2393.000000	0.143636
2394.000000	0.145408
2395.000000	0.150204
2396.000000	0.157437
2397.000000	0.156522
2398.000000	0.152493
2399.000000	0.146316
2400.000000	0.134409
2401.000000	0.133448
2402.000000	0.130174
2403.000000	0.130207
2404.000000	0.138935
2405.000000	0.138798
2406.000000	0.145745
2407.000000	0.147799
2408.000000	0.146450
2409.000000	0.147636
2410.000000	0.142891
2411.000000	0.142502
2412.000000	0.140156
2413.000000	0.138898
2414.000000	0.136506
2415.000000	0.138079
2416.000000	0.141587
2417.000000	0.138478
2418.000000	0.142578
2419.000000	0.140278
2420.000000	0.132306
2421.000000	0.132429
2422.000000	0.132302
2423.000000	0.139851
2424.000000	0.150938
2425.000000	0.151842
2426.000000	0.154128
2427.000000	0.148264
2428.000000	0.140691
2429.000000	0.148172
2430.000000	0.144834
2431.000000	0.136956
2432.000000	0.126869
2433.000000	0.109945
2434.000000	0.104897
2435.000000	0.105141
2436.000000	0.112906
2437.000000	0.124169
2438.000000	0.124577
2439.000000	0.129769
2440.000000	0.131472
2441.000000	0.124498
2442.000000	0.123587
2443.000000	0.102206
2444.000000	0.086873
2445.000000	0.088409
2446.000000	0.082737
2447.000000	0.094768
2448.000000	0.110273
2449.000000	0.107924
2450.000000	0.100219
2451.000000	0.105457
2452.000000	0.107355
2453.000000	0.095909
2454.000000	0.101820
2455.000000	0.095872
2456.000000	0.083998
2457.000000	0.098157
2458.000000	0.104260
2459.000000	0.115704
2460.000000	0.131386
2461.000000	0.121120
2462.000000	0.117850
2463.000000	0.107992
2464.000000	0.096230
2465.000000	0.095403
2466.000000	0.098584
2467.000000	0.114825
2468.000000	0.115136
2469.000000	0.126232
2470.000000	0.121087
2471.000000	0.093354
2472.000000	0.099928
2473.000000	0.095608
2474.000000	0.109915
2475.000000	0.148228
2476.000000	0.144110
2477.000000	0.135798
2478.000000	0.139260
2479.000000	0.131852
2480.000000	0.138071
2481.000000	0.135664
2482.000000	0.118886
2483.000000	0.097174
2484.000000	0.055940
2485.000000	0.057479
2486.000000	0.061297
2487.000000	0.029176
2488.000000	0.018263
2489.000000	-0.008063
2490.000000	-0.024690
2491.000000	0.030167
2492.000000	0.046079
2493.000000	0.052361
2494.000000	0.050484
2495.000000	0.007232
2496.000000	0.002619
2497.000000	0.025596
2498.000000	0.049487
2499.000000	0.107261
2500.000000	0.138267
