# Wavelength	Nau-2_80_FV7_20_00002.asd.rts.txt
350.000000	0.074937
351.000000	0.041779
352.000000	0.049856
353.000000	0.063154
354.000000	0.063472
355.000000	0.070016
356.000000	0.067472
357.000000	0.061893
358.000000	0.073936
359.000000	0.075587
360.000000	0.072985
361.000000	0.077197
362.000000	0.074471
363.000000	0.070130
364.000000	0.069218
365.000000	0.073891
366.000000	0.075760
367.000000	0.072758
368.000000	0.067903
369.000000	0.064322
370.000000	0.065055
371.000000	0.070891
372.000000	0.068284
373.000000	0.063914
374.000000	0.064256
375.000000	0.069924
376.000000	0.071449
377.000000	0.068709
378.000000	0.070290
379.000000	0.070995
380.000000	0.071254
381.000000	0.073007
382.000000	0.074324
383.000000	0.073697
384.000000	0.071332
385.000000	0.071370
386.000000	0.071449
387.000000	0.070847
388.000000	0.070477
389.000000	0.068899
390.000000	0.067754
391.000000	0.069315
392.000000	0.070303
393.000000	0.072471
394.000000	0.076029
395.000000	0.073670
396.000000	0.071940
397.000000	0.072731
398.000000	0.071763
399.000000	0.071735
400.000000	0.072436
401.000000	0.072542
402.000000	0.072331
403.000000	0.072203
404.000000	0.072315
405.000000	0.071322
406.000000	0.070793
407.000000	0.071384
408.000000	0.072246
409.000000	0.073139
410.000000	0.073754
411.000000	0.073752
412.000000	0.073086
413.000000	0.073080
414.000000	0.074710
415.000000	0.075399
416.000000	0.075075
417.000000	0.074375
418.000000	0.075095
419.000000	0.075711
420.000000	0.075795
421.000000	0.075731
422.000000	0.075968
423.000000	0.076619
424.000000	0.077553
425.000000	0.077516
426.000000	0.077211
427.000000	0.077290
428.000000	0.077423
429.000000	0.078248
430.000000	0.079352
431.000000	0.078686
432.000000	0.079007
433.000000	0.079921
434.000000	0.079734
435.000000	0.079695
436.000000	0.080082
437.000000	0.080792
438.000000	0.080916
439.000000	0.081059
440.000000	0.081531
441.000000	0.081873
442.000000	0.082140
443.000000	0.082377
444.000000	0.082691
445.000000	0.082953
446.000000	0.083342
447.000000	0.083955
448.000000	0.084145
449.000000	0.084276
450.000000	0.084709
451.000000	0.085616
452.000000	0.086116
453.000000	0.086061
454.000000	0.086157
455.000000	0.086728
456.000000	0.087453
457.000000	0.087679
458.000000	0.087984
459.000000	0.088379
460.000000	0.088799
461.000000	0.089167
462.000000	0.089632
463.000000	0.090148
464.000000	0.090508
465.000000	0.090700
466.000000	0.090882
467.000000	0.091390
468.000000	0.091901
469.000000	0.092286
470.000000	0.092562
471.000000	0.092870
472.000000	0.093193
473.000000	0.093497
474.000000	0.093648
475.000000	0.094042
476.000000	0.094634
477.000000	0.094743
478.000000	0.094878
479.000000	0.095286
480.000000	0.095945
481.000000	0.096253
482.000000	0.096481
483.000000	0.096826
484.000000	0.096936
485.000000	0.097058
486.000000	0.097356
487.000000	0.097618
488.000000	0.097840
489.000000	0.097970
490.000000	0.097922
491.000000	0.098243
492.000000	0.098652
493.000000	0.098667
494.000000	0.098650
495.000000	0.098770
496.000000	0.099008
497.000000	0.098937
498.000000	0.098950
499.000000	0.099166
500.000000	0.099328
501.000000	0.099351
502.000000	0.099328
503.000000	0.099415
504.000000	0.099680
505.000000	0.099938
506.000000	0.100054
507.000000	0.100371
508.000000	0.100683
509.000000	0.100877
510.000000	0.101132
511.000000	0.101469
512.000000	0.101889
513.000000	0.102346
514.000000	0.102718
515.000000	0.103071
516.000000	0.103489
517.000000	0.103821
518.000000	0.104132
519.000000	0.104472
520.000000	0.104871
521.000000	0.105390
522.000000	0.106019
523.000000	0.106628
524.000000	0.107283
525.000000	0.107988
526.000000	0.108745
527.000000	0.109687
528.000000	0.110775
529.000000	0.111952
530.000000	0.113165
531.000000	0.114468
532.000000	0.115847
533.000000	0.117250
534.000000	0.118750
535.000000	0.120321
536.000000	0.121854
537.000000	0.123367
538.000000	0.124836
539.000000	0.126216
540.000000	0.127504
541.000000	0.128723
542.000000	0.129914
543.000000	0.131093
544.000000	0.132234
545.000000	0.133341
546.000000	0.134594
547.000000	0.135883
548.000000	0.137163
549.000000	0.138367
550.000000	0.139728
551.000000	0.141256
552.000000	0.142865
553.000000	0.144572
554.000000	0.146332
555.000000	0.148145
556.000000	0.150154
557.000000	0.152210
558.000000	0.154305
559.000000	0.156421
560.000000	0.158496
561.000000	0.160627
562.000000	0.162890
563.000000	0.164987
564.000000	0.166975
565.000000	0.168895
566.000000	0.170709
567.000000	0.172406
568.000000	0.173983
569.000000	0.175494
570.000000	0.176826
571.000000	0.177991
572.000000	0.179131
573.000000	0.180098
574.000000	0.180936
575.000000	0.181768
576.000000	0.182403
577.000000	0.182905
578.000000	0.183381
579.000000	0.183741
580.000000	0.184047
581.000000	0.184302
582.000000	0.184410
583.000000	0.184454
584.000000	0.184429
585.000000	0.184283
586.000000	0.184015
587.000000	0.183671
588.000000	0.183312
589.000000	0.183012
590.000000	0.182640
591.000000	0.182127
592.000000	0.181561
593.000000	0.181016
594.000000	0.180475
595.000000	0.179817
596.000000	0.179102
597.000000	0.178382
598.000000	0.177639
599.000000	0.176792
600.000000	0.175940
601.000000	0.175122
602.000000	0.174281
603.000000	0.173437
604.000000	0.172619
605.000000	0.171869
606.000000	0.171050
607.000000	0.170202
608.000000	0.169476
609.000000	0.168766
610.000000	0.168007
611.000000	0.167176
612.000000	0.166477
613.000000	0.165801
614.000000	0.165081
615.000000	0.164348
616.000000	0.163600
617.000000	0.162836
618.000000	0.162102
619.000000	0.161527
620.000000	0.160969
621.000000	0.160242
622.000000	0.159629
623.000000	0.159090
624.000000	0.158551
625.000000	0.158023
626.000000	0.157545
627.000000	0.157113
628.000000	0.156638
629.000000	0.156222
630.000000	0.155822
631.000000	0.155469
632.000000	0.155156
633.000000	0.154876
634.000000	0.154605
635.000000	0.154268
636.000000	0.153973
637.000000	0.153769
638.000000	0.153614
639.000000	0.153452
640.000000	0.153302
641.000000	0.153161
642.000000	0.153125
643.000000	0.153124
644.000000	0.153058
645.000000	0.153120
646.000000	0.153228
647.000000	0.153296
648.000000	0.153400
649.000000	0.153563
650.000000	0.153792
651.000000	0.154129
652.000000	0.154316
653.000000	0.154495
654.000000	0.154924
655.000000	0.155206
656.000000	0.155480
657.000000	0.155895
658.000000	0.156394
659.000000	0.156908
660.000000	0.157400
661.000000	0.157911
662.000000	0.158423
663.000000	0.159023
664.000000	0.159798
665.000000	0.160524
666.000000	0.161234
667.000000	0.161989
668.000000	0.162754
669.000000	0.163566
670.000000	0.164442
671.000000	0.165351
672.000000	0.166278
673.000000	0.167241
674.000000	0.168308
675.000000	0.169332
676.000000	0.170358
677.000000	0.171482
678.000000	0.172642
679.000000	0.173848
680.000000	0.175120
681.000000	0.176477
682.000000	0.177855
683.000000	0.179224
684.000000	0.180720
685.000000	0.182203
686.000000	0.183716
687.000000	0.185316
688.000000	0.186880
689.000000	0.188505
690.000000	0.190271
691.000000	0.192005
692.000000	0.193784
693.000000	0.195668
694.000000	0.197579
695.000000	0.199545
696.000000	0.201569
697.000000	0.203638
698.000000	0.205685
699.000000	0.207789
700.000000	0.210018
701.000000	0.212333
702.000000	0.214632
703.000000	0.216893
704.000000	0.219243
705.000000	0.221662
706.000000	0.224108
707.000000	0.226602
708.000000	0.229126
709.000000	0.231635
710.000000	0.234124
711.000000	0.236670
712.000000	0.239278
713.000000	0.241959
714.000000	0.244690
715.000000	0.247408
716.000000	0.250129
717.000000	0.252894
718.000000	0.255746
719.000000	0.258615
720.000000	0.261461
721.000000	0.264388
722.000000	0.267314
723.000000	0.270228
724.000000	0.273048
725.000000	0.275890
726.000000	0.278822
727.000000	0.281739
728.000000	0.284640
729.000000	0.287574
730.000000	0.290523
731.000000	0.293478
732.000000	0.296318
733.000000	0.299110
734.000000	0.302072
735.000000	0.304898
736.000000	0.307696
737.000000	0.310475
738.000000	0.313219
739.000000	0.315979
740.000000	0.318616
741.000000	0.321206
742.000000	0.323862
743.000000	0.326525
744.000000	0.329044
745.000000	0.331445
746.000000	0.333820
747.000000	0.336175
748.000000	0.338488
749.000000	0.340787
750.000000	0.343058
751.000000	0.345323
752.000000	0.347536
753.000000	0.349690
754.000000	0.351782
755.000000	0.353730
756.000000	0.355642
757.000000	0.357591
758.000000	0.359455
759.000000	0.361265
760.000000	0.362972
761.000000	0.364628
762.000000	0.366299
763.000000	0.367881
764.000000	0.369270
765.000000	0.370735
766.000000	0.372210
767.000000	0.373564
768.000000	0.374769
769.000000	0.375918
770.000000	0.377041
771.000000	0.378037
772.000000	0.379218
773.000000	0.380412
774.000000	0.381429
775.000000	0.382411
776.000000	0.383369
777.000000	0.384252
778.000000	0.384943
779.000000	0.385760
780.000000	0.386681
781.000000	0.387334
782.000000	0.388003
783.000000	0.388706
784.000000	0.389198
785.000000	0.389716
786.000000	0.390262
787.000000	0.390815
788.000000	0.391390
789.000000	0.391832
790.000000	0.392134
791.000000	0.392435
792.000000	0.392698
793.000000	0.393019
794.000000	0.393439
795.000000	0.393733
796.000000	0.393975
797.000000	0.394197
798.000000	0.394408
799.000000	0.394486
800.000000	0.394576
801.000000	0.394849
802.000000	0.395087
803.000000	0.395161
804.000000	0.395095
805.000000	0.394980
806.000000	0.395060
807.000000	0.395234
808.000000	0.395053
809.000000	0.395057
810.000000	0.395199
811.000000	0.395303
812.000000	0.395165
813.000000	0.394993
814.000000	0.394853
815.000000	0.394724
816.000000	0.394561
817.000000	0.394442
818.000000	0.394336
819.000000	0.394231
820.000000	0.394119
821.000000	0.393945
822.000000	0.393778
823.000000	0.393596
824.000000	0.393431
825.000000	0.393436
826.000000	0.393161
827.000000	0.392863
828.000000	0.392722
829.000000	0.392410
830.000000	0.392091
831.000000	0.391827
832.000000	0.391435
833.000000	0.391164
834.000000	0.390925
835.000000	0.390659
836.000000	0.390370
837.000000	0.390062
838.000000	0.389764
839.000000	0.389473
840.000000	0.389119
841.000000	0.388798
842.000000	0.388536
843.000000	0.388239
844.000000	0.387893
845.000000	0.387523
846.000000	0.387297
847.000000	0.387081
848.000000	0.386756
849.000000	0.386293
850.000000	0.385802
851.000000	0.385368
852.000000	0.385051
853.000000	0.384733
854.000000	0.384469
855.000000	0.384303
856.000000	0.384036
857.000000	0.383659
858.000000	0.383260
859.000000	0.382826
860.000000	0.382501
861.000000	0.381954
862.000000	0.381474
863.000000	0.381372
864.000000	0.381057
865.000000	0.380637
866.000000	0.380240
867.000000	0.379810
868.000000	0.379295
869.000000	0.378759
870.000000	0.378416
871.000000	0.377913
872.000000	0.377458
873.000000	0.377130
874.000000	0.376955
875.000000	0.376531
876.000000	0.375982
877.000000	0.375553
878.000000	0.375098
879.000000	0.374661
880.000000	0.374133
881.000000	0.373694
882.000000	0.373280
883.000000	0.372917
884.000000	0.372574
885.000000	0.372240
886.000000	0.371813
887.000000	0.371294
888.000000	0.370769
889.000000	0.370394
890.000000	0.369960
891.000000	0.369462
892.000000	0.369321
893.000000	0.369036
894.000000	0.368574
895.000000	0.368317
896.000000	0.367933
897.000000	0.367464
898.000000	0.367054
899.000000	0.366611
900.000000	0.366229
901.000000	0.365899
902.000000	0.365612
903.000000	0.365259
904.000000	0.364851
905.000000	0.364329
906.000000	0.363870
907.000000	0.363506
908.000000	0.363283
909.000000	0.363060
910.000000	0.362717
911.000000	0.362359
912.000000	0.362094
913.000000	0.361722
914.000000	0.361358
915.000000	0.361043
916.000000	0.360585
917.000000	0.360350
918.000000	0.360087
919.000000	0.359593
920.000000	0.359168
921.000000	0.358770
922.000000	0.358383
923.000000	0.357973
924.000000	0.357697
925.000000	0.357474
926.000000	0.357234
927.000000	0.356828
928.000000	0.356405
929.000000	0.355997
930.000000	0.355600
931.000000	0.355159
932.000000	0.354961
933.000000	0.354968
934.000000	0.354660
935.000000	0.354152
936.000000	0.353629
937.000000	0.353136
938.000000	0.352736
939.000000	0.352461
940.000000	0.352205
941.000000	0.351977
942.000000	0.351803
943.000000	0.351591
944.000000	0.351206
945.000000	0.350975
946.000000	0.350646
947.000000	0.350447
948.000000	0.350498
949.000000	0.350107
950.000000	0.349711
951.000000	0.349450
952.000000	0.349265
953.000000	0.348888
954.000000	0.348489
955.000000	0.348192
956.000000	0.348118
957.000000	0.348029
958.000000	0.347775
959.000000	0.347441
960.000000	0.347215
961.000000	0.346860
962.000000	0.346416
963.000000	0.346329
964.000000	0.346262
965.000000	0.346156
966.000000	0.345938
967.000000	0.345948
968.000000	0.345764
969.000000	0.345407
970.000000	0.345239
971.000000	0.345110
972.000000	0.344801
973.000000	0.344376
974.000000	0.344436
975.000000	0.344478
976.000000	0.344412
977.000000	0.344214
978.000000	0.343768
979.000000	0.343569
980.000000	0.343435
981.000000	0.343442
982.000000	0.343567
983.000000	0.343368
984.000000	0.343024
985.000000	0.343173
986.000000	0.343284
987.000000	0.343370
988.000000	0.343343
989.000000	0.343129
990.000000	0.343266
991.000000	0.343348
992.000000	0.342944
993.000000	0.342867
994.000000	0.342895
995.000000	0.343027
996.000000	0.342995
997.000000	0.342941
998.000000	0.342900
999.000000	0.342947
1000.000000	0.342939
1001.000000	0.343184
1002.000000	0.342878
1003.000000	0.342724
1004.000000	0.342927
1005.000000	0.343269
1006.000000	0.343059
1007.000000	0.342944
1008.000000	0.343215
1009.000000	0.342694
1010.000000	0.341996
1011.000000	0.342603
1012.000000	0.343042
1013.000000	0.343076
1014.000000	0.343487
1015.000000	0.343223
1016.000000	0.343023
1017.000000	0.343426
1018.000000	0.343707
1019.000000	0.343856
1020.000000	0.344691
1021.000000	0.344450
1022.000000	0.343076
1023.000000	0.343040
1024.000000	0.343288
1025.000000	0.343419
1026.000000	0.343957
1027.000000	0.344684
1028.000000	0.344891
1029.000000	0.344742
1030.000000	0.344415
1031.000000	0.344239
1032.000000	0.344368
1033.000000	0.344890
1034.000000	0.345134
1035.000000	0.345673
1036.000000	0.345921
1037.000000	0.345552
1038.000000	0.345594
1039.000000	0.346013
1040.000000	0.346474
1041.000000	0.346629
1042.000000	0.346865
1043.000000	0.346587
1044.000000	0.345969
1045.000000	0.345798
1046.000000	0.345992
1047.000000	0.346386
1048.000000	0.347379
1049.000000	0.347883
1050.000000	0.348373
1051.000000	0.348581
1052.000000	0.348406
1053.000000	0.348265
1054.000000	0.347869
1055.000000	0.348300
1056.000000	0.349318
1057.000000	0.350050
1058.000000	0.351028
1059.000000	0.351356
1060.000000	0.350856
1061.000000	0.350413
1062.000000	0.350041
1063.000000	0.350239
1064.000000	0.350651
1065.000000	0.351551
1066.000000	0.352174
1067.000000	0.353079
1068.000000	0.353392
1069.000000	0.353156
1070.000000	0.353241
1071.000000	0.353161
1072.000000	0.353399
1073.000000	0.353964
1074.000000	0.354661
1075.000000	0.355177
1076.000000	0.355443
1077.000000	0.355537
1078.000000	0.355442
1079.000000	0.355419
1080.000000	0.355156
1081.000000	0.355421
1082.000000	0.356210
1083.000000	0.356518
1084.000000	0.356890
1085.000000	0.357381
1086.000000	0.357619
1087.000000	0.357942
1088.000000	0.358586
1089.000000	0.358895
1090.000000	0.358937
1091.000000	0.358653
1092.000000	0.358964
1093.000000	0.359649
1094.000000	0.360064
1095.000000	0.360697
1096.000000	0.361102
1097.000000	0.361230
1098.000000	0.361486
1099.000000	0.361782
1100.000000	0.361992
1101.000000	0.361966
1102.000000	0.362121
1103.000000	0.362317
1104.000000	0.362570
1105.000000	0.362744
1106.000000	0.363184
1107.000000	0.363965
1108.000000	0.364350
1109.000000	0.364644
1110.000000	0.365116
1111.000000	0.365557
1112.000000	0.365832
1113.000000	0.366061
1114.000000	0.366513
1115.000000	0.366699
1116.000000	0.366368
1117.000000	0.366560
1118.000000	0.367187
1119.000000	0.367283
1120.000000	0.367113
1121.000000	0.367280
1122.000000	0.367568
1123.000000	0.367855
1124.000000	0.368083
1125.000000	0.368394
1126.000000	0.368395
1127.000000	0.368465
1128.000000	0.368611
1129.000000	0.368958
1130.000000	0.369406
1131.000000	0.370071
1132.000000	0.370230
1133.000000	0.370377
1134.000000	0.370577
1135.000000	0.370261
1136.000000	0.370338
1137.000000	0.370895
1138.000000	0.371062
1139.000000	0.371129
1140.000000	0.371334
1141.000000	0.371412
1142.000000	0.371552
1143.000000	0.371748
1144.000000	0.371985
1145.000000	0.371962
1146.000000	0.371975
1147.000000	0.372101
1148.000000	0.372110
1149.000000	0.372299
1150.000000	0.372742
1151.000000	0.372977
1152.000000	0.373056
1153.000000	0.373282
1154.000000	0.373522
1155.000000	0.373628
1156.000000	0.373669
1157.000000	0.373876
1158.000000	0.373991
1159.000000	0.374140
1160.000000	0.374544
1161.000000	0.374735
1162.000000	0.374815
1163.000000	0.374992
1164.000000	0.375121
1165.000000	0.375278
1166.000000	0.375495
1167.000000	0.375682
1168.000000	0.375968
1169.000000	0.376488
1170.000000	0.376663
1171.000000	0.376699
1172.000000	0.376983
1173.000000	0.377146
1174.000000	0.377361
1175.000000	0.377844
1176.000000	0.378067
1177.000000	0.378100
1178.000000	0.378254
1179.000000	0.378449
1180.000000	0.378584
1181.000000	0.378846
1182.000000	0.379002
1183.000000	0.379243
1184.000000	0.379543
1185.000000	0.379773
1186.000000	0.379988
1187.000000	0.380219
1188.000000	0.380415
1189.000000	0.380618
1190.000000	0.380981
1191.000000	0.381171
1192.000000	0.381384
1193.000000	0.381628
1194.000000	0.381621
1195.000000	0.381729
1196.000000	0.381786
1197.000000	0.381916
1198.000000	0.382115
1199.000000	0.382338
1200.000000	0.382553
1201.000000	0.382906
1202.000000	0.383204
1203.000000	0.383464
1204.000000	0.383747
1205.000000	0.383974
1206.000000	0.384144
1207.000000	0.384399
1208.000000	0.384515
1209.000000	0.384561
1210.000000	0.384757
1211.000000	0.385017
1212.000000	0.385150
1213.000000	0.385307
1214.000000	0.385527
1215.000000	0.385675
1216.000000	0.385855
1217.000000	0.386189
1218.000000	0.386362
1219.000000	0.386415
1220.000000	0.386457
1221.000000	0.386759
1222.000000	0.387015
1223.000000	0.387284
1224.000000	0.387605
1225.000000	0.387691
1226.000000	0.387716
1227.000000	0.387804
1228.000000	0.387997
1229.000000	0.388183
1230.000000	0.388464
1231.000000	0.388567
1232.000000	0.388668
1233.000000	0.388999
1234.000000	0.389373
1235.000000	0.389655
1236.000000	0.390020
1237.000000	0.390301
1238.000000	0.390327
1239.000000	0.390425
1240.000000	0.390495
1241.000000	0.390665
1242.000000	0.390922
1243.000000	0.391144
1244.000000	0.391311
1245.000000	0.391545
1246.000000	0.391802
1247.000000	0.392060
1248.000000	0.392301
1249.000000	0.392646
1250.000000	0.392847
1251.000000	0.392923
1252.000000	0.393128
1253.000000	0.393553
1254.000000	0.393704
1255.000000	0.393727
1256.000000	0.393878
1257.000000	0.393916
1258.000000	0.394141
1259.000000	0.394537
1260.000000	0.394830
1261.000000	0.395069
1262.000000	0.395271
1263.000000	0.395453
1264.000000	0.395512
1265.000000	0.395736
1266.000000	0.395949
1267.000000	0.396141
1268.000000	0.396274
1269.000000	0.396301
1270.000000	0.396518
1271.000000	0.396679
1272.000000	0.396966
1273.000000	0.397370
1274.000000	0.397591
1275.000000	0.397780
1276.000000	0.398008
1277.000000	0.398229
1278.000000	0.398241
1279.000000	0.398334
1280.000000	0.398334
1281.000000	0.398430
1282.000000	0.398669
1283.000000	0.398923
1284.000000	0.399172
1285.000000	0.399419
1286.000000	0.399701
1287.000000	0.399722
1288.000000	0.399831
1289.000000	0.400093
1290.000000	0.400167
1291.000000	0.400247
1292.000000	0.400412
1293.000000	0.400588
1294.000000	0.400699
1295.000000	0.400798
1296.000000	0.400956
1297.000000	0.401021
1298.000000	0.401126
1299.000000	0.401369
1300.000000	0.401643
1301.000000	0.401713
1302.000000	0.401745
1303.000000	0.401928
1304.000000	0.401949
1305.000000	0.401860
1306.000000	0.401933
1307.000000	0.402142
1308.000000	0.402249
1309.000000	0.402394
1310.000000	0.402532
1311.000000	0.402636
1312.000000	0.402693
1313.000000	0.402815
1314.000000	0.402955
1315.000000	0.402998
1316.000000	0.402937
1317.000000	0.403029
1318.000000	0.403153
1319.000000	0.403149
1320.000000	0.403227
1321.000000	0.403126
1322.000000	0.402909
1323.000000	0.402866
1324.000000	0.402922
1325.000000	0.403094
1326.000000	0.403304
1327.000000	0.403462
1328.000000	0.403690
1329.000000	0.403687
1330.000000	0.403465
1331.000000	0.403444
1332.000000	0.403396
1333.000000	0.403463
1334.000000	0.403838
1335.000000	0.404040
1336.000000	0.404231
1337.000000	0.404323
1338.000000	0.404218
1339.000000	0.404173
1340.000000	0.404244
1341.000000	0.404315
1342.000000	0.404546
1343.000000	0.404642
1344.000000	0.404635
1345.000000	0.404727
1346.000000	0.404716
1347.000000	0.404637
1348.000000	0.404773
1349.000000	0.404560
1350.000000	0.404352
1351.000000	0.404292
1352.000000	0.404030
1353.000000	0.404109
1354.000000	0.404412
1355.000000	0.404520
1356.000000	0.404665
1357.000000	0.404559
1358.000000	0.404391
1359.000000	0.404368
1360.000000	0.404349
1361.000000	0.404507
1362.000000	0.404488
1363.000000	0.404383
1364.000000	0.404245
1365.000000	0.403956
1366.000000	0.403792
1367.000000	0.403644
1368.000000	0.403488
1369.000000	0.403512
1370.000000	0.403330
1371.000000	0.402846
1372.000000	0.402434
1373.000000	0.402013
1374.000000	0.401543
1375.000000	0.401194
1376.000000	0.400843
1377.000000	0.400319
1378.000000	0.399715
1379.000000	0.398958
1380.000000	0.398228
1381.000000	0.397390
1382.000000	0.396267
1383.000000	0.395357
1384.000000	0.394296
1385.000000	0.392861
1386.000000	0.391596
1387.000000	0.390153
1388.000000	0.388362
1389.000000	0.386730
1390.000000	0.384925
1391.000000	0.382685
1392.000000	0.380587
1393.000000	0.378341
1394.000000	0.375966
1395.000000	0.373545
1396.000000	0.371081
1397.000000	0.368411
1398.000000	0.365441
1399.000000	0.362777
1400.000000	0.360078
1401.000000	0.357556
1402.000000	0.355282
1403.000000	0.352937
1404.000000	0.350709
1405.000000	0.348751
1406.000000	0.346901
1407.000000	0.345339
1408.000000	0.343958
1409.000000	0.342710
1410.000000	0.341706
1411.000000	0.340787
1412.000000	0.339971
1413.000000	0.339361
1414.000000	0.338953
1415.000000	0.338749
1416.000000	0.338618
1417.000000	0.338646
1418.000000	0.338700
1419.000000	0.338757
1420.000000	0.338819
1421.000000	0.338930
1422.000000	0.339101
1423.000000	0.339337
1424.000000	0.339486
1425.000000	0.339707
1426.000000	0.339845
1427.000000	0.339969
1428.000000	0.340153
1429.000000	0.340372
1430.000000	0.340646
1431.000000	0.340846
1432.000000	0.341046
1433.000000	0.341266
1434.000000	0.341483
1435.000000	0.341771
1436.000000	0.342135
1437.000000	0.342472
1438.000000	0.342924
1439.000000	0.343396
1440.000000	0.344117
1441.000000	0.345090
1442.000000	0.346147
1443.000000	0.347282
1444.000000	0.348598
1445.000000	0.349977
1446.000000	0.351405
1447.000000	0.353020
1448.000000	0.354642
1449.000000	0.356175
1450.000000	0.357679
1451.000000	0.359151
1452.000000	0.360430
1453.000000	0.361715
1454.000000	0.362842
1455.000000	0.363732
1456.000000	0.364745
1457.000000	0.365635
1458.000000	0.366504
1459.000000	0.367537
1460.000000	0.368383
1461.000000	0.369171
1462.000000	0.369971
1463.000000	0.370548
1464.000000	0.371195
1465.000000	0.371964
1466.000000	0.372633
1467.000000	0.373374
1468.000000	0.374179
1469.000000	0.375054
1470.000000	0.375855
1471.000000	0.376670
1472.000000	0.377538
1473.000000	0.378453
1474.000000	0.379273
1475.000000	0.380060
1476.000000	0.380818
1477.000000	0.381431
1478.000000	0.382058
1479.000000	0.382787
1480.000000	0.383443
1481.000000	0.384029
1482.000000	0.384677
1483.000000	0.385247
1484.000000	0.385710
1485.000000	0.386187
1486.000000	0.386558
1487.000000	0.387073
1488.000000	0.387665
1489.000000	0.388250
1490.000000	0.388804
1491.000000	0.389345
1492.000000	0.389775
1493.000000	0.390259
1494.000000	0.390704
1495.000000	0.391181
1496.000000	0.391677
1497.000000	0.392132
1498.000000	0.392587
1499.000000	0.393105
1500.000000	0.393541
1501.000000	0.393877
1502.000000	0.394186
1503.000000	0.394508
1504.000000	0.394925
1505.000000	0.395385
1506.000000	0.395808
1507.000000	0.396178
1508.000000	0.396461
1509.000000	0.396711
1510.000000	0.397108
1511.000000	0.397543
1512.000000	0.397851
1513.000000	0.398141
1514.000000	0.398472
1515.000000	0.398659
1516.000000	0.398836
1517.000000	0.399170
1518.000000	0.399527
1519.000000	0.399741
1520.000000	0.400028
1521.000000	0.400253
1522.000000	0.400551
1523.000000	0.401043
1524.000000	0.401376
1525.000000	0.401711
1526.000000	0.402026
1527.000000	0.402262
1528.000000	0.402618
1529.000000	0.402985
1530.000000	0.403163
1531.000000	0.403259
1532.000000	0.403399
1533.000000	0.403615
1534.000000	0.403919
1535.000000	0.404328
1536.000000	0.404626
1537.000000	0.404996
1538.000000	0.405353
1539.000000	0.405472
1540.000000	0.405711
1541.000000	0.406010
1542.000000	0.406255
1543.000000	0.406625
1544.000000	0.406936
1545.000000	0.407174
1546.000000	0.407369
1547.000000	0.407550
1548.000000	0.407735
1549.000000	0.407945
1550.000000	0.408119
1551.000000	0.408125
1552.000000	0.408210
1553.000000	0.408382
1554.000000	0.408616
1555.000000	0.408912
1556.000000	0.409121
1557.000000	0.409146
1558.000000	0.409231
1559.000000	0.409172
1560.000000	0.409221
1561.000000	0.409345
1562.000000	0.409446
1563.000000	0.409587
1564.000000	0.409745
1565.000000	0.409949
1566.000000	0.410086
1567.000000	0.410372
1568.000000	0.410538
1569.000000	0.410704
1570.000000	0.410817
1571.000000	0.410827
1572.000000	0.410893
1573.000000	0.410990
1574.000000	0.411117
1575.000000	0.411312
1576.000000	0.411472
1577.000000	0.411592
1578.000000	0.411721
1579.000000	0.411921
1580.000000	0.412074
1581.000000	0.412313
1582.000000	0.412447
1583.000000	0.412518
1584.000000	0.412556
1585.000000	0.412739
1586.000000	0.412752
1587.000000	0.412575
1588.000000	0.412532
1589.000000	0.412366
1590.000000	0.412381
1591.000000	0.412666
1592.000000	0.412838
1593.000000	0.413124
1594.000000	0.413220
1595.000000	0.413215
1596.000000	0.413320
1597.000000	0.413452
1598.000000	0.413511
1599.000000	0.413664
1600.000000	0.413667
1601.000000	0.413553
1602.000000	0.413595
1603.000000	0.413759
1604.000000	0.413835
1605.000000	0.414015
1606.000000	0.414061
1607.000000	0.414076
1608.000000	0.414044
1609.000000	0.413974
1610.000000	0.413891
1611.000000	0.413739
1612.000000	0.413733
1613.000000	0.413959
1614.000000	0.414087
1615.000000	0.414394
1616.000000	0.414527
1617.000000	0.414504
1618.000000	0.414466
1619.000000	0.414215
1620.000000	0.414180
1621.000000	0.414262
1622.000000	0.414369
1623.000000	0.414592
1624.000000	0.414712
1625.000000	0.414532
1626.000000	0.414496
1627.000000	0.414547
1628.000000	0.414633
1629.000000	0.414830
1630.000000	0.414932
1631.000000	0.414887
1632.000000	0.414891
1633.000000	0.414851
1634.000000	0.414890
1635.000000	0.415056
1636.000000	0.415141
1637.000000	0.415263
1638.000000	0.415327
1639.000000	0.415481
1640.000000	0.415473
1641.000000	0.415411
1642.000000	0.415384
1643.000000	0.415333
1644.000000	0.415271
1645.000000	0.415187
1646.000000	0.415161
1647.000000	0.415135
1648.000000	0.415186
1649.000000	0.415561
1650.000000	0.415675
1651.000000	0.415725
1652.000000	0.415846
1653.000000	0.415851
1654.000000	0.415849
1655.000000	0.415780
1656.000000	0.415671
1657.000000	0.415544
1658.000000	0.415501
1659.000000	0.415746
1660.000000	0.415821
1661.000000	0.415673
1662.000000	0.415654
1663.000000	0.415557
1664.000000	0.415583
1665.000000	0.415779
1666.000000	0.415877
1667.000000	0.415849
1668.000000	0.415869
1669.000000	0.415819
1670.000000	0.415737
1671.000000	0.415781
1672.000000	0.415957
1673.000000	0.416138
1674.000000	0.416306
1675.000000	0.416381
1676.000000	0.416302
1677.000000	0.416319
1678.000000	0.416293
1679.000000	0.416407
1680.000000	0.416390
1681.000000	0.416212
1682.000000	0.416224
1683.000000	0.416349
1684.000000	0.416484
1685.000000	0.416586
1686.000000	0.416650
1687.000000	0.416605
1688.000000	0.416351
1689.000000	0.416306
1690.000000	0.416199
1691.000000	0.416112
1692.000000	0.416055
1693.000000	0.415911
1694.000000	0.415752
1695.000000	0.415623
1696.000000	0.415601
1697.000000	0.415443
1698.000000	0.415229
1699.000000	0.415148
1700.000000	0.415087
1701.000000	0.415135
1702.000000	0.415138
1703.000000	0.415050
1704.000000	0.415007
1705.000000	0.414947
1706.000000	0.414904
1707.000000	0.414866
1708.000000	0.414744
1709.000000	0.414633
1710.000000	0.414699
1711.000000	0.414727
1712.000000	0.414766
1713.000000	0.414832
1714.000000	0.414999
1715.000000	0.415047
1716.000000	0.415176
1717.000000	0.415104
1718.000000	0.414780
1719.000000	0.414510
1720.000000	0.414154
1721.000000	0.413955
1722.000000	0.413831
1723.000000	0.413734
1724.000000	0.413816
1725.000000	0.413769
1726.000000	0.413496
1727.000000	0.413453
1728.000000	0.413436
1729.000000	0.413261
1730.000000	0.413325
1731.000000	0.413268
1732.000000	0.413076
1733.000000	0.412957
1734.000000	0.412698
1735.000000	0.412533
1736.000000	0.412282
1737.000000	0.412105
1738.000000	0.412016
1739.000000	0.412023
1740.000000	0.412093
1741.000000	0.411977
1742.000000	0.411912
1743.000000	0.411896
1744.000000	0.411733
1745.000000	0.411527
1746.000000	0.411377
1747.000000	0.411311
1748.000000	0.411111
1749.000000	0.411062
1750.000000	0.410971
1751.000000	0.410814
1752.000000	0.410849
1753.000000	0.410940
1754.000000	0.410959
1755.000000	0.410970
1756.000000	0.410829
1757.000000	0.410458
1758.000000	0.410312
1759.000000	0.410061
1760.000000	0.410027
1761.000000	0.410333
1762.000000	0.410398
1763.000000	0.410544
1764.000000	0.410494
1765.000000	0.410077
1766.000000	0.409936
1767.000000	0.409808
1768.000000	0.409515
1769.000000	0.409438
1770.000000	0.409203
1771.000000	0.408537
1772.000000	0.408282
1773.000000	0.408146
1774.000000	0.408012
1775.000000	0.408213
1776.000000	0.408102
1777.000000	0.407746
1778.000000	0.407572
1779.000000	0.407283
1780.000000	0.407280
1781.000000	0.407527
1782.000000	0.407425
1783.000000	0.407388
1784.000000	0.407052
1785.000000	0.406677
1786.000000	0.406649
1787.000000	0.406726
1788.000000	0.406672
1789.000000	0.406698
1790.000000	0.406673
1791.000000	0.406544
1792.000000	0.406547
1793.000000	0.406559
1794.000000	0.406596
1795.000000	0.406536
1796.000000	0.406477
1797.000000	0.406350
1798.000000	0.405945
1799.000000	0.405774
1800.000000	0.405800
1801.000000	0.405666
1802.000000	0.405375
1803.000000	0.406478
1804.000000	0.405938
1805.000000	0.402940
1806.000000	0.402487
1807.000000	0.403195
1808.000000	0.403281
1809.000000	0.404154
1810.000000	0.405175
1811.000000	0.405252
1812.000000	0.404083
1813.000000	0.404259
1814.000000	0.404981
1815.000000	0.405229
1816.000000	0.405870
1817.000000	0.405963
1818.000000	0.405548
1819.000000	0.405510
1820.000000	0.404854
1821.000000	0.404195
1822.000000	0.403914
1823.000000	0.403222
1824.000000	0.403044
1825.000000	0.403561
1826.000000	0.403807
1827.000000	0.403603
1828.000000	0.404126
1829.000000	0.404865
1830.000000	0.404897
1831.000000	0.404465
1832.000000	0.403193
1833.000000	0.402723
1834.000000	0.402087
1835.000000	0.401868
1836.000000	0.402417
1837.000000	0.402446
1838.000000	0.402368
1839.000000	0.401434
1840.000000	0.400606
1841.000000	0.400601
1842.000000	0.400487
1843.000000	0.400464
1844.000000	0.400514
1845.000000	0.400898
1846.000000	0.400984
1847.000000	0.400947
1848.000000	0.400472
1849.000000	0.400149
1850.000000	0.399433
1851.000000	0.398877
1852.000000	0.398205
1853.000000	0.397807
1854.000000	0.397179
1855.000000	0.396560
1856.000000	0.396136
1857.000000	0.395424
1858.000000	0.394087
1859.000000	0.393378
1860.000000	0.392421
1861.000000	0.391630
1862.000000	0.390790
1863.000000	0.390546
1864.000000	0.389416
1865.000000	0.387875
1866.000000	0.386201
1867.000000	0.383913
1868.000000	0.381708
1869.000000	0.380136
1870.000000	0.378637
1871.000000	0.376623
1872.000000	0.374457
1873.000000	0.372198
1874.000000	0.369344
1875.000000	0.366698
1876.000000	0.364222
1877.000000	0.360951
1878.000000	0.357160
1879.000000	0.352562
1880.000000	0.347373
1881.000000	0.342330
1882.000000	0.337318
1883.000000	0.332412
1884.000000	0.327568
1885.000000	0.323195
1886.000000	0.317717
1887.000000	0.311849
1888.000000	0.305196
1889.000000	0.298153
1890.000000	0.291473
1891.000000	0.284869
1892.000000	0.278215
1893.000000	0.271912
1894.000000	0.264989
1895.000000	0.258470
1896.000000	0.252190
1897.000000	0.246614
1898.000000	0.240327
1899.000000	0.234983
1900.000000	0.230203
1901.000000	0.225660
1902.000000	0.222254
1903.000000	0.219800
1904.000000	0.218216
1905.000000	0.216768
1906.000000	0.215861
1907.000000	0.215568
1908.000000	0.215858
1909.000000	0.216422
1910.000000	0.217811
1911.000000	0.219901
1912.000000	0.222192
1913.000000	0.224357
1914.000000	0.226816
1915.000000	0.229506
1916.000000	0.232134
1917.000000	0.234561
1918.000000	0.237231
1919.000000	0.239485
1920.000000	0.241593
1921.000000	0.244094
1922.000000	0.246401
1923.000000	0.249477
1924.000000	0.252788
1925.000000	0.255523
1926.000000	0.257746
1927.000000	0.259553
1928.000000	0.261061
1929.000000	0.262062
1930.000000	0.262455
1931.000000	0.263053
1932.000000	0.263836
1933.000000	0.264310
1934.000000	0.265174
1935.000000	0.266326
1936.000000	0.267307
1937.000000	0.268932
1938.000000	0.269984
1939.000000	0.270887
1940.000000	0.271670
1941.000000	0.272986
1942.000000	0.273388
1943.000000	0.274086
1944.000000	0.275385
1945.000000	0.275976
1946.000000	0.276345
1947.000000	0.276555
1948.000000	0.276429
1949.000000	0.276409
1950.000000	0.276782
1951.000000	0.277216
1952.000000	0.278127
1953.000000	0.278659
1954.000000	0.279209
1955.000000	0.280121
1956.000000	0.280896
1957.000000	0.281676
1958.000000	0.282749
1959.000000	0.283227
1960.000000	0.283433
1961.000000	0.284322
1962.000000	0.284791
1963.000000	0.284960
1964.000000	0.285728
1965.000000	0.286435
1966.000000	0.286184
1967.000000	0.286839
1968.000000	0.287341
1969.000000	0.287805
1970.000000	0.289143
1971.000000	0.290420
1972.000000	0.291269
1973.000000	0.291829
1974.000000	0.292003
1975.000000	0.292665
1976.000000	0.293172
1977.000000	0.294134
1978.000000	0.295442
1979.000000	0.296672
1980.000000	0.297662
1981.000000	0.298276
1982.000000	0.299395
1983.000000	0.300387
1984.000000	0.301270
1985.000000	0.302481
1986.000000	0.303376
1987.000000	0.304021
1988.000000	0.304567
1989.000000	0.305578
1990.000000	0.306694
1991.000000	0.307318
1992.000000	0.308459
1993.000000	0.309652
1994.000000	0.310312
1995.000000	0.311160
1996.000000	0.311978
1997.000000	0.312924
1998.000000	0.313771
1999.000000	0.314833
2000.000000	0.316170
2001.000000	0.317674
2002.000000	0.318620
2003.000000	0.319477
2004.000000	0.320267
2005.000000	0.320478
2006.000000	0.321199
2007.000000	0.321747
2008.000000	0.322386
2009.000000	0.323144
2010.000000	0.324133
2011.000000	0.325217
2012.000000	0.325965
2013.000000	0.326668
2014.000000	0.326818
2015.000000	0.327737
2016.000000	0.329083
2017.000000	0.330691
2018.000000	0.332268
2019.000000	0.332566
2020.000000	0.332556
2021.000000	0.333123
2022.000000	0.333725
2023.000000	0.334361
2024.000000	0.335497
2025.000000	0.336278
2026.000000	0.336715
2027.000000	0.336869
2028.000000	0.337365
2029.000000	0.338763
2030.000000	0.339224
2031.000000	0.339657
2032.000000	0.340292
2033.000000	0.340219
2034.000000	0.340821
2035.000000	0.342284
2036.000000	0.342972
2037.000000	0.343827
2038.000000	0.344405
2039.000000	0.344536
2040.000000	0.344965
2041.000000	0.345398
2042.000000	0.346086
2043.000000	0.346786
2044.000000	0.347048
2045.000000	0.347213
2046.000000	0.347189
2047.000000	0.347478
2048.000000	0.347598
2049.000000	0.348431
2050.000000	0.349510
2051.000000	0.350200
2052.000000	0.350962
2053.000000	0.351576
2054.000000	0.352127
2055.000000	0.352953
2056.000000	0.353758
2057.000000	0.354483
2058.000000	0.355170
2059.000000	0.355603
2060.000000	0.355880
2061.000000	0.356059
2062.000000	0.356278
2063.000000	0.356271
2064.000000	0.356075
2065.000000	0.356189
2066.000000	0.356125
2067.000000	0.355637
2068.000000	0.356299
2069.000000	0.357229
2070.000000	0.357842
2071.000000	0.358711
2072.000000	0.359290
2073.000000	0.359650
2074.000000	0.359789
2075.000000	0.359868
2076.000000	0.359629
2077.000000	0.359729
2078.000000	0.359651
2079.000000	0.359905
2080.000000	0.360842
2081.000000	0.361212
2082.000000	0.361331
2083.000000	0.361935
2084.000000	0.361897
2085.000000	0.361535
2086.000000	0.361836
2087.000000	0.361949
2088.000000	0.362097
2089.000000	0.362022
2090.000000	0.361643
2091.000000	0.360810
2092.000000	0.360318
2093.000000	0.359413
2094.000000	0.359273
2095.000000	0.359783
2096.000000	0.360049
2097.000000	0.360459
2098.000000	0.360911
2099.000000	0.361607
2100.000000	0.362140
2101.000000	0.363008
2102.000000	0.363963
2103.000000	0.363775
2104.000000	0.363845
2105.000000	0.363983
2106.000000	0.363831
2107.000000	0.363987
2108.000000	0.364108
2109.000000	0.364816
2110.000000	0.365905
2111.000000	0.366646
2112.000000	0.367729
2113.000000	0.368507
2114.000000	0.368584
2115.000000	0.368191
2116.000000	0.367464
2117.000000	0.366722
2118.000000	0.366469
2119.000000	0.366143
2120.000000	0.366253
2121.000000	0.367042
2122.000000	0.367621
2123.000000	0.368640
2124.000000	0.368955
2125.000000	0.369048
2126.000000	0.369032
2127.000000	0.368036
2128.000000	0.367996
2129.000000	0.368247
2130.000000	0.368841
2131.000000	0.369944
2132.000000	0.370502
2133.000000	0.370129
2134.000000	0.370119
2135.000000	0.370316
2136.000000	0.370109
2137.000000	0.370273
2138.000000	0.371276
2139.000000	0.371573
2140.000000	0.371393
2141.000000	0.371504
2142.000000	0.371808
2143.000000	0.371538
2144.000000	0.371222
2145.000000	0.370968
2146.000000	0.370674
2147.000000	0.370244
2148.000000	0.370155
2149.000000	0.369831
2150.000000	0.369559
2151.000000	0.369728
2152.000000	0.370210
2153.000000	0.370632
2154.000000	0.370681
2155.000000	0.370367
2156.000000	0.370686
2157.000000	0.371559
2158.000000	0.371506
2159.000000	0.371675
2160.000000	0.371584
2161.000000	0.369588
2162.000000	0.369294
2163.000000	0.370231
2164.000000	0.370547
2165.000000	0.371199
2166.000000	0.372223
2167.000000	0.372147
2168.000000	0.371521
2169.000000	0.369813
2170.000000	0.367875
2171.000000	0.367166
2172.000000	0.366698
2173.000000	0.366548
2174.000000	0.367816
2175.000000	0.367972
2176.000000	0.367227
2177.000000	0.367254
2178.000000	0.367622
2179.000000	0.368080
2180.000000	0.369127
2181.000000	0.369900
2182.000000	0.370013
2183.000000	0.369828
2184.000000	0.369636
2185.000000	0.368892
2186.000000	0.366826
2187.000000	0.365099
2188.000000	0.363729
2189.000000	0.362266
2190.000000	0.362702
2191.000000	0.364549
2192.000000	0.365361
2193.000000	0.366474
2194.000000	0.366800
2195.000000	0.366479
2196.000000	0.366133
2197.000000	0.365593
2198.000000	0.364889
2199.000000	0.363171
2200.000000	0.362525
2201.000000	0.362126
2202.000000	0.361832
2203.000000	0.361526
2204.000000	0.362868
2205.000000	0.364758
2206.000000	0.364618
2207.000000	0.363900
2208.000000	0.363138
2209.000000	0.358866
2210.000000	0.355828
2211.000000	0.354310
2212.000000	0.351227
2213.000000	0.350734
2214.000000	0.352553
2215.000000	0.353224
2216.000000	0.355448
2217.000000	0.356620
2218.000000	0.356579
2219.000000	0.357044
2220.000000	0.357451
2221.000000	0.357585
2222.000000	0.358512
2223.000000	0.358127
2224.000000	0.356715
2225.000000	0.355094
2226.000000	0.355576
2227.000000	0.354832
2228.000000	0.354189
2229.000000	0.354828
2230.000000	0.351985
2231.000000	0.348205
2232.000000	0.344350
2233.000000	0.342121
2234.000000	0.339947
2235.000000	0.338565
2236.000000	0.338183
2237.000000	0.339077
2238.000000	0.338803
2239.000000	0.338688
2240.000000	0.338922
2241.000000	0.339557
2242.000000	0.339647
2243.000000	0.339722
2244.000000	0.339831
2245.000000	0.339807
2246.000000	0.338687
2247.000000	0.337139
2248.000000	0.336294
2249.000000	0.334968
2250.000000	0.332441
2251.000000	0.333560
2252.000000	0.334548
2253.000000	0.334314
2254.000000	0.336223
2255.000000	0.336381
2256.000000	0.335105
2257.000000	0.336326
2258.000000	0.335351
2259.000000	0.335418
2260.000000	0.337375
2261.000000	0.337822
2262.000000	0.339284
2263.000000	0.337877
2264.000000	0.333500
2265.000000	0.331146
2266.000000	0.327507
2267.000000	0.325608
2268.000000	0.326480
2269.000000	0.325998
2270.000000	0.325685
2271.000000	0.323662
2272.000000	0.320008
2273.000000	0.317388
2274.000000	0.313231
2275.000000	0.310525
2276.000000	0.309755
2277.000000	0.308177
2278.000000	0.305141
2279.000000	0.304089
2280.000000	0.300610
2281.000000	0.296771
2282.000000	0.294836
2283.000000	0.292264
2284.000000	0.288355
2285.000000	0.285352
2286.000000	0.282615
2287.000000	0.278358
2288.000000	0.275436
2289.000000	0.272478
2290.000000	0.267485
2291.000000	0.264707
2292.000000	0.263664
2293.000000	0.262503
2294.000000	0.261871
2295.000000	0.262155
2296.000000	0.261575
2297.000000	0.260056
2298.000000	0.261512
2299.000000	0.265566
2300.000000	0.267207
2301.000000	0.268738
2302.000000	0.270551
2303.000000	0.269948
2304.000000	0.271242
2305.000000	0.276096
2306.000000	0.278512
2307.000000	0.279017
2308.000000	0.281441
2309.000000	0.284019
2310.000000	0.285595
2311.000000	0.289837
2312.000000	0.292742
2313.000000	0.294270
2314.000000	0.297149
2315.000000	0.298358
2316.000000	0.299086
2317.000000	0.299644
2318.000000	0.299717
2319.000000	0.300129
2320.000000	0.301196
2321.000000	0.302377
2322.000000	0.302506
2323.000000	0.302991
2324.000000	0.302708
2325.000000	0.303946
2326.000000	0.305735
2327.000000	0.304547
2328.000000	0.304715
2329.000000	0.306658
2330.000000	0.307541
2331.000000	0.310952
2332.000000	0.315229
2333.000000	0.315203
2334.000000	0.315784
2335.000000	0.317236
2336.000000	0.317868
2337.000000	0.318521
2338.000000	0.321271
2339.000000	0.320119
2340.000000	0.316474
2341.000000	0.313370
2342.000000	0.307584
2343.000000	0.304179
2344.000000	0.301474
2345.000000	0.298609
2346.000000	0.296189
2347.000000	0.295932
2348.000000	0.296732
2349.000000	0.298196
2350.000000	0.301838
2351.000000	0.304039
2352.000000	0.303474
2353.000000	0.302718
2354.000000	0.299737
2355.000000	0.296488
2356.000000	0.293018
2357.000000	0.290562
2358.000000	0.288048
2359.000000	0.285310
2360.000000	0.285511
2361.000000	0.284668
2362.000000	0.283782
2363.000000	0.282736
2364.000000	0.278288
2365.000000	0.274963
2366.000000	0.276501
2367.000000	0.279050
2368.000000	0.281667
2369.000000	0.285108
2370.000000	0.283423
2371.000000	0.280394
2372.000000	0.278794
2373.000000	0.276889
2374.000000	0.278010
2375.000000	0.278823
2376.000000	0.278283
2377.000000	0.277455
2378.000000	0.275890
2379.000000	0.274862
2380.000000	0.270827
2381.000000	0.267420
2382.000000	0.264409
2383.000000	0.258288
2384.000000	0.260000
2385.000000	0.263641
2386.000000	0.260122
2387.000000	0.258826
2388.000000	0.256522
2389.000000	0.249801
2390.000000	0.247031
2391.000000	0.245226
2392.000000	0.240082
2393.000000	0.236708
2394.000000	0.234893
2395.000000	0.235974
2396.000000	0.235222
2397.000000	0.233431
2398.000000	0.235688
2399.000000	0.230993
2400.000000	0.229412
2401.000000	0.231460
2402.000000	0.227972
2403.000000	0.231232
2404.000000	0.237913
2405.000000	0.237673
2406.000000	0.238772
2407.000000	0.236022
2408.000000	0.224312
2409.000000	0.223111
2410.000000	0.228872
2411.000000	0.234942
2412.000000	0.246229
2413.000000	0.248645
2414.000000	0.239903
2415.000000	0.233224
2416.000000	0.230630
2417.000000	0.241276
2418.000000	0.259994
2419.000000	0.261371
2420.000000	0.255112
2421.000000	0.243826
2422.000000	0.223315
2423.000000	0.221089
2424.000000	0.228382
2425.000000	0.227003
2426.000000	0.228890
2427.000000	0.225783
2428.000000	0.223747
2429.000000	0.232252
2430.000000	0.232646
2431.000000	0.232221
2432.000000	0.232381
2433.000000	0.226921
2434.000000	0.228288
2435.000000	0.230065
2436.000000	0.226099
2437.000000	0.233144
2438.000000	0.240258
2439.000000	0.237085
2440.000000	0.239139
2441.000000	0.226937
2442.000000	0.207853
2443.000000	0.209145
2444.000000	0.213281
2445.000000	0.224148
2446.000000	0.241601
2447.000000	0.235136
2448.000000	0.229217
2449.000000	0.230538
2450.000000	0.230327
2451.000000	0.234002
2452.000000	0.218015
2453.000000	0.209361
2454.000000	0.214122
2455.000000	0.205350
2456.000000	0.207168
2457.000000	0.204529
2458.000000	0.186810
2459.000000	0.184064
2460.000000	0.203966
2461.000000	0.213798
2462.000000	0.197635
2463.000000	0.195520
2464.000000	0.194080
2465.000000	0.193225
2466.000000	0.210655
2467.000000	0.206476
2468.000000	0.180786
2469.000000	0.153021
2470.000000	0.139062
2471.000000	0.137442
2472.000000	0.135477
2473.000000	0.159191
2474.000000	0.169063
2475.000000	0.173192
2476.000000	0.212190
2477.000000	0.207970
2478.000000	0.203087
2479.000000	0.203926
2480.000000	0.173169
2481.000000	0.179423
2482.000000	0.191050
2483.000000	0.167807
2484.000000	0.139574
2485.000000	0.129515
2486.000000	0.111189
2487.000000	0.106149
2488.000000	0.136844
2489.000000	0.123388
2490.000000	0.087784
2491.000000	0.076826
2492.000000	0.066015
2493.000000	0.077730
2494.000000	0.076422
2495.000000	0.074766
2496.000000	0.053570
2497.000000	-0.014451
2498.000000	-0.033220
2499.000000	-0.034513
2500.000000	-0.032611
