# Wavelength	Nau-1_80_FV7_20_00002.asd.rts.txt
350.000000	0.099103
351.000000	0.096955
352.000000	0.100822
353.000000	0.102572
354.000000	0.099433
355.000000	0.093770
356.000000	0.096633
357.000000	0.104162
358.000000	0.100574
359.000000	0.102849
360.000000	0.107264
361.000000	0.106344
362.000000	0.102768
363.000000	0.100011
364.000000	0.099841
365.000000	0.102190
366.000000	0.102139
367.000000	0.098770
368.000000	0.094550
369.000000	0.095798
370.000000	0.098932
371.000000	0.098276
372.000000	0.097455
373.000000	0.096656
374.000000	0.096568
375.000000	0.099963
376.000000	0.101645
377.000000	0.100848
378.000000	0.100888
379.000000	0.101287
380.000000	0.101526
381.000000	0.101628
382.000000	0.104486
383.000000	0.106132
384.000000	0.105048
385.000000	0.108117
386.000000	0.110252
387.000000	0.110529
388.000000	0.112291
389.000000	0.112255
390.000000	0.111893
391.000000	0.113799
392.000000	0.115458
393.000000	0.117787
394.000000	0.121022
395.000000	0.121453
396.000000	0.122922
397.000000	0.125810
398.000000	0.125635
399.000000	0.127146
400.000000	0.129570
401.000000	0.130014
402.000000	0.131697
403.000000	0.134013
404.000000	0.136124
405.000000	0.138952
406.000000	0.140481
407.000000	0.140513
408.000000	0.141790
409.000000	0.143320
410.000000	0.144869
411.000000	0.146511
412.000000	0.148018
413.000000	0.149451
414.000000	0.150828
415.000000	0.151242
416.000000	0.151654
417.000000	0.152534
418.000000	0.153024
419.000000	0.153677
420.000000	0.154308
421.000000	0.154060
422.000000	0.154642
423.000000	0.155257
424.000000	0.154644
425.000000	0.154595
426.000000	0.155202
427.000000	0.155912
428.000000	0.154766
429.000000	0.154370
430.000000	0.155130
431.000000	0.154485
432.000000	0.154479
433.000000	0.154927
434.000000	0.154790
435.000000	0.154437
436.000000	0.154139
437.000000	0.154027
438.000000	0.153738
439.000000	0.153141
440.000000	0.152347
441.000000	0.151645
442.000000	0.151348
443.000000	0.151155
444.000000	0.150383
445.000000	0.149794
446.000000	0.149795
447.000000	0.150499
448.000000	0.151601
449.000000	0.152631
450.000000	0.153579
451.000000	0.155700
452.000000	0.158065
453.000000	0.160318
454.000000	0.162791
455.000000	0.166183
456.000000	0.169753
457.000000	0.172165
458.000000	0.175437
459.000000	0.178801
460.000000	0.181442
461.000000	0.184227
462.000000	0.186675
463.000000	0.188579
464.000000	0.190690
465.000000	0.192522
466.000000	0.193878
467.000000	0.194816
468.000000	0.196145
469.000000	0.197571
470.000000	0.198667
471.000000	0.199287
472.000000	0.200007
473.000000	0.201166
474.000000	0.202323
475.000000	0.203125
476.000000	0.203628
477.000000	0.204034
478.000000	0.204441
479.000000	0.205098
480.000000	0.205978
481.000000	0.206595
482.000000	0.207196
483.000000	0.207884
484.000000	0.208611
485.000000	0.209308
486.000000	0.210038
487.000000	0.210582
488.000000	0.211265
489.000000	0.212080
490.000000	0.212777
491.000000	0.213506
492.000000	0.214246
493.000000	0.214869
494.000000	0.215763
495.000000	0.216565
496.000000	0.217089
497.000000	0.218021
498.000000	0.218882
499.000000	0.219618
500.000000	0.220536
501.000000	0.221377
502.000000	0.222191
503.000000	0.223069
504.000000	0.223809
505.000000	0.224558
506.000000	0.225473
507.000000	0.226406
508.000000	0.227375
509.000000	0.228361
510.000000	0.229379
511.000000	0.230334
512.000000	0.231282
513.000000	0.232357
514.000000	0.233448
515.000000	0.234521
516.000000	0.235508
517.000000	0.236449
518.000000	0.237503
519.000000	0.238667
520.000000	0.239755
521.000000	0.240869
522.000000	0.242078
523.000000	0.243413
524.000000	0.244627
525.000000	0.245759
526.000000	0.247047
527.000000	0.248314
528.000000	0.249544
529.000000	0.250818
530.000000	0.252225
531.000000	0.253634
532.000000	0.254929
533.000000	0.256388
534.000000	0.257864
535.000000	0.259289
536.000000	0.260705
537.000000	0.262083
538.000000	0.263478
539.000000	0.264956
540.000000	0.266452
541.000000	0.267884
542.000000	0.269264
543.000000	0.270814
544.000000	0.272376
545.000000	0.273829
546.000000	0.275391
547.000000	0.276847
548.000000	0.278205
549.000000	0.279528
550.000000	0.280940
551.000000	0.282415
552.000000	0.283835
553.000000	0.285297
554.000000	0.286723
555.000000	0.288084
556.000000	0.289538
557.000000	0.290881
558.000000	0.292186
559.000000	0.293504
560.000000	0.294824
561.000000	0.296156
562.000000	0.297357
563.000000	0.298503
564.000000	0.299661
565.000000	0.300770
566.000000	0.301881
567.000000	0.302922
568.000000	0.303869
569.000000	0.304912
570.000000	0.305878
571.000000	0.306758
572.000000	0.307706
573.000000	0.308569
574.000000	0.309321
575.000000	0.310048
576.000000	0.310810
577.000000	0.311492
578.000000	0.312086
579.000000	0.312705
580.000000	0.313265
581.000000	0.313751
582.000000	0.314283
583.000000	0.314735
584.000000	0.315130
585.000000	0.315579
586.000000	0.315958
587.000000	0.316268
588.000000	0.316547
589.000000	0.316861
590.000000	0.317169
591.000000	0.317439
592.000000	0.317671
593.000000	0.317882
594.000000	0.318090
595.000000	0.318332
596.000000	0.318409
597.000000	0.318473
598.000000	0.318677
599.000000	0.318701
600.000000	0.318706
601.000000	0.318782
602.000000	0.318909
603.000000	0.318988
604.000000	0.318992
605.000000	0.318973
606.000000	0.319034
607.000000	0.319136
608.000000	0.319132
609.000000	0.319116
610.000000	0.319114
611.000000	0.319130
612.000000	0.319094
613.000000	0.319100
614.000000	0.319202
615.000000	0.319149
616.000000	0.319041
617.000000	0.318941
618.000000	0.319003
619.000000	0.319004
620.000000	0.318922
621.000000	0.318884
622.000000	0.318875
623.000000	0.318896
624.000000	0.318939
625.000000	0.318987
626.000000	0.319060
627.000000	0.319156
628.000000	0.319238
629.000000	0.319331
630.000000	0.319305
631.000000	0.319255
632.000000	0.319281
633.000000	0.319382
634.000000	0.319501
635.000000	0.319558
636.000000	0.319596
637.000000	0.319645
638.000000	0.319782
639.000000	0.319848
640.000000	0.319912
641.000000	0.320066
642.000000	0.320186
643.000000	0.320278
644.000000	0.320386
645.000000	0.320446
646.000000	0.320558
647.000000	0.320743
648.000000	0.320832
649.000000	0.321041
650.000000	0.321360
651.000000	0.321545
652.000000	0.321697
653.000000	0.321900
654.000000	0.322148
655.000000	0.322398
656.000000	0.322668
657.000000	0.322911
658.000000	0.323112
659.000000	0.323307
660.000000	0.323509
661.000000	0.323738
662.000000	0.324044
663.000000	0.324414
664.000000	0.324681
665.000000	0.325018
666.000000	0.325405
667.000000	0.325749
668.000000	0.326086
669.000000	0.326426
670.000000	0.326782
671.000000	0.327166
672.000000	0.327551
673.000000	0.327937
674.000000	0.328368
675.000000	0.328736
676.000000	0.329091
677.000000	0.329527
678.000000	0.329924
679.000000	0.330313
680.000000	0.330732
681.000000	0.331146
682.000000	0.331641
683.000000	0.332156
684.000000	0.332727
685.000000	0.333318
686.000000	0.333884
687.000000	0.334331
688.000000	0.334775
689.000000	0.335236
690.000000	0.335763
691.000000	0.336382
692.000000	0.336910
693.000000	0.337405
694.000000	0.338015
695.000000	0.338628
696.000000	0.339212
697.000000	0.339773
698.000000	0.340338
699.000000	0.340947
700.000000	0.341612
701.000000	0.342175
702.000000	0.342781
703.000000	0.343437
704.000000	0.344008
705.000000	0.344679
706.000000	0.345376
707.000000	0.346028
708.000000	0.346647
709.000000	0.347229
710.000000	0.347800
711.000000	0.348386
712.000000	0.348995
713.000000	0.349643
714.000000	0.350283
715.000000	0.350919
716.000000	0.351592
717.000000	0.352318
718.000000	0.352927
719.000000	0.353507
720.000000	0.354160
721.000000	0.354796
722.000000	0.355362
723.000000	0.355917
724.000000	0.356449
725.000000	0.356993
726.000000	0.357635
727.000000	0.358276
728.000000	0.358859
729.000000	0.359438
730.000000	0.360004
731.000000	0.360579
732.000000	0.361183
733.000000	0.361829
734.000000	0.362386
735.000000	0.362900
736.000000	0.363473
737.000000	0.363943
738.000000	0.364425
739.000000	0.364923
740.000000	0.365259
741.000000	0.365705
742.000000	0.366172
743.000000	0.366603
744.000000	0.367075
745.000000	0.367447
746.000000	0.367829
747.000000	0.368262
748.000000	0.368560
749.000000	0.368829
750.000000	0.369137
751.000000	0.369548
752.000000	0.369894
753.000000	0.370158
754.000000	0.370425
755.000000	0.370719
756.000000	0.370990
757.000000	0.371135
758.000000	0.371280
759.000000	0.371404
760.000000	0.371428
761.000000	0.371507
762.000000	0.371600
763.000000	0.371709
764.000000	0.371945
765.000000	0.372020
766.000000	0.371960
767.000000	0.371870
768.000000	0.371902
769.000000	0.371899
770.000000	0.371809
771.000000	0.371726
772.000000	0.371688
773.000000	0.371621
774.000000	0.371560
775.000000	0.371433
776.000000	0.371292
777.000000	0.371165
778.000000	0.371049
779.000000	0.370928
780.000000	0.370783
781.000000	0.370563
782.000000	0.370342
783.000000	0.370192
784.000000	0.369963
785.000000	0.369706
786.000000	0.369456
787.000000	0.369217
788.000000	0.368952
789.000000	0.368657
790.000000	0.368368
791.000000	0.368194
792.000000	0.367982
793.000000	0.367708
794.000000	0.367404
795.000000	0.367187
796.000000	0.366913
797.000000	0.366530
798.000000	0.366093
799.000000	0.365736
800.000000	0.365356
801.000000	0.364835
802.000000	0.364431
803.000000	0.364061
804.000000	0.363701
805.000000	0.363345
806.000000	0.362788
807.000000	0.362253
808.000000	0.361972
809.000000	0.361608
810.000000	0.361193
811.000000	0.360778
812.000000	0.360367
813.000000	0.359947
814.000000	0.359502
815.000000	0.359041
816.000000	0.358543
817.000000	0.358061
818.000000	0.357555
819.000000	0.357060
820.000000	0.356629
821.000000	0.356227
822.000000	0.355883
823.000000	0.355448
824.000000	0.354874
825.000000	0.354311
826.000000	0.353860
827.000000	0.353446
828.000000	0.353053
829.000000	0.352654
830.000000	0.352170
831.000000	0.351685
832.000000	0.351186
833.000000	0.350757
834.000000	0.350335
835.000000	0.349901
836.000000	0.349460
837.000000	0.348974
838.000000	0.348468
839.000000	0.347965
840.000000	0.347389
841.000000	0.346866
842.000000	0.346446
843.000000	0.345956
844.000000	0.345545
845.000000	0.345211
846.000000	0.344867
847.000000	0.344532
848.000000	0.344140
849.000000	0.343676
850.000000	0.343196
851.000000	0.342681
852.000000	0.342178
853.000000	0.341708
854.000000	0.341301
855.000000	0.341031
856.000000	0.340744
857.000000	0.340318
858.000000	0.339977
859.000000	0.339700
860.000000	0.339314
861.000000	0.338882
862.000000	0.338447
863.000000	0.337966
864.000000	0.337476
865.000000	0.337051
866.000000	0.336719
867.000000	0.336323
868.000000	0.336051
869.000000	0.335749
870.000000	0.335290
871.000000	0.334832
872.000000	0.334443
873.000000	0.334083
874.000000	0.333757
875.000000	0.333602
876.000000	0.333461
877.000000	0.333019
878.000000	0.332600
879.000000	0.332307
880.000000	0.332018
881.000000	0.331780
882.000000	0.331585
883.000000	0.331363
884.000000	0.330973
885.000000	0.330627
886.000000	0.330266
887.000000	0.329914
888.000000	0.329717
889.000000	0.329457
890.000000	0.329081
891.000000	0.328827
892.000000	0.328527
893.000000	0.328240
894.000000	0.328079
895.000000	0.327781
896.000000	0.327520
897.000000	0.327317
898.000000	0.327132
899.000000	0.326877
900.000000	0.326573
901.000000	0.326263
902.000000	0.326158
903.000000	0.326045
904.000000	0.325923
905.000000	0.325737
906.000000	0.325589
907.000000	0.325465
908.000000	0.325394
909.000000	0.325274
910.000000	0.325071
911.000000	0.324915
912.000000	0.324883
913.000000	0.324621
914.000000	0.324384
915.000000	0.324300
916.000000	0.324207
917.000000	0.324002
918.000000	0.323933
919.000000	0.324069
920.000000	0.323951
921.000000	0.323809
922.000000	0.323642
923.000000	0.323342
924.000000	0.323146
925.000000	0.323022
926.000000	0.322957
927.000000	0.322902
928.000000	0.322751
929.000000	0.322541
930.000000	0.322365
931.000000	0.322280
932.000000	0.322158
933.000000	0.321985
934.000000	0.321782
935.000000	0.321731
936.000000	0.321768
937.000000	0.321672
938.000000	0.321423
939.000000	0.321276
940.000000	0.321269
941.000000	0.321437
942.000000	0.321428
943.000000	0.321438
944.000000	0.321455
945.000000	0.321425
946.000000	0.321382
947.000000	0.321466
948.000000	0.321667
949.000000	0.321533
950.000000	0.321345
951.000000	0.321229
952.000000	0.321245
953.000000	0.321133
954.000000	0.321067
955.000000	0.321108
956.000000	0.321108
957.000000	0.321152
958.000000	0.321141
959.000000	0.321086
960.000000	0.321208
961.000000	0.321322
962.000000	0.321388
963.000000	0.321632
964.000000	0.321773
965.000000	0.321830
966.000000	0.321784
967.000000	0.321873
968.000000	0.322017
969.000000	0.322070
970.000000	0.322015
971.000000	0.321869
972.000000	0.322000
973.000000	0.322244
974.000000	0.322002
975.000000	0.321989
976.000000	0.322066
977.000000	0.322043
978.000000	0.322209
979.000000	0.322292
980.000000	0.322242
981.000000	0.322556
982.000000	0.322666
983.000000	0.322899
984.000000	0.323268
985.000000	0.323270
986.000000	0.323328
987.000000	0.323497
988.000000	0.323640
989.000000	0.323797
990.000000	0.324053
991.000000	0.324156
992.000000	0.324016
993.000000	0.324557
994.000000	0.325094
995.000000	0.325469
996.000000	0.325561
997.000000	0.325662
998.000000	0.326120
999.000000	0.326858
1000.000000	0.326925
1001.000000	0.327045
1002.000000	0.326361
1003.000000	0.326497
1004.000000	0.326765
1005.000000	0.326924
1006.000000	0.326803
1007.000000	0.326952
1008.000000	0.327476
1009.000000	0.327221
1010.000000	0.327302
1011.000000	0.328297
1012.000000	0.328723
1013.000000	0.328556
1014.000000	0.328776
1015.000000	0.329140
1016.000000	0.329717
1017.000000	0.330267
1018.000000	0.330607
1019.000000	0.330945
1020.000000	0.331414
1021.000000	0.331145
1022.000000	0.330304
1023.000000	0.330613
1024.000000	0.330889
1025.000000	0.331727
1026.000000	0.332570
1027.000000	0.333289
1028.000000	0.333757
1029.000000	0.333475
1030.000000	0.333605
1031.000000	0.333887
1032.000000	0.334132
1033.000000	0.334535
1034.000000	0.334898
1035.000000	0.335320
1036.000000	0.336013
1037.000000	0.336776
1038.000000	0.337373
1039.000000	0.338378
1040.000000	0.339234
1041.000000	0.339201
1042.000000	0.339298
1043.000000	0.339456
1044.000000	0.339570
1045.000000	0.340061
1046.000000	0.340913
1047.000000	0.341737
1048.000000	0.342877
1049.000000	0.343335
1050.000000	0.343652
1051.000000	0.343848
1052.000000	0.343157
1053.000000	0.343277
1054.000000	0.344083
1055.000000	0.344682
1056.000000	0.345497
1057.000000	0.346491
1058.000000	0.346833
1059.000000	0.347124
1060.000000	0.347441
1061.000000	0.347705
1062.000000	0.348290
1063.000000	0.348768
1064.000000	0.349429
1065.000000	0.350283
1066.000000	0.350955
1067.000000	0.351646
1068.000000	0.352152
1069.000000	0.352234
1070.000000	0.352697
1071.000000	0.353469
1072.000000	0.354036
1073.000000	0.354546
1074.000000	0.355509
1075.000000	0.356125
1076.000000	0.356433
1077.000000	0.356935
1078.000000	0.357062
1079.000000	0.357430
1080.000000	0.357650
1081.000000	0.358233
1082.000000	0.359250
1083.000000	0.360077
1084.000000	0.361204
1085.000000	0.361961
1086.000000	0.362378
1087.000000	0.362988
1088.000000	0.363401
1089.000000	0.363848
1090.000000	0.364455
1091.000000	0.364893
1092.000000	0.365099
1093.000000	0.365425
1094.000000	0.366091
1095.000000	0.366854
1096.000000	0.367702
1097.000000	0.368989
1098.000000	0.369934
1099.000000	0.370687
1100.000000	0.371402
1101.000000	0.371980
1102.000000	0.372561
1103.000000	0.372894
1104.000000	0.373515
1105.000000	0.374354
1106.000000	0.375024
1107.000000	0.375817
1108.000000	0.376359
1109.000000	0.376580
1110.000000	0.376848
1111.000000	0.377621
1112.000000	0.378690
1113.000000	0.379355
1114.000000	0.380319
1115.000000	0.380961
1116.000000	0.380999
1117.000000	0.381517
1118.000000	0.382381
1119.000000	0.382924
1120.000000	0.383333
1121.000000	0.383835
1122.000000	0.384451
1123.000000	0.385147
1124.000000	0.385512
1125.000000	0.386142
1126.000000	0.386876
1127.000000	0.387396
1128.000000	0.387884
1129.000000	0.388488
1130.000000	0.389089
1131.000000	0.389525
1132.000000	0.390054
1133.000000	0.390862
1134.000000	0.391475
1135.000000	0.391879
1136.000000	0.392339
1137.000000	0.392728
1138.000000	0.393202
1139.000000	0.393798
1140.000000	0.394458
1141.000000	0.395305
1142.000000	0.395894
1143.000000	0.396102
1144.000000	0.396700
1145.000000	0.397148
1146.000000	0.397596
1147.000000	0.398030
1148.000000	0.398530
1149.000000	0.398926
1150.000000	0.399178
1151.000000	0.399538
1152.000000	0.399853
1153.000000	0.400287
1154.000000	0.400710
1155.000000	0.401133
1156.000000	0.401650
1157.000000	0.402151
1158.000000	0.402556
1159.000000	0.403003
1160.000000	0.403483
1161.000000	0.403948
1162.000000	0.404373
1163.000000	0.405111
1164.000000	0.405830
1165.000000	0.406466
1166.000000	0.406971
1167.000000	0.407294
1168.000000	0.407747
1169.000000	0.408158
1170.000000	0.408649
1171.000000	0.409406
1172.000000	0.409949
1173.000000	0.410306
1174.000000	0.410686
1175.000000	0.410892
1176.000000	0.411250
1177.000000	0.411811
1178.000000	0.412293
1179.000000	0.412949
1180.000000	0.413295
1181.000000	0.413497
1182.000000	0.413668
1183.000000	0.414112
1184.000000	0.414595
1185.000000	0.415041
1186.000000	0.415754
1187.000000	0.416114
1188.000000	0.416102
1189.000000	0.416479
1190.000000	0.417142
1191.000000	0.417476
1192.000000	0.417967
1193.000000	0.418413
1194.000000	0.418388
1195.000000	0.418619
1196.000000	0.418935
1197.000000	0.419237
1198.000000	0.419591
1199.000000	0.419921
1200.000000	0.420286
1201.000000	0.420647
1202.000000	0.420738
1203.000000	0.420816
1204.000000	0.420915
1205.000000	0.421042
1206.000000	0.421273
1207.000000	0.421844
1208.000000	0.422158
1209.000000	0.422463
1210.000000	0.422836
1211.000000	0.423287
1212.000000	0.423509
1213.000000	0.423679
1214.000000	0.423950
1215.000000	0.424007
1216.000000	0.424238
1217.000000	0.424749
1218.000000	0.425003
1219.000000	0.425137
1220.000000	0.425353
1221.000000	0.425587
1222.000000	0.425722
1223.000000	0.426057
1224.000000	0.426528
1225.000000	0.426860
1226.000000	0.427171
1227.000000	0.427330
1228.000000	0.427435
1229.000000	0.427554
1230.000000	0.427641
1231.000000	0.427646
1232.000000	0.427695
1233.000000	0.427987
1234.000000	0.428275
1235.000000	0.428550
1236.000000	0.429043
1237.000000	0.429301
1238.000000	0.429222
1239.000000	0.429351
1240.000000	0.429543
1241.000000	0.429589
1242.000000	0.429738
1243.000000	0.429916
1244.000000	0.430018
1245.000000	0.430264
1246.000000	0.430552
1247.000000	0.430923
1248.000000	0.431225
1249.000000	0.431382
1250.000000	0.431416
1251.000000	0.431431
1252.000000	0.431535
1253.000000	0.431692
1254.000000	0.431852
1255.000000	0.432180
1256.000000	0.432239
1257.000000	0.432065
1258.000000	0.432221
1259.000000	0.432312
1260.000000	0.432499
1261.000000	0.432913
1262.000000	0.433144
1263.000000	0.433249
1264.000000	0.433390
1265.000000	0.433709
1266.000000	0.433769
1267.000000	0.433782
1268.000000	0.433951
1269.000000	0.433889
1270.000000	0.433946
1271.000000	0.433949
1272.000000	0.433876
1273.000000	0.434001
1274.000000	0.433999
1275.000000	0.434073
1276.000000	0.434403
1277.000000	0.434518
1278.000000	0.434387
1279.000000	0.434338
1280.000000	0.434090
1281.000000	0.433965
1282.000000	0.433917
1283.000000	0.434039
1284.000000	0.434217
1285.000000	0.434361
1286.000000	0.434533
1287.000000	0.434754
1288.000000	0.434890
1289.000000	0.435026
1290.000000	0.435001
1291.000000	0.434934
1292.000000	0.435053
1293.000000	0.435024
1294.000000	0.434916
1295.000000	0.434947
1296.000000	0.434851
1297.000000	0.434916
1298.000000	0.435299
1299.000000	0.435466
1300.000000	0.435555
1301.000000	0.435546
1302.000000	0.435441
1303.000000	0.435267
1304.000000	0.435229
1305.000000	0.435411
1306.000000	0.435455
1307.000000	0.435556
1308.000000	0.435563
1309.000000	0.435467
1310.000000	0.435391
1311.000000	0.435274
1312.000000	0.435242
1313.000000	0.435199
1314.000000	0.435071
1315.000000	0.434779
1316.000000	0.434556
1317.000000	0.434517
1318.000000	0.434491
1319.000000	0.434464
1320.000000	0.434461
1321.000000	0.434278
1322.000000	0.434002
1323.000000	0.433793
1324.000000	0.433836
1325.000000	0.433793
1326.000000	0.433602
1327.000000	0.433703
1328.000000	0.433657
1329.000000	0.433518
1330.000000	0.433478
1331.000000	0.433448
1332.000000	0.433282
1333.000000	0.433266
1334.000000	0.433563
1335.000000	0.433531
1336.000000	0.433322
1337.000000	0.433223
1338.000000	0.432949
1339.000000	0.432736
1340.000000	0.432757
1341.000000	0.432792
1342.000000	0.432740
1343.000000	0.432670
1344.000000	0.432767
1345.000000	0.432736
1346.000000	0.432681
1347.000000	0.432614
1348.000000	0.432444
1349.000000	0.432062
1350.000000	0.431785
1351.000000	0.431596
1352.000000	0.431286
1353.000000	0.431019
1354.000000	0.430901
1355.000000	0.430719
1356.000000	0.430693
1357.000000	0.430675
1358.000000	0.430411
1359.000000	0.430002
1360.000000	0.429879
1361.000000	0.429966
1362.000000	0.429821
1363.000000	0.429804
1364.000000	0.429744
1365.000000	0.429374
1366.000000	0.429075
1367.000000	0.428854
1368.000000	0.428638
1369.000000	0.428442
1370.000000	0.428068
1371.000000	0.427721
1372.000000	0.427452
1373.000000	0.426991
1374.000000	0.426439
1375.000000	0.425893
1376.000000	0.425304
1377.000000	0.424615
1378.000000	0.423912
1379.000000	0.423070
1380.000000	0.422131
1381.000000	0.421080
1382.000000	0.419971
1383.000000	0.418950
1384.000000	0.417766
1385.000000	0.416339
1386.000000	0.414959
1387.000000	0.413699
1388.000000	0.412170
1389.000000	0.410590
1390.000000	0.409096
1391.000000	0.407257
1392.000000	0.405429
1393.000000	0.403588
1394.000000	0.401747
1395.000000	0.399999
1396.000000	0.398281
1397.000000	0.396450
1398.000000	0.394668
1399.000000	0.392822
1400.000000	0.390762
1401.000000	0.388838
1402.000000	0.387103
1403.000000	0.385111
1404.000000	0.383216
1405.000000	0.381478
1406.000000	0.379535
1407.000000	0.377748
1408.000000	0.375980
1409.000000	0.374296
1410.000000	0.372918
1411.000000	0.371567
1412.000000	0.370283
1413.000000	0.369248
1414.000000	0.368427
1415.000000	0.367797
1416.000000	0.367286
1417.000000	0.367046
1418.000000	0.366915
1419.000000	0.366888
1420.000000	0.366942
1421.000000	0.367087
1422.000000	0.367187
1423.000000	0.367226
1424.000000	0.367152
1425.000000	0.366973
1426.000000	0.366476
1427.000000	0.365958
1428.000000	0.365393
1429.000000	0.364679
1430.000000	0.364238
1431.000000	0.363947
1432.000000	0.363782
1433.000000	0.363738
1434.000000	0.364094
1435.000000	0.364740
1436.000000	0.365600
1437.000000	0.366815
1438.000000	0.368200
1439.000000	0.369814
1440.000000	0.371656
1441.000000	0.373894
1442.000000	0.376054
1443.000000	0.378288
1444.000000	0.380527
1445.000000	0.382636
1446.000000	0.384650
1447.000000	0.386512
1448.000000	0.388145
1449.000000	0.389578
1450.000000	0.390931
1451.000000	0.392114
1452.000000	0.392950
1453.000000	0.393687
1454.000000	0.394266
1455.000000	0.394648
1456.000000	0.395081
1457.000000	0.395522
1458.000000	0.395829
1459.000000	0.396140
1460.000000	0.396469
1461.000000	0.396607
1462.000000	0.396769
1463.000000	0.396935
1464.000000	0.397176
1465.000000	0.397650
1466.000000	0.398057
1467.000000	0.398568
1468.000000	0.399119
1469.000000	0.399540
1470.000000	0.399943
1471.000000	0.400416
1472.000000	0.400823
1473.000000	0.401405
1474.000000	0.401974
1475.000000	0.402437
1476.000000	0.402928
1477.000000	0.403425
1478.000000	0.403979
1479.000000	0.404444
1480.000000	0.404917
1481.000000	0.405448
1482.000000	0.406016
1483.000000	0.406570
1484.000000	0.407259
1485.000000	0.407824
1486.000000	0.408225
1487.000000	0.408750
1488.000000	0.409360
1489.000000	0.409955
1490.000000	0.410440
1491.000000	0.410986
1492.000000	0.411437
1493.000000	0.411935
1494.000000	0.412489
1495.000000	0.412877
1496.000000	0.413176
1497.000000	0.413531
1498.000000	0.413830
1499.000000	0.414147
1500.000000	0.414553
1501.000000	0.414919
1502.000000	0.415302
1503.000000	0.415613
1504.000000	0.415817
1505.000000	0.416159
1506.000000	0.416514
1507.000000	0.416780
1508.000000	0.417233
1509.000000	0.417671
1510.000000	0.417879
1511.000000	0.418179
1512.000000	0.418429
1513.000000	0.418580
1514.000000	0.418977
1515.000000	0.419363
1516.000000	0.419799
1517.000000	0.420197
1518.000000	0.420412
1519.000000	0.420540
1520.000000	0.420611
1521.000000	0.420721
1522.000000	0.421023
1523.000000	0.421382
1524.000000	0.421665
1525.000000	0.422020
1526.000000	0.422398
1527.000000	0.422733
1528.000000	0.423096
1529.000000	0.423362
1530.000000	0.423453
1531.000000	0.423694
1532.000000	0.424104
1533.000000	0.424456
1534.000000	0.424725
1535.000000	0.424983
1536.000000	0.425133
1537.000000	0.425338
1538.000000	0.425643
1539.000000	0.425826
1540.000000	0.425867
1541.000000	0.425971
1542.000000	0.426174
1543.000000	0.426376
1544.000000	0.426506
1545.000000	0.426626
1546.000000	0.426712
1547.000000	0.426737
1548.000000	0.426904
1549.000000	0.427116
1550.000000	0.427095
1551.000000	0.427098
1552.000000	0.427153
1553.000000	0.427209
1554.000000	0.427440
1555.000000	0.427631
1556.000000	0.427669
1557.000000	0.427640
1558.000000	0.427852
1559.000000	0.428147
1560.000000	0.428344
1561.000000	0.428765
1562.000000	0.428964
1563.000000	0.428968
1564.000000	0.429036
1565.000000	0.429072
1566.000000	0.429095
1567.000000	0.429220
1568.000000	0.429426
1569.000000	0.429868
1570.000000	0.430046
1571.000000	0.430103
1572.000000	0.430113
1573.000000	0.429986
1574.000000	0.429969
1575.000000	0.429984
1576.000000	0.430135
1577.000000	0.430327
1578.000000	0.430426
1579.000000	0.430737
1580.000000	0.430842
1581.000000	0.430826
1582.000000	0.430904
1583.000000	0.430964
1584.000000	0.431023
1585.000000	0.431240
1586.000000	0.431379
1587.000000	0.431493
1588.000000	0.431587
1589.000000	0.431659
1590.000000	0.431702
1591.000000	0.431756
1592.000000	0.431759
1593.000000	0.431751
1594.000000	0.431727
1595.000000	0.431777
1596.000000	0.431753
1597.000000	0.431669
1598.000000	0.431641
1599.000000	0.431640
1600.000000	0.431644
1601.000000	0.431805
1602.000000	0.431862
1603.000000	0.431909
1604.000000	0.431971
1605.000000	0.432077
1606.000000	0.432132
1607.000000	0.432314
1608.000000	0.432283
1609.000000	0.432167
1610.000000	0.432052
1611.000000	0.431792
1612.000000	0.431703
1613.000000	0.431816
1614.000000	0.431857
1615.000000	0.432080
1616.000000	0.432250
1617.000000	0.432373
1618.000000	0.432392
1619.000000	0.432265
1620.000000	0.432222
1621.000000	0.432149
1622.000000	0.432209
1623.000000	0.432361
1624.000000	0.432467
1625.000000	0.432409
1626.000000	0.432382
1627.000000	0.432415
1628.000000	0.432434
1629.000000	0.432335
1630.000000	0.432430
1631.000000	0.432523
1632.000000	0.432612
1633.000000	0.432938
1634.000000	0.433045
1635.000000	0.433023
1636.000000	0.433081
1637.000000	0.433159
1638.000000	0.433118
1639.000000	0.433174
1640.000000	0.433105
1641.000000	0.432934
1642.000000	0.432824
1643.000000	0.432794
1644.000000	0.432639
1645.000000	0.432362
1646.000000	0.432219
1647.000000	0.432152
1648.000000	0.432015
1649.000000	0.432090
1650.000000	0.432051
1651.000000	0.431835
1652.000000	0.431900
1653.000000	0.432083
1654.000000	0.432195
1655.000000	0.432380
1656.000000	0.432344
1657.000000	0.432183
1658.000000	0.432222
1659.000000	0.432413
1660.000000	0.432607
1661.000000	0.432885
1662.000000	0.432881
1663.000000	0.432645
1664.000000	0.432610
1665.000000	0.432554
1666.000000	0.432555
1667.000000	0.432574
1668.000000	0.432527
1669.000000	0.432326
1670.000000	0.432159
1671.000000	0.432201
1672.000000	0.432186
1673.000000	0.432042
1674.000000	0.432031
1675.000000	0.432156
1676.000000	0.432329
1677.000000	0.432404
1678.000000	0.432416
1679.000000	0.432411
1680.000000	0.432309
1681.000000	0.432271
1682.000000	0.432243
1683.000000	0.432227
1684.000000	0.432274
1685.000000	0.432363
1686.000000	0.432419
1687.000000	0.432487
1688.000000	0.432429
1689.000000	0.432331
1690.000000	0.432328
1691.000000	0.432224
1692.000000	0.431988
1693.000000	0.431983
1694.000000	0.431731
1695.000000	0.431688
1696.000000	0.431929
1697.000000	0.431889
1698.000000	0.431977
1699.000000	0.431967
1700.000000	0.431573
1701.000000	0.431562
1702.000000	0.431562
1703.000000	0.431469
1704.000000	0.431588
1705.000000	0.431647
1706.000000	0.431657
1707.000000	0.431679
1708.000000	0.431781
1709.000000	0.431672
1710.000000	0.431469
1711.000000	0.431427
1712.000000	0.431408
1713.000000	0.431388
1714.000000	0.431619
1715.000000	0.431628
1716.000000	0.431480
1717.000000	0.431378
1718.000000	0.431127
1719.000000	0.430991
1720.000000	0.431029
1721.000000	0.430951
1722.000000	0.430878
1723.000000	0.430746
1724.000000	0.430495
1725.000000	0.430464
1726.000000	0.430465
1727.000000	0.430375
1728.000000	0.430276
1729.000000	0.430072
1730.000000	0.429853
1731.000000	0.429757
1732.000000	0.429815
1733.000000	0.429764
1734.000000	0.429479
1735.000000	0.429360
1736.000000	0.429178
1737.000000	0.429072
1738.000000	0.429107
1739.000000	0.429110
1740.000000	0.429105
1741.000000	0.428993
1742.000000	0.428875
1743.000000	0.428886
1744.000000	0.428859
1745.000000	0.428703
1746.000000	0.428590
1747.000000	0.428329
1748.000000	0.428077
1749.000000	0.428075
1750.000000	0.427878
1751.000000	0.427697
1752.000000	0.427594
1753.000000	0.427095
1754.000000	0.426911
1755.000000	0.426992
1756.000000	0.426833
1757.000000	0.426748
1758.000000	0.426606
1759.000000	0.426044
1760.000000	0.425851
1761.000000	0.425925
1762.000000	0.425852
1763.000000	0.425969
1764.000000	0.425893
1765.000000	0.425457
1766.000000	0.425358
1767.000000	0.425270
1768.000000	0.425174
1769.000000	0.425488
1770.000000	0.425488
1771.000000	0.425277
1772.000000	0.425003
1773.000000	0.424303
1774.000000	0.424159
1775.000000	0.424298
1776.000000	0.424349
1777.000000	0.424779
1778.000000	0.424706
1779.000000	0.424233
1780.000000	0.424038
1781.000000	0.423707
1782.000000	0.423577
1783.000000	0.423665
1784.000000	0.423857
1785.000000	0.423814
1786.000000	0.423803
1787.000000	0.424095
1788.000000	0.424352
1789.000000	0.424470
1790.000000	0.424437
1791.000000	0.424407
1792.000000	0.424339
1793.000000	0.424308
1794.000000	0.424506
1795.000000	0.424524
1796.000000	0.424255
1797.000000	0.424216
1798.000000	0.424274
1799.000000	0.424185
1800.000000	0.424244
1801.000000	0.423762
1802.000000	0.424091
1803.000000	0.424849
1804.000000	0.425301
1805.000000	0.426258
1806.000000	0.426414
1807.000000	0.425748
1808.000000	0.425762
1809.000000	0.425830
1810.000000	0.425504
1811.000000	0.425667
1812.000000	0.426608
1813.000000	0.426820
1814.000000	0.426714
1815.000000	0.426805
1816.000000	0.426823
1817.000000	0.426617
1818.000000	0.426737
1819.000000	0.426498
1820.000000	0.425474
1821.000000	0.425188
1822.000000	0.424847
1823.000000	0.423991
1824.000000	0.424014
1825.000000	0.425204
1826.000000	0.425332
1827.000000	0.424861
1828.000000	0.424978
1829.000000	0.425085
1830.000000	0.424501
1831.000000	0.424210
1832.000000	0.424222
1833.000000	0.424241
1834.000000	0.424108
1835.000000	0.423922
1836.000000	0.423917
1837.000000	0.423936
1838.000000	0.423692
1839.000000	0.423145
1840.000000	0.423116
1841.000000	0.422740
1842.000000	0.422294
1843.000000	0.421402
1844.000000	0.420961
1845.000000	0.420417
1846.000000	0.420231
1847.000000	0.420059
1848.000000	0.420077
1849.000000	0.420279
1850.000000	0.420486
1851.000000	0.420631
1852.000000	0.420789
1853.000000	0.420804
1854.000000	0.420513
1855.000000	0.420013
1856.000000	0.419225
1857.000000	0.418515
1858.000000	0.417326
1859.000000	0.416455
1860.000000	0.415917
1861.000000	0.415686
1862.000000	0.415013
1863.000000	0.414606
1864.000000	0.413857
1865.000000	0.412406
1866.000000	0.411292
1867.000000	0.410345
1868.000000	0.409499
1869.000000	0.407746
1870.000000	0.406019
1871.000000	0.403857
1872.000000	0.401016
1873.000000	0.398704
1874.000000	0.396527
1875.000000	0.394514
1876.000000	0.392416
1877.000000	0.390120
1878.000000	0.387993
1879.000000	0.385463
1880.000000	0.382122
1881.000000	0.378532
1882.000000	0.374632
1883.000000	0.370088
1884.000000	0.366107
1885.000000	0.362347
1886.000000	0.358183
1887.000000	0.354027
1888.000000	0.349529
1889.000000	0.344496
1890.000000	0.338983
1891.000000	0.332858
1892.000000	0.326513
1893.000000	0.320717
1894.000000	0.315245
1895.000000	0.309654
1896.000000	0.304428
1897.000000	0.299747
1898.000000	0.294377
1899.000000	0.289101
1900.000000	0.284428
1901.000000	0.279558
1902.000000	0.275590
1903.000000	0.272322
1904.000000	0.269618
1905.000000	0.267368
1906.000000	0.265226
1907.000000	0.263273
1908.000000	0.261966
1909.000000	0.260917
1910.000000	0.260415
1911.000000	0.261191
1912.000000	0.262137
1913.000000	0.263283
1914.000000	0.264444
1915.000000	0.265102
1916.000000	0.266044
1917.000000	0.267028
1918.000000	0.268090
1919.000000	0.269428
1920.000000	0.270731
1921.000000	0.271991
1922.000000	0.273602
1923.000000	0.275541
1924.000000	0.277817
1925.000000	0.279840
1926.000000	0.281224
1927.000000	0.282521
1928.000000	0.283606
1929.000000	0.284443
1930.000000	0.285155
1931.000000	0.286474
1932.000000	0.287458
1933.000000	0.288233
1934.000000	0.289760
1935.000000	0.290689
1936.000000	0.291453
1937.000000	0.292337
1938.000000	0.292241
1939.000000	0.292657
1940.000000	0.292888
1941.000000	0.293640
1942.000000	0.295049
1943.000000	0.296901
1944.000000	0.298180
1945.000000	0.299488
1946.000000	0.300261
1947.000000	0.300579
1948.000000	0.301106
1949.000000	0.301191
1950.000000	0.301744
1951.000000	0.302252
1952.000000	0.303021
1953.000000	0.303509
1954.000000	0.304581
1955.000000	0.305335
1956.000000	0.306331
1957.000000	0.307743
1958.000000	0.308761
1959.000000	0.309516
1960.000000	0.309663
1961.000000	0.309882
1962.000000	0.310396
1963.000000	0.311034
1964.000000	0.311832
1965.000000	0.313113
1966.000000	0.314283
1967.000000	0.314931
1968.000000	0.315887
1969.000000	0.316487
1970.000000	0.316753
1971.000000	0.317396
1972.000000	0.317871
1973.000000	0.318414
1974.000000	0.319081
1975.000000	0.320071
1976.000000	0.321384
1977.000000	0.322702
1978.000000	0.323641
1979.000000	0.324436
1980.000000	0.324778
1981.000000	0.325207
1982.000000	0.326224
1983.000000	0.326998
1984.000000	0.327817
1985.000000	0.329042
1986.000000	0.329731
1987.000000	0.329860
1988.000000	0.330989
1989.000000	0.331895
1990.000000	0.332527
1991.000000	0.334530
1992.000000	0.335873
1993.000000	0.336647
1994.000000	0.337925
1995.000000	0.337833
1996.000000	0.337789
1997.000000	0.338525
1998.000000	0.339813
1999.000000	0.341026
2000.000000	0.342866
2001.000000	0.344525
2002.000000	0.345767
2003.000000	0.346684
2004.000000	0.346693
2005.000000	0.346776
2006.000000	0.347323
2007.000000	0.347777
2008.000000	0.348591
2009.000000	0.350010
2010.000000	0.351305
2011.000000	0.352831
2012.000000	0.353748
2013.000000	0.354334
2014.000000	0.355121
2015.000000	0.355596
2016.000000	0.355438
2017.000000	0.356502
2018.000000	0.357811
2019.000000	0.358667
2020.000000	0.360181
2021.000000	0.361195
2022.000000	0.361886
2023.000000	0.362463
2024.000000	0.362758
2025.000000	0.363254
2026.000000	0.363511
2027.000000	0.363850
2028.000000	0.364538
2029.000000	0.365269
2030.000000	0.365942
2031.000000	0.366929
2032.000000	0.367679
2033.000000	0.368397
2034.000000	0.368514
2035.000000	0.367800
2036.000000	0.367860
2037.000000	0.368033
2038.000000	0.368227
2039.000000	0.368752
2040.000000	0.370176
2041.000000	0.370465
2042.000000	0.370783
2043.000000	0.371238
2044.000000	0.371440
2045.000000	0.371829
2046.000000	0.372761
2047.000000	0.373488
2048.000000	0.374404
2049.000000	0.375116
2050.000000	0.375025
2051.000000	0.375227
2052.000000	0.375489
2053.000000	0.375813
2054.000000	0.376441
2055.000000	0.377301
2056.000000	0.378008
2057.000000	0.378282
2058.000000	0.378403
2059.000000	0.378642
2060.000000	0.378735
2061.000000	0.378499
2062.000000	0.378807
2063.000000	0.379417
2064.000000	0.379709
2065.000000	0.380894
2066.000000	0.381174
2067.000000	0.381095
2068.000000	0.381062
2069.000000	0.381145
2070.000000	0.381670
2071.000000	0.382038
2072.000000	0.382402
2073.000000	0.382629
2074.000000	0.381935
2075.000000	0.381614
2076.000000	0.380953
2077.000000	0.381083
2078.000000	0.381769
2079.000000	0.381988
2080.000000	0.382648
2081.000000	0.383035
2082.000000	0.383015
2083.000000	0.383032
2084.000000	0.382902
2085.000000	0.382830
2086.000000	0.382968
2087.000000	0.382663
2088.000000	0.383087
2089.000000	0.383426
2090.000000	0.383723
2091.000000	0.384077
2092.000000	0.384557
2093.000000	0.385169
2094.000000	0.385530
2095.000000	0.385780
2096.000000	0.386096
2097.000000	0.386003
2098.000000	0.386513
2099.000000	0.387050
2100.000000	0.387318
2101.000000	0.387304
2102.000000	0.387033
2103.000000	0.387116
2104.000000	0.386943
2105.000000	0.387083
2106.000000	0.387870
2107.000000	0.387935
2108.000000	0.387570
2109.000000	0.387474
2110.000000	0.386657
2111.000000	0.386487
2112.000000	0.386538
2113.000000	0.386818
2114.000000	0.387020
2115.000000	0.387180
2116.000000	0.387366
2117.000000	0.387162
2118.000000	0.387982
2119.000000	0.389007
2120.000000	0.389529
2121.000000	0.390243
2122.000000	0.390673
2123.000000	0.390431
2124.000000	0.390459
2125.000000	0.390668
2126.000000	0.390700
2127.000000	0.390441
2128.000000	0.390585
2129.000000	0.390672
2130.000000	0.391276
2131.000000	0.391436
2132.000000	0.391258
2133.000000	0.391065
2134.000000	0.390319
2135.000000	0.389783
2136.000000	0.389016
2137.000000	0.388224
2138.000000	0.386921
2139.000000	0.386573
2140.000000	0.386655
2141.000000	0.386889
2142.000000	0.388019
2143.000000	0.388318
2144.000000	0.388407
2145.000000	0.388601
2146.000000	0.388661
2147.000000	0.389412
2148.000000	0.389398
2149.000000	0.390065
2150.000000	0.390206
2151.000000	0.389279
2152.000000	0.388616
2153.000000	0.386977
2154.000000	0.386258
2155.000000	0.386084
2156.000000	0.385380
2157.000000	0.384904
2158.000000	0.384387
2159.000000	0.383077
2160.000000	0.382664
2161.000000	0.382997
2162.000000	0.383241
2163.000000	0.384048
2164.000000	0.384137
2165.000000	0.384300
2166.000000	0.383266
2167.000000	0.382425
2168.000000	0.381671
2169.000000	0.381597
2170.000000	0.383121
2171.000000	0.383514
2172.000000	0.384395
2173.000000	0.384253
2174.000000	0.382588
2175.000000	0.382137
2176.000000	0.382014
2177.000000	0.381813
2178.000000	0.382363
2179.000000	0.382542
2180.000000	0.382133
2181.000000	0.382434
2182.000000	0.382624
2183.000000	0.382193
2184.000000	0.382553
2185.000000	0.381810
2186.000000	0.379798
2187.000000	0.379087
2188.000000	0.377740
2189.000000	0.376039
2190.000000	0.375403
2191.000000	0.375447
2192.000000	0.375153
2193.000000	0.375323
2194.000000	0.374676
2195.000000	0.373735
2196.000000	0.372548
2197.000000	0.369759
2198.000000	0.369157
2199.000000	0.370422
2200.000000	0.370232
2201.000000	0.371377
2202.000000	0.370984
2203.000000	0.368037
2204.000000	0.365289
2205.000000	0.363185
2206.000000	0.362438
2207.000000	0.363349
2208.000000	0.364171
2209.000000	0.364728
2210.000000	0.366446
2211.000000	0.367621
2212.000000	0.368317
2213.000000	0.368286
2214.000000	0.367172
2215.000000	0.367274
2216.000000	0.366469
2217.000000	0.367967
2218.000000	0.372794
2219.000000	0.374416
2220.000000	0.375292
2221.000000	0.375901
2222.000000	0.374574
2223.000000	0.374272
2224.000000	0.374414
2225.000000	0.375110
2226.000000	0.374604
2227.000000	0.373580
2228.000000	0.373823
2229.000000	0.373052
2230.000000	0.373024
2231.000000	0.374759
2232.000000	0.374628
2233.000000	0.375432
2234.000000	0.374642
2235.000000	0.372964
2236.000000	0.372502
2237.000000	0.372055
2238.000000	0.371254
2239.000000	0.371393
2240.000000	0.370585
2241.000000	0.368094
2242.000000	0.367731
2243.000000	0.368871
2244.000000	0.368667
2245.000000	0.368475
2246.000000	0.368780
2247.000000	0.368309
2248.000000	0.368425
2249.000000	0.370369
2250.000000	0.370341
2251.000000	0.370344
2252.000000	0.368362
2253.000000	0.365237
2254.000000	0.364319
2255.000000	0.361862
2256.000000	0.361414
2257.000000	0.362910
2258.000000	0.361402
2259.000000	0.362250
2260.000000	0.363473
2261.000000	0.361791
2262.000000	0.359047
2263.000000	0.355612
2264.000000	0.347879
2265.000000	0.345610
2266.000000	0.346660
2267.000000	0.345789
2268.000000	0.347141
2269.000000	0.345574
2270.000000	0.341504
2271.000000	0.337393
2272.000000	0.332107
2273.000000	0.328333
2274.000000	0.323577
2275.000000	0.320261
2276.000000	0.318643
2277.000000	0.317059
2278.000000	0.314635
2279.000000	0.311570
2280.000000	0.308108
2281.000000	0.305435
2282.000000	0.304192
2283.000000	0.302430
2284.000000	0.300683
2285.000000	0.298345
2286.000000	0.295772
2287.000000	0.295643
2288.000000	0.294135
2289.000000	0.293576
2290.000000	0.295944
2291.000000	0.298190
2292.000000	0.303270
2293.000000	0.308317
2294.000000	0.311302
2295.000000	0.311985
2296.000000	0.314393
2297.000000	0.316312
2298.000000	0.318732
2299.000000	0.322423
2300.000000	0.324953
2301.000000	0.326459
2302.000000	0.328376
2303.000000	0.330401
2304.000000	0.332040
2305.000000	0.333836
2306.000000	0.335553
2307.000000	0.336865
2308.000000	0.338119
2309.000000	0.340561
2310.000000	0.341646
2311.000000	0.343396
2312.000000	0.345276
2313.000000	0.343732
2314.000000	0.341585
2315.000000	0.337314
2316.000000	0.333279
2317.000000	0.333479
2318.000000	0.335608
2319.000000	0.341012
2320.000000	0.345453
2321.000000	0.347519
2322.000000	0.348874
2323.000000	0.348847
2324.000000	0.348631
2325.000000	0.346376
2326.000000	0.344022
2327.000000	0.342036
2328.000000	0.341215
2329.000000	0.343341
2330.000000	0.344975
2331.000000	0.345487
2332.000000	0.345634
2333.000000	0.345151
2334.000000	0.343535
2335.000000	0.342434
2336.000000	0.340252
2337.000000	0.339445
2338.000000	0.339871
2339.000000	0.339006
2340.000000	0.338052
2341.000000	0.337394
2342.000000	0.335126
2343.000000	0.334464
2344.000000	0.336139
2345.000000	0.336996
2346.000000	0.337835
2347.000000	0.338528
2348.000000	0.340539
2349.000000	0.338184
2350.000000	0.334591
2351.000000	0.330490
2352.000000	0.324757
2353.000000	0.322807
2354.000000	0.321245
2355.000000	0.321474
2356.000000	0.323667
2357.000000	0.323769
2358.000000	0.325627
2359.000000	0.326241
2360.000000	0.323290
2361.000000	0.321672
2362.000000	0.318793
2363.000000	0.317055
2364.000000	0.319755
2365.000000	0.320790
2366.000000	0.321850
2367.000000	0.323717
2368.000000	0.322456
2369.000000	0.321574
2370.000000	0.320914
2371.000000	0.319995
2372.000000	0.318280
2373.000000	0.317722
2374.000000	0.317134
2375.000000	0.313969
2376.000000	0.310030
2377.000000	0.305045
2378.000000	0.302166
2379.000000	0.297308
2380.000000	0.293763
2381.000000	0.293021
2382.000000	0.287917
2383.000000	0.286683
2384.000000	0.289141
2385.000000	0.290196
2386.000000	0.292052
2387.000000	0.292921
2388.000000	0.293898
2389.000000	0.290776
2390.000000	0.287794
2391.000000	0.282536
2392.000000	0.271788
2393.000000	0.274702
2394.000000	0.282306
2395.000000	0.289069
2396.000000	0.302152
2397.000000	0.307401
2398.000000	0.303112
2399.000000	0.301996
2400.000000	0.297162
2401.000000	0.286780
2402.000000	0.282815
2403.000000	0.281761
2404.000000	0.285948
2405.000000	0.292478
2406.000000	0.296979
2407.000000	0.297453
2408.000000	0.289644
2409.000000	0.284456
2410.000000	0.282045
2411.000000	0.278781
2412.000000	0.281295
2413.000000	0.286280
2414.000000	0.290485
2415.000000	0.292209
2416.000000	0.290931
2417.000000	0.289452
2418.000000	0.283847
2419.000000	0.280553
2420.000000	0.278760
2421.000000	0.271474
2422.000000	0.265112
2423.000000	0.267641
2424.000000	0.277211
2425.000000	0.277803
2426.000000	0.282771
2427.000000	0.288248
2428.000000	0.278864
2429.000000	0.282352
2430.000000	0.295981
2431.000000	0.294480
2432.000000	0.287394
2433.000000	0.286071
2434.000000	0.272544
2435.000000	0.264032
2436.000000	0.269371
2437.000000	0.266530
2438.000000	0.266554
2439.000000	0.256955
2440.000000	0.249297
2441.000000	0.252383
2442.000000	0.246791
2443.000000	0.250081
2444.000000	0.247270
2445.000000	0.242126
2446.000000	0.252761
2447.000000	0.265028
2448.000000	0.281412
2449.000000	0.288392
2450.000000	0.280153
2451.000000	0.269633
2452.000000	0.250911
2453.000000	0.235521
2454.000000	0.226895
2455.000000	0.213761
2456.000000	0.219750
2457.000000	0.235759
2458.000000	0.241533
2459.000000	0.259294
2460.000000	0.261059
2461.000000	0.232688
2462.000000	0.218594
2463.000000	0.200974
2464.000000	0.187460
2465.000000	0.188676
2466.000000	0.195963
2467.000000	0.198830
2468.000000	0.189498
2469.000000	0.216931
2470.000000	0.228028
2471.000000	0.230002
2472.000000	0.257547
2473.000000	0.233646
2474.000000	0.207226
2475.000000	0.207397
2476.000000	0.186732
2477.000000	0.181538
2478.000000	0.197044
2479.000000	0.201082
2480.000000	0.206633
2481.000000	0.206362
2482.000000	0.207033
2483.000000	0.228151
2484.000000	0.231248
2485.000000	0.233975
2486.000000	0.237215
2487.000000	0.221965
2488.000000	0.227922
2489.000000	0.235437
2490.000000	0.221857
2491.000000	0.136892
2492.000000	0.115636
2493.000000	0.156062
2494.000000	0.167366
2495.000000	0.226311
2496.000000	0.232911
2497.000000	0.138220
2498.000000	0.107200
2499.000000	0.106665
2500.000000	0.081380
