# Wavelength	Nau-1_20_FV7_80_00001.asd.rts.txt
350.000000	0.161475
351.000000	0.155612
352.000000	0.164359
353.000000	0.165072
354.000000	0.153660
355.000000	0.152488
356.000000	0.159376
357.000000	0.168736
358.000000	0.169248
359.000000	0.170449
360.000000	0.171987
361.000000	0.171176
362.000000	0.167559
363.000000	0.165547
364.000000	0.167633
365.000000	0.174435
366.000000	0.177789
367.000000	0.175251
368.000000	0.169412
369.000000	0.167849
370.000000	0.172358
371.000000	0.180731
372.000000	0.178190
373.000000	0.173204
374.000000	0.174292
375.000000	0.184625
376.000000	0.187726
377.000000	0.183017
378.000000	0.185307
379.000000	0.183514
380.000000	0.181051
381.000000	0.184869
382.000000	0.186702
383.000000	0.186603
384.000000	0.186229
385.000000	0.188057
386.000000	0.189200
387.000000	0.188790
388.000000	0.187515
389.000000	0.186593
390.000000	0.187370
391.000000	0.190504
392.000000	0.192370
393.000000	0.191816
394.000000	0.189699
395.000000	0.192071
396.000000	0.193477
397.000000	0.192585
398.000000	0.193449
399.000000	0.194458
400.000000	0.195654
401.000000	0.197400
402.000000	0.197318
403.000000	0.197299
404.000000	0.199059
405.000000	0.200016
406.000000	0.200690
407.000000	0.201395
408.000000	0.201747
409.000000	0.201920
410.000000	0.202482
411.000000	0.204198
412.000000	0.204850
413.000000	0.204906
414.000000	0.205321
415.000000	0.205724
416.000000	0.206106
417.000000	0.206483
418.000000	0.206897
419.000000	0.207110
420.000000	0.207353
421.000000	0.208302
422.000000	0.208704
423.000000	0.208800
424.000000	0.209281
425.000000	0.209545
426.000000	0.209514
427.000000	0.209336
428.000000	0.209751
429.000000	0.210024
430.000000	0.210008
431.000000	0.210341
432.000000	0.210275
433.000000	0.210143
434.000000	0.210798
435.000000	0.211160
436.000000	0.211264
437.000000	0.211288
438.000000	0.211039
439.000000	0.211054
440.000000	0.211463
441.000000	0.211234
442.000000	0.211216
443.000000	0.211477
444.000000	0.211719
445.000000	0.211496
446.000000	0.211340
447.000000	0.211797
448.000000	0.212505
449.000000	0.213036
450.000000	0.213255
451.000000	0.213688
452.000000	0.214672
453.000000	0.215851
454.000000	0.216171
455.000000	0.216867
456.000000	0.218103
457.000000	0.219421
458.000000	0.220257
459.000000	0.220959
460.000000	0.221905
461.000000	0.222562
462.000000	0.223346
463.000000	0.224174
464.000000	0.224431
465.000000	0.224747
466.000000	0.225243
467.000000	0.225865
468.000000	0.226424
469.000000	0.226713
470.000000	0.226807
471.000000	0.227434
472.000000	0.227991
473.000000	0.228116
474.000000	0.228236
475.000000	0.228443
476.000000	0.228823
477.000000	0.229129
478.000000	0.229392
479.000000	0.229738
480.000000	0.230021
481.000000	0.230277
482.000000	0.230742
483.000000	0.231336
484.000000	0.231697
485.000000	0.231956
486.000000	0.232340
487.000000	0.232714
488.000000	0.232880
489.000000	0.233025
490.000000	0.233596
491.000000	0.234178
492.000000	0.234571
493.000000	0.234607
494.000000	0.234947
495.000000	0.235395
496.000000	0.235723
497.000000	0.236038
498.000000	0.236413
499.000000	0.236905
500.000000	0.237392
501.000000	0.237748
502.000000	0.238076
503.000000	0.238500
504.000000	0.238839
505.000000	0.239193
506.000000	0.239654
507.000000	0.240012
508.000000	0.240294
509.000000	0.240561
510.000000	0.241090
511.000000	0.241550
512.000000	0.241919
513.000000	0.242364
514.000000	0.242831
515.000000	0.243317
516.000000	0.243771
517.000000	0.244236
518.000000	0.244733
519.000000	0.245186
520.000000	0.245560
521.000000	0.246021
522.000000	0.246577
523.000000	0.246975
524.000000	0.247354
525.000000	0.247763
526.000000	0.248267
527.000000	0.248842
528.000000	0.249401
529.000000	0.249903
530.000000	0.250304
531.000000	0.250709
532.000000	0.251127
533.000000	0.251653
534.000000	0.252110
535.000000	0.252491
536.000000	0.253001
537.000000	0.253504
538.000000	0.253988
539.000000	0.254466
540.000000	0.254836
541.000000	0.255232
542.000000	0.255782
543.000000	0.256284
544.000000	0.256732
545.000000	0.257114
546.000000	0.257640
547.000000	0.258076
548.000000	0.258483
549.000000	0.259038
550.000000	0.259524
551.000000	0.259976
552.000000	0.260443
553.000000	0.260912
554.000000	0.261422
555.000000	0.261985
556.000000	0.262507
557.000000	0.262929
558.000000	0.263374
559.000000	0.263862
560.000000	0.264351
561.000000	0.264866
562.000000	0.265314
563.000000	0.265762
564.000000	0.266238
565.000000	0.266655
566.000000	0.267069
567.000000	0.267486
568.000000	0.267899
569.000000	0.268380
570.000000	0.268829
571.000000	0.269213
572.000000	0.269576
573.000000	0.269998
574.000000	0.270419
575.000000	0.270789
576.000000	0.271168
577.000000	0.271478
578.000000	0.271744
579.000000	0.272128
580.000000	0.272538
581.000000	0.272913
582.000000	0.273245
583.000000	0.273588
584.000000	0.273930
585.000000	0.274218
586.000000	0.274464
587.000000	0.274682
588.000000	0.274895
589.000000	0.275143
590.000000	0.275432
591.000000	0.275732
592.000000	0.275909
593.000000	0.276157
594.000000	0.276479
595.000000	0.276696
596.000000	0.276924
597.000000	0.277168
598.000000	0.277296
599.000000	0.277312
600.000000	0.277362
601.000000	0.277486
602.000000	0.277622
603.000000	0.277790
604.000000	0.278011
605.000000	0.278275
606.000000	0.278508
607.000000	0.278722
608.000000	0.278987
609.000000	0.279135
610.000000	0.279269
611.000000	0.279527
612.000000	0.279762
613.000000	0.279940
614.000000	0.280079
615.000000	0.280146
616.000000	0.280164
617.000000	0.280150
618.000000	0.280215
619.000000	0.280381
620.000000	0.280550
621.000000	0.280633
622.000000	0.280628
623.000000	0.280617
624.000000	0.280670
625.000000	0.280756
626.000000	0.280827
627.000000	0.280883
628.000000	0.280982
629.000000	0.281261
630.000000	0.281508
631.000000	0.281585
632.000000	0.281841
633.000000	0.282133
634.000000	0.282250
635.000000	0.282354
636.000000	0.282498
637.000000	0.282673
638.000000	0.282819
639.000000	0.282942
640.000000	0.283092
641.000000	0.283204
642.000000	0.283324
643.000000	0.283442
644.000000	0.283540
645.000000	0.283661
646.000000	0.283778
647.000000	0.283853
648.000000	0.283960
649.000000	0.284081
650.000000	0.284196
651.000000	0.284328
652.000000	0.284562
653.000000	0.284817
654.000000	0.284880
655.000000	0.285062
656.000000	0.285288
657.000000	0.285399
658.000000	0.285515
659.000000	0.285699
660.000000	0.285924
661.000000	0.286055
662.000000	0.286160
663.000000	0.286311
664.000000	0.286485
665.000000	0.286637
666.000000	0.286793
667.000000	0.286968
668.000000	0.287211
669.000000	0.287475
670.000000	0.287721
671.000000	0.287934
672.000000	0.288078
673.000000	0.288188
674.000000	0.288377
675.000000	0.288606
676.000000	0.288803
677.000000	0.288919
678.000000	0.289075
679.000000	0.289258
680.000000	0.289454
681.000000	0.289623
682.000000	0.289852
683.000000	0.290071
684.000000	0.290268
685.000000	0.290405
686.000000	0.290572
687.000000	0.290837
688.000000	0.291098
689.000000	0.291318
690.000000	0.291522
691.000000	0.291754
692.000000	0.291966
693.000000	0.292215
694.000000	0.292519
695.000000	0.292775
696.000000	0.292958
697.000000	0.293086
698.000000	0.293201
699.000000	0.293378
700.000000	0.293652
701.000000	0.293894
702.000000	0.294145
703.000000	0.294393
704.000000	0.294589
705.000000	0.294842
706.000000	0.295102
707.000000	0.295348
708.000000	0.295617
709.000000	0.295907
710.000000	0.296209
711.000000	0.296427
712.000000	0.296544
713.000000	0.296652
714.000000	0.296957
715.000000	0.297233
716.000000	0.297451
717.000000	0.297641
718.000000	0.297870
719.000000	0.298102
720.000000	0.298311
721.000000	0.298509
722.000000	0.298669
723.000000	0.298845
724.000000	0.299030
725.000000	0.299185
726.000000	0.299365
727.000000	0.299502
728.000000	0.299621
729.000000	0.299754
730.000000	0.299880
731.000000	0.300070
732.000000	0.300269
733.000000	0.300464
734.000000	0.300558
735.000000	0.300781
736.000000	0.301152
737.000000	0.301357
738.000000	0.301390
739.000000	0.301473
740.000000	0.301598
741.000000	0.301717
742.000000	0.301916
743.000000	0.302133
744.000000	0.302219
745.000000	0.302285
746.000000	0.302375
747.000000	0.302419
748.000000	0.302507
749.000000	0.302637
750.000000	0.302743
751.000000	0.302734
752.000000	0.302786
753.000000	0.302936
754.000000	0.303082
755.000000	0.303255
756.000000	0.303438
757.000000	0.303573
758.000000	0.303789
759.000000	0.303871
760.000000	0.303712
761.000000	0.303740
762.000000	0.303764
763.000000	0.303754
764.000000	0.303832
765.000000	0.303917
766.000000	0.303993
767.000000	0.304054
768.000000	0.304092
769.000000	0.304078
770.000000	0.304034
771.000000	0.304055
772.000000	0.304160
773.000000	0.304236
774.000000	0.304253
775.000000	0.304267
776.000000	0.304339
777.000000	0.304460
778.000000	0.304514
779.000000	0.304470
780.000000	0.304420
781.000000	0.304558
782.000000	0.304614
783.000000	0.304662
784.000000	0.304657
785.000000	0.304503
786.000000	0.304354
787.000000	0.304307
788.000000	0.304354
789.000000	0.304406
790.000000	0.304383
791.000000	0.304276
792.000000	0.304309
793.000000	0.304308
794.000000	0.304162
795.000000	0.304193
796.000000	0.304199
797.000000	0.304130
798.000000	0.304107
799.000000	0.304108
800.000000	0.304122
801.000000	0.304130
802.000000	0.304100
803.000000	0.304014
804.000000	0.303928
805.000000	0.303909
806.000000	0.303839
807.000000	0.303832
808.000000	0.303934
809.000000	0.303860
810.000000	0.303763
811.000000	0.303745
812.000000	0.303586
813.000000	0.303467
814.000000	0.303419
815.000000	0.303368
816.000000	0.303330
817.000000	0.303254
818.000000	0.303042
819.000000	0.302952
820.000000	0.302965
821.000000	0.302956
822.000000	0.302819
823.000000	0.302730
824.000000	0.302678
825.000000	0.302687
826.000000	0.302601
827.000000	0.302476
828.000000	0.302412
829.000000	0.302419
830.000000	0.302374
831.000000	0.302308
832.000000	0.302173
833.000000	0.302053
834.000000	0.301977
835.000000	0.301960
836.000000	0.301900
837.000000	0.301736
838.000000	0.301535
839.000000	0.301428
840.000000	0.301342
841.000000	0.301309
842.000000	0.301295
843.000000	0.301174
844.000000	0.301037
845.000000	0.300897
846.000000	0.300768
847.000000	0.300775
848.000000	0.300748
849.000000	0.300547
850.000000	0.300402
851.000000	0.300222
852.000000	0.300062
853.000000	0.300097
854.000000	0.299974
855.000000	0.299850
856.000000	0.299805
857.000000	0.299614
858.000000	0.299441
859.000000	0.299304
860.000000	0.299184
861.000000	0.299061
862.000000	0.299007
863.000000	0.299011
864.000000	0.298853
865.000000	0.298658
866.000000	0.298551
867.000000	0.298534
868.000000	0.298454
869.000000	0.298220
870.000000	0.297923
871.000000	0.297790
872.000000	0.297707
873.000000	0.297563
874.000000	0.297543
875.000000	0.297424
876.000000	0.297191
877.000000	0.296877
878.000000	0.296723
879.000000	0.296599
880.000000	0.296298
881.000000	0.296031
882.000000	0.295756
883.000000	0.295515
884.000000	0.295300
885.000000	0.295014
886.000000	0.294892
887.000000	0.294945
888.000000	0.294613
889.000000	0.294438
890.000000	0.294379
891.000000	0.294367
892.000000	0.294134
893.000000	0.293837
894.000000	0.293680
895.000000	0.293497
896.000000	0.293287
897.000000	0.293059
898.000000	0.292835
899.000000	0.292642
900.000000	0.292507
901.000000	0.292410
902.000000	0.292395
903.000000	0.292297
904.000000	0.292140
905.000000	0.291918
906.000000	0.291794
907.000000	0.291656
908.000000	0.291503
909.000000	0.291303
910.000000	0.291060
911.000000	0.290697
912.000000	0.290248
913.000000	0.290122
914.000000	0.289960
915.000000	0.289746
916.000000	0.289570
917.000000	0.289359
918.000000	0.289083
919.000000	0.288748
920.000000	0.288502
921.000000	0.288327
922.000000	0.288134
923.000000	0.287811
924.000000	0.287680
925.000000	0.287613
926.000000	0.287465
927.000000	0.287030
928.000000	0.286697
929.000000	0.286577
930.000000	0.286596
931.000000	0.286325
932.000000	0.285874
933.000000	0.285477
934.000000	0.285350
935.000000	0.285296
936.000000	0.285208
937.000000	0.284962
938.000000	0.284742
939.000000	0.284691
940.000000	0.284627
941.000000	0.284358
942.000000	0.284162
943.000000	0.284089
944.000000	0.283954
945.000000	0.283606
946.000000	0.283226
947.000000	0.283025
948.000000	0.283025
949.000000	0.282719
950.000000	0.282510
951.000000	0.282378
952.000000	0.282004
953.000000	0.281734
954.000000	0.281519
955.000000	0.281250
956.000000	0.281161
957.000000	0.280865
958.000000	0.280480
959.000000	0.280401
960.000000	0.280335
961.000000	0.280300
962.000000	0.280240
963.000000	0.280049
964.000000	0.279742
965.000000	0.279541
966.000000	0.279463
967.000000	0.279305
968.000000	0.279091
969.000000	0.278818
970.000000	0.278615
971.000000	0.278640
972.000000	0.278468
973.000000	0.277989
974.000000	0.277712
975.000000	0.277541
976.000000	0.277518
977.000000	0.277524
978.000000	0.276900
979.000000	0.276760
980.000000	0.276798
981.000000	0.276621
982.000000	0.276624
983.000000	0.276496
984.000000	0.276148
985.000000	0.275671
986.000000	0.275646
987.000000	0.275654
988.000000	0.275303
989.000000	0.275125
990.000000	0.275090
991.000000	0.274939
992.000000	0.274561
993.000000	0.274734
994.000000	0.274833
995.000000	0.274753
996.000000	0.274506
997.000000	0.274672
998.000000	0.274703
999.000000	0.274410
1000.000000	0.274108
1001.000000	0.275044
1002.000000	0.274287
1003.000000	0.273889
1004.000000	0.273956
1005.000000	0.275038
1006.000000	0.275330
1007.000000	0.275613
1008.000000	0.275645
1009.000000	0.275576
1010.000000	0.274859
1011.000000	0.274650
1012.000000	0.275045
1013.000000	0.274986
1014.000000	0.274966
1015.000000	0.274887
1016.000000	0.274008
1017.000000	0.273395
1018.000000	0.273415
1019.000000	0.273409
1020.000000	0.273723
1021.000000	0.273872
1022.000000	0.274424
1023.000000	0.274887
1024.000000	0.275323
1025.000000	0.275614
1026.000000	0.275486
1027.000000	0.274813
1028.000000	0.274546
1029.000000	0.274720
1030.000000	0.274963
1031.000000	0.275343
1032.000000	0.275007
1033.000000	0.274371
1034.000000	0.274219
1035.000000	0.274201
1036.000000	0.274060
1037.000000	0.274054
1038.000000	0.274135
1039.000000	0.274149
1040.000000	0.274702
1041.000000	0.274661
1042.000000	0.274946
1043.000000	0.275422
1044.000000	0.274911
1045.000000	0.274627
1046.000000	0.274737
1047.000000	0.275019
1048.000000	0.275194
1049.000000	0.275567
1050.000000	0.276789
1051.000000	0.276954
1052.000000	0.276201
1053.000000	0.276126
1054.000000	0.276022
1055.000000	0.276178
1056.000000	0.276604
1057.000000	0.277527
1058.000000	0.278326
1059.000000	0.278686
1060.000000	0.279324
1061.000000	0.279621
1062.000000	0.279260
1063.000000	0.278943
1064.000000	0.278860
1065.000000	0.278679
1066.000000	0.278696
1067.000000	0.278829
1068.000000	0.279180
1069.000000	0.279795
1070.000000	0.279971
1071.000000	0.280236
1072.000000	0.280483
1073.000000	0.280362
1074.000000	0.280447
1075.000000	0.280924
1076.000000	0.281529
1077.000000	0.281800
1078.000000	0.281800
1079.000000	0.281981
1080.000000	0.282054
1081.000000	0.282244
1082.000000	0.282662
1083.000000	0.282982
1084.000000	0.283326
1085.000000	0.283591
1086.000000	0.283761
1087.000000	0.284103
1088.000000	0.284373
1089.000000	0.284640
1090.000000	0.285183
1091.000000	0.285331
1092.000000	0.285167
1093.000000	0.285507
1094.000000	0.285642
1095.000000	0.285570
1096.000000	0.285775
1097.000000	0.286183
1098.000000	0.286406
1099.000000	0.286421
1100.000000	0.286872
1101.000000	0.287632
1102.000000	0.287997
1103.000000	0.288527
1104.000000	0.288793
1105.000000	0.288369
1106.000000	0.288417
1107.000000	0.288700
1108.000000	0.288888
1109.000000	0.289118
1110.000000	0.289439
1111.000000	0.290042
1112.000000	0.290915
1113.000000	0.291313
1114.000000	0.291917
1115.000000	0.292106
1116.000000	0.291614
1117.000000	0.291593
1118.000000	0.291751
1119.000000	0.291755
1120.000000	0.291548
1121.000000	0.291736
1122.000000	0.292283
1123.000000	0.292746
1124.000000	0.293290
1125.000000	0.293696
1126.000000	0.293818
1127.000000	0.293893
1128.000000	0.293918
1129.000000	0.293909
1130.000000	0.294060
1131.000000	0.294195
1132.000000	0.294341
1133.000000	0.294740
1134.000000	0.294920
1135.000000	0.294893
1136.000000	0.294946
1137.000000	0.294925
1138.000000	0.294984
1139.000000	0.295177
1140.000000	0.295385
1141.000000	0.295562
1142.000000	0.295809
1143.000000	0.295991
1144.000000	0.296326
1145.000000	0.296611
1146.000000	0.296949
1147.000000	0.297144
1148.000000	0.297203
1149.000000	0.297327
1150.000000	0.297380
1151.000000	0.297536
1152.000000	0.297776
1153.000000	0.297900
1154.000000	0.297871
1155.000000	0.297976
1156.000000	0.298061
1157.000000	0.298219
1158.000000	0.298535
1159.000000	0.298722
1160.000000	0.298914
1161.000000	0.298961
1162.000000	0.298829
1163.000000	0.298949
1164.000000	0.299040
1165.000000	0.299067
1166.000000	0.299095
1167.000000	0.299157
1168.000000	0.299101
1169.000000	0.298892
1170.000000	0.298924
1171.000000	0.299126
1172.000000	0.299245
1173.000000	0.299405
1174.000000	0.299486
1175.000000	0.299403
1176.000000	0.299408
1177.000000	0.299484
1178.000000	0.299632
1179.000000	0.299968
1180.000000	0.300059
1181.000000	0.300213
1182.000000	0.300179
1183.000000	0.300135
1184.000000	0.300185
1185.000000	0.300298
1186.000000	0.300627
1187.000000	0.300686
1188.000000	0.300646
1189.000000	0.300571
1190.000000	0.300410
1191.000000	0.300274
1192.000000	0.300169
1193.000000	0.300258
1194.000000	0.300309
1195.000000	0.300366
1196.000000	0.300506
1197.000000	0.300587
1198.000000	0.300679
1199.000000	0.300707
1200.000000	0.300590
1201.000000	0.300669
1202.000000	0.300811
1203.000000	0.300777
1204.000000	0.300937
1205.000000	0.300995
1206.000000	0.300959
1207.000000	0.300888
1208.000000	0.300805
1209.000000	0.300687
1210.000000	0.300679
1211.000000	0.300614
1212.000000	0.300680
1213.000000	0.301079
1214.000000	0.301164
1215.000000	0.301116
1216.000000	0.301131
1217.000000	0.300921
1218.000000	0.300835
1219.000000	0.300955
1220.000000	0.300932
1221.000000	0.300866
1222.000000	0.300801
1223.000000	0.300811
1224.000000	0.301038
1225.000000	0.301072
1226.000000	0.301096
1227.000000	0.301052
1228.000000	0.300918
1229.000000	0.300934
1230.000000	0.301125
1231.000000	0.301168
1232.000000	0.301321
1233.000000	0.301461
1234.000000	0.301545
1235.000000	0.301597
1236.000000	0.301530
1237.000000	0.301559
1238.000000	0.301557
1239.000000	0.301557
1240.000000	0.301574
1241.000000	0.301626
1242.000000	0.301647
1243.000000	0.301648
1244.000000	0.301550
1245.000000	0.301484
1246.000000	0.301478
1247.000000	0.301471
1248.000000	0.301529
1249.000000	0.301689
1250.000000	0.301612
1251.000000	0.301431
1252.000000	0.301426
1253.000000	0.301481
1254.000000	0.301505
1255.000000	0.301717
1256.000000	0.301730
1257.000000	0.301615
1258.000000	0.301575
1259.000000	0.301383
1260.000000	0.301363
1261.000000	0.301331
1262.000000	0.301342
1263.000000	0.301495
1264.000000	0.301598
1265.000000	0.301567
1266.000000	0.301635
1267.000000	0.301784
1268.000000	0.301842
1269.000000	0.301817
1270.000000	0.301904
1271.000000	0.301712
1272.000000	0.301405
1273.000000	0.301511
1274.000000	0.301602
1275.000000	0.301588
1276.000000	0.301695
1277.000000	0.301811
1278.000000	0.301713
1279.000000	0.301659
1280.000000	0.301653
1281.000000	0.301516
1282.000000	0.301176
1283.000000	0.301171
1284.000000	0.301403
1285.000000	0.301394
1286.000000	0.301362
1287.000000	0.301294
1288.000000	0.301161
1289.000000	0.301017
1290.000000	0.300987
1291.000000	0.301060
1292.000000	0.301097
1293.000000	0.301022
1294.000000	0.301082
1295.000000	0.301197
1296.000000	0.301202
1297.000000	0.301207
1298.000000	0.301221
1299.000000	0.301178
1300.000000	0.301264
1301.000000	0.301329
1302.000000	0.301262
1303.000000	0.301207
1304.000000	0.301203
1305.000000	0.301229
1306.000000	0.301221
1307.000000	0.301390
1308.000000	0.301350
1309.000000	0.301111
1310.000000	0.300970
1311.000000	0.300788
1312.000000	0.300618
1313.000000	0.300651
1314.000000	0.300654
1315.000000	0.300662
1316.000000	0.300749
1317.000000	0.300741
1318.000000	0.300736
1319.000000	0.300727
1320.000000	0.300884
1321.000000	0.300962
1322.000000	0.300848
1323.000000	0.300845
1324.000000	0.300735
1325.000000	0.300536
1326.000000	0.300612
1327.000000	0.300661
1328.000000	0.300638
1329.000000	0.300541
1330.000000	0.300365
1331.000000	0.300268
1332.000000	0.300205
1333.000000	0.300133
1334.000000	0.300240
1335.000000	0.300274
1336.000000	0.300159
1337.000000	0.300117
1338.000000	0.300076
1339.000000	0.299997
1340.000000	0.299958
1341.000000	0.300065
1342.000000	0.300011
1343.000000	0.299866
1344.000000	0.299774
1345.000000	0.299596
1346.000000	0.299579
1347.000000	0.299503
1348.000000	0.299506
1349.000000	0.299452
1350.000000	0.299442
1351.000000	0.299587
1352.000000	0.299499
1353.000000	0.299434
1354.000000	0.299540
1355.000000	0.299579
1356.000000	0.299628
1357.000000	0.299798
1358.000000	0.299985
1359.000000	0.299965
1360.000000	0.299986
1361.000000	0.300117
1362.000000	0.300096
1363.000000	0.299863
1364.000000	0.299858
1365.000000	0.299979
1366.000000	0.299974
1367.000000	0.299948
1368.000000	0.299952
1369.000000	0.299994
1370.000000	0.299858
1371.000000	0.299824
1372.000000	0.299804
1373.000000	0.299788
1374.000000	0.299791
1375.000000	0.299718
1376.000000	0.299754
1377.000000	0.299717
1378.000000	0.299595
1379.000000	0.299574
1380.000000	0.299598
1381.000000	0.299504
1382.000000	0.299331
1383.000000	0.299080
1384.000000	0.298687
1385.000000	0.298444
1386.000000	0.298297
1387.000000	0.298062
1388.000000	0.297956
1389.000000	0.297850
1390.000000	0.297734
1391.000000	0.297617
1392.000000	0.297323
1393.000000	0.297055
1394.000000	0.296714
1395.000000	0.296483
1396.000000	0.296314
1397.000000	0.296151
1398.000000	0.295971
1399.000000	0.295742
1400.000000	0.295453
1401.000000	0.295240
1402.000000	0.295074
1403.000000	0.294950
1404.000000	0.294896
1405.000000	0.294705
1406.000000	0.294386
1407.000000	0.294118
1408.000000	0.293771
1409.000000	0.293550
1410.000000	0.293426
1411.000000	0.293109
1412.000000	0.292845
1413.000000	0.292731
1414.000000	0.292578
1415.000000	0.292540
1416.000000	0.292521
1417.000000	0.292483
1418.000000	0.292450
1419.000000	0.292482
1420.000000	0.292396
1421.000000	0.292256
1422.000000	0.292263
1423.000000	0.292388
1424.000000	0.292383
1425.000000	0.292379
1426.000000	0.292353
1427.000000	0.292237
1428.000000	0.292153
1429.000000	0.292184
1430.000000	0.292095
1431.000000	0.291953
1432.000000	0.291892
1433.000000	0.291887
1434.000000	0.291860
1435.000000	0.291947
1436.000000	0.292074
1437.000000	0.292220
1438.000000	0.292355
1439.000000	0.292549
1440.000000	0.292772
1441.000000	0.292949
1442.000000	0.293251
1443.000000	0.293622
1444.000000	0.294047
1445.000000	0.294342
1446.000000	0.294608
1447.000000	0.294758
1448.000000	0.294866
1449.000000	0.294964
1450.000000	0.295085
1451.000000	0.295226
1452.000000	0.295225
1453.000000	0.295272
1454.000000	0.295330
1455.000000	0.295324
1456.000000	0.295418
1457.000000	0.295510
1458.000000	0.295605
1459.000000	0.295683
1460.000000	0.295694
1461.000000	0.295725
1462.000000	0.295664
1463.000000	0.295527
1464.000000	0.295433
1465.000000	0.295366
1466.000000	0.295360
1467.000000	0.295391
1468.000000	0.295433
1469.000000	0.295535
1470.000000	0.295486
1471.000000	0.295509
1472.000000	0.295633
1473.000000	0.295764
1474.000000	0.295863
1475.000000	0.295959
1476.000000	0.296045
1477.000000	0.296104
1478.000000	0.296190
1479.000000	0.296125
1480.000000	0.296022
1481.000000	0.296001
1482.000000	0.295987
1483.000000	0.296027
1484.000000	0.296208
1485.000000	0.296309
1486.000000	0.296370
1487.000000	0.296451
1488.000000	0.296556
1489.000000	0.296681
1490.000000	0.296650
1491.000000	0.296728
1492.000000	0.296868
1493.000000	0.296924
1494.000000	0.296939
1495.000000	0.296973
1496.000000	0.296959
1497.000000	0.296971
1498.000000	0.297034
1499.000000	0.297050
1500.000000	0.297053
1501.000000	0.297023
1502.000000	0.297033
1503.000000	0.297109
1504.000000	0.297149
1505.000000	0.297138
1506.000000	0.297148
1507.000000	0.297136
1508.000000	0.297142
1509.000000	0.297215
1510.000000	0.297232
1511.000000	0.297252
1512.000000	0.297274
1513.000000	0.297297
1514.000000	0.297438
1515.000000	0.297515
1516.000000	0.297599
1517.000000	0.297663
1518.000000	0.297662
1519.000000	0.297718
1520.000000	0.297841
1521.000000	0.297850
1522.000000	0.297833
1523.000000	0.297824
1524.000000	0.297658
1525.000000	0.297576
1526.000000	0.297640
1527.000000	0.297629
1528.000000	0.297632
1529.000000	0.297668
1530.000000	0.297526
1531.000000	0.297472
1532.000000	0.297542
1533.000000	0.297579
1534.000000	0.297640
1535.000000	0.297681
1536.000000	0.297603
1537.000000	0.297567
1538.000000	0.297659
1539.000000	0.297725
1540.000000	0.297734
1541.000000	0.297740
1542.000000	0.297765
1543.000000	0.297762
1544.000000	0.297720
1545.000000	0.297849
1546.000000	0.297954
1547.000000	0.297843
1548.000000	0.297745
1549.000000	0.297659
1550.000000	0.297531
1551.000000	0.297500
1552.000000	0.297584
1553.000000	0.297578
1554.000000	0.297479
1555.000000	0.297402
1556.000000	0.297335
1557.000000	0.297331
1558.000000	0.297284
1559.000000	0.297165
1560.000000	0.297117
1561.000000	0.297078
1562.000000	0.297045
1563.000000	0.297127
1564.000000	0.297186
1565.000000	0.297218
1566.000000	0.297228
1567.000000	0.297377
1568.000000	0.297427
1569.000000	0.297474
1570.000000	0.297500
1571.000000	0.297419
1572.000000	0.297480
1573.000000	0.297659
1574.000000	0.297751
1575.000000	0.297903
1576.000000	0.298022
1577.000000	0.298042
1578.000000	0.298026
1579.000000	0.298106
1580.000000	0.298079
1581.000000	0.298003
1582.000000	0.297947
1583.000000	0.297820
1584.000000	0.297706
1585.000000	0.297683
1586.000000	0.297661
1587.000000	0.297662
1588.000000	0.297663
1589.000000	0.297631
1590.000000	0.297673
1591.000000	0.297807
1592.000000	0.297860
1593.000000	0.297967
1594.000000	0.298023
1595.000000	0.298061
1596.000000	0.298056
1597.000000	0.298112
1598.000000	0.298064
1599.000000	0.297874
1600.000000	0.297780
1601.000000	0.297763
1602.000000	0.297680
1603.000000	0.297629
1604.000000	0.297623
1605.000000	0.297654
1606.000000	0.297611
1607.000000	0.297681
1608.000000	0.297614
1609.000000	0.297424
1610.000000	0.297321
1611.000000	0.297227
1612.000000	0.297138
1613.000000	0.297179
1614.000000	0.297173
1615.000000	0.297228
1616.000000	0.297263
1617.000000	0.297237
1618.000000	0.297208
1619.000000	0.297167
1620.000000	0.297078
1621.000000	0.296956
1622.000000	0.297001
1623.000000	0.296981
1624.000000	0.297065
1625.000000	0.297242
1626.000000	0.297267
1627.000000	0.297327
1628.000000	0.297389
1629.000000	0.297337
1630.000000	0.297333
1631.000000	0.297270
1632.000000	0.297219
1633.000000	0.297188
1634.000000	0.297213
1635.000000	0.297314
1636.000000	0.297365
1637.000000	0.297497
1638.000000	0.297474
1639.000000	0.297364
1640.000000	0.297305
1641.000000	0.297236
1642.000000	0.297239
1643.000000	0.297417
1644.000000	0.297378
1645.000000	0.297249
1646.000000	0.297109
1647.000000	0.296815
1648.000000	0.296731
1649.000000	0.296900
1650.000000	0.296894
1651.000000	0.296928
1652.000000	0.296963
1653.000000	0.296841
1654.000000	0.296835
1655.000000	0.296908
1656.000000	0.296820
1657.000000	0.296715
1658.000000	0.296649
1659.000000	0.296621
1660.000000	0.296659
1661.000000	0.296740
1662.000000	0.296683
1663.000000	0.296532
1664.000000	0.296451
1665.000000	0.296294
1666.000000	0.296274
1667.000000	0.296270
1668.000000	0.296326
1669.000000	0.296443
1670.000000	0.296399
1671.000000	0.296500
1672.000000	0.296446
1673.000000	0.296109
1674.000000	0.296193
1675.000000	0.296189
1676.000000	0.296127
1677.000000	0.296189
1678.000000	0.296075
1679.000000	0.296001
1680.000000	0.296050
1681.000000	0.296141
1682.000000	0.296217
1683.000000	0.296197
1684.000000	0.296211
1685.000000	0.296229
1686.000000	0.296157
1687.000000	0.296220
1688.000000	0.296302
1689.000000	0.296417
1690.000000	0.296541
1691.000000	0.296581
1692.000000	0.296486
1693.000000	0.296321
1694.000000	0.296174
1695.000000	0.296201
1696.000000	0.296049
1697.000000	0.295952
1698.000000	0.295963
1699.000000	0.295916
1700.000000	0.295840
1701.000000	0.295927
1702.000000	0.295840
1703.000000	0.295804
1704.000000	0.296115
1705.000000	0.296214
1706.000000	0.296160
1707.000000	0.296203
1708.000000	0.296226
1709.000000	0.296115
1710.000000	0.296037
1711.000000	0.296054
1712.000000	0.296029
1713.000000	0.296035
1714.000000	0.296190
1715.000000	0.296344
1716.000000	0.296494
1717.000000	0.296613
1718.000000	0.296884
1719.000000	0.296862
1720.000000	0.296576
1721.000000	0.296523
1722.000000	0.296424
1723.000000	0.296401
1724.000000	0.296591
1725.000000	0.296686
1726.000000	0.296628
1727.000000	0.296662
1728.000000	0.296779
1729.000000	0.296636
1730.000000	0.296460
1731.000000	0.296357
1732.000000	0.296115
1733.000000	0.296101
1734.000000	0.296225
1735.000000	0.296112
1736.000000	0.295915
1737.000000	0.295687
1738.000000	0.295260
1739.000000	0.295148
1740.000000	0.295113
1741.000000	0.295168
1742.000000	0.295425
1743.000000	0.295646
1744.000000	0.295935
1745.000000	0.296004
1746.000000	0.296012
1747.000000	0.295902
1748.000000	0.295850
1749.000000	0.296043
1750.000000	0.296000
1751.000000	0.295931
1752.000000	0.295921
1753.000000	0.295528
1754.000000	0.295403
1755.000000	0.295531
1756.000000	0.295461
1757.000000	0.295414
1758.000000	0.295345
1759.000000	0.295064
1760.000000	0.294901
1761.000000	0.294782
1762.000000	0.294689
1763.000000	0.294611
1764.000000	0.294605
1765.000000	0.294707
1766.000000	0.294715
1767.000000	0.294633
1768.000000	0.294551
1769.000000	0.294516
1770.000000	0.294468
1771.000000	0.294313
1772.000000	0.294350
1773.000000	0.294437
1774.000000	0.294456
1775.000000	0.294712
1776.000000	0.294702
1777.000000	0.294386
1778.000000	0.294301
1779.000000	0.294182
1780.000000	0.294211
1781.000000	0.294389
1782.000000	0.294428
1783.000000	0.294519
1784.000000	0.294688
1785.000000	0.294621
1786.000000	0.294711
1787.000000	0.294900
1788.000000	0.295093
1789.000000	0.295249
1790.000000	0.295316
1791.000000	0.295321
1792.000000	0.295256
1793.000000	0.295221
1794.000000	0.295263
1795.000000	0.295253
1796.000000	0.295052
1797.000000	0.295061
1798.000000	0.295275
1799.000000	0.295283
1800.000000	0.295388
1801.000000	0.295339
1802.000000	0.295309
1803.000000	0.295299
1804.000000	0.295147
1805.000000	0.293757
1806.000000	0.293806
1807.000000	0.295047
1808.000000	0.295577
1809.000000	0.296126
1810.000000	0.297130
1811.000000	0.297345
1812.000000	0.296862
1813.000000	0.296690
1814.000000	0.296487
1815.000000	0.296156
1816.000000	0.295633
1817.000000	0.295296
1818.000000	0.295015
1819.000000	0.294843
1820.000000	0.294912
1821.000000	0.294285
1822.000000	0.294024
1823.000000	0.293430
1824.000000	0.293353
1825.000000	0.293595
1826.000000	0.293835
1827.000000	0.294439
1828.000000	0.294634
1829.000000	0.294061
1830.000000	0.294291
1831.000000	0.294495
1832.000000	0.294514
1833.000000	0.294761
1834.000000	0.295922
1835.000000	0.295925
1836.000000	0.295216
1837.000000	0.294771
1838.000000	0.293805
1839.000000	0.292452
1840.000000	0.292608
1841.000000	0.292942
1842.000000	0.293055
1843.000000	0.293719
1844.000000	0.294118
1845.000000	0.294012
1846.000000	0.294141
1847.000000	0.294324
1848.000000	0.294468
1849.000000	0.294739
1850.000000	0.294230
1851.000000	0.294289
1852.000000	0.294435
1853.000000	0.294755
1854.000000	0.295593
1855.000000	0.295639
1856.000000	0.295427
1857.000000	0.294939
1858.000000	0.294093
1859.000000	0.293149
1860.000000	0.292808
1861.000000	0.292027
1862.000000	0.291464
1863.000000	0.290771
1864.000000	0.290612
1865.000000	0.290810
1866.000000	0.291179
1867.000000	0.292043
1868.000000	0.292523
1869.000000	0.293024
1870.000000	0.293394
1871.000000	0.293320
1872.000000	0.293838
1873.000000	0.293973
1874.000000	0.293862
1875.000000	0.293731
1876.000000	0.293438
1877.000000	0.292507
1878.000000	0.291963
1879.000000	0.290963
1880.000000	0.289793
1881.000000	0.288817
1882.000000	0.287722
1883.000000	0.287326
1884.000000	0.286882
1885.000000	0.286476
1886.000000	0.286126
1887.000000	0.285941
1888.000000	0.285487
1889.000000	0.285052
1890.000000	0.284922
1891.000000	0.284164
1892.000000	0.283148
1893.000000	0.282755
1894.000000	0.282703
1895.000000	0.281827
1896.000000	0.280899
1897.000000	0.279868
1898.000000	0.278598
1899.000000	0.277001
1900.000000	0.276367
1901.000000	0.276246
1902.000000	0.275800
1903.000000	0.275388
1904.000000	0.274940
1905.000000	0.274486
1906.000000	0.273978
1907.000000	0.273298
1908.000000	0.273001
1909.000000	0.272909
1910.000000	0.272703
1911.000000	0.272653
1912.000000	0.272324
1913.000000	0.272333
1914.000000	0.272094
1915.000000	0.272011
1916.000000	0.272679
1917.000000	0.272793
1918.000000	0.272641
1919.000000	0.273187
1920.000000	0.273409
1921.000000	0.273238
1922.000000	0.274177
1923.000000	0.274821
1924.000000	0.275407
1925.000000	0.275949
1926.000000	0.275668
1927.000000	0.275715
1928.000000	0.275702
1929.000000	0.275690
1930.000000	0.275527
1931.000000	0.275903
1932.000000	0.275889
1933.000000	0.275747
1934.000000	0.276340
1935.000000	0.276844
1936.000000	0.276880
1937.000000	0.277528
1938.000000	0.277839
1939.000000	0.277813
1940.000000	0.277377
1941.000000	0.277545
1942.000000	0.277426
1943.000000	0.277251
1944.000000	0.277253
1945.000000	0.277242
1946.000000	0.277319
1947.000000	0.277078
1948.000000	0.277063
1949.000000	0.277718
1950.000000	0.278044
1951.000000	0.278114
1952.000000	0.278236
1953.000000	0.278352
1954.000000	0.278307
1955.000000	0.278366
1956.000000	0.278835
1957.000000	0.279519
1958.000000	0.279306
1959.000000	0.279181
1960.000000	0.279065
1961.000000	0.278884
1962.000000	0.278889
1963.000000	0.279301
1964.000000	0.279446
1965.000000	0.279750
1966.000000	0.279795
1967.000000	0.279860
1968.000000	0.280297
1969.000000	0.280452
1970.000000	0.280781
1971.000000	0.280872
1972.000000	0.280962
1973.000000	0.281118
1974.000000	0.281506
1975.000000	0.281837
1976.000000	0.282441
1977.000000	0.282525
1978.000000	0.282631
1979.000000	0.282298
1980.000000	0.281854
1981.000000	0.282062
1982.000000	0.282074
1983.000000	0.282486
1984.000000	0.282430
1985.000000	0.282096
1986.000000	0.281617
1987.000000	0.280993
1988.000000	0.280264
1989.000000	0.279663
1990.000000	0.280066
1991.000000	0.280651
1992.000000	0.281222
1993.000000	0.281668
1994.000000	0.282179
1995.000000	0.283030
1996.000000	0.283506
1997.000000	0.283484
1998.000000	0.282960
1999.000000	0.282837
2000.000000	0.282276
2001.000000	0.282233
2002.000000	0.282212
2003.000000	0.282472
2004.000000	0.282779
2005.000000	0.281829
2006.000000	0.281594
2007.000000	0.281979
2008.000000	0.282214
2009.000000	0.282537
2010.000000	0.283069
2011.000000	0.283580
2012.000000	0.284131
2013.000000	0.284965
2014.000000	0.285165
2015.000000	0.285160
2016.000000	0.285163
2017.000000	0.284562
2018.000000	0.284031
2019.000000	0.284209
2020.000000	0.284099
2021.000000	0.283932
2022.000000	0.283868
2023.000000	0.283668
2024.000000	0.283032
2025.000000	0.283051
2026.000000	0.283395
2027.000000	0.283460
2028.000000	0.283449
2029.000000	0.283484
2030.000000	0.283376
2031.000000	0.283183
2032.000000	0.283955
2033.000000	0.284755
2034.000000	0.284954
2035.000000	0.284807
2036.000000	0.285053
2037.000000	0.285446
2038.000000	0.285561
2039.000000	0.285623
2040.000000	0.286518
2041.000000	0.286525
2042.000000	0.285663
2043.000000	0.285816
2044.000000	0.285419
2045.000000	0.285191
2046.000000	0.284992
2047.000000	0.284833
2048.000000	0.284652
2049.000000	0.284841
2050.000000	0.285092
2051.000000	0.285016
2052.000000	0.284642
2053.000000	0.284376
2054.000000	0.284090
2055.000000	0.284084
2056.000000	0.284051
2057.000000	0.283906
2058.000000	0.283971
2059.000000	0.283911
2060.000000	0.284024
2061.000000	0.284752
2062.000000	0.284920
2063.000000	0.284735
2064.000000	0.284655
2065.000000	0.284723
2066.000000	0.284549
2067.000000	0.284592
2068.000000	0.284633
2069.000000	0.284222
2070.000000	0.283813
2071.000000	0.283891
2072.000000	0.284271
2073.000000	0.284795
2074.000000	0.285424
2075.000000	0.285458
2076.000000	0.284858
2077.000000	0.284772
2078.000000	0.284464
2079.000000	0.284360
2080.000000	0.284731
2081.000000	0.284701
2082.000000	0.284318
2083.000000	0.284411
2084.000000	0.284521
2085.000000	0.284522
2086.000000	0.284372
2087.000000	0.284522
2088.000000	0.284592
2089.000000	0.284690
2090.000000	0.284731
2091.000000	0.284983
2092.000000	0.284961
2093.000000	0.284744
2094.000000	0.284572
2095.000000	0.284434
2096.000000	0.284209
2097.000000	0.283517
2098.000000	0.283438
2099.000000	0.283407
2100.000000	0.283297
2101.000000	0.283860
2102.000000	0.283768
2103.000000	0.284076
2104.000000	0.284618
2105.000000	0.284533
2106.000000	0.284172
2107.000000	0.283894
2108.000000	0.282539
2109.000000	0.282492
2110.000000	0.283550
2111.000000	0.283824
2112.000000	0.283727
2113.000000	0.284547
2114.000000	0.285072
2115.000000	0.284636
2116.000000	0.285248
2117.000000	0.285575
2118.000000	0.285303
2119.000000	0.285305
2120.000000	0.285678
2121.000000	0.286478
2122.000000	0.286698
2123.000000	0.287227
2124.000000	0.287264
2125.000000	0.286723
2126.000000	0.286296
2127.000000	0.285437
2128.000000	0.285074
2129.000000	0.285037
2130.000000	0.284341
2131.000000	0.284004
2132.000000	0.283995
2133.000000	0.283560
2134.000000	0.283926
2135.000000	0.283903
2136.000000	0.284369
2137.000000	0.284585
2138.000000	0.284702
2139.000000	0.284413
2140.000000	0.283645
2141.000000	0.283619
2142.000000	0.283609
2143.000000	0.283901
2144.000000	0.285349
2145.000000	0.285966
2146.000000	0.286592
2147.000000	0.286539
2148.000000	0.286715
2149.000000	0.287783
2150.000000	0.287548
2151.000000	0.287442
2152.000000	0.286700
2153.000000	0.285601
2154.000000	0.285166
2155.000000	0.285358
2156.000000	0.285038
2157.000000	0.284661
2158.000000	0.284628
2159.000000	0.284974
2160.000000	0.284881
2161.000000	0.284696
2162.000000	0.284449
2163.000000	0.283271
2164.000000	0.283060
2165.000000	0.283407
2166.000000	0.284062
2167.000000	0.285377
2168.000000	0.285634
2169.000000	0.285216
2170.000000	0.284928
2171.000000	0.284272
2172.000000	0.282734
2173.000000	0.282145
2174.000000	0.281624
2175.000000	0.281730
2176.000000	0.283028
2177.000000	0.283073
2178.000000	0.282816
2179.000000	0.282684
2180.000000	0.281483
2181.000000	0.281477
2182.000000	0.281704
2183.000000	0.282440
2184.000000	0.282767
2185.000000	0.282364
2186.000000	0.282517
2187.000000	0.282600
2188.000000	0.282684
2189.000000	0.282981
2190.000000	0.282243
2191.000000	0.281973
2192.000000	0.281403
2193.000000	0.280628
2194.000000	0.279879
2195.000000	0.278656
2196.000000	0.278194
2197.000000	0.277854
2198.000000	0.277911
2199.000000	0.279304
2200.000000	0.280239
2201.000000	0.281192
2202.000000	0.282712
2203.000000	0.285043
2204.000000	0.285993
2205.000000	0.285948
2206.000000	0.283494
2207.000000	0.280739
2208.000000	0.279130
2209.000000	0.280186
2210.000000	0.282683
2211.000000	0.282587
2212.000000	0.281332
2213.000000	0.280782
2214.000000	0.277327
2215.000000	0.277614
2216.000000	0.281754
2217.000000	0.282981
2218.000000	0.284906
2219.000000	0.286136
2220.000000	0.286108
2221.000000	0.285226
2222.000000	0.281733
2223.000000	0.281385
2224.000000	0.281921
2225.000000	0.282635
2226.000000	0.284659
2227.000000	0.286809
2228.000000	0.285799
2229.000000	0.284472
2230.000000	0.283733
2231.000000	0.283360
2232.000000	0.282509
2233.000000	0.281151
2234.000000	0.280673
2235.000000	0.279268
2236.000000	0.279330
2237.000000	0.281079
2238.000000	0.281677
2239.000000	0.283016
2240.000000	0.282823
2241.000000	0.280220
2242.000000	0.280057
2243.000000	0.280886
2244.000000	0.281003
2245.000000	0.282080
2246.000000	0.282324
2247.000000	0.280492
2248.000000	0.279971
2249.000000	0.280270
2250.000000	0.281554
2251.000000	0.281529
2252.000000	0.282538
2253.000000	0.282342
2254.000000	0.281208
2255.000000	0.281368
2256.000000	0.281288
2257.000000	0.281554
2258.000000	0.283267
2259.000000	0.282473
2260.000000	0.281334
2261.000000	0.281250
2262.000000	0.281319
2263.000000	0.280867
2264.000000	0.281573
2265.000000	0.280801
2266.000000	0.277981
2267.000000	0.276904
2268.000000	0.275765
2269.000000	0.275732
2270.000000	0.277421
2271.000000	0.278339
2272.000000	0.279552
2273.000000	0.279726
2274.000000	0.278714
2275.000000	0.278845
2276.000000	0.278545
2277.000000	0.280355
2278.000000	0.281369
2279.000000	0.279331
2280.000000	0.276290
2281.000000	0.273388
2282.000000	0.270801
2283.000000	0.270973
2284.000000	0.271318
2285.000000	0.271547
2286.000000	0.274005
2287.000000	0.273965
2288.000000	0.272091
2289.000000	0.270731
2290.000000	0.269304
2291.000000	0.268464
2292.000000	0.268212
2293.000000	0.269039
2294.000000	0.269603
2295.000000	0.269556
2296.000000	0.270400
2297.000000	0.272169
2298.000000	0.272322
2299.000000	0.272878
2300.000000	0.272657
2301.000000	0.269908
2302.000000	0.270224
2303.000000	0.270920
2304.000000	0.272515
2305.000000	0.277223
2306.000000	0.280142
2307.000000	0.283292
2308.000000	0.285196
2309.000000	0.285693
2310.000000	0.286758
2311.000000	0.286701
2312.000000	0.284854
2313.000000	0.283046
2314.000000	0.279958
2315.000000	0.278305
2316.000000	0.278637
2317.000000	0.278021
2318.000000	0.278384
2319.000000	0.277532
2320.000000	0.275605
2321.000000	0.275247
2322.000000	0.275815
2323.000000	0.278407
2324.000000	0.280507
2325.000000	0.282025
2326.000000	0.280830
2327.000000	0.277498
2328.000000	0.276446
2329.000000	0.274704
2330.000000	0.273497
2331.000000	0.274096
2332.000000	0.275004
2333.000000	0.274711
2334.000000	0.274896
2335.000000	0.275343
2336.000000	0.274558
2337.000000	0.274368
2338.000000	0.275453
2339.000000	0.274829
2340.000000	0.272995
2341.000000	0.271433
2342.000000	0.268845
2343.000000	0.268982
2344.000000	0.271497
2345.000000	0.272377
2346.000000	0.272820
2347.000000	0.273805
2348.000000	0.273723
2349.000000	0.275304
2350.000000	0.279450
2351.000000	0.282063
2352.000000	0.283213
2353.000000	0.281158
2354.000000	0.277115
2355.000000	0.276510
2356.000000	0.275372
2357.000000	0.276295
2358.000000	0.279139
2359.000000	0.278481
2360.000000	0.277103
2361.000000	0.276787
2362.000000	0.276274
2363.000000	0.277624
2364.000000	0.275891
2365.000000	0.275297
2366.000000	0.273612
2367.000000	0.268889
2368.000000	0.273239
2369.000000	0.275761
2370.000000	0.273403
2371.000000	0.272835
2372.000000	0.269859
2373.000000	0.268229
2374.000000	0.269427
2375.000000	0.273040
2376.000000	0.276947
2377.000000	0.275329
2378.000000	0.274703
2379.000000	0.274886
2380.000000	0.273585
2381.000000	0.274082
2382.000000	0.277433
2383.000000	0.281126
2384.000000	0.280426
2385.000000	0.278706
2386.000000	0.273289
2387.000000	0.265627
2388.000000	0.261779
2389.000000	0.262808
2390.000000	0.264654
2391.000000	0.264376
2392.000000	0.261017
2393.000000	0.253303
2394.000000	0.247214
2395.000000	0.246591
2396.000000	0.251857
2397.000000	0.258215
2398.000000	0.262025
2399.000000	0.261747
2400.000000	0.258733
2401.000000	0.259619
2402.000000	0.263126
2403.000000	0.270571
2404.000000	0.274203
2405.000000	0.269916
2406.000000	0.268602
2407.000000	0.261303
2408.000000	0.258575
2409.000000	0.262312
2410.000000	0.257409
2411.000000	0.259678
2412.000000	0.256226
2413.000000	0.250812
2414.000000	0.255702
2415.000000	0.254406
2416.000000	0.266093
2417.000000	0.274608
2418.000000	0.272876
2419.000000	0.275777
2420.000000	0.272101
2421.000000	0.280056
2422.000000	0.288133
2423.000000	0.291049
2424.000000	0.292159
2425.000000	0.278908
2426.000000	0.264085
2427.000000	0.267413
2428.000000	0.279256
2429.000000	0.288200
2430.000000	0.297564
2431.000000	0.296460
2432.000000	0.285891
2433.000000	0.275843
2434.000000	0.280033
2435.000000	0.289194
2436.000000	0.291530
2437.000000	0.298839
2438.000000	0.296440
2439.000000	0.276811
2440.000000	0.267884
2441.000000	0.264084
2442.000000	0.256615
2443.000000	0.253555
2444.000000	0.250347
2445.000000	0.262332
2446.000000	0.275341
2447.000000	0.277517
2448.000000	0.281865
2449.000000	0.283269
2450.000000	0.273508
2451.000000	0.277655
2452.000000	0.300025
2453.000000	0.299948
2454.000000	0.298439
2455.000000	0.295165
2456.000000	0.279923
2457.000000	0.277751
2458.000000	0.274564
2459.000000	0.281032
2460.000000	0.297679
2461.000000	0.294321
2462.000000	0.292728
2463.000000	0.289679
2464.000000	0.275194
2465.000000	0.266654
2466.000000	0.251028
2467.000000	0.224219
2468.000000	0.203538
2469.000000	0.200124
2470.000000	0.210323
2471.000000	0.228676
2472.000000	0.262894
2473.000000	0.269543
2474.000000	0.257406
2475.000000	0.281578
2476.000000	0.280830
2477.000000	0.268181
2478.000000	0.277178
2479.000000	0.255970
2480.000000	0.234415
2481.000000	0.261901
2482.000000	0.287836
2483.000000	0.272533
2484.000000	0.273754
2485.000000	0.263785
2486.000000	0.241006
2487.000000	0.271848
2488.000000	0.302214
2489.000000	0.285155
2490.000000	0.279529
2491.000000	0.274464
2492.000000	0.249132
2493.000000	0.214743
2494.000000	0.207838
2495.000000	0.204192
2496.000000	0.197000
2497.000000	0.215702
2498.000000	0.205997
2499.000000	0.153310
2500.000000	0.147977
