# Wavelength	NAu-1-20_HEX-60_FV7-20_00001.asd.rts.txt
350.000000	0.202441
351.000000	0.194449
352.000000	0.206935
353.000000	0.206858
354.000000	0.188428
355.000000	0.193755
356.000000	0.206150
357.000000	0.215004
358.000000	0.207835
359.000000	0.201878
360.000000	0.199744
361.000000	0.199895
362.000000	0.203490
363.000000	0.204575
364.000000	0.201658
365.000000	0.208271
366.000000	0.206617
367.000000	0.198804
368.000000	0.204660
369.000000	0.201222
370.000000	0.194816
371.000000	0.198424
372.000000	0.202636
373.000000	0.203720
374.000000	0.201956
375.000000	0.203811
376.000000	0.207615
377.000000	0.210136
378.000000	0.206043
379.000000	0.206863
380.000000	0.210400
381.000000	0.211457
382.000000	0.213189
383.000000	0.214328
384.000000	0.214499
385.000000	0.216153
386.000000	0.217800
387.000000	0.218693
388.000000	0.218255
389.000000	0.218959
390.000000	0.220346
391.000000	0.220824
392.000000	0.222389
393.000000	0.224188
394.000000	0.225485
395.000000	0.227496
396.000000	0.227653
397.000000	0.226401
398.000000	0.228446
399.000000	0.230300
400.000000	0.231739
401.000000	0.233545
402.000000	0.234240
403.000000	0.234451
404.000000	0.235277
405.000000	0.237773
406.000000	0.239252
407.000000	0.239150
408.000000	0.240363
409.000000	0.241080
410.000000	0.241783
411.000000	0.244115
412.000000	0.245005
413.000000	0.245276
414.000000	0.246324
415.000000	0.247127
416.000000	0.247797
417.000000	0.248423
418.000000	0.248867
419.000000	0.249017
420.000000	0.248918
421.000000	0.248698
422.000000	0.249580
423.000000	0.250718
424.000000	0.250852
425.000000	0.250968
426.000000	0.251036
427.000000	0.251060
428.000000	0.251734
429.000000	0.252067
430.000000	0.251770
431.000000	0.251332
432.000000	0.251357
433.000000	0.251762
434.000000	0.252185
435.000000	0.252207
436.000000	0.252047
437.000000	0.252003
438.000000	0.252160
439.000000	0.252277
440.000000	0.252213
441.000000	0.251567
442.000000	0.251264
443.000000	0.251390
444.000000	0.251624
445.000000	0.251514
446.000000	0.251412
447.000000	0.251678
448.000000	0.252263
449.000000	0.253054
450.000000	0.253993
451.000000	0.255149
452.000000	0.256485
453.000000	0.257966
454.000000	0.259800
455.000000	0.261840
456.000000	0.263932
457.000000	0.265738
458.000000	0.267404
459.000000	0.269136
460.000000	0.271005
461.000000	0.272165
462.000000	0.273387
463.000000	0.274827
464.000000	0.276094
465.000000	0.276927
466.000000	0.277534
467.000000	0.278614
468.000000	0.279647
469.000000	0.280330
470.000000	0.280726
471.000000	0.281546
472.000000	0.282116
473.000000	0.282208
474.000000	0.283002
475.000000	0.283663
476.000000	0.284104
477.000000	0.284619
478.000000	0.285056
479.000000	0.285605
480.000000	0.286168
481.000000	0.286409
482.000000	0.286774
483.000000	0.287407
484.000000	0.288074
485.000000	0.288526
486.000000	0.288881
487.000000	0.289212
488.000000	0.289595
489.000000	0.290102
490.000000	0.290772
491.000000	0.291326
492.000000	0.291805
493.000000	0.292200
494.000000	0.292664
495.000000	0.293251
496.000000	0.293909
497.000000	0.294548
498.000000	0.295176
499.000000	0.295810
500.000000	0.296237
501.000000	0.296741
502.000000	0.297393
503.000000	0.298061
504.000000	0.298610
505.000000	0.299118
506.000000	0.299688
507.000000	0.300270
508.000000	0.300924
509.000000	0.301610
510.000000	0.302238
511.000000	0.302848
512.000000	0.303457
513.000000	0.303996
514.000000	0.304733
515.000000	0.305630
516.000000	0.306458
517.000000	0.307061
518.000000	0.307678
519.000000	0.308405
520.000000	0.309207
521.000000	0.309848
522.000000	0.310359
523.000000	0.311156
524.000000	0.312026
525.000000	0.312835
526.000000	0.313521
527.000000	0.314428
528.000000	0.315283
529.000000	0.315857
530.000000	0.316662
531.000000	0.317586
532.000000	0.318400
533.000000	0.319105
534.000000	0.319884
535.000000	0.320737
536.000000	0.321521
537.000000	0.322389
538.000000	0.323302
539.000000	0.324134
540.000000	0.324880
541.000000	0.325640
542.000000	0.326516
543.000000	0.327299
544.000000	0.328122
545.000000	0.328972
546.000000	0.329841
547.000000	0.330759
548.000000	0.331688
549.000000	0.332423
550.000000	0.333223
551.000000	0.334064
552.000000	0.334806
553.000000	0.335681
554.000000	0.336510
555.000000	0.337212
556.000000	0.338135
557.000000	0.338884
558.000000	0.339525
559.000000	0.340279
560.000000	0.340991
561.000000	0.341730
562.000000	0.342480
563.000000	0.343206
564.000000	0.343914
565.000000	0.344515
566.000000	0.345245
567.000000	0.345977
568.000000	0.346608
569.000000	0.347232
570.000000	0.347807
571.000000	0.348342
572.000000	0.348921
573.000000	0.349438
574.000000	0.349914
575.000000	0.350471
576.000000	0.350987
577.000000	0.351434
578.000000	0.351886
579.000000	0.352323
580.000000	0.352789
581.000000	0.353259
582.000000	0.353596
583.000000	0.353904
584.000000	0.354230
585.000000	0.354596
586.000000	0.354932
587.000000	0.355252
588.000000	0.355584
589.000000	0.355880
590.000000	0.356230
591.000000	0.356643
592.000000	0.356874
593.000000	0.357130
594.000000	0.357429
595.000000	0.357617
596.000000	0.357866
597.000000	0.358169
598.000000	0.358340
599.000000	0.358465
600.000000	0.358629
601.000000	0.358789
602.000000	0.358941
603.000000	0.359052
604.000000	0.359150
605.000000	0.359339
606.000000	0.359524
607.000000	0.359667
608.000000	0.359748
609.000000	0.359865
610.000000	0.359996
611.000000	0.360095
612.000000	0.360194
613.000000	0.360307
614.000000	0.360462
615.000000	0.360554
616.000000	0.360635
617.000000	0.360700
618.000000	0.360814
619.000000	0.360944
620.000000	0.361076
621.000000	0.361258
622.000000	0.361293
623.000000	0.361280
624.000000	0.361328
625.000000	0.361418
626.000000	0.361483
627.000000	0.361536
628.000000	0.361720
629.000000	0.361964
630.000000	0.362083
631.000000	0.362173
632.000000	0.362309
633.000000	0.362461
634.000000	0.362577
635.000000	0.362809
636.000000	0.363049
637.000000	0.363208
638.000000	0.363334
639.000000	0.363515
640.000000	0.363768
641.000000	0.363851
642.000000	0.363994
643.000000	0.364186
644.000000	0.364351
645.000000	0.364499
646.000000	0.364667
647.000000	0.364836
648.000000	0.364946
649.000000	0.365053
650.000000	0.365178
651.000000	0.365370
652.000000	0.365587
653.000000	0.365837
654.000000	0.366042
655.000000	0.366295
656.000000	0.366542
657.000000	0.366680
658.000000	0.366943
659.000000	0.367221
660.000000	0.367436
661.000000	0.367657
662.000000	0.367821
663.000000	0.368006
664.000000	0.368241
665.000000	0.368422
666.000000	0.368630
667.000000	0.368918
668.000000	0.369208
669.000000	0.369488
670.000000	0.369744
671.000000	0.369884
672.000000	0.370145
673.000000	0.370506
674.000000	0.370762
675.000000	0.371014
676.000000	0.371278
677.000000	0.371566
678.000000	0.371824
679.000000	0.372080
680.000000	0.372360
681.000000	0.372610
682.000000	0.372877
683.000000	0.373120
684.000000	0.373499
685.000000	0.373835
686.000000	0.374168
687.000000	0.374536
688.000000	0.374887
689.000000	0.375192
690.000000	0.375495
691.000000	0.375863
692.000000	0.376185
693.000000	0.376505
694.000000	0.376828
695.000000	0.377141
696.000000	0.377459
697.000000	0.377808
698.000000	0.378126
699.000000	0.378450
700.000000	0.378825
701.000000	0.379228
702.000000	0.379621
703.000000	0.379973
704.000000	0.380322
705.000000	0.380721
706.000000	0.381114
707.000000	0.381508
708.000000	0.381798
709.000000	0.382065
710.000000	0.382420
711.000000	0.382811
712.000000	0.383179
713.000000	0.383525
714.000000	0.383843
715.000000	0.384203
716.000000	0.384563
717.000000	0.384805
718.000000	0.385132
719.000000	0.385467
720.000000	0.385754
721.000000	0.386126
722.000000	0.386409
723.000000	0.386666
724.000000	0.387077
725.000000	0.387404
726.000000	0.387722
727.000000	0.388032
728.000000	0.388389
729.000000	0.388731
730.000000	0.388962
731.000000	0.389296
732.000000	0.389598
733.000000	0.389866
734.000000	0.390120
735.000000	0.390366
736.000000	0.390721
737.000000	0.391012
738.000000	0.391191
739.000000	0.391465
740.000000	0.391759
741.000000	0.392059
742.000000	0.392287
743.000000	0.392440
744.000000	0.392720
745.000000	0.392867
746.000000	0.392985
747.000000	0.393158
748.000000	0.393402
749.000000	0.393646
750.000000	0.393825
751.000000	0.394084
752.000000	0.394340
753.000000	0.394554
754.000000	0.394681
755.000000	0.394848
756.000000	0.395036
757.000000	0.395138
758.000000	0.395234
759.000000	0.395342
760.000000	0.395400
761.000000	0.395555
762.000000	0.395658
763.000000	0.395675
764.000000	0.395744
765.000000	0.395835
766.000000	0.395898
767.000000	0.395906
768.000000	0.395985
769.000000	0.396058
770.000000	0.396090
771.000000	0.396095
772.000000	0.396187
773.000000	0.396232
774.000000	0.396183
775.000000	0.396179
776.000000	0.396191
777.000000	0.396166
778.000000	0.396163
779.000000	0.396182
780.000000	0.396200
781.000000	0.396142
782.000000	0.396087
783.000000	0.396121
784.000000	0.396080
785.000000	0.395996
786.000000	0.395864
787.000000	0.395716
788.000000	0.395688
789.000000	0.395706
790.000000	0.395702
791.000000	0.395671
792.000000	0.395584
793.000000	0.395468
794.000000	0.395355
795.000000	0.395220
796.000000	0.395124
797.000000	0.395070
798.000000	0.395020
799.000000	0.394981
800.000000	0.394932
801.000000	0.394859
802.000000	0.394830
803.000000	0.394726
804.000000	0.394543
805.000000	0.394332
806.000000	0.394120
807.000000	0.393970
808.000000	0.393762
809.000000	0.393584
810.000000	0.393446
811.000000	0.393309
812.000000	0.393072
813.000000	0.392935
814.000000	0.392905
815.000000	0.392839
816.000000	0.392665
817.000000	0.392434
818.000000	0.392149
819.000000	0.392068
820.000000	0.391993
821.000000	0.391794
822.000000	0.391647
823.000000	0.391499
824.000000	0.391309
825.000000	0.391189
826.000000	0.391046
827.000000	0.390865
828.000000	0.390699
829.000000	0.390514
830.000000	0.390334
831.000000	0.390192
832.000000	0.389920
833.000000	0.389667
834.000000	0.389468
835.000000	0.389342
836.000000	0.389118
837.000000	0.388888
838.000000	0.388695
839.000000	0.388488
840.000000	0.388325
841.000000	0.388123
842.000000	0.387796
843.000000	0.387629
844.000000	0.387493
845.000000	0.387311
846.000000	0.387165
847.000000	0.386922
848.000000	0.386675
849.000000	0.386574
850.000000	0.386433
851.000000	0.386246
852.000000	0.386077
853.000000	0.385930
854.000000	0.385716
855.000000	0.385573
856.000000	0.385438
857.000000	0.385173
858.000000	0.384929
859.000000	0.384700
860.000000	0.384503
861.000000	0.384281
862.000000	0.384073
863.000000	0.383861
864.000000	0.383750
865.000000	0.383620
866.000000	0.383458
867.000000	0.383396
868.000000	0.383243
869.000000	0.382982
870.000000	0.382797
871.000000	0.382498
872.000000	0.382306
873.000000	0.382228
874.000000	0.382065
875.000000	0.381815
876.000000	0.381569
877.000000	0.381360
878.000000	0.381132
879.000000	0.380948
880.000000	0.380679
881.000000	0.380415
882.000000	0.380116
883.000000	0.379883
884.000000	0.379766
885.000000	0.379665
886.000000	0.379498
887.000000	0.379298
888.000000	0.379213
889.000000	0.379122
890.000000	0.378888
891.000000	0.378666
892.000000	0.378497
893.000000	0.378271
894.000000	0.378077
895.000000	0.377853
896.000000	0.377570
897.000000	0.377259
898.000000	0.376983
899.000000	0.376838
900.000000	0.376712
901.000000	0.376540
902.000000	0.376501
903.000000	0.376307
904.000000	0.376031
905.000000	0.375715
906.000000	0.375520
907.000000	0.375366
908.000000	0.375288
909.000000	0.375228
910.000000	0.375160
911.000000	0.375009
912.000000	0.374770
913.000000	0.374603
914.000000	0.374392
915.000000	0.374200
916.000000	0.374018
917.000000	0.373853
918.000000	0.373707
919.000000	0.373551
920.000000	0.373374
921.000000	0.373357
922.000000	0.373407
923.000000	0.373256
924.000000	0.372917
925.000000	0.372617
926.000000	0.372496
927.000000	0.372359
928.000000	0.372176
929.000000	0.371985
930.000000	0.371833
931.000000	0.371606
932.000000	0.371396
933.000000	0.371265
934.000000	0.371097
935.000000	0.370697
936.000000	0.370475
937.000000	0.370547
938.000000	0.370235
939.000000	0.369907
940.000000	0.369640
941.000000	0.369528
942.000000	0.369486
943.000000	0.369458
944.000000	0.369325
945.000000	0.369389
946.000000	0.369324
947.000000	0.369235
948.000000	0.369191
949.000000	0.368870
950.000000	0.368646
951.000000	0.368462
952.000000	0.368015
953.000000	0.367912
954.000000	0.367942
955.000000	0.367777
956.000000	0.367584
957.000000	0.367393
958.000000	0.367212
959.000000	0.367161
960.000000	0.367072
961.000000	0.366938
962.000000	0.366770
963.000000	0.366647
964.000000	0.366431
965.000000	0.366263
966.000000	0.366120
967.000000	0.365970
968.000000	0.365783
969.000000	0.365618
970.000000	0.365646
971.000000	0.365247
972.000000	0.365079
973.000000	0.365176
974.000000	0.364941
975.000000	0.364997
976.000000	0.365187
977.000000	0.365197
978.000000	0.364763
979.000000	0.364752
980.000000	0.364737
981.000000	0.364450
982.000000	0.364543
983.000000	0.364499
984.000000	0.364231
985.000000	0.364015
986.000000	0.364127
987.000000	0.364384
988.000000	0.364424
989.000000	0.364240
990.000000	0.363916
991.000000	0.363858
992.000000	0.364342
993.000000	0.364280
994.000000	0.364032
995.000000	0.363872
996.000000	0.363536
997.000000	0.363678
998.000000	0.363787
999.000000	0.363765
1000.000000	0.364022
1001.000000	0.363570
1002.000000	0.363799
1003.000000	0.364204
1004.000000	0.364160
1005.000000	0.363309
1006.000000	0.363132
1007.000000	0.363042
1008.000000	0.363146
1009.000000	0.363714
1010.000000	0.364478
1011.000000	0.364563
1012.000000	0.364466
1013.000000	0.364310
1014.000000	0.363884
1015.000000	0.363264
1016.000000	0.363297
1017.000000	0.363656
1018.000000	0.364036
1019.000000	0.364285
1020.000000	0.364930
1021.000000	0.364742
1022.000000	0.364161
1023.000000	0.364221
1024.000000	0.363977
1025.000000	0.364364
1026.000000	0.365185
1027.000000	0.365361
1028.000000	0.365595
1029.000000	0.365877
1030.000000	0.365537
1031.000000	0.365194
1032.000000	0.365289
1033.000000	0.365491
1034.000000	0.365667
1035.000000	0.366174
1036.000000	0.366467
1037.000000	0.366479
1038.000000	0.366670
1039.000000	0.367248
1040.000000	0.367588
1041.000000	0.367543
1042.000000	0.367529
1043.000000	0.367042
1044.000000	0.367217
1045.000000	0.367849
1046.000000	0.368043
1047.000000	0.368477
1048.000000	0.369166
1049.000000	0.369229
1050.000000	0.368972
1051.000000	0.369185
1052.000000	0.369246
1053.000000	0.369346
1054.000000	0.369995
1055.000000	0.370355
1056.000000	0.370379
1057.000000	0.370707
1058.000000	0.371266
1059.000000	0.371529
1060.000000	0.372079
1061.000000	0.372756
1062.000000	0.373074
1063.000000	0.373612
1064.000000	0.374013
1065.000000	0.374035
1066.000000	0.374540
1067.000000	0.375422
1068.000000	0.375835
1069.000000	0.376234
1070.000000	0.376503
1071.000000	0.376459
1072.000000	0.376504
1073.000000	0.376483
1074.000000	0.376828
1075.000000	0.377120
1076.000000	0.377490
1077.000000	0.378170
1078.000000	0.378601
1079.000000	0.378785
1080.000000	0.378619
1081.000000	0.378875
1082.000000	0.379098
1083.000000	0.379557
1084.000000	0.380634
1085.000000	0.381198
1086.000000	0.381581
1087.000000	0.381972
1088.000000	0.382039
1089.000000	0.382148
1090.000000	0.382063
1091.000000	0.382244
1092.000000	0.382396
1093.000000	0.382817
1094.000000	0.383280
1095.000000	0.383936
1096.000000	0.384404
1097.000000	0.384922
1098.000000	0.385325
1099.000000	0.385441
1100.000000	0.385892
1101.000000	0.386442
1102.000000	0.386830
1103.000000	0.387241
1104.000000	0.387701
1105.000000	0.388134
1106.000000	0.388451
1107.000000	0.388555
1108.000000	0.388928
1109.000000	0.389463
1110.000000	0.389870
1111.000000	0.390282
1112.000000	0.390932
1113.000000	0.391355
1114.000000	0.391618
1115.000000	0.391802
1116.000000	0.391843
1117.000000	0.392156
1118.000000	0.392505
1119.000000	0.392644
1120.000000	0.392899
1121.000000	0.393121
1122.000000	0.393190
1123.000000	0.393530
1124.000000	0.393760
1125.000000	0.394120
1126.000000	0.394563
1127.000000	0.394757
1128.000000	0.394880
1129.000000	0.395015
1130.000000	0.395289
1131.000000	0.395503
1132.000000	0.395626
1133.000000	0.395937
1134.000000	0.396203
1135.000000	0.396179
1136.000000	0.396311
1137.000000	0.396640
1138.000000	0.396834
1139.000000	0.397099
1140.000000	0.397323
1141.000000	0.397372
1142.000000	0.397573
1143.000000	0.397737
1144.000000	0.397995
1145.000000	0.398138
1146.000000	0.398266
1147.000000	0.398471
1148.000000	0.398542
1149.000000	0.398630
1150.000000	0.398849
1151.000000	0.399004
1152.000000	0.398823
1153.000000	0.399063
1154.000000	0.399640
1155.000000	0.399850
1156.000000	0.400089
1157.000000	0.400258
1158.000000	0.400123
1159.000000	0.400061
1160.000000	0.399974
1161.000000	0.399992
1162.000000	0.400170
1163.000000	0.400367
1164.000000	0.400389
1165.000000	0.400202
1166.000000	0.400230
1167.000000	0.399997
1168.000000	0.400065
1169.000000	0.400518
1170.000000	0.400743
1171.000000	0.400979
1172.000000	0.401196
1173.000000	0.401373
1174.000000	0.401497
1175.000000	0.401466
1176.000000	0.401546
1177.000000	0.401770
1178.000000	0.401920
1179.000000	0.402188
1180.000000	0.402227
1181.000000	0.402190
1182.000000	0.402112
1183.000000	0.402056
1184.000000	0.402170
1185.000000	0.402382
1186.000000	0.402814
1187.000000	0.402997
1188.000000	0.403241
1189.000000	0.403277
1190.000000	0.403137
1191.000000	0.403065
1192.000000	0.403044
1193.000000	0.403171
1194.000000	0.403188
1195.000000	0.403290
1196.000000	0.403425
1197.000000	0.403511
1198.000000	0.403678
1199.000000	0.403745
1200.000000	0.403622
1201.000000	0.403731
1202.000000	0.403869
1203.000000	0.403933
1204.000000	0.404148
1205.000000	0.404216
1206.000000	0.404219
1207.000000	0.404198
1208.000000	0.404206
1209.000000	0.404285
1210.000000	0.404348
1211.000000	0.404391
1212.000000	0.404421
1213.000000	0.404479
1214.000000	0.404584
1215.000000	0.404789
1216.000000	0.404817
1217.000000	0.404655
1218.000000	0.404611
1219.000000	0.404580
1220.000000	0.404509
1221.000000	0.404500
1222.000000	0.404706
1223.000000	0.404879
1224.000000	0.404873
1225.000000	0.404966
1226.000000	0.405140
1227.000000	0.404993
1228.000000	0.405067
1229.000000	0.405095
1230.000000	0.405052
1231.000000	0.405002
1232.000000	0.405141
1233.000000	0.405330
1234.000000	0.405543
1235.000000	0.405727
1236.000000	0.405922
1237.000000	0.406038
1238.000000	0.405941
1239.000000	0.405891
1240.000000	0.405789
1241.000000	0.405746
1242.000000	0.405709
1243.000000	0.405933
1244.000000	0.406081
1245.000000	0.406207
1246.000000	0.406441
1247.000000	0.406568
1248.000000	0.406665
1249.000000	0.406754
1250.000000	0.406781
1251.000000	0.406840
1252.000000	0.406875
1253.000000	0.407020
1254.000000	0.407100
1255.000000	0.407084
1256.000000	0.407097
1257.000000	0.407129
1258.000000	0.407236
1259.000000	0.407338
1260.000000	0.407458
1261.000000	0.407560
1262.000000	0.407575
1263.000000	0.407530
1264.000000	0.407477
1265.000000	0.407424
1266.000000	0.407521
1267.000000	0.407644
1268.000000	0.407538
1269.000000	0.407398
1270.000000	0.407408
1271.000000	0.407365
1272.000000	0.407440
1273.000000	0.407472
1274.000000	0.407341
1275.000000	0.407283
1276.000000	0.407159
1277.000000	0.407231
1278.000000	0.407411
1279.000000	0.407414
1280.000000	0.407259
1281.000000	0.407227
1282.000000	0.407200
1283.000000	0.407301
1284.000000	0.407600
1285.000000	0.407707
1286.000000	0.407730
1287.000000	0.407557
1288.000000	0.407582
1289.000000	0.407528
1290.000000	0.407462
1291.000000	0.407581
1292.000000	0.407611
1293.000000	0.407620
1294.000000	0.407686
1295.000000	0.407799
1296.000000	0.407919
1297.000000	0.407890
1298.000000	0.407843
1299.000000	0.407847
1300.000000	0.407881
1301.000000	0.407885
1302.000000	0.407710
1303.000000	0.407514
1304.000000	0.407363
1305.000000	0.407194
1306.000000	0.407105
1307.000000	0.407276
1308.000000	0.407323
1309.000000	0.407362
1310.000000	0.407285
1311.000000	0.407146
1312.000000	0.406931
1313.000000	0.406836
1314.000000	0.406743
1315.000000	0.406639
1316.000000	0.406515
1317.000000	0.406277
1318.000000	0.406069
1319.000000	0.405923
1320.000000	0.405980
1321.000000	0.405821
1322.000000	0.405457
1323.000000	0.405245
1324.000000	0.405077
1325.000000	0.405078
1326.000000	0.405091
1327.000000	0.404988
1328.000000	0.404934
1329.000000	0.404757
1330.000000	0.404540
1331.000000	0.404333
1332.000000	0.404101
1333.000000	0.403873
1334.000000	0.403668
1335.000000	0.403588
1336.000000	0.403676
1337.000000	0.403494
1338.000000	0.403195
1339.000000	0.402866
1340.000000	0.402355
1341.000000	0.402022
1342.000000	0.402072
1343.000000	0.402076
1344.000000	0.401891
1345.000000	0.401640
1346.000000	0.401377
1347.000000	0.400958
1348.000000	0.400699
1349.000000	0.400489
1350.000000	0.400240
1351.000000	0.399892
1352.000000	0.399511
1353.000000	0.399170
1354.000000	0.398783
1355.000000	0.398314
1356.000000	0.398127
1357.000000	0.397972
1358.000000	0.397730
1359.000000	0.397562
1360.000000	0.397343
1361.000000	0.397058
1362.000000	0.396804
1363.000000	0.396470
1364.000000	0.396283
1365.000000	0.396187
1366.000000	0.395996
1367.000000	0.395799
1368.000000	0.395726
1369.000000	0.395541
1370.000000	0.395027
1371.000000	0.394523
1372.000000	0.393968
1373.000000	0.393507
1374.000000	0.393162
1375.000000	0.392766
1376.000000	0.392561
1377.000000	0.392196
1378.000000	0.391624
1379.000000	0.391149
1380.000000	0.390702
1381.000000	0.390102
1382.000000	0.389432
1383.000000	0.388727
1384.000000	0.387763
1385.000000	0.386947
1386.000000	0.386291
1387.000000	0.385417
1388.000000	0.384624
1389.000000	0.383775
1390.000000	0.382753
1391.000000	0.381716
1392.000000	0.380646
1393.000000	0.379529
1394.000000	0.378367
1395.000000	0.377298
1396.000000	0.376301
1397.000000	0.375025
1398.000000	0.373600
1399.000000	0.372229
1400.000000	0.370729
1401.000000	0.369313
1402.000000	0.368071
1403.000000	0.366588
1404.000000	0.365149
1405.000000	0.363595
1406.000000	0.362009
1407.000000	0.360514
1408.000000	0.358839
1409.000000	0.357236
1410.000000	0.355806
1411.000000	0.354282
1412.000000	0.352794
1413.000000	0.351359
1414.000000	0.349889
1415.000000	0.348546
1416.000000	0.347144
1417.000000	0.345934
1418.000000	0.344834
1419.000000	0.343607
1420.000000	0.342473
1421.000000	0.341483
1422.000000	0.340346
1423.000000	0.339267
1424.000000	0.338163
1425.000000	0.336901
1426.000000	0.335587
1427.000000	0.334331
1428.000000	0.333022
1429.000000	0.331803
1430.000000	0.330673
1431.000000	0.329508
1432.000000	0.328485
1433.000000	0.327655
1434.000000	0.326799
1435.000000	0.326095
1436.000000	0.325444
1437.000000	0.324726
1438.000000	0.324138
1439.000000	0.323785
1440.000000	0.323383
1441.000000	0.323063
1442.000000	0.322800
1443.000000	0.322513
1444.000000	0.322170
1445.000000	0.321970
1446.000000	0.321816
1447.000000	0.321716
1448.000000	0.321559
1449.000000	0.321300
1450.000000	0.321134
1451.000000	0.321011
1452.000000	0.320778
1453.000000	0.320514
1454.000000	0.320276
1455.000000	0.320007
1456.000000	0.319733
1457.000000	0.319563
1458.000000	0.319419
1459.000000	0.319210
1460.000000	0.318996
1461.000000	0.318851
1462.000000	0.318678
1463.000000	0.318339
1464.000000	0.318112
1465.000000	0.317967
1466.000000	0.317666
1467.000000	0.317501
1468.000000	0.317490
1469.000000	0.317538
1470.000000	0.317589
1471.000000	0.317644
1472.000000	0.317720
1473.000000	0.317922
1474.000000	0.318116
1475.000000	0.318485
1476.000000	0.318903
1477.000000	0.319196
1478.000000	0.319608
1479.000000	0.320042
1480.000000	0.320424
1481.000000	0.320763
1482.000000	0.321096
1483.000000	0.321530
1484.000000	0.321940
1485.000000	0.322424
1486.000000	0.323018
1487.000000	0.323584
1488.000000	0.324216
1489.000000	0.324814
1490.000000	0.325274
1491.000000	0.325804
1492.000000	0.326238
1493.000000	0.326752
1494.000000	0.327378
1495.000000	0.327860
1496.000000	0.328265
1497.000000	0.328705
1498.000000	0.329084
1499.000000	0.329498
1500.000000	0.330008
1501.000000	0.330462
1502.000000	0.330863
1503.000000	0.331284
1504.000000	0.331694
1505.000000	0.332091
1506.000000	0.332501
1507.000000	0.332902
1508.000000	0.333359
1509.000000	0.333850
1510.000000	0.334188
1511.000000	0.334443
1512.000000	0.334628
1513.000000	0.334764
1514.000000	0.335049
1515.000000	0.335354
1516.000000	0.335670
1517.000000	0.335901
1518.000000	0.336114
1519.000000	0.336256
1520.000000	0.336389
1521.000000	0.336585
1522.000000	0.336788
1523.000000	0.337074
1524.000000	0.337286
1525.000000	0.337485
1526.000000	0.337695
1527.000000	0.337887
1528.000000	0.338185
1529.000000	0.338368
1530.000000	0.338331
1531.000000	0.338386
1532.000000	0.338440
1533.000000	0.338523
1534.000000	0.338799
1535.000000	0.339023
1536.000000	0.339005
1537.000000	0.339011
1538.000000	0.339073
1539.000000	0.339069
1540.000000	0.339247
1541.000000	0.339536
1542.000000	0.339593
1543.000000	0.339701
1544.000000	0.339854
1545.000000	0.339846
1546.000000	0.339988
1547.000000	0.340224
1548.000000	0.340375
1549.000000	0.340521
1550.000000	0.340622
1551.000000	0.340673
1552.000000	0.340728
1553.000000	0.340920
1554.000000	0.341119
1555.000000	0.341151
1556.000000	0.341202
1557.000000	0.341181
1558.000000	0.341218
1559.000000	0.341237
1560.000000	0.341265
1561.000000	0.341389
1562.000000	0.341366
1563.000000	0.341272
1564.000000	0.341235
1565.000000	0.341164
1566.000000	0.341049
1567.000000	0.341062
1568.000000	0.341009
1569.000000	0.340944
1570.000000	0.340925
1571.000000	0.340938
1572.000000	0.340891
1573.000000	0.340824
1574.000000	0.340757
1575.000000	0.340675
1576.000000	0.340646
1577.000000	0.340643
1578.000000	0.340620
1579.000000	0.340655
1580.000000	0.340612
1581.000000	0.340622
1582.000000	0.340621
1583.000000	0.340557
1584.000000	0.340494
1585.000000	0.340574
1586.000000	0.340555
1587.000000	0.340386
1588.000000	0.340357
1589.000000	0.340387
1590.000000	0.340425
1591.000000	0.340606
1592.000000	0.340702
1593.000000	0.340796
1594.000000	0.340826
1595.000000	0.340879
1596.000000	0.340878
1597.000000	0.340815
1598.000000	0.340767
1599.000000	0.340664
1600.000000	0.340668
1601.000000	0.340869
1602.000000	0.340976
1603.000000	0.341174
1604.000000	0.341250
1605.000000	0.341201
1606.000000	0.341239
1607.000000	0.341345
1608.000000	0.341429
1609.000000	0.341607
1610.000000	0.341718
1611.000000	0.341791
1612.000000	0.341897
1613.000000	0.342166
1614.000000	0.342271
1615.000000	0.342375
1616.000000	0.342469
1617.000000	0.342401
1618.000000	0.342452
1619.000000	0.342584
1620.000000	0.342613
1621.000000	0.342587
1622.000000	0.342712
1623.000000	0.342808
1624.000000	0.342977
1625.000000	0.343176
1626.000000	0.343260
1627.000000	0.343300
1628.000000	0.343390
1629.000000	0.343385
1630.000000	0.343585
1631.000000	0.343888
1632.000000	0.344085
1633.000000	0.344315
1634.000000	0.344595
1635.000000	0.344890
1636.000000	0.345149
1637.000000	0.345515
1638.000000	0.345821
1639.000000	0.346144
1640.000000	0.346341
1641.000000	0.346516
1642.000000	0.346775
1643.000000	0.346996
1644.000000	0.347221
1645.000000	0.347578
1646.000000	0.347829
1647.000000	0.348001
1648.000000	0.348197
1649.000000	0.348486
1650.000000	0.348782
1651.000000	0.349136
1652.000000	0.349451
1653.000000	0.349752
1654.000000	0.350062
1655.000000	0.350213
1656.000000	0.350380
1657.000000	0.350716
1658.000000	0.350879
1659.000000	0.351030
1660.000000	0.351268
1661.000000	0.351395
1662.000000	0.351561
1663.000000	0.351746
1664.000000	0.351953
1665.000000	0.352152
1666.000000	0.352406
1667.000000	0.352644
1668.000000	0.352872
1669.000000	0.353047
1670.000000	0.353196
1671.000000	0.353462
1672.000000	0.353747
1673.000000	0.353985
1674.000000	0.354217
1675.000000	0.354510
1676.000000	0.354753
1677.000000	0.355021
1678.000000	0.355183
1679.000000	0.355379
1680.000000	0.355530
1681.000000	0.355561
1682.000000	0.355829
1683.000000	0.356106
1684.000000	0.356245
1685.000000	0.356494
1686.000000	0.356568
1687.000000	0.356609
1688.000000	0.356608
1689.000000	0.356585
1690.000000	0.356816
1691.000000	0.357101
1692.000000	0.357195
1693.000000	0.357339
1694.000000	0.357233
1695.000000	0.357133
1696.000000	0.357372
1697.000000	0.357406
1698.000000	0.357441
1699.000000	0.357478
1700.000000	0.357262
1701.000000	0.357423
1702.000000	0.357708
1703.000000	0.357830
1704.000000	0.358219
1705.000000	0.358406
1706.000000	0.358357
1707.000000	0.358445
1708.000000	0.358508
1709.000000	0.358531
1710.000000	0.358701
1711.000000	0.358816
1712.000000	0.358949
1713.000000	0.359001
1714.000000	0.358991
1715.000000	0.359097
1716.000000	0.359193
1717.000000	0.359360
1718.000000	0.359648
1719.000000	0.359829
1720.000000	0.360134
1721.000000	0.360224
1722.000000	0.360071
1723.000000	0.360172
1724.000000	0.360243
1725.000000	0.360489
1726.000000	0.361004
1727.000000	0.361214
1728.000000	0.361259
1729.000000	0.361244
1730.000000	0.361250
1731.000000	0.361170
1732.000000	0.360946
1733.000000	0.361054
1734.000000	0.361040
1735.000000	0.361200
1736.000000	0.361652
1737.000000	0.361877
1738.000000	0.362035
1739.000000	0.362240
1740.000000	0.362473
1741.000000	0.362525
1742.000000	0.362461
1743.000000	0.362638
1744.000000	0.362766
1745.000000	0.362937
1746.000000	0.363315
1747.000000	0.363334
1748.000000	0.363352
1749.000000	0.363292
1750.000000	0.363318
1751.000000	0.363594
1752.000000	0.363869
1753.000000	0.364069
1754.000000	0.364245
1755.000000	0.364331
1756.000000	0.364361
1757.000000	0.364408
1758.000000	0.364366
1759.000000	0.364078
1760.000000	0.363992
1761.000000	0.363900
1762.000000	0.363859
1763.000000	0.363960
1764.000000	0.364103
1765.000000	0.364367
1766.000000	0.364398
1767.000000	0.364189
1768.000000	0.364173
1769.000000	0.364124
1770.000000	0.364284
1771.000000	0.364779
1772.000000	0.364979
1773.000000	0.365002
1774.000000	0.365079
1775.000000	0.365107
1776.000000	0.365277
1777.000000	0.365491
1778.000000	0.365645
1779.000000	0.365843
1780.000000	0.366015
1781.000000	0.366135
1782.000000	0.366164
1783.000000	0.366152
1784.000000	0.366392
1785.000000	0.366486
1786.000000	0.366723
1787.000000	0.367210
1788.000000	0.367399
1789.000000	0.367479
1790.000000	0.367677
1791.000000	0.367791
1792.000000	0.368027
1793.000000	0.368164
1794.000000	0.368274
1795.000000	0.368337
1796.000000	0.368221
1797.000000	0.368240
1798.000000	0.368234
1799.000000	0.368311
1800.000000	0.368545
1801.000000	0.368365
1802.000000	0.368528
1803.000000	0.368197
1804.000000	0.368111
1805.000000	0.368152
1806.000000	0.368245
1807.000000	0.368286
1808.000000	0.368141
1809.000000	0.368300
1810.000000	0.367871
1811.000000	0.367683
1812.000000	0.367430
1813.000000	0.367029
1814.000000	0.366428
1815.000000	0.366328
1816.000000	0.365888
1817.000000	0.365944
1818.000000	0.366864
1819.000000	0.367661
1820.000000	0.368973
1821.000000	0.369719
1822.000000	0.369663
1823.000000	0.368713
1824.000000	0.368417
1825.000000	0.367401
1826.000000	0.367080
1827.000000	0.367206
1828.000000	0.367304
1829.000000	0.368278
1830.000000	0.368037
1831.000000	0.368050
1832.000000	0.368403
1833.000000	0.368325
1834.000000	0.367736
1835.000000	0.367326
1836.000000	0.366922
1837.000000	0.366454
1838.000000	0.365621
1839.000000	0.364699
1840.000000	0.364603
1841.000000	0.363795
1842.000000	0.363336
1843.000000	0.363379
1844.000000	0.362818
1845.000000	0.361234
1846.000000	0.360964
1847.000000	0.361052
1848.000000	0.360888
1849.000000	0.361164
1850.000000	0.361944
1851.000000	0.362052
1852.000000	0.361481
1853.000000	0.361144
1854.000000	0.360778
1855.000000	0.359952
1856.000000	0.358421
1857.000000	0.357356
1858.000000	0.356967
1859.000000	0.356345
1860.000000	0.355178
1861.000000	0.353888
1862.000000	0.352459
1863.000000	0.350133
1864.000000	0.348624
1865.000000	0.347624
1866.000000	0.346523
1867.000000	0.345613
1868.000000	0.344239
1869.000000	0.343266
1870.000000	0.342232
1871.000000	0.340340
1872.000000	0.338198
1873.000000	0.335862
1874.000000	0.332750
1875.000000	0.330109
1876.000000	0.327629
1877.000000	0.324129
1878.000000	0.320638
1879.000000	0.317580
1880.000000	0.314305
1881.000000	0.311587
1882.000000	0.308497
1883.000000	0.304626
1884.000000	0.301024
1885.000000	0.296675
1886.000000	0.292707
1887.000000	0.288953
1888.000000	0.285211
1889.000000	0.281223
1890.000000	0.277484
1891.000000	0.273984
1892.000000	0.269865
1893.000000	0.265522
1894.000000	0.261436
1895.000000	0.256789
1896.000000	0.251748
1897.000000	0.246924
1898.000000	0.241791
1899.000000	0.236880
1900.000000	0.232725
1901.000000	0.228417
1902.000000	0.224664
1903.000000	0.221234
1904.000000	0.217523
1905.000000	0.213921
1906.000000	0.210464
1907.000000	0.207246
1908.000000	0.203927
1909.000000	0.200878
1910.000000	0.198836
1911.000000	0.196773
1912.000000	0.194358
1913.000000	0.192318
1914.000000	0.189468
1915.000000	0.186684
1916.000000	0.185071
1917.000000	0.183194
1918.000000	0.181375
1919.000000	0.179978
1920.000000	0.178591
1921.000000	0.176968
1922.000000	0.176296
1923.000000	0.175528
1924.000000	0.175168
1925.000000	0.174817
1926.000000	0.173400
1927.000000	0.172487
1928.000000	0.172052
1929.000000	0.171779
1930.000000	0.172082
1931.000000	0.172760
1932.000000	0.173682
1933.000000	0.174349
1934.000000	0.174360
1935.000000	0.174853
1936.000000	0.174370
1937.000000	0.173935
1938.000000	0.173645
1939.000000	0.173255
1940.000000	0.172475
1941.000000	0.172763
1942.000000	0.172955
1943.000000	0.173010
1944.000000	0.172959
1945.000000	0.172918
1946.000000	0.172529
1947.000000	0.171901
1948.000000	0.172085
1949.000000	0.171471
1950.000000	0.170901
1951.000000	0.170626
1952.000000	0.170744
1953.000000	0.170255
1954.000000	0.170132
1955.000000	0.169729
1956.000000	0.168725
1957.000000	0.167862
1958.000000	0.167415
1959.000000	0.167460
1960.000000	0.167712
1961.000000	0.167718
1962.000000	0.167491
1963.000000	0.167077
1964.000000	0.166298
1965.000000	0.165296
1966.000000	0.165157
1967.000000	0.165588
1968.000000	0.166075
1969.000000	0.166808
1970.000000	0.167073
1971.000000	0.166790
1972.000000	0.166542
1973.000000	0.166493
1974.000000	0.166764
1975.000000	0.167032
1976.000000	0.167588
1977.000000	0.167750
1978.000000	0.167516
1979.000000	0.167335
1980.000000	0.167241
1981.000000	0.167576
1982.000000	0.168498
1983.000000	0.169583
1984.000000	0.170471
1985.000000	0.171634
1986.000000	0.172194
1987.000000	0.172518
1988.000000	0.172633
1989.000000	0.172686
1990.000000	0.172572
1991.000000	0.172963
1992.000000	0.173900
1993.000000	0.174898
1994.000000	0.176377
1995.000000	0.177838
1996.000000	0.178768
1997.000000	0.179552
1998.000000	0.179741
1999.000000	0.180463
2000.000000	0.181072
2001.000000	0.182321
2002.000000	0.183552
2003.000000	0.184595
2004.000000	0.185695
2005.000000	0.186487
2006.000000	0.187761
2007.000000	0.189325
2008.000000	0.190508
2009.000000	0.191643
2010.000000	0.192647
2011.000000	0.193238
2012.000000	0.193918
2013.000000	0.194425
2014.000000	0.195173
2015.000000	0.195931
2016.000000	0.196870
2017.000000	0.198464
2018.000000	0.199805
2019.000000	0.200955
2020.000000	0.202449
2021.000000	0.203807
2022.000000	0.204959
2023.000000	0.206314
2024.000000	0.208207
2025.000000	0.209370
2026.000000	0.210150
2027.000000	0.210657
2028.000000	0.211345
2029.000000	0.211426
2030.000000	0.212208
2031.000000	0.213563
2032.000000	0.214321
2033.000000	0.215363
2034.000000	0.216269
2035.000000	0.216882
2036.000000	0.217900
2037.000000	0.219571
2038.000000	0.220798
2039.000000	0.221971
2040.000000	0.223123
2041.000000	0.225025
2042.000000	0.226106
2043.000000	0.227417
2044.000000	0.228633
2045.000000	0.228727
2046.000000	0.229062
2047.000000	0.229750
2048.000000	0.230691
2049.000000	0.231688
2050.000000	0.232656
2051.000000	0.233578
2052.000000	0.234442
2053.000000	0.235227
2054.000000	0.236112
2055.000000	0.237335
2056.000000	0.238295
2057.000000	0.238951
2058.000000	0.239839
2059.000000	0.240359
2060.000000	0.240932
2061.000000	0.241387
2062.000000	0.242042
2063.000000	0.242901
2064.000000	0.243479
2065.000000	0.244153
2066.000000	0.244713
2067.000000	0.245449
2068.000000	0.245850
2069.000000	0.246242
2070.000000	0.247088
2071.000000	0.247761
2072.000000	0.248474
2073.000000	0.249119
2074.000000	0.249853
2075.000000	0.250749
2076.000000	0.251744
2077.000000	0.252621
2078.000000	0.253681
2079.000000	0.254533
2080.000000	0.255142
2081.000000	0.255869
2082.000000	0.256534
2083.000000	0.257490
2084.000000	0.258400
2085.000000	0.259704
2086.000000	0.260713
2087.000000	0.261282
2088.000000	0.262208
2089.000000	0.263068
2090.000000	0.264404
2091.000000	0.266832
2092.000000	0.268184
2093.000000	0.269426
2094.000000	0.270416
2095.000000	0.270757
2096.000000	0.271096
2097.000000	0.271250
2098.000000	0.271199
2099.000000	0.271495
2100.000000	0.272141
2101.000000	0.273242
2102.000000	0.274211
2103.000000	0.274432
2104.000000	0.274941
2105.000000	0.275492
2106.000000	0.275974
2107.000000	0.276722
2108.000000	0.277509
2109.000000	0.278619
2110.000000	0.280232
2111.000000	0.281080
2112.000000	0.281970
2113.000000	0.282127
2114.000000	0.281347
2115.000000	0.281778
2116.000000	0.282200
2117.000000	0.282422
2118.000000	0.283795
2119.000000	0.284445
2120.000000	0.285242
2121.000000	0.286568
2122.000000	0.287264
2123.000000	0.287232
2124.000000	0.287505
2125.000000	0.287531
2126.000000	0.287640
2127.000000	0.288158
2128.000000	0.288619
2129.000000	0.288850
2130.000000	0.289258
2131.000000	0.289376
2132.000000	0.288971
2133.000000	0.289200
2134.000000	0.289109
2135.000000	0.289282
2136.000000	0.289917
2137.000000	0.290255
2138.000000	0.290578
2139.000000	0.290913
2140.000000	0.291277
2141.000000	0.291242
2142.000000	0.290769
2143.000000	0.290491
2144.000000	0.290329
2145.000000	0.290315
2146.000000	0.290280
2147.000000	0.291239
2148.000000	0.291940
2149.000000	0.292205
2150.000000	0.292834
2151.000000	0.292545
2152.000000	0.292176
2153.000000	0.292324
2154.000000	0.292421
2155.000000	0.292840
2156.000000	0.293115
2157.000000	0.293381
2158.000000	0.293557
2159.000000	0.294158
2160.000000	0.294186
2161.000000	0.293157
2162.000000	0.293437
2163.000000	0.294065
2164.000000	0.294266
2165.000000	0.295213
2166.000000	0.296114
2167.000000	0.295008
2168.000000	0.294844
2169.000000	0.294903
2170.000000	0.294133
2171.000000	0.293764
2172.000000	0.293772
2173.000000	0.293252
2174.000000	0.292094
2175.000000	0.292027
2176.000000	0.292395
2177.000000	0.292647
2178.000000	0.293580
2179.000000	0.294223
2180.000000	0.294705
2181.000000	0.294947
2182.000000	0.294317
2183.000000	0.294356
2184.000000	0.294151
2185.000000	0.294643
2186.000000	0.296164
2187.000000	0.297257
2188.000000	0.296106
2189.000000	0.294589
2190.000000	0.293460
2191.000000	0.293114
2192.000000	0.292831
2193.000000	0.294343
2194.000000	0.294449
2195.000000	0.292791
2196.000000	0.293067
2197.000000	0.294296
2198.000000	0.295041
2199.000000	0.298167
2200.000000	0.298911
2201.000000	0.297342
2202.000000	0.296663
2203.000000	0.294974
2204.000000	0.293011
2205.000000	0.291457
2206.000000	0.291294
2207.000000	0.290778
2208.000000	0.289146
2209.000000	0.287814
2210.000000	0.287793
2211.000000	0.290663
2212.000000	0.294513
2213.000000	0.296416
2214.000000	0.299984
2215.000000	0.299917
2216.000000	0.295096
2217.000000	0.294293
2218.000000	0.293780
2219.000000	0.293942
2220.000000	0.296894
2221.000000	0.296973
2222.000000	0.295642
2223.000000	0.294493
2224.000000	0.291619
2225.000000	0.290903
2226.000000	0.289535
2227.000000	0.289170
2228.000000	0.288984
2229.000000	0.288367
2230.000000	0.288293
2231.000000	0.289849
2232.000000	0.291781
2233.000000	0.291588
2234.000000	0.294064
2235.000000	0.296053
2236.000000	0.296150
2237.000000	0.295399
2238.000000	0.295679
2239.000000	0.293392
2240.000000	0.294104
2241.000000	0.298521
2242.000000	0.300094
2243.000000	0.302144
2244.000000	0.302101
2245.000000	0.298499
2246.000000	0.297028
2247.000000	0.294721
2248.000000	0.294421
2249.000000	0.295819
2250.000000	0.298538
2251.000000	0.300153
2252.000000	0.299874
2253.000000	0.298135
2254.000000	0.296053
2255.000000	0.295974
2256.000000	0.296055
2257.000000	0.295370
2258.000000	0.296806
2259.000000	0.297219
2260.000000	0.295910
2261.000000	0.294975
2262.000000	0.293956
2263.000000	0.292437
2264.000000	0.290282
2265.000000	0.289179
2266.000000	0.288623
2267.000000	0.287894
2268.000000	0.287178
2269.000000	0.286746
2270.000000	0.286708
2271.000000	0.285971
2272.000000	0.285354
2273.000000	0.284008
2274.000000	0.281428
2275.000000	0.279897
2276.000000	0.278142
2277.000000	0.277469
2278.000000	0.277823
2279.000000	0.277058
2280.000000	0.276198
2281.000000	0.276268
2282.000000	0.276456
2283.000000	0.276653
2284.000000	0.277390
2285.000000	0.276440
2286.000000	0.272634
2287.000000	0.270118
2288.000000	0.269075
2289.000000	0.268449
2290.000000	0.269920
2291.000000	0.271564
2292.000000	0.271336
2293.000000	0.269865
2294.000000	0.269183
2295.000000	0.268516
2296.000000	0.267596
2297.000000	0.266132
2298.000000	0.266332
2299.000000	0.266805
2300.000000	0.267224
2301.000000	0.270124
2302.000000	0.270680
2303.000000	0.269350
2304.000000	0.268704
2305.000000	0.267593
2306.000000	0.266120
2307.000000	0.263608
2308.000000	0.263540
2309.000000	0.263184
2310.000000	0.262573
2311.000000	0.263375
2312.000000	0.263391
2313.000000	0.262715
2314.000000	0.260818
2315.000000	0.259584
2316.000000	0.258336
2317.000000	0.255554
2318.000000	0.255325
2319.000000	0.256634
2320.000000	0.256326
2321.000000	0.256705
2322.000000	0.257798
2323.000000	0.255197
2324.000000	0.253236
2325.000000	0.254044
2326.000000	0.250629
2327.000000	0.246874
2328.000000	0.245454
2329.000000	0.243436
2330.000000	0.242377
2331.000000	0.244487
2332.000000	0.245937
2333.000000	0.243315
2334.000000	0.241772
2335.000000	0.241110
2336.000000	0.238534
2337.000000	0.237165
2338.000000	0.238522
2339.000000	0.238068
2340.000000	0.237086
2341.000000	0.236054
2342.000000	0.233560
2343.000000	0.232614
2344.000000	0.232175
2345.000000	0.230740
2346.000000	0.230588
2347.000000	0.230283
2348.000000	0.228990
2349.000000	0.227823
2350.000000	0.227406
2351.000000	0.227657
2352.000000	0.225542
2353.000000	0.221962
2354.000000	0.219561
2355.000000	0.216627
2356.000000	0.215213
2357.000000	0.215804
2358.000000	0.216362
2359.000000	0.214994
2360.000000	0.217151
2361.000000	0.217610
2362.000000	0.214023
2363.000000	0.213864
2364.000000	0.210259
2365.000000	0.205682
2366.000000	0.203378
2367.000000	0.201826
2368.000000	0.200455
2369.000000	0.199817
2370.000000	0.200542
2371.000000	0.200739
2372.000000	0.200883
2373.000000	0.200849
2374.000000	0.198083
2375.000000	0.190784
2376.000000	0.188882
2377.000000	0.188979
2378.000000	0.187769
2379.000000	0.197744
2380.000000	0.202117
2381.000000	0.199389
2382.000000	0.201265
2383.000000	0.197566
2384.000000	0.195460
2385.000000	0.193092
2386.000000	0.187170
2387.000000	0.186299
2388.000000	0.183822
2389.000000	0.183713
2390.000000	0.185712
2391.000000	0.180215
2392.000000	0.178592
2393.000000	0.174791
2394.000000	0.173178
2395.000000	0.180780
2396.000000	0.176016
2397.000000	0.173451
2398.000000	0.173772
2399.000000	0.167139
2400.000000	0.165869
2401.000000	0.165166
2402.000000	0.165076
2403.000000	0.164393
2404.000000	0.163585
2405.000000	0.165840
2406.000000	0.164330
2407.000000	0.161210
2408.000000	0.157970
2409.000000	0.153055
2410.000000	0.152923
2411.000000	0.156382
2412.000000	0.163869
2413.000000	0.169941
2414.000000	0.165502
2415.000000	0.163433
2416.000000	0.164733
2417.000000	0.156929
2418.000000	0.150427
2419.000000	0.150260
2420.000000	0.151352
2421.000000	0.157591
2422.000000	0.167294
2423.000000	0.178138
2424.000000	0.180254
2425.000000	0.180739
2426.000000	0.180408
2427.000000	0.175328
2428.000000	0.173317
2429.000000	0.162021
2430.000000	0.160248
2431.000000	0.163187
2432.000000	0.159649
2433.000000	0.171099
2434.000000	0.172488
2435.000000	0.165293
2436.000000	0.167938
2437.000000	0.174498
2438.000000	0.184341
2439.000000	0.192802
2440.000000	0.190644
2441.000000	0.173395
2442.000000	0.166402
2443.000000	0.158798
2444.000000	0.150136
2445.000000	0.161456
2446.000000	0.161426
2447.000000	0.161347
2448.000000	0.171466
2449.000000	0.163938
2450.000000	0.159538
2451.000000	0.161861
2452.000000	0.155984
2453.000000	0.156990
2454.000000	0.155401
2455.000000	0.161577
2456.000000	0.163407
2457.000000	0.155767
2458.000000	0.157146
2459.000000	0.136143
2460.000000	0.132661
2461.000000	0.143011
2462.000000	0.124896
2463.000000	0.119059
2464.000000	0.106317
2465.000000	0.095851
2466.000000	0.116001
2467.000000	0.132746
2468.000000	0.155257
2469.000000	0.168302
2470.000000	0.174350
2471.000000	0.188842
2472.000000	0.201142
2473.000000	0.208293
2474.000000	0.188366
2475.000000	0.177855
2476.000000	0.161984
2477.000000	0.153194
2478.000000	0.177827
2479.000000	0.190246
2480.000000	0.201852
2481.000000	0.204395
2482.000000	0.199402
2483.000000	0.203386
2484.000000	0.190390
2485.000000	0.148964
2486.000000	0.111820
2487.000000	0.091840
2488.000000	0.073690
2489.000000	0.085282
2490.000000	0.125477
2491.000000	0.140160
2492.000000	0.144699
2493.000000	0.151231
2494.000000	0.168069
2495.000000	0.177342
2496.000000	0.177787
2497.000000	0.189363
2498.000000	0.193140
2499.000000	0.184270
2500.000000	0.179814
