# Wavelength	Nau-2_50_FV7_50_00001.asd.rts.txt
350.000000	0.121636
351.000000	0.139175
352.000000	0.135607
353.000000	0.122221
354.000000	0.112168
355.000000	0.117841
356.000000	0.115865
357.000000	0.106506
358.000000	0.103958
359.000000	0.112547
360.000000	0.123964
361.000000	0.127688
362.000000	0.120258
363.000000	0.119259
364.000000	0.130719
365.000000	0.131688
366.000000	0.127478
367.000000	0.121424
368.000000	0.115766
369.000000	0.120736
370.000000	0.125033
371.000000	0.114904
372.000000	0.111148
373.000000	0.114170
374.000000	0.120390
375.000000	0.122231
376.000000	0.120264
377.000000	0.117364
378.000000	0.119088
379.000000	0.120887
380.000000	0.121053
381.000000	0.119619
382.000000	0.119146
383.000000	0.120421
384.000000	0.123070
385.000000	0.124198
386.000000	0.124226
387.000000	0.123531
388.000000	0.122051
389.000000	0.122381
390.000000	0.123866
391.000000	0.124667
392.000000	0.126376
393.000000	0.126947
394.000000	0.125532
395.000000	0.126631
396.000000	0.126522
397.000000	0.124867
398.000000	0.126274
399.000000	0.125456
400.000000	0.124291
401.000000	0.127127
402.000000	0.127229
403.000000	0.126393
404.000000	0.127022
405.000000	0.127223
406.000000	0.127112
407.000000	0.127027
408.000000	0.127573
409.000000	0.127660
410.000000	0.127600
411.000000	0.128466
412.000000	0.128765
413.000000	0.129052
414.000000	0.130060
415.000000	0.130834
416.000000	0.130709
417.000000	0.129973
418.000000	0.131031
419.000000	0.131683
420.000000	0.131621
421.000000	0.132046
422.000000	0.132328
423.000000	0.132514
424.000000	0.132814
425.000000	0.132584
426.000000	0.132501
427.000000	0.133040
428.000000	0.133718
429.000000	0.134205
430.000000	0.134460
431.000000	0.134774
432.000000	0.135392
433.000000	0.135920
434.000000	0.135744
435.000000	0.135596
436.000000	0.135941
437.000000	0.136802
438.000000	0.136573
439.000000	0.136530
440.000000	0.137199
441.000000	0.137211
442.000000	0.137649
443.000000	0.138240
444.000000	0.137868
445.000000	0.137936
446.000000	0.138534
447.000000	0.139214
448.000000	0.139429
449.000000	0.139600
450.000000	0.140051
451.000000	0.140549
452.000000	0.140997
453.000000	0.141389
454.000000	0.141964
455.000000	0.142507
456.000000	0.142738
457.000000	0.142340
458.000000	0.142611
459.000000	0.143238
460.000000	0.143729
461.000000	0.144005
462.000000	0.144229
463.000000	0.144508
464.000000	0.145222
465.000000	0.145683
466.000000	0.145862
467.000000	0.146217
468.000000	0.146391
469.000000	0.146556
470.000000	0.147015
471.000000	0.147212
472.000000	0.147519
473.000000	0.148114
474.000000	0.148361
475.000000	0.148520
476.000000	0.148792
477.000000	0.149154
478.000000	0.149307
479.000000	0.149402
480.000000	0.149584
481.000000	0.150065
482.000000	0.150665
483.000000	0.151046
484.000000	0.151250
485.000000	0.151378
486.000000	0.151589
487.000000	0.151799
488.000000	0.152089
489.000000	0.152424
490.000000	0.152676
491.000000	0.152929
492.000000	0.153076
493.000000	0.152963
494.000000	0.153193
495.000000	0.153398
496.000000	0.153355
497.000000	0.153678
498.000000	0.153899
499.000000	0.153920
500.000000	0.153941
501.000000	0.154046
502.000000	0.154276
503.000000	0.154578
504.000000	0.154873
505.000000	0.155051
506.000000	0.155087
507.000000	0.155304
508.000000	0.155654
509.000000	0.156014
510.000000	0.156214
511.000000	0.156538
512.000000	0.156977
513.000000	0.157249
514.000000	0.157628
515.000000	0.158093
516.000000	0.158497
517.000000	0.158861
518.000000	0.159226
519.000000	0.159591
520.000000	0.160074
521.000000	0.160467
522.000000	0.160772
523.000000	0.161304
524.000000	0.161921
525.000000	0.162571
526.000000	0.163252
527.000000	0.163973
528.000000	0.164763
529.000000	0.165669
530.000000	0.166601
531.000000	0.167558
532.000000	0.168522
533.000000	0.169634
534.000000	0.170718
535.000000	0.171746
536.000000	0.172866
537.000000	0.173920
538.000000	0.174929
539.000000	0.175968
540.000000	0.176998
541.000000	0.177981
542.000000	0.178907
543.000000	0.179750
544.000000	0.180564
545.000000	0.181358
546.000000	0.182215
547.000000	0.183105
548.000000	0.184033
549.000000	0.184967
550.000000	0.185955
551.000000	0.187037
552.000000	0.188200
553.000000	0.189389
554.000000	0.190624
555.000000	0.191940
556.000000	0.193394
557.000000	0.194823
558.000000	0.196231
559.000000	0.197562
560.000000	0.198925
561.000000	0.200358
562.000000	0.201747
563.000000	0.203065
564.000000	0.204396
565.000000	0.205741
566.000000	0.207076
567.000000	0.208288
568.000000	0.209313
569.000000	0.210236
570.000000	0.211132
571.000000	0.212021
572.000000	0.212900
573.000000	0.213590
574.000000	0.214155
575.000000	0.214782
576.000000	0.215436
577.000000	0.215899
578.000000	0.216111
579.000000	0.216413
580.000000	0.216737
581.000000	0.217012
582.000000	0.217178
583.000000	0.217271
584.000000	0.217345
585.000000	0.217470
586.000000	0.217443
587.000000	0.217340
588.000000	0.217273
589.000000	0.217120
590.000000	0.216943
591.000000	0.216795
592.000000	0.216668
593.000000	0.216465
594.000000	0.216184
595.000000	0.215926
596.000000	0.215616
597.000000	0.215279
598.000000	0.214905
599.000000	0.214536
600.000000	0.214149
601.000000	0.213678
602.000000	0.213265
603.000000	0.212901
604.000000	0.212552
605.000000	0.212116
606.000000	0.211604
607.000000	0.211043
608.000000	0.210484
609.000000	0.210050
610.000000	0.209688
611.000000	0.209306
612.000000	0.208965
613.000000	0.208600
614.000000	0.208207
615.000000	0.207847
616.000000	0.207516
617.000000	0.207195
618.000000	0.206919
619.000000	0.206575
620.000000	0.206218
621.000000	0.205992
622.000000	0.205632
623.000000	0.205255
624.000000	0.204975
625.000000	0.204691
626.000000	0.204405
627.000000	0.204130
628.000000	0.203876
629.000000	0.203737
630.000000	0.203592
631.000000	0.203399
632.000000	0.203317
633.000000	0.203237
634.000000	0.203033
635.000000	0.202880
636.000000	0.202779
637.000000	0.202703
638.000000	0.202667
639.000000	0.202569
640.000000	0.202475
641.000000	0.202488
642.000000	0.202504
643.000000	0.202519
644.000000	0.202556
645.000000	0.202593
646.000000	0.202675
647.000000	0.202802
648.000000	0.202884
649.000000	0.203049
650.000000	0.203302
651.000000	0.203532
652.000000	0.203737
653.000000	0.203980
654.000000	0.204297
655.000000	0.204611
656.000000	0.204932
657.000000	0.205242
658.000000	0.205570
659.000000	0.205888
660.000000	0.206198
661.000000	0.206592
662.000000	0.207029
663.000000	0.207503
664.000000	0.207956
665.000000	0.208447
666.000000	0.208993
667.000000	0.209568
668.000000	0.210142
669.000000	0.210686
670.000000	0.211229
671.000000	0.211925
672.000000	0.212588
673.000000	0.213185
674.000000	0.213813
675.000000	0.214537
676.000000	0.215312
677.000000	0.216076
678.000000	0.216886
679.000000	0.217698
680.000000	0.218510
681.000000	0.219420
682.000000	0.220388
683.000000	0.221334
684.000000	0.222296
685.000000	0.223277
686.000000	0.224280
687.000000	0.225281
688.000000	0.226363
689.000000	0.227474
690.000000	0.228592
691.000000	0.229736
692.000000	0.230906
693.000000	0.232107
694.000000	0.233205
695.000000	0.234323
696.000000	0.235500
697.000000	0.236739
698.000000	0.237999
699.000000	0.239278
700.000000	0.240584
701.000000	0.241886
702.000000	0.243248
703.000000	0.244651
704.000000	0.246007
705.000000	0.247409
706.000000	0.248840
707.000000	0.250315
708.000000	0.251770
709.000000	0.253200
710.000000	0.254635
711.000000	0.256117
712.000000	0.257618
713.000000	0.259118
714.000000	0.260554
715.000000	0.261993
716.000000	0.263465
717.000000	0.264961
718.000000	0.266465
719.000000	0.267971
720.000000	0.269489
721.000000	0.271046
722.000000	0.272532
723.000000	0.273976
724.000000	0.275438
725.000000	0.276873
726.000000	0.278344
727.000000	0.279806
728.000000	0.281289
729.000000	0.282744
730.000000	0.284097
731.000000	0.285454
732.000000	0.286815
733.000000	0.288201
734.000000	0.289543
735.000000	0.290887
736.000000	0.292320
737.000000	0.293694
738.000000	0.294947
739.000000	0.296206
740.000000	0.297409
741.000000	0.298612
742.000000	0.299774
743.000000	0.300871
744.000000	0.301984
745.000000	0.303083
746.000000	0.304149
747.000000	0.305089
748.000000	0.306077
749.000000	0.307077
750.000000	0.308028
751.000000	0.309008
752.000000	0.309896
753.000000	0.310717
754.000000	0.311605
755.000000	0.312473
756.000000	0.313298
757.000000	0.314030
758.000000	0.314736
759.000000	0.315407
760.000000	0.316003
761.000000	0.316742
762.000000	0.317372
763.000000	0.317910
764.000000	0.318610
765.000000	0.319226
766.000000	0.319773
767.000000	0.320305
768.000000	0.320825
769.000000	0.321308
770.000000	0.321764
771.000000	0.322245
772.000000	0.322701
773.000000	0.323101
774.000000	0.323560
775.000000	0.324010
776.000000	0.324382
777.000000	0.324645
778.000000	0.324950
779.000000	0.325252
780.000000	0.325535
781.000000	0.325786
782.000000	0.326058
783.000000	0.326417
784.000000	0.326722
785.000000	0.326967
786.000000	0.327167
787.000000	0.327330
788.000000	0.327468
789.000000	0.327610
790.000000	0.327745
791.000000	0.327883
792.000000	0.327964
793.000000	0.328018
794.000000	0.328080
795.000000	0.328151
796.000000	0.328182
797.000000	0.328180
798.000000	0.328222
799.000000	0.328257
800.000000	0.328325
801.000000	0.328469
802.000000	0.328579
803.000000	0.328621
804.000000	0.328642
805.000000	0.328701
806.000000	0.328686
807.000000	0.328690
808.000000	0.328737
809.000000	0.328774
810.000000	0.328797
811.000000	0.328779
812.000000	0.328646
813.000000	0.328614
814.000000	0.328690
815.000000	0.328717
816.000000	0.328647
817.000000	0.328549
818.000000	0.328443
819.000000	0.328500
820.000000	0.328549
821.000000	0.328445
822.000000	0.328251
823.000000	0.328087
824.000000	0.327972
825.000000	0.327988
826.000000	0.327954
827.000000	0.327850
828.000000	0.327753
829.000000	0.327760
830.000000	0.327693
831.000000	0.327593
832.000000	0.327441
833.000000	0.327296
834.000000	0.327136
835.000000	0.326980
836.000000	0.326855
837.000000	0.326743
838.000000	0.326655
839.000000	0.326574
840.000000	0.326408
841.000000	0.326217
842.000000	0.326049
843.000000	0.325979
844.000000	0.325911
845.000000	0.325761
846.000000	0.325552
847.000000	0.325398
848.000000	0.325256
849.000000	0.325084
850.000000	0.324852
851.000000	0.324558
852.000000	0.324287
853.000000	0.324129
854.000000	0.323909
855.000000	0.323755
856.000000	0.323669
857.000000	0.323616
858.000000	0.323572
859.000000	0.323433
860.000000	0.323218
861.000000	0.322978
862.000000	0.322801
863.000000	0.322674
864.000000	0.322477
865.000000	0.322216
866.000000	0.321924
867.000000	0.321554
868.000000	0.321253
869.000000	0.321037
870.000000	0.320968
871.000000	0.320906
872.000000	0.320746
873.000000	0.320410
874.000000	0.320063
875.000000	0.319818
876.000000	0.319661
877.000000	0.319433
878.000000	0.319141
879.000000	0.318891
880.000000	0.318604
881.000000	0.318332
882.000000	0.318126
883.000000	0.317960
884.000000	0.317718
885.000000	0.317582
886.000000	0.317361
887.000000	0.316994
888.000000	0.316603
889.000000	0.316317
890.000000	0.316079
891.000000	0.315955
892.000000	0.315715
893.000000	0.315350
894.000000	0.315036
895.000000	0.314802
896.000000	0.314571
897.000000	0.314381
898.000000	0.314255
899.000000	0.313917
900.000000	0.313593
901.000000	0.313348
902.000000	0.313118
903.000000	0.312851
904.000000	0.312623
905.000000	0.312397
906.000000	0.312065
907.000000	0.311740
908.000000	0.311520
909.000000	0.311295
910.000000	0.311157
911.000000	0.310904
912.000000	0.310443
913.000000	0.310201
914.000000	0.310009
915.000000	0.309757
916.000000	0.309250
917.000000	0.309009
918.000000	0.308761
919.000000	0.308328
920.000000	0.308259
921.000000	0.308102
922.000000	0.307789
923.000000	0.307431
924.000000	0.307101
925.000000	0.306860
926.000000	0.306694
927.000000	0.306363
928.000000	0.306001
929.000000	0.305740
930.000000	0.305643
931.000000	0.305419
932.000000	0.305094
933.000000	0.304759
934.000000	0.304454
935.000000	0.304180
936.000000	0.303909
937.000000	0.303527
938.000000	0.303130
939.000000	0.302901
940.000000	0.302756
941.000000	0.302609
942.000000	0.302432
943.000000	0.302184
944.000000	0.301815
945.000000	0.301705
946.000000	0.301530
947.000000	0.301219
948.000000	0.300773
949.000000	0.300484
950.000000	0.300263
951.000000	0.300054
952.000000	0.299969
953.000000	0.299938
954.000000	0.299674
955.000000	0.299058
956.000000	0.298730
957.000000	0.298666
958.000000	0.298667
959.000000	0.298574
960.000000	0.298266
961.000000	0.297858
962.000000	0.297461
963.000000	0.297201
964.000000	0.296821
965.000000	0.296587
966.000000	0.296537
967.000000	0.296237
968.000000	0.295969
969.000000	0.295756
970.000000	0.295606
971.000000	0.295323
972.000000	0.295121
973.000000	0.294996
974.000000	0.294829
975.000000	0.294638
976.000000	0.294569
977.000000	0.294627
978.000000	0.294360
979.000000	0.294223
980.000000	0.293979
981.000000	0.293643
982.000000	0.293504
983.000000	0.293230
984.000000	0.292930
985.000000	0.293004
986.000000	0.292602
987.000000	0.292242
988.000000	0.292249
989.000000	0.292363
990.000000	0.292239
991.000000	0.292023
992.000000	0.292021
993.000000	0.292090
994.000000	0.291836
995.000000	0.291472
996.000000	0.291266
997.000000	0.291292
998.000000	0.291369
999.000000	0.291437
1000.000000	0.291426
1001.000000	0.291891
1002.000000	0.291874
1003.000000	0.290467
1004.000000	0.289928
1005.000000	0.289854
1006.000000	0.289289
1007.000000	0.288405
1008.000000	0.288523
1009.000000	0.288806
1010.000000	0.289328
1011.000000	0.290047
1012.000000	0.290095
1013.000000	0.289761
1014.000000	0.289370
1015.000000	0.289129
1016.000000	0.289234
1017.000000	0.289136
1018.000000	0.288555
1019.000000	0.288555
1020.000000	0.289172
1021.000000	0.289271
1022.000000	0.289657
1023.000000	0.290028
1024.000000	0.290190
1025.000000	0.289779
1026.000000	0.289867
1027.000000	0.289920
1028.000000	0.289940
1029.000000	0.290217
1030.000000	0.289791
1031.000000	0.289450
1032.000000	0.289466
1033.000000	0.289430
1034.000000	0.289361
1035.000000	0.289379
1036.000000	0.289720
1037.000000	0.290262
1038.000000	0.290445
1039.000000	0.290716
1040.000000	0.291654
1041.000000	0.291797
1042.000000	0.291217
1043.000000	0.291321
1044.000000	0.291252
1045.000000	0.291210
1046.000000	0.291392
1047.000000	0.291517
1048.000000	0.291771
1049.000000	0.291892
1050.000000	0.291939
1051.000000	0.292016
1052.000000	0.291686
1053.000000	0.291881
1054.000000	0.292803
1055.000000	0.293152
1056.000000	0.293458
1057.000000	0.294115
1058.000000	0.293906
1059.000000	0.293474
1060.000000	0.293491
1061.000000	0.293815
1062.000000	0.294056
1063.000000	0.294323
1064.000000	0.294689
1065.000000	0.295053
1066.000000	0.295356
1067.000000	0.295904
1068.000000	0.296046
1069.000000	0.295634
1070.000000	0.295662
1071.000000	0.295738
1072.000000	0.295896
1073.000000	0.296357
1074.000000	0.297006
1075.000000	0.297088
1076.000000	0.297060
1077.000000	0.296923
1078.000000	0.296849
1079.000000	0.297131
1080.000000	0.297861
1081.000000	0.298176
1082.000000	0.298753
1083.000000	0.298991
1084.000000	0.298850
1085.000000	0.298861
1086.000000	0.298610
1087.000000	0.298827
1088.000000	0.299324
1089.000000	0.299592
1090.000000	0.300258
1091.000000	0.300315
1092.000000	0.300098
1093.000000	0.300483
1094.000000	0.300597
1095.000000	0.300627
1096.000000	0.300928
1097.000000	0.301303
1098.000000	0.301616
1099.000000	0.302043
1100.000000	0.302488
1101.000000	0.302965
1102.000000	0.303165
1103.000000	0.303164
1104.000000	0.303407
1105.000000	0.303419
1106.000000	0.303640
1107.000000	0.304283
1108.000000	0.304682
1109.000000	0.305188
1110.000000	0.305392
1111.000000	0.305437
1112.000000	0.305223
1113.000000	0.305291
1114.000000	0.305183
1115.000000	0.305356
1116.000000	0.305935
1117.000000	0.306166
1118.000000	0.306324
1119.000000	0.306374
1120.000000	0.306092
1121.000000	0.306181
1122.000000	0.306595
1123.000000	0.306950
1124.000000	0.307219
1125.000000	0.307522
1126.000000	0.307616
1127.000000	0.307737
1128.000000	0.307883
1129.000000	0.308194
1130.000000	0.308366
1131.000000	0.308420
1132.000000	0.308602
1133.000000	0.308976
1134.000000	0.309110
1135.000000	0.309109
1136.000000	0.309168
1137.000000	0.309066
1138.000000	0.309055
1139.000000	0.309111
1140.000000	0.309406
1141.000000	0.309902
1142.000000	0.310186
1143.000000	0.310514
1144.000000	0.310861
1145.000000	0.311009
1146.000000	0.310853
1147.000000	0.310777
1148.000000	0.310575
1149.000000	0.310528
1150.000000	0.310394
1151.000000	0.310467
1152.000000	0.310706
1153.000000	0.310871
1154.000000	0.311021
1155.000000	0.311183
1156.000000	0.311451
1157.000000	0.311535
1158.000000	0.311405
1159.000000	0.311448
1160.000000	0.311408
1161.000000	0.311456
1162.000000	0.311735
1163.000000	0.312094
1164.000000	0.312215
1165.000000	0.312413
1166.000000	0.312552
1167.000000	0.312583
1168.000000	0.312632
1169.000000	0.312633
1170.000000	0.312821
1171.000000	0.313229
1172.000000	0.313427
1173.000000	0.313613
1174.000000	0.313716
1175.000000	0.313574
1176.000000	0.313533
1177.000000	0.313654
1178.000000	0.313727
1179.000000	0.313733
1180.000000	0.313726
1181.000000	0.313807
1182.000000	0.313848
1183.000000	0.313905
1184.000000	0.314074
1185.000000	0.314242
1186.000000	0.314441
1187.000000	0.314602
1188.000000	0.314833
1189.000000	0.314896
1190.000000	0.314953
1191.000000	0.314961
1192.000000	0.314911
1193.000000	0.315031
1194.000000	0.315040
1195.000000	0.315115
1196.000000	0.315280
1197.000000	0.315336
1198.000000	0.315338
1199.000000	0.315432
1200.000000	0.315513
1201.000000	0.315659
1202.000000	0.315648
1203.000000	0.315618
1204.000000	0.315605
1205.000000	0.315554
1206.000000	0.315616
1207.000000	0.316033
1208.000000	0.316079
1209.000000	0.316056
1210.000000	0.316014
1211.000000	0.315792
1212.000000	0.315722
1213.000000	0.315725
1214.000000	0.315783
1215.000000	0.315925
1216.000000	0.315997
1217.000000	0.316034
1218.000000	0.316065
1219.000000	0.316049
1220.000000	0.316157
1221.000000	0.316312
1222.000000	0.316510
1223.000000	0.316597
1224.000000	0.316607
1225.000000	0.316582
1226.000000	0.316539
1227.000000	0.316652
1228.000000	0.316954
1229.000000	0.317012
1230.000000	0.316961
1231.000000	0.316908
1232.000000	0.316782
1233.000000	0.316925
1234.000000	0.317325
1235.000000	0.317490
1236.000000	0.317526
1237.000000	0.317609
1238.000000	0.317492
1239.000000	0.317481
1240.000000	0.317529
1241.000000	0.317697
1242.000000	0.317770
1243.000000	0.317812
1244.000000	0.317951
1245.000000	0.318134
1246.000000	0.318237
1247.000000	0.318470
1248.000000	0.318653
1249.000000	0.318662
1250.000000	0.318659
1251.000000	0.318631
1252.000000	0.318661
1253.000000	0.318747
1254.000000	0.318805
1255.000000	0.318905
1256.000000	0.318940
1257.000000	0.318932
1258.000000	0.319003
1259.000000	0.319047
1260.000000	0.319116
1261.000000	0.319101
1262.000000	0.319100
1263.000000	0.319049
1264.000000	0.319200
1265.000000	0.319332
1266.000000	0.319518
1267.000000	0.319708
1268.000000	0.319575
1269.000000	0.319358
1270.000000	0.319481
1271.000000	0.319660
1272.000000	0.319764
1273.000000	0.319901
1274.000000	0.319933
1275.000000	0.319957
1276.000000	0.319915
1277.000000	0.320046
1278.000000	0.320137
1279.000000	0.320195
1280.000000	0.320227
1281.000000	0.320229
1282.000000	0.320274
1283.000000	0.320387
1284.000000	0.320437
1285.000000	0.320495
1286.000000	0.320545
1287.000000	0.320609
1288.000000	0.320633
1289.000000	0.320583
1290.000000	0.320544
1291.000000	0.320498
1292.000000	0.320456
1293.000000	0.320449
1294.000000	0.320380
1295.000000	0.320361
1296.000000	0.320360
1297.000000	0.320395
1298.000000	0.320485
1299.000000	0.320529
1300.000000	0.320514
1301.000000	0.320429
1302.000000	0.320445
1303.000000	0.320625
1304.000000	0.320672
1305.000000	0.320958
1306.000000	0.320988
1307.000000	0.320760
1308.000000	0.320730
1309.000000	0.320657
1310.000000	0.320698
1311.000000	0.320899
1312.000000	0.321114
1313.000000	0.321172
1314.000000	0.321107
1315.000000	0.320980
1316.000000	0.320906
1317.000000	0.321057
1318.000000	0.321265
1319.000000	0.321289
1320.000000	0.321337
1321.000000	0.321281
1322.000000	0.321109
1323.000000	0.321057
1324.000000	0.321066
1325.000000	0.321102
1326.000000	0.321244
1327.000000	0.321385
1328.000000	0.321400
1329.000000	0.321344
1330.000000	0.321127
1331.000000	0.321092
1332.000000	0.321203
1333.000000	0.321192
1334.000000	0.321240
1335.000000	0.321238
1336.000000	0.321070
1337.000000	0.321040
1338.000000	0.321032
1339.000000	0.321082
1340.000000	0.321081
1341.000000	0.321078
1342.000000	0.321000
1343.000000	0.320935
1344.000000	0.320924
1345.000000	0.320946
1346.000000	0.321095
1347.000000	0.321022
1348.000000	0.320974
1349.000000	0.320867
1350.000000	0.320815
1351.000000	0.320977
1352.000000	0.320966
1353.000000	0.320919
1354.000000	0.321041
1355.000000	0.321013
1356.000000	0.321149
1357.000000	0.321230
1358.000000	0.321044
1359.000000	0.320899
1360.000000	0.320796
1361.000000	0.320654
1362.000000	0.320618
1363.000000	0.320741
1364.000000	0.320764
1365.000000	0.320711
1366.000000	0.320717
1367.000000	0.320789
1368.000000	0.320639
1369.000000	0.320630
1370.000000	0.320579
1371.000000	0.320367
1372.000000	0.320200
1373.000000	0.320056
1374.000000	0.319988
1375.000000	0.319871
1376.000000	0.319792
1377.000000	0.319716
1378.000000	0.319507
1379.000000	0.319241
1380.000000	0.319043
1381.000000	0.318753
1382.000000	0.318462
1383.000000	0.318224
1384.000000	0.317756
1385.000000	0.317368
1386.000000	0.317077
1387.000000	0.316524
1388.000000	0.315835
1389.000000	0.315202
1390.000000	0.314517
1391.000000	0.313793
1392.000000	0.313338
1393.000000	0.312699
1394.000000	0.311974
1395.000000	0.311145
1396.000000	0.310264
1397.000000	0.309308
1398.000000	0.308121
1399.000000	0.307199
1400.000000	0.306359
1401.000000	0.305428
1402.000000	0.304605
1403.000000	0.303759
1404.000000	0.302747
1405.000000	0.301923
1406.000000	0.301342
1407.000000	0.300943
1408.000000	0.300540
1409.000000	0.300021
1410.000000	0.299539
1411.000000	0.299062
1412.000000	0.298759
1413.000000	0.298703
1414.000000	0.298681
1415.000000	0.298590
1416.000000	0.298448
1417.000000	0.298420
1418.000000	0.298391
1419.000000	0.298492
1420.000000	0.298551
1421.000000	0.298618
1422.000000	0.298820
1423.000000	0.298967
1424.000000	0.299001
1425.000000	0.299201
1426.000000	0.299251
1427.000000	0.299129
1428.000000	0.299184
1429.000000	0.299250
1430.000000	0.299249
1431.000000	0.299319
1432.000000	0.299372
1433.000000	0.299407
1434.000000	0.299473
1435.000000	0.299664
1436.000000	0.299858
1437.000000	0.300001
1438.000000	0.300180
1439.000000	0.300455
1440.000000	0.300723
1441.000000	0.301071
1442.000000	0.301443
1443.000000	0.301740
1444.000000	0.302103
1445.000000	0.302630
1446.000000	0.303117
1447.000000	0.303758
1448.000000	0.304384
1449.000000	0.304939
1450.000000	0.305495
1451.000000	0.305972
1452.000000	0.306417
1453.000000	0.306799
1454.000000	0.307186
1455.000000	0.307556
1456.000000	0.307963
1457.000000	0.308390
1458.000000	0.308649
1459.000000	0.308860
1460.000000	0.309015
1461.000000	0.309077
1462.000000	0.309178
1463.000000	0.309352
1464.000000	0.309656
1465.000000	0.310051
1466.000000	0.310326
1467.000000	0.310523
1468.000000	0.310744
1469.000000	0.310976
1470.000000	0.311199
1471.000000	0.311481
1472.000000	0.311681
1473.000000	0.311851
1474.000000	0.312049
1475.000000	0.312385
1476.000000	0.312737
1477.000000	0.313069
1478.000000	0.313430
1479.000000	0.313739
1480.000000	0.313935
1481.000000	0.314149
1482.000000	0.314468
1483.000000	0.314679
1484.000000	0.314804
1485.000000	0.314961
1486.000000	0.315010
1487.000000	0.315202
1488.000000	0.315527
1489.000000	0.315779
1490.000000	0.316007
1491.000000	0.316098
1492.000000	0.315913
1493.000000	0.315969
1494.000000	0.316045
1495.000000	0.316154
1496.000000	0.316421
1497.000000	0.316610
1498.000000	0.316776
1499.000000	0.316890
1500.000000	0.317090
1501.000000	0.317232
1502.000000	0.317328
1503.000000	0.317404
1504.000000	0.317431
1505.000000	0.317586
1506.000000	0.317739
1507.000000	0.317874
1508.000000	0.318059
1509.000000	0.318157
1510.000000	0.318262
1511.000000	0.318408
1512.000000	0.318556
1513.000000	0.318615
1514.000000	0.318708
1515.000000	0.318772
1516.000000	0.318834
1517.000000	0.318930
1518.000000	0.318961
1519.000000	0.319052
1520.000000	0.319120
1521.000000	0.319136
1522.000000	0.319262
1523.000000	0.319272
1524.000000	0.319234
1525.000000	0.319361
1526.000000	0.319452
1527.000000	0.319587
1528.000000	0.319796
1529.000000	0.319855
1530.000000	0.319829
1531.000000	0.319873
1532.000000	0.319980
1533.000000	0.320021
1534.000000	0.320092
1535.000000	0.320264
1536.000000	0.320211
1537.000000	0.320234
1538.000000	0.320350
1539.000000	0.320318
1540.000000	0.320351
1541.000000	0.320441
1542.000000	0.320436
1543.000000	0.320433
1544.000000	0.320456
1545.000000	0.320439
1546.000000	0.320542
1547.000000	0.320630
1548.000000	0.320616
1549.000000	0.320666
1550.000000	0.320589
1551.000000	0.320629
1552.000000	0.320838
1553.000000	0.320842
1554.000000	0.320891
1555.000000	0.320940
1556.000000	0.320928
1557.000000	0.321073
1558.000000	0.321180
1559.000000	0.321261
1560.000000	0.321330
1561.000000	0.321389
1562.000000	0.321492
1563.000000	0.321749
1564.000000	0.321817
1565.000000	0.321799
1566.000000	0.321761
1567.000000	0.321687
1568.000000	0.321642
1569.000000	0.321713
1570.000000	0.321721
1571.000000	0.321636
1572.000000	0.321678
1573.000000	0.321832
1574.000000	0.321824
1575.000000	0.321796
1576.000000	0.321821
1577.000000	0.321697
1578.000000	0.321729
1579.000000	0.322039
1580.000000	0.322177
1581.000000	0.322387
1582.000000	0.322454
1583.000000	0.322349
1584.000000	0.322268
1585.000000	0.322169
1586.000000	0.322201
1587.000000	0.322324
1588.000000	0.322377
1589.000000	0.322506
1590.000000	0.322561
1591.000000	0.322589
1592.000000	0.322602
1593.000000	0.322576
1594.000000	0.322558
1595.000000	0.322604
1596.000000	0.322564
1597.000000	0.322524
1598.000000	0.322487
1599.000000	0.322410
1600.000000	0.322301
1601.000000	0.322297
1602.000000	0.322274
1603.000000	0.322244
1604.000000	0.322184
1605.000000	0.322181
1606.000000	0.322062
1607.000000	0.321856
1608.000000	0.321731
1609.000000	0.321623
1610.000000	0.321608
1611.000000	0.321738
1612.000000	0.321758
1613.000000	0.321894
1614.000000	0.321950
1615.000000	0.321988
1616.000000	0.322051
1617.000000	0.322058
1618.000000	0.322074
1619.000000	0.322072
1620.000000	0.322012
1621.000000	0.321949
1622.000000	0.322017
1623.000000	0.322017
1624.000000	0.322080
1625.000000	0.322175
1626.000000	0.322146
1627.000000	0.322074
1628.000000	0.322089
1629.000000	0.322106
1630.000000	0.322100
1631.000000	0.321987
1632.000000	0.321979
1633.000000	0.322067
1634.000000	0.322041
1635.000000	0.322048
1636.000000	0.322086
1637.000000	0.322086
1638.000000	0.322019
1639.000000	0.322086
1640.000000	0.322051
1641.000000	0.321861
1642.000000	0.321848
1643.000000	0.322055
1644.000000	0.322028
1645.000000	0.321922
1646.000000	0.321816
1647.000000	0.321530
1648.000000	0.321492
1649.000000	0.321794
1650.000000	0.321849
1651.000000	0.321951
1652.000000	0.321984
1653.000000	0.321728
1654.000000	0.321765
1655.000000	0.321902
1656.000000	0.321914
1657.000000	0.322090
1658.000000	0.322071
1659.000000	0.321978
1660.000000	0.322043
1661.000000	0.322019
1662.000000	0.322071
1663.000000	0.322238
1664.000000	0.322295
1665.000000	0.322351
1666.000000	0.322316
1667.000000	0.322068
1668.000000	0.322002
1669.000000	0.321880
1670.000000	0.321800
1671.000000	0.321962
1672.000000	0.322052
1673.000000	0.322046
1674.000000	0.322195
1675.000000	0.322338
1676.000000	0.322335
1677.000000	0.322303
1678.000000	0.322166
1679.000000	0.322069
1680.000000	0.321901
1681.000000	0.321816
1682.000000	0.321960
1683.000000	0.321981
1684.000000	0.322122
1685.000000	0.322294
1686.000000	0.322084
1687.000000	0.322005
1688.000000	0.321895
1689.000000	0.321742
1690.000000	0.321790
1691.000000	0.321908
1692.000000	0.321934
1693.000000	0.321846
1694.000000	0.321735
1695.000000	0.321651
1696.000000	0.321643
1697.000000	0.321628
1698.000000	0.321771
1699.000000	0.321820
1700.000000	0.321819
1701.000000	0.321879
1702.000000	0.321643
1703.000000	0.321546
1704.000000	0.321760
1705.000000	0.321730
1706.000000	0.321574
1707.000000	0.321580
1708.000000	0.321522
1709.000000	0.321401
1710.000000	0.321560
1711.000000	0.321561
1712.000000	0.321258
1713.000000	0.321231
1714.000000	0.321436
1715.000000	0.321546
1716.000000	0.321823
1717.000000	0.321906
1718.000000	0.321752
1719.000000	0.321717
1720.000000	0.321768
1721.000000	0.321733
1722.000000	0.321652
1723.000000	0.321656
1724.000000	0.321646
1725.000000	0.321706
1726.000000	0.321891
1727.000000	0.321861
1728.000000	0.321646
1729.000000	0.321420
1730.000000	0.321137
1731.000000	0.321054
1732.000000	0.321134
1733.000000	0.321129
1734.000000	0.321046
1735.000000	0.320990
1736.000000	0.320808
1737.000000	0.320745
1738.000000	0.320833
1739.000000	0.320791
1740.000000	0.320711
1741.000000	0.320562
1742.000000	0.320308
1743.000000	0.320299
1744.000000	0.320344
1745.000000	0.320283
1746.000000	0.320297
1747.000000	0.320264
1748.000000	0.320168
1749.000000	0.320212
1750.000000	0.320143
1751.000000	0.319972
1752.000000	0.320005
1753.000000	0.319986
1754.000000	0.320005
1755.000000	0.320131
1756.000000	0.320156
1757.000000	0.320100
1758.000000	0.320125
1759.000000	0.320121
1760.000000	0.320144
1761.000000	0.320297
1762.000000	0.320235
1763.000000	0.320041
1764.000000	0.319897
1765.000000	0.319551
1766.000000	0.319393
1767.000000	0.319277
1768.000000	0.319174
1769.000000	0.319274
1770.000000	0.319283
1771.000000	0.319229
1772.000000	0.319201
1773.000000	0.319070
1774.000000	0.319038
1775.000000	0.319196
1776.000000	0.319154
1777.000000	0.319007
1778.000000	0.318876
1779.000000	0.318561
1780.000000	0.318553
1781.000000	0.318692
1782.000000	0.318717
1783.000000	0.318890
1784.000000	0.318964
1785.000000	0.318927
1786.000000	0.318897
1787.000000	0.318888
1788.000000	0.318936
1789.000000	0.318930
1790.000000	0.318700
1791.000000	0.318597
1792.000000	0.318421
1793.000000	0.318390
1794.000000	0.318802
1795.000000	0.318940
1796.000000	0.318904
1797.000000	0.318878
1798.000000	0.318594
1799.000000	0.318587
1800.000000	0.318918
1801.000000	0.318988
1802.000000	0.318725
1803.000000	0.318387
1804.000000	0.318261
1805.000000	0.318112
1806.000000	0.318249
1807.000000	0.318276
1808.000000	0.318773
1809.000000	0.320116
1810.000000	0.321142
1811.000000	0.321145
1812.000000	0.320699
1813.000000	0.320836
1814.000000	0.320141
1815.000000	0.320037
1816.000000	0.321190
1817.000000	0.321273
1818.000000	0.320782
1819.000000	0.320544
1820.000000	0.319555
1821.000000	0.318377
1822.000000	0.317991
1823.000000	0.317523
1824.000000	0.317423
1825.000000	0.318328
1826.000000	0.318607
1827.000000	0.318655
1828.000000	0.318584
1829.000000	0.317881
1830.000000	0.317306
1831.000000	0.317449
1832.000000	0.317863
1833.000000	0.317991
1834.000000	0.318941
1835.000000	0.318987
1836.000000	0.318016
1837.000000	0.317777
1838.000000	0.317347
1839.000000	0.317324
1840.000000	0.317969
1841.000000	0.317151
1842.000000	0.316984
1843.000000	0.316574
1844.000000	0.316924
1845.000000	0.317828
1846.000000	0.318395
1847.000000	0.319384
1848.000000	0.319511
1849.000000	0.319544
1850.000000	0.319398
1851.000000	0.319136
1852.000000	0.318680
1853.000000	0.318451
1854.000000	0.317926
1855.000000	0.317552
1856.000000	0.317474
1857.000000	0.316748
1858.000000	0.316112
1859.000000	0.315554
1860.000000	0.314742
1861.000000	0.314804
1862.000000	0.314412
1863.000000	0.313705
1864.000000	0.313433
1865.000000	0.313701
1866.000000	0.313172
1867.000000	0.312220
1868.000000	0.311996
1869.000000	0.311139
1870.000000	0.310358
1871.000000	0.310251
1872.000000	0.310070
1873.000000	0.309424
1874.000000	0.308414
1875.000000	0.307393
1876.000000	0.305972
1877.000000	0.303948
1878.000000	0.302550
1879.000000	0.301066
1880.000000	0.299362
1881.000000	0.298054
1882.000000	0.296452
1883.000000	0.294330
1884.000000	0.292097
1885.000000	0.289246
1886.000000	0.286728
1887.000000	0.284191
1888.000000	0.281452
1889.000000	0.278230
1890.000000	0.275690
1891.000000	0.273283
1892.000000	0.269824
1893.000000	0.267331
1894.000000	0.264953
1895.000000	0.262046
1896.000000	0.258440
1897.000000	0.256265
1898.000000	0.253964
1899.000000	0.251287
1900.000000	0.249333
1901.000000	0.246687
1902.000000	0.244628
1903.000000	0.243253
1904.000000	0.241943
1905.000000	0.241611
1906.000000	0.241342
1907.000000	0.241291
1908.000000	0.241539
1909.000000	0.242038
1910.000000	0.242703
1911.000000	0.243716
1912.000000	0.244579
1913.000000	0.246333
1914.000000	0.248511
1915.000000	0.249882
1916.000000	0.251432
1917.000000	0.252856
1918.000000	0.254172
1919.000000	0.255144
1920.000000	0.256425
1921.000000	0.257445
1922.000000	0.258350
1923.000000	0.258837
1924.000000	0.259211
1925.000000	0.260247
1926.000000	0.261175
1927.000000	0.262211
1928.000000	0.263016
1929.000000	0.263954
1930.000000	0.264479
1931.000000	0.264941
1932.000000	0.265279
1933.000000	0.265415
1934.000000	0.265493
1935.000000	0.265718
1936.000000	0.265613
1937.000000	0.265643
1938.000000	0.266349
1939.000000	0.267103
1940.000000	0.267903
1941.000000	0.268987
1942.000000	0.270315
1943.000000	0.270640
1944.000000	0.269905
1945.000000	0.269393
1946.000000	0.269267
1947.000000	0.269503
1948.000000	0.270103
1949.000000	0.270787
1950.000000	0.271421
1951.000000	0.271602
1952.000000	0.271405
1953.000000	0.271203
1954.000000	0.271465
1955.000000	0.271735
1956.000000	0.272157
1957.000000	0.272856
1958.000000	0.273067
1959.000000	0.273343
1960.000000	0.273455
1961.000000	0.273293
1962.000000	0.273380
1963.000000	0.273766
1964.000000	0.273695
1965.000000	0.273498
1966.000000	0.273276
1967.000000	0.272686
1968.000000	0.272577
1969.000000	0.273194
1970.000000	0.274086
1971.000000	0.275353
1972.000000	0.276470
1973.000000	0.276988
1974.000000	0.276929
1975.000000	0.277317
1976.000000	0.277645
1977.000000	0.277925
1978.000000	0.278056
1979.000000	0.278686
1980.000000	0.279378
1981.000000	0.279467
1982.000000	0.279863
1983.000000	0.280248
1984.000000	0.280552
1985.000000	0.280816
1986.000000	0.280828
1987.000000	0.280747
1988.000000	0.280934
1989.000000	0.280654
1990.000000	0.280957
1991.000000	0.281793
1992.000000	0.282287
1993.000000	0.282805
1994.000000	0.283218
1995.000000	0.283238
1996.000000	0.283015
1997.000000	0.283305
1998.000000	0.283954
1999.000000	0.284440
2000.000000	0.285076
2001.000000	0.285986
2002.000000	0.286613
2003.000000	0.287157
2004.000000	0.287585
2005.000000	0.287972
2006.000000	0.288195
2007.000000	0.287642
2008.000000	0.287359
2009.000000	0.286639
2010.000000	0.286752
2011.000000	0.287294
2012.000000	0.287591
2013.000000	0.288006
2014.000000	0.288646
2015.000000	0.289356
2016.000000	0.289669
2017.000000	0.290209
2018.000000	0.290861
2019.000000	0.290636
2020.000000	0.290537
2021.000000	0.290789
2022.000000	0.291160
2023.000000	0.291578
2024.000000	0.292599
2025.000000	0.293022
2026.000000	0.293037
2027.000000	0.293165
2028.000000	0.293075
2029.000000	0.292778
2030.000000	0.293013
2031.000000	0.293101
2032.000000	0.293389
2033.000000	0.294222
2034.000000	0.294731
2035.000000	0.295565
2036.000000	0.296016
2037.000000	0.296105
2038.000000	0.296465
2039.000000	0.297221
2040.000000	0.297323
2041.000000	0.297121
2042.000000	0.297641
2043.000000	0.297176
2044.000000	0.296830
2045.000000	0.296977
2046.000000	0.296655
2047.000000	0.296871
2048.000000	0.297422
2049.000000	0.297940
2050.000000	0.298855
2051.000000	0.298900
2052.000000	0.298179
2053.000000	0.297613
2054.000000	0.296815
2055.000000	0.295997
2056.000000	0.295685
2057.000000	0.296084
2058.000000	0.296943
2059.000000	0.297517
2060.000000	0.297947
2061.000000	0.298634
2062.000000	0.298774
2063.000000	0.298408
2064.000000	0.298244
2065.000000	0.298085
2066.000000	0.297979
2067.000000	0.298201
2068.000000	0.298390
2069.000000	0.298758
2070.000000	0.299273
2071.000000	0.299482
2072.000000	0.299195
2073.000000	0.298817
2074.000000	0.298170
2075.000000	0.298217
2076.000000	0.298972
2077.000000	0.299148
2078.000000	0.299524
2079.000000	0.299613
2080.000000	0.299123
2081.000000	0.299037
2082.000000	0.299291
2083.000000	0.299155
2084.000000	0.299300
2085.000000	0.299310
2086.000000	0.298692
2087.000000	0.298964
2088.000000	0.299822
2089.000000	0.299952
2090.000000	0.300194
2091.000000	0.300906
2092.000000	0.301100
2093.000000	0.300608
2094.000000	0.300785
2095.000000	0.301698
2096.000000	0.301757
2097.000000	0.301899
2098.000000	0.300868
2099.000000	0.299133
2100.000000	0.298374
2101.000000	0.298040
2102.000000	0.298964
2103.000000	0.300244
2104.000000	0.300849
2105.000000	0.301684
2106.000000	0.302485
2107.000000	0.302734
2108.000000	0.303139
2109.000000	0.303132
2110.000000	0.302261
2111.000000	0.301663
2112.000000	0.301140
2113.000000	0.299528
2114.000000	0.298693
2115.000000	0.297961
2116.000000	0.298523
2117.000000	0.299881
2118.000000	0.300975
2119.000000	0.302491
2120.000000	0.302794
2121.000000	0.301577
2122.000000	0.301602
2123.000000	0.301831
2124.000000	0.301647
2125.000000	0.302056
2126.000000	0.302034
2127.000000	0.300923
2128.000000	0.300564
2129.000000	0.300501
2130.000000	0.300524
2131.000000	0.300466
2132.000000	0.300518
2133.000000	0.300896
2134.000000	0.300739
2135.000000	0.300586
2136.000000	0.301006
2137.000000	0.301217
2138.000000	0.301318
2139.000000	0.301760
2140.000000	0.302734
2141.000000	0.302946
2142.000000	0.302914
2143.000000	0.302725
2144.000000	0.301895
2145.000000	0.301541
2146.000000	0.301237
2147.000000	0.301901
2148.000000	0.302097
2149.000000	0.303346
2150.000000	0.305126
2151.000000	0.305699
2152.000000	0.305055
2153.000000	0.304618
2154.000000	0.304134
2155.000000	0.302999
2156.000000	0.301977
2157.000000	0.301076
2158.000000	0.300378
2159.000000	0.299004
2160.000000	0.298861
2161.000000	0.299992
2162.000000	0.300795
2163.000000	0.302068
2164.000000	0.302832
2165.000000	0.303768
2166.000000	0.303790
2167.000000	0.303707
2168.000000	0.303413
2169.000000	0.302203
2170.000000	0.301705
2171.000000	0.300980
2172.000000	0.299725
2173.000000	0.299431
2174.000000	0.299968
2175.000000	0.299560
2176.000000	0.298974
2177.000000	0.299164
2178.000000	0.299421
2179.000000	0.299458
2180.000000	0.299996
2181.000000	0.300632
2182.000000	0.300430
2183.000000	0.300078
2184.000000	0.300575
2185.000000	0.300356
2186.000000	0.297970
2187.000000	0.296409
2188.000000	0.296258
2189.000000	0.296629
2190.000000	0.298546
2191.000000	0.301594
2192.000000	0.302676
2193.000000	0.302532
2194.000000	0.302256
2195.000000	0.300289
2196.000000	0.299567
2197.000000	0.299244
2198.000000	0.298903
2199.000000	0.299717
2200.000000	0.299790
2201.000000	0.299220
2202.000000	0.298409
2203.000000	0.296992
2204.000000	0.295192
2205.000000	0.292784
2206.000000	0.291999
2207.000000	0.292931
2208.000000	0.293209
2209.000000	0.293261
2210.000000	0.293928
2211.000000	0.294684
2212.000000	0.294793
2213.000000	0.294224
2214.000000	0.293633
2215.000000	0.292420
2216.000000	0.288840
2217.000000	0.288380
2218.000000	0.290176
2219.000000	0.290951
2220.000000	0.292507
2221.000000	0.293416
2222.000000	0.292480
2223.000000	0.293508
2224.000000	0.296070
2225.000000	0.298556
2226.000000	0.299087
2227.000000	0.298404
2228.000000	0.295170
2229.000000	0.292001
2230.000000	0.291532
2231.000000	0.292532
2232.000000	0.293684
2233.000000	0.295736
2234.000000	0.296826
2235.000000	0.297674
2236.000000	0.297734
2237.000000	0.296618
2238.000000	0.295596
2239.000000	0.294376
2240.000000	0.292421
2241.000000	0.290051
2242.000000	0.288716
2243.000000	0.286528
2244.000000	0.285732
2245.000000	0.286844
2246.000000	0.286596
2247.000000	0.285146
2248.000000	0.284920
2249.000000	0.285099
2250.000000	0.285458
2251.000000	0.285701
2252.000000	0.287468
2253.000000	0.287112
2254.000000	0.285309
2255.000000	0.285209
2256.000000	0.285052
2257.000000	0.285220
2258.000000	0.286185
2259.000000	0.286122
2260.000000	0.285731
2261.000000	0.285316
2262.000000	0.284390
2263.000000	0.283952
2264.000000	0.283663
2265.000000	0.283978
2266.000000	0.285608
2267.000000	0.285389
2268.000000	0.284687
2269.000000	0.283396
2270.000000	0.280250
2271.000000	0.278296
2272.000000	0.276315
2273.000000	0.275261
2274.000000	0.274675
2275.000000	0.274441
2276.000000	0.274923
2277.000000	0.275905
2278.000000	0.276548
2279.000000	0.276775
2280.000000	0.276420
2281.000000	0.276770
2282.000000	0.276150
2283.000000	0.273580
2284.000000	0.271354
2285.000000	0.268326
2286.000000	0.266265
2287.000000	0.265848
2288.000000	0.266833
2289.000000	0.266948
2290.000000	0.264833
2291.000000	0.264830
2292.000000	0.263132
2293.000000	0.261380
2294.000000	0.260043
2295.000000	0.258374
2296.000000	0.257797
2297.000000	0.258074
2298.000000	0.257133
2299.000000	0.255763
2300.000000	0.256590
2301.000000	0.257867
2302.000000	0.259557
2303.000000	0.264486
2304.000000	0.267120
2305.000000	0.267861
2306.000000	0.268547
2307.000000	0.269280
2308.000000	0.268391
2309.000000	0.267912
2310.000000	0.267858
2311.000000	0.268972
2312.000000	0.271160
2313.000000	0.273319
2314.000000	0.275729
2315.000000	0.277074
2316.000000	0.276290
2317.000000	0.273822
2318.000000	0.273219
2319.000000	0.272484
2320.000000	0.272575
2321.000000	0.273936
2322.000000	0.273227
2323.000000	0.274571
2324.000000	0.274772
2325.000000	0.275889
2326.000000	0.277755
2327.000000	0.276745
2328.000000	0.279126
2329.000000	0.277992
2330.000000	0.275110
2331.000000	0.274433
2332.000000	0.271628
2333.000000	0.272458
2334.000000	0.275786
2335.000000	0.278208
2336.000000	0.281949
2337.000000	0.282977
2338.000000	0.282427
2339.000000	0.282259
2340.000000	0.281072
2341.000000	0.279743
2342.000000	0.277713
2343.000000	0.276537
2344.000000	0.275370
2345.000000	0.274647
2346.000000	0.274077
2347.000000	0.272258
2348.000000	0.269375
2349.000000	0.269155
2350.000000	0.267252
2351.000000	0.270548
2352.000000	0.271263
2353.000000	0.269615
2354.000000	0.268785
2355.000000	0.269395
2356.000000	0.274042
2357.000000	0.276519
2358.000000	0.276997
2359.000000	0.275133
2360.000000	0.271297
2361.000000	0.269528
2362.000000	0.269776
2363.000000	0.272072
2364.000000	0.274087
2365.000000	0.274556
2366.000000	0.271452
2367.000000	0.268367
2368.000000	0.265479
2369.000000	0.260252
2370.000000	0.258722
2371.000000	0.258151
2372.000000	0.258748
2373.000000	0.260518
2374.000000	0.258108
2375.000000	0.257853
2376.000000	0.259358
2377.000000	0.259411
2378.000000	0.262189
2379.000000	0.264475
2380.000000	0.263031
2381.000000	0.261834
2382.000000	0.259065
2383.000000	0.256096
2384.000000	0.253689
2385.000000	0.249103
2386.000000	0.248763
2387.000000	0.247609
2388.000000	0.246163
2389.000000	0.248898
2390.000000	0.248243
2391.000000	0.248364
2392.000000	0.254842
2393.000000	0.260677
2394.000000	0.262191
2395.000000	0.261016
2396.000000	0.251726
2397.000000	0.241270
2398.000000	0.242110
2399.000000	0.250431
2400.000000	0.259416
2401.000000	0.262221
2402.000000	0.260086
2403.000000	0.254351
2404.000000	0.242651
2405.000000	0.237757
2406.000000	0.234938
2407.000000	0.229737
2408.000000	0.232208
2409.000000	0.234086
2410.000000	0.234542
2411.000000	0.239970
2412.000000	0.247628
2413.000000	0.254474
2414.000000	0.255522
2415.000000	0.251792
2416.000000	0.241088
2417.000000	0.233141
2418.000000	0.237038
2419.000000	0.234224
2420.000000	0.236063
2421.000000	0.238839
2422.000000	0.228770
2423.000000	0.230613
2424.000000	0.232084
2425.000000	0.228570
2426.000000	0.232198
2427.000000	0.229192
2428.000000	0.235066
2429.000000	0.244886
2430.000000	0.248225
2431.000000	0.252757
2432.000000	0.249102
2433.000000	0.241812
2434.000000	0.233745
2435.000000	0.231869
2436.000000	0.230902
2437.000000	0.234418
2438.000000	0.242556
2439.000000	0.244963
2440.000000	0.246667
2441.000000	0.237039
2442.000000	0.227033
2443.000000	0.220854
2444.000000	0.212649
2445.000000	0.221799
2446.000000	0.231274
2447.000000	0.232934
2448.000000	0.234500
2449.000000	0.232598
2450.000000	0.233895
2451.000000	0.235088
2452.000000	0.233442
2453.000000	0.239116
2454.000000	0.243174
2455.000000	0.224176
2456.000000	0.222614
2457.000000	0.230996
2458.000000	0.217292
2459.000000	0.210525
2460.000000	0.208168
2461.000000	0.203614
2462.000000	0.199762
2463.000000	0.201148
2464.000000	0.214254
2465.000000	0.207307
2466.000000	0.185596
2467.000000	0.196802
2468.000000	0.192394
2469.000000	0.165793
2470.000000	0.184408
2471.000000	0.206243
2472.000000	0.221523
2473.000000	0.256110
2474.000000	0.250542
2475.000000	0.220593
2476.000000	0.187772
2477.000000	0.161840
2478.000000	0.167620
2479.000000	0.147950
2480.000000	0.139646
2481.000000	0.143997
2482.000000	0.129570
2483.000000	0.191267
2484.000000	0.253871
2485.000000	0.276950
2486.000000	0.287967
2487.000000	0.247311
2488.000000	0.193407
2489.000000	0.166740
2490.000000	0.163635
2491.000000	0.207362
2492.000000	0.215113
2493.000000	0.221306
2494.000000	0.225590
2495.000000	0.202866
2496.000000	0.175561
2497.000000	0.140646
2498.000000	0.128347
2499.000000	0.127341
2500.000000	0.106421
