# Wavelength	Nau-2_50_FV7_50_00002.asd.rts.txt
350.000000	0.123907
351.000000	0.114546
352.000000	0.114110
353.000000	0.117912
354.000000	0.121591
355.000000	0.122137
356.000000	0.122506
357.000000	0.120494
358.000000	0.107391
359.000000	0.115438
360.000000	0.129336
361.000000	0.126685
362.000000	0.119022
363.000000	0.121620
364.000000	0.136342
365.000000	0.136342
366.000000	0.127705
367.000000	0.116945
368.000000	0.111954
369.000000	0.117006
370.000000	0.123440
371.000000	0.120845
372.000000	0.118849
373.000000	0.117961
374.000000	0.118092
375.000000	0.119859
376.000000	0.121919
377.000000	0.122930
378.000000	0.121476
379.000000	0.120380
380.000000	0.120018
381.000000	0.120283
382.000000	0.120616
383.000000	0.121108
384.000000	0.121927
385.000000	0.122629
386.000000	0.124375
387.000000	0.126409
388.000000	0.125548
389.000000	0.125419
390.000000	0.125791
391.000000	0.125255
392.000000	0.126997
393.000000	0.128247
394.000000	0.127073
395.000000	0.126537
396.000000	0.125810
397.000000	0.125223
398.000000	0.127285
399.000000	0.127088
400.000000	0.125784
401.000000	0.126811
402.000000	0.127101
403.000000	0.127121
404.000000	0.127637
405.000000	0.127643
406.000000	0.127636
407.000000	0.127924
408.000000	0.128408
409.000000	0.128784
410.000000	0.129182
411.000000	0.129968
412.000000	0.130500
413.000000	0.130783
414.000000	0.130974
415.000000	0.131044
416.000000	0.131107
417.000000	0.131348
418.000000	0.132278
419.000000	0.132646
420.000000	0.132296
421.000000	0.131925
422.000000	0.132544
423.000000	0.133495
424.000000	0.133668
425.000000	0.133112
426.000000	0.133009
427.000000	0.133920
428.000000	0.134198
429.000000	0.134541
430.000000	0.135111
431.000000	0.135342
432.000000	0.135549
433.000000	0.135838
434.000000	0.136271
435.000000	0.136218
436.000000	0.136344
437.000000	0.137142
438.000000	0.137183
439.000000	0.137204
440.000000	0.137671
441.000000	0.138225
442.000000	0.138808
443.000000	0.139119
444.000000	0.138775
445.000000	0.138536
446.000000	0.138950
447.000000	0.140119
448.000000	0.140412
449.000000	0.140298
450.000000	0.140393
451.000000	0.141089
452.000000	0.141683
453.000000	0.141980
454.000000	0.142474
455.000000	0.142931
456.000000	0.143255
457.000000	0.143322
458.000000	0.143519
459.000000	0.143882
460.000000	0.144349
461.000000	0.144611
462.000000	0.144865
463.000000	0.145241
464.000000	0.146134
465.000000	0.146540
466.000000	0.146441
467.000000	0.146532
468.000000	0.146741
469.000000	0.147010
470.000000	0.147372
471.000000	0.147852
472.000000	0.148203
473.000000	0.148340
474.000000	0.148543
475.000000	0.148715
476.000000	0.149033
477.000000	0.149844
478.000000	0.150075
479.000000	0.149991
480.000000	0.150192
481.000000	0.150658
482.000000	0.151133
483.000000	0.151317
484.000000	0.151648
485.000000	0.151932
486.000000	0.152188
487.000000	0.152541
488.000000	0.152674
489.000000	0.152675
490.000000	0.152895
491.000000	0.153278
492.000000	0.153603
493.000000	0.153589
494.000000	0.153596
495.000000	0.153772
496.000000	0.154075
497.000000	0.154141
498.000000	0.154182
499.000000	0.154334
500.000000	0.154544
501.000000	0.154685
502.000000	0.154815
503.000000	0.155020
504.000000	0.155221
505.000000	0.155429
506.000000	0.155660
507.000000	0.155823
508.000000	0.156114
509.000000	0.156540
510.000000	0.156782
511.000000	0.157024
512.000000	0.157321
513.000000	0.157611
514.000000	0.157975
515.000000	0.158367
516.000000	0.158684
517.000000	0.159075
518.000000	0.159509
519.000000	0.159895
520.000000	0.160283
521.000000	0.160627
522.000000	0.160971
523.000000	0.161500
524.000000	0.162089
525.000000	0.162695
526.000000	0.163335
527.000000	0.164057
528.000000	0.164854
529.000000	0.165731
530.000000	0.166597
531.000000	0.167507
532.000000	0.168475
533.000000	0.169622
534.000000	0.170688
535.000000	0.171630
536.000000	0.172655
537.000000	0.173676
538.000000	0.174710
539.000000	0.175783
540.000000	0.176736
541.000000	0.177625
542.000000	0.178543
543.000000	0.179433
544.000000	0.180271
545.000000	0.181043
546.000000	0.181922
547.000000	0.182774
548.000000	0.183617
549.000000	0.184505
550.000000	0.185474
551.000000	0.186564
552.000000	0.187749
553.000000	0.188865
554.000000	0.189986
555.000000	0.191216
556.000000	0.192686
557.000000	0.194067
558.000000	0.195349
559.000000	0.196683
560.000000	0.198047
561.000000	0.199449
562.000000	0.200789
563.000000	0.202072
564.000000	0.203339
565.000000	0.204553
566.000000	0.205758
567.000000	0.206905
568.000000	0.207946
569.000000	0.208888
570.000000	0.209815
571.000000	0.210697
572.000000	0.211413
573.000000	0.212004
574.000000	0.212565
575.000000	0.213232
576.000000	0.213805
577.000000	0.214208
578.000000	0.214485
579.000000	0.214773
580.000000	0.215117
581.000000	0.215472
582.000000	0.215646
583.000000	0.215712
584.000000	0.215769
585.000000	0.215942
586.000000	0.215899
587.000000	0.215764
588.000000	0.215724
589.000000	0.215565
590.000000	0.215385
591.000000	0.215252
592.000000	0.215121
593.000000	0.214915
594.000000	0.214638
595.000000	0.214397
596.000000	0.214085
597.000000	0.213761
598.000000	0.213461
599.000000	0.213035
600.000000	0.212638
601.000000	0.212334
602.000000	0.211944
603.000000	0.211515
604.000000	0.211082
605.000000	0.210629
606.000000	0.210232
607.000000	0.209838
608.000000	0.209312
609.000000	0.208964
610.000000	0.208703
611.000000	0.208356
612.000000	0.207963
613.000000	0.207550
614.000000	0.207167
615.000000	0.206831
616.000000	0.206497
617.000000	0.206161
618.000000	0.205937
619.000000	0.205617
620.000000	0.205261
621.000000	0.205050
622.000000	0.204719
623.000000	0.204369
624.000000	0.204109
625.000000	0.203865
626.000000	0.203601
627.000000	0.203338
628.000000	0.203183
629.000000	0.203044
630.000000	0.202834
631.000000	0.202661
632.000000	0.202491
633.000000	0.202315
634.000000	0.202135
635.000000	0.202023
636.000000	0.201944
637.000000	0.201860
638.000000	0.201790
639.000000	0.201704
640.000000	0.201662
641.000000	0.201694
642.000000	0.201704
643.000000	0.201731
644.000000	0.201834
645.000000	0.201856
646.000000	0.201906
647.000000	0.202043
648.000000	0.202157
649.000000	0.202339
650.000000	0.202586
651.000000	0.202813
652.000000	0.202969
653.000000	0.203154
654.000000	0.203477
655.000000	0.203771
656.000000	0.204040
657.000000	0.204291
658.000000	0.204636
659.000000	0.204992
660.000000	0.205312
661.000000	0.205655
662.000000	0.206066
663.000000	0.206539
664.000000	0.206961
665.000000	0.207388
666.000000	0.207884
667.000000	0.208455
668.000000	0.208959
669.000000	0.209467
670.000000	0.210044
671.000000	0.210709
672.000000	0.211344
673.000000	0.211949
674.000000	0.212637
675.000000	0.213369
676.000000	0.214110
677.000000	0.214847
678.000000	0.215602
679.000000	0.216378
680.000000	0.217182
681.000000	0.217998
682.000000	0.218907
683.000000	0.219846
684.000000	0.220767
685.000000	0.221694
686.000000	0.222661
687.000000	0.223662
688.000000	0.224660
689.000000	0.225675
690.000000	0.226754
691.000000	0.227886
692.000000	0.229038
693.000000	0.230204
694.000000	0.231269
695.000000	0.232388
696.000000	0.233584
697.000000	0.234819
698.000000	0.236030
699.000000	0.237255
700.000000	0.238525
701.000000	0.239719
702.000000	0.241022
703.000000	0.242437
704.000000	0.243764
705.000000	0.245113
706.000000	0.246479
707.000000	0.247889
708.000000	0.249290
709.000000	0.250661
710.000000	0.252019
711.000000	0.253419
712.000000	0.254884
713.000000	0.256403
714.000000	0.257847
715.000000	0.259314
716.000000	0.260839
717.000000	0.262403
718.000000	0.263878
719.000000	0.265287
720.000000	0.266693
721.000000	0.268139
722.000000	0.269581
723.000000	0.271025
724.000000	0.272368
725.000000	0.273735
726.000000	0.275176
727.000000	0.276566
728.000000	0.277979
729.000000	0.279384
730.000000	0.280712
731.000000	0.282064
732.000000	0.283397
733.000000	0.284731
734.000000	0.286061
735.000000	0.287345
736.000000	0.288676
737.000000	0.289958
738.000000	0.291132
739.000000	0.292357
740.000000	0.293563
741.000000	0.294645
742.000000	0.295763
743.000000	0.296917
744.000000	0.298019
745.000000	0.299086
746.000000	0.300150
747.000000	0.301159
748.000000	0.302232
749.000000	0.303242
750.000000	0.304092
751.000000	0.304973
752.000000	0.305823
753.000000	0.306665
754.000000	0.307557
755.000000	0.308509
756.000000	0.309430
757.000000	0.310182
758.000000	0.310905
759.000000	0.311589
760.000000	0.312187
761.000000	0.312885
762.000000	0.313524
763.000000	0.314091
764.000000	0.314732
765.000000	0.315301
766.000000	0.315856
767.000000	0.316455
768.000000	0.316999
769.000000	0.317519
770.000000	0.318020
771.000000	0.318446
772.000000	0.318844
773.000000	0.319213
774.000000	0.319658
775.000000	0.320030
776.000000	0.320351
777.000000	0.320635
778.000000	0.320876
779.000000	0.321142
780.000000	0.321450
781.000000	0.321753
782.000000	0.321989
783.000000	0.322249
784.000000	0.322474
785.000000	0.322739
786.000000	0.323000
787.000000	0.323208
788.000000	0.323327
789.000000	0.323467
790.000000	0.323603
791.000000	0.323693
792.000000	0.323851
793.000000	0.323973
794.000000	0.323992
795.000000	0.324063
796.000000	0.324136
797.000000	0.324183
798.000000	0.324201
799.000000	0.324272
800.000000	0.324364
801.000000	0.324420
802.000000	0.324454
803.000000	0.324496
804.000000	0.324584
805.000000	0.324630
806.000000	0.324651
807.000000	0.324724
808.000000	0.324789
809.000000	0.324790
810.000000	0.324770
811.000000	0.324753
812.000000	0.324723
813.000000	0.324726
814.000000	0.324724
815.000000	0.324629
816.000000	0.324506
817.000000	0.324432
818.000000	0.324381
819.000000	0.324395
820.000000	0.324411
821.000000	0.324350
822.000000	0.324276
823.000000	0.324157
824.000000	0.323989
825.000000	0.323909
826.000000	0.323914
827.000000	0.323876
828.000000	0.323781
829.000000	0.323724
830.000000	0.323560
831.000000	0.323410
832.000000	0.323347
833.000000	0.323195
834.000000	0.322979
835.000000	0.322781
836.000000	0.322586
837.000000	0.322434
838.000000	0.322347
839.000000	0.322285
840.000000	0.322052
841.000000	0.321816
842.000000	0.321714
843.000000	0.321633
844.000000	0.321505
845.000000	0.321310
846.000000	0.321167
847.000000	0.321037
848.000000	0.320842
849.000000	0.320572
850.000000	0.320375
851.000000	0.320202
852.000000	0.320074
853.000000	0.320013
854.000000	0.319831
855.000000	0.319667
856.000000	0.319540
857.000000	0.319360
858.000000	0.319195
859.000000	0.318998
860.000000	0.318782
861.000000	0.318540
862.000000	0.318316
863.000000	0.318101
864.000000	0.318018
865.000000	0.317880
866.000000	0.317650
867.000000	0.317526
868.000000	0.317319
869.000000	0.317053
870.000000	0.316921
871.000000	0.316636
872.000000	0.316315
873.000000	0.316007
874.000000	0.315768
875.000000	0.315629
876.000000	0.315519
877.000000	0.315271
878.000000	0.315048
879.000000	0.314875
880.000000	0.314628
881.000000	0.314465
882.000000	0.314175
883.000000	0.313810
884.000000	0.313473
885.000000	0.313269
886.000000	0.313033
887.000000	0.312711
888.000000	0.312408
889.000000	0.312188
890.000000	0.311986
891.000000	0.311874
892.000000	0.311491
893.000000	0.311084
894.000000	0.310909
895.000000	0.310756
896.000000	0.310522
897.000000	0.310259
898.000000	0.310043
899.000000	0.309693
900.000000	0.309290
901.000000	0.308898
902.000000	0.308663
903.000000	0.308506
904.000000	0.308352
905.000000	0.308048
906.000000	0.307765
907.000000	0.307521
908.000000	0.307339
909.000000	0.307065
910.000000	0.306773
911.000000	0.306450
912.000000	0.306117
913.000000	0.305870
914.000000	0.305674
915.000000	0.305469
916.000000	0.305030
917.000000	0.304777
918.000000	0.304625
919.000000	0.304416
920.000000	0.304134
921.000000	0.303834
922.000000	0.303546
923.000000	0.303255
924.000000	0.302988
925.000000	0.302675
926.000000	0.302339
927.000000	0.302063
928.000000	0.301802
929.000000	0.301632
930.000000	0.301592
931.000000	0.301324
932.000000	0.300968
933.000000	0.300687
934.000000	0.300534
935.000000	0.300450
936.000000	0.300268
937.000000	0.299819
938.000000	0.299438
939.000000	0.299196
940.000000	0.299018
941.000000	0.298877
942.000000	0.298514
943.000000	0.298179
944.000000	0.297943
945.000000	0.297878
946.000000	0.297654
947.000000	0.297343
948.000000	0.297051
949.000000	0.296680
950.000000	0.296452
951.000000	0.296298
952.000000	0.296011
953.000000	0.295946
954.000000	0.295841
955.000000	0.295468
956.000000	0.295257
957.000000	0.295170
958.000000	0.295016
959.000000	0.294705
960.000000	0.294435
961.000000	0.294239
962.000000	0.294045
963.000000	0.293740
964.000000	0.293307
965.000000	0.293054
966.000000	0.293035
967.000000	0.292887
968.000000	0.292652
969.000000	0.292265
970.000000	0.291820
971.000000	0.291761
972.000000	0.291761
973.000000	0.291535
974.000000	0.291142
975.000000	0.290878
976.000000	0.290680
977.000000	0.290446
978.000000	0.290259
979.000000	0.290048
980.000000	0.289758
981.000000	0.289761
982.000000	0.289666
983.000000	0.289412
984.000000	0.289133
985.000000	0.288977
986.000000	0.288887
987.000000	0.288788
988.000000	0.288556
989.000000	0.288370
990.000000	0.288297
991.000000	0.288359
992.000000	0.288534
993.000000	0.288523
994.000000	0.288137
995.000000	0.287849
996.000000	0.288088
997.000000	0.287915
998.000000	0.287732
999.000000	0.287803
1000.000000	0.287693
1001.000000	0.287864
1002.000000	0.287821
1003.000000	0.287543
1004.000000	0.287067
1005.000000	0.286123
1006.000000	0.286108
1007.000000	0.286499
1008.000000	0.286269
1009.000000	0.286741
1010.000000	0.287309
1011.000000	0.287302
1012.000000	0.287129
1013.000000	0.286509
1014.000000	0.285421
1015.000000	0.284436
1016.000000	0.284354
1017.000000	0.285462
1018.000000	0.286647
1019.000000	0.286977
1020.000000	0.287079
1021.000000	0.286918
1022.000000	0.285916
1023.000000	0.285691
1024.000000	0.285653
1025.000000	0.285906
1026.000000	0.286354
1027.000000	0.286525
1028.000000	0.286438
1029.000000	0.286652
1030.000000	0.286386
1031.000000	0.285822
1032.000000	0.285745
1033.000000	0.285864
1034.000000	0.285945
1035.000000	0.285983
1036.000000	0.286212
1037.000000	0.286838
1038.000000	0.286874
1039.000000	0.286516
1040.000000	0.287043
1041.000000	0.286990
1042.000000	0.286391
1043.000000	0.287000
1044.000000	0.287346
1045.000000	0.287278
1046.000000	0.287994
1047.000000	0.288178
1048.000000	0.287762
1049.000000	0.287678
1050.000000	0.287672
1051.000000	0.287687
1052.000000	0.287535
1053.000000	0.287746
1054.000000	0.288739
1055.000000	0.289051
1056.000000	0.289186
1057.000000	0.289372
1058.000000	0.289179
1059.000000	0.288623
1060.000000	0.288970
1061.000000	0.289312
1062.000000	0.289390
1063.000000	0.290041
1064.000000	0.290326
1065.000000	0.290304
1066.000000	0.290454
1067.000000	0.290675
1068.000000	0.290769
1069.000000	0.290590
1070.000000	0.290759
1071.000000	0.291111
1072.000000	0.291407
1073.000000	0.291811
1074.000000	0.292646
1075.000000	0.292858
1076.000000	0.292910
1077.000000	0.292941
1078.000000	0.293032
1079.000000	0.293012
1080.000000	0.292881
1081.000000	0.293055
1082.000000	0.293400
1083.000000	0.293635
1084.000000	0.294080
1085.000000	0.294555
1086.000000	0.294965
1087.000000	0.295275
1088.000000	0.295665
1089.000000	0.295949
1090.000000	0.296081
1091.000000	0.295918
1092.000000	0.296088
1093.000000	0.296617
1094.000000	0.296852
1095.000000	0.296969
1096.000000	0.297271
1097.000000	0.297605
1098.000000	0.297830
1099.000000	0.298119
1100.000000	0.298406
1101.000000	0.298445
1102.000000	0.298630
1103.000000	0.298981
1104.000000	0.299221
1105.000000	0.299336
1106.000000	0.299575
1107.000000	0.299857
1108.000000	0.300038
1109.000000	0.300188
1110.000000	0.300548
1111.000000	0.300715
1112.000000	0.300674
1113.000000	0.300961
1114.000000	0.301457
1115.000000	0.301716
1116.000000	0.302060
1117.000000	0.302290
1118.000000	0.302277
1119.000000	0.302329
1120.000000	0.302437
1121.000000	0.302516
1122.000000	0.302640
1123.000000	0.302878
1124.000000	0.302840
1125.000000	0.303029
1126.000000	0.303463
1127.000000	0.303557
1128.000000	0.303547
1129.000000	0.303529
1130.000000	0.303596
1131.000000	0.303344
1132.000000	0.303534
1133.000000	0.304351
1134.000000	0.304503
1135.000000	0.304368
1136.000000	0.304375
1137.000000	0.303948
1138.000000	0.303969
1139.000000	0.304539
1140.000000	0.304867
1141.000000	0.305159
1142.000000	0.305452
1143.000000	0.305596
1144.000000	0.305849
1145.000000	0.305960
1146.000000	0.306201
1147.000000	0.306219
1148.000000	0.305961
1149.000000	0.305998
1150.000000	0.306050
1151.000000	0.306182
1152.000000	0.306431
1153.000000	0.306654
1154.000000	0.306888
1155.000000	0.307007
1156.000000	0.307131
1157.000000	0.307236
1158.000000	0.307154
1159.000000	0.307164
1160.000000	0.307185
1161.000000	0.307239
1162.000000	0.307347
1163.000000	0.307650
1164.000000	0.307697
1165.000000	0.307805
1166.000000	0.307998
1167.000000	0.308147
1168.000000	0.308253
1169.000000	0.308463
1170.000000	0.308649
1171.000000	0.308785
1172.000000	0.308954
1173.000000	0.309215
1174.000000	0.309355
1175.000000	0.309332
1176.000000	0.309356
1177.000000	0.309466
1178.000000	0.309546
1179.000000	0.309639
1180.000000	0.309619
1181.000000	0.309607
1182.000000	0.309533
1183.000000	0.309597
1184.000000	0.309783
1185.000000	0.309940
1186.000000	0.310262
1187.000000	0.310362
1188.000000	0.310353
1189.000000	0.310354
1190.000000	0.310285
1191.000000	0.310339
1192.000000	0.310552
1193.000000	0.310758
1194.000000	0.310933
1195.000000	0.311046
1196.000000	0.311065
1197.000000	0.311074
1198.000000	0.310992
1199.000000	0.311054
1200.000000	0.311186
1201.000000	0.311309
1202.000000	0.311336
1203.000000	0.311366
1204.000000	0.311340
1205.000000	0.311276
1206.000000	0.311222
1207.000000	0.311335
1208.000000	0.311321
1209.000000	0.311236
1210.000000	0.311255
1211.000000	0.311330
1212.000000	0.311392
1213.000000	0.311519
1214.000000	0.311656
1215.000000	0.311835
1216.000000	0.311939
1217.000000	0.311969
1218.000000	0.312019
1219.000000	0.312133
1220.000000	0.312057
1221.000000	0.312047
1222.000000	0.312278
1223.000000	0.312393
1224.000000	0.312401
1225.000000	0.312343
1226.000000	0.312274
1227.000000	0.312209
1228.000000	0.312229
1229.000000	0.312212
1230.000000	0.312207
1231.000000	0.312210
1232.000000	0.312331
1233.000000	0.312448
1234.000000	0.312618
1235.000000	0.312753
1236.000000	0.312722
1237.000000	0.312824
1238.000000	0.313042
1239.000000	0.313050
1240.000000	0.312920
1241.000000	0.312847
1242.000000	0.312812
1243.000000	0.312846
1244.000000	0.313009
1245.000000	0.313284
1246.000000	0.313358
1247.000000	0.313452
1248.000000	0.313636
1249.000000	0.313744
1250.000000	0.313768
1251.000000	0.313730
1252.000000	0.313794
1253.000000	0.313894
1254.000000	0.313924
1255.000000	0.314028
1256.000000	0.314054
1257.000000	0.313939
1258.000000	0.313982
1259.000000	0.314060
1260.000000	0.314149
1261.000000	0.314219
1262.000000	0.314225
1263.000000	0.314173
1264.000000	0.314191
1265.000000	0.314356
1266.000000	0.314577
1267.000000	0.314732
1268.000000	0.314857
1269.000000	0.314745
1270.000000	0.314680
1271.000000	0.314706
1272.000000	0.314783
1273.000000	0.315027
1274.000000	0.315133
1275.000000	0.315132
1276.000000	0.315031
1277.000000	0.315152
1278.000000	0.315146
1279.000000	0.315159
1280.000000	0.315339
1281.000000	0.315320
1282.000000	0.315133
1283.000000	0.315175
1284.000000	0.315222
1285.000000	0.315219
1286.000000	0.315199
1287.000000	0.315258
1288.000000	0.315298
1289.000000	0.315212
1290.000000	0.315197
1291.000000	0.315296
1292.000000	0.315392
1293.000000	0.315446
1294.000000	0.315567
1295.000000	0.315669
1296.000000	0.315683
1297.000000	0.315789
1298.000000	0.315813
1299.000000	0.315833
1300.000000	0.315912
1301.000000	0.315876
1302.000000	0.315837
1303.000000	0.315922
1304.000000	0.315859
1305.000000	0.315789
1306.000000	0.315756
1307.000000	0.315698
1308.000000	0.315716
1309.000000	0.315835
1310.000000	0.315926
1311.000000	0.316059
1312.000000	0.316132
1313.000000	0.316206
1314.000000	0.316143
1315.000000	0.316137
1316.000000	0.316205
1317.000000	0.316207
1318.000000	0.316248
1319.000000	0.316201
1320.000000	0.316100
1321.000000	0.316195
1322.000000	0.316310
1323.000000	0.316188
1324.000000	0.316222
1325.000000	0.316242
1326.000000	0.316037
1327.000000	0.316065
1328.000000	0.316257
1329.000000	0.316293
1330.000000	0.316265
1331.000000	0.316353
1332.000000	0.316528
1333.000000	0.316543
1334.000000	0.316621
1335.000000	0.316677
1336.000000	0.316581
1337.000000	0.316560
1338.000000	0.316553
1339.000000	0.316507
1340.000000	0.316432
1341.000000	0.316393
1342.000000	0.316403
1343.000000	0.316390
1344.000000	0.316407
1345.000000	0.316529
1346.000000	0.316706
1347.000000	0.316704
1348.000000	0.316779
1349.000000	0.316782
1350.000000	0.316698
1351.000000	0.316730
1352.000000	0.316747
1353.000000	0.316719
1354.000000	0.316741
1355.000000	0.316633
1356.000000	0.316592
1357.000000	0.316531
1358.000000	0.316448
1359.000000	0.316495
1360.000000	0.316444
1361.000000	0.316326
1362.000000	0.316269
1363.000000	0.316157
1364.000000	0.316104
1365.000000	0.316145
1366.000000	0.316115
1367.000000	0.316038
1368.000000	0.315995
1369.000000	0.316054
1370.000000	0.315917
1371.000000	0.315740
1372.000000	0.315644
1373.000000	0.315497
1374.000000	0.315377
1375.000000	0.315235
1376.000000	0.315095
1377.000000	0.315035
1378.000000	0.314859
1379.000000	0.314586
1380.000000	0.314447
1381.000000	0.314144
1382.000000	0.313735
1383.000000	0.313481
1384.000000	0.313074
1385.000000	0.312556
1386.000000	0.312223
1387.000000	0.311768
1388.000000	0.311095
1389.000000	0.310510
1390.000000	0.309777
1391.000000	0.308986
1392.000000	0.308492
1393.000000	0.307854
1394.000000	0.307239
1395.000000	0.306532
1396.000000	0.305822
1397.000000	0.304932
1398.000000	0.303776
1399.000000	0.302852
1400.000000	0.301908
1401.000000	0.300952
1402.000000	0.300084
1403.000000	0.299349
1404.000000	0.298564
1405.000000	0.297797
1406.000000	0.297140
1407.000000	0.296576
1408.000000	0.295951
1409.000000	0.295431
1410.000000	0.295100
1411.000000	0.294734
1412.000000	0.294343
1413.000000	0.294085
1414.000000	0.293941
1415.000000	0.293765
1416.000000	0.293679
1417.000000	0.293765
1418.000000	0.293638
1419.000000	0.293633
1420.000000	0.293637
1421.000000	0.293584
1422.000000	0.293789
1423.000000	0.294033
1424.000000	0.294075
1425.000000	0.294195
1426.000000	0.294257
1427.000000	0.294253
1428.000000	0.294456
1429.000000	0.294721
1430.000000	0.294823
1431.000000	0.294909
1432.000000	0.294968
1433.000000	0.294921
1434.000000	0.295039
1435.000000	0.295339
1436.000000	0.295558
1437.000000	0.295831
1438.000000	0.295987
1439.000000	0.296045
1440.000000	0.296231
1441.000000	0.296420
1442.000000	0.296791
1443.000000	0.297232
1444.000000	0.297718
1445.000000	0.298304
1446.000000	0.298860
1447.000000	0.299410
1448.000000	0.299962
1449.000000	0.300427
1450.000000	0.300896
1451.000000	0.301329
1452.000000	0.301650
1453.000000	0.302040
1454.000000	0.302443
1455.000000	0.302780
1456.000000	0.303187
1457.000000	0.303597
1458.000000	0.303906
1459.000000	0.304272
1460.000000	0.304655
1461.000000	0.304939
1462.000000	0.305162
1463.000000	0.305332
1464.000000	0.305442
1465.000000	0.305614
1466.000000	0.305865
1467.000000	0.306071
1468.000000	0.306399
1469.000000	0.306842
1470.000000	0.307120
1471.000000	0.307359
1472.000000	0.307513
1473.000000	0.307717
1474.000000	0.307916
1475.000000	0.308177
1476.000000	0.308530
1477.000000	0.308717
1478.000000	0.308914
1479.000000	0.309197
1480.000000	0.309371
1481.000000	0.309520
1482.000000	0.309697
1483.000000	0.309864
1484.000000	0.309978
1485.000000	0.310194
1486.000000	0.310461
1487.000000	0.310715
1488.000000	0.311041
1489.000000	0.311279
1490.000000	0.311330
1491.000000	0.311494
1492.000000	0.311575
1493.000000	0.311774
1494.000000	0.312120
1495.000000	0.312298
1496.000000	0.312427
1497.000000	0.312554
1498.000000	0.312619
1499.000000	0.312597
1500.000000	0.312704
1501.000000	0.312881
1502.000000	0.312941
1503.000000	0.313104
1504.000000	0.313414
1505.000000	0.313565
1506.000000	0.313687
1507.000000	0.313898
1508.000000	0.314063
1509.000000	0.314153
1510.000000	0.314221
1511.000000	0.314329
1512.000000	0.314313
1513.000000	0.314330
1514.000000	0.314581
1515.000000	0.314691
1516.000000	0.314771
1517.000000	0.314824
1518.000000	0.314732
1519.000000	0.314618
1520.000000	0.314677
1521.000000	0.314855
1522.000000	0.314986
1523.000000	0.315035
1524.000000	0.314982
1525.000000	0.314944
1526.000000	0.314954
1527.000000	0.315088
1528.000000	0.315186
1529.000000	0.315126
1530.000000	0.315163
1531.000000	0.315291
1532.000000	0.315447
1533.000000	0.315601
1534.000000	0.315678
1535.000000	0.315704
1536.000000	0.315611
1537.000000	0.315753
1538.000000	0.315916
1539.000000	0.315872
1540.000000	0.315970
1541.000000	0.316012
1542.000000	0.315924
1543.000000	0.315991
1544.000000	0.316103
1545.000000	0.316104
1546.000000	0.316139
1547.000000	0.316227
1548.000000	0.316298
1549.000000	0.316375
1550.000000	0.316415
1551.000000	0.316480
1552.000000	0.316468
1553.000000	0.316419
1554.000000	0.316488
1555.000000	0.316458
1556.000000	0.316463
1557.000000	0.316619
1558.000000	0.316703
1559.000000	0.316753
1560.000000	0.316732
1561.000000	0.316632
1562.000000	0.316584
1563.000000	0.316563
1564.000000	0.316565
1565.000000	0.316681
1566.000000	0.316633
1567.000000	0.316561
1568.000000	0.316505
1569.000000	0.316416
1570.000000	0.316448
1571.000000	0.316590
1572.000000	0.316634
1573.000000	0.316684
1574.000000	0.316773
1575.000000	0.316858
1576.000000	0.316912
1577.000000	0.317064
1578.000000	0.317042
1579.000000	0.316841
1580.000000	0.316851
1581.000000	0.316995
1582.000000	0.317056
1583.000000	0.317221
1584.000000	0.317196
1585.000000	0.317094
1586.000000	0.317068
1587.000000	0.317000
1588.000000	0.316974
1589.000000	0.316960
1590.000000	0.317002
1591.000000	0.317105
1592.000000	0.317194
1593.000000	0.317416
1594.000000	0.317519
1595.000000	0.317595
1596.000000	0.317658
1597.000000	0.317759
1598.000000	0.317714
1599.000000	0.317549
1600.000000	0.317482
1601.000000	0.317455
1602.000000	0.317397
1603.000000	0.317457
1604.000000	0.317434
1605.000000	0.317345
1606.000000	0.317268
1607.000000	0.317242
1608.000000	0.317203
1609.000000	0.317123
1610.000000	0.317133
1611.000000	0.317335
1612.000000	0.317331
1613.000000	0.317320
1614.000000	0.317367
1615.000000	0.317354
1616.000000	0.317415
1617.000000	0.317616
1618.000000	0.317687
1619.000000	0.317672
1620.000000	0.317674
1621.000000	0.317654
1622.000000	0.317704
1623.000000	0.317771
1624.000000	0.317759
1625.000000	0.317574
1626.000000	0.317449
1627.000000	0.317259
1628.000000	0.317214
1629.000000	0.317321
1630.000000	0.317334
1631.000000	0.317273
1632.000000	0.317249
1633.000000	0.317194
1634.000000	0.317187
1635.000000	0.317273
1636.000000	0.317345
1637.000000	0.317526
1638.000000	0.317496
1639.000000	0.317348
1640.000000	0.317350
1641.000000	0.317353
1642.000000	0.317375
1643.000000	0.317670
1644.000000	0.317724
1645.000000	0.317575
1646.000000	0.317491
1647.000000	0.317378
1648.000000	0.317326
1649.000000	0.317404
1650.000000	0.317450
1651.000000	0.317613
1652.000000	0.317623
1653.000000	0.317489
1654.000000	0.317434
1655.000000	0.317237
1656.000000	0.317130
1657.000000	0.317219
1658.000000	0.317130
1659.000000	0.317031
1660.000000	0.317064
1661.000000	0.316993
1662.000000	0.317009
1663.000000	0.317183
1664.000000	0.317222
1665.000000	0.317177
1666.000000	0.317239
1667.000000	0.317218
1668.000000	0.317256
1669.000000	0.317322
1670.000000	0.317302
1671.000000	0.317400
1672.000000	0.317441
1673.000000	0.317371
1674.000000	0.317405
1675.000000	0.317445
1676.000000	0.317483
1677.000000	0.317528
1678.000000	0.317336
1679.000000	0.317149
1680.000000	0.317062
1681.000000	0.316934
1682.000000	0.316914
1683.000000	0.316981
1684.000000	0.317040
1685.000000	0.317098
1686.000000	0.317053
1687.000000	0.317047
1688.000000	0.316981
1689.000000	0.316832
1690.000000	0.316813
1691.000000	0.316994
1692.000000	0.317011
1693.000000	0.316895
1694.000000	0.316677
1695.000000	0.316523
1696.000000	0.316653
1697.000000	0.316655
1698.000000	0.316848
1699.000000	0.317017
1700.000000	0.317074
1701.000000	0.317198
1702.000000	0.317273
1703.000000	0.317216
1704.000000	0.317042
1705.000000	0.316986
1706.000000	0.317044
1707.000000	0.317035
1708.000000	0.317039
1709.000000	0.316937
1710.000000	0.316816
1711.000000	0.316708
1712.000000	0.316546
1713.000000	0.316477
1714.000000	0.316530
1715.000000	0.316498
1716.000000	0.316509
1717.000000	0.316501
1718.000000	0.316355
1719.000000	0.316297
1720.000000	0.316399
1721.000000	0.316393
1722.000000	0.316313
1723.000000	0.316345
1724.000000	0.316517
1725.000000	0.316469
1726.000000	0.316306
1727.000000	0.316119
1728.000000	0.315586
1729.000000	0.315329
1730.000000	0.315346
1731.000000	0.315330
1732.000000	0.315447
1733.000000	0.315496
1734.000000	0.315457
1735.000000	0.315340
1736.000000	0.315066
1737.000000	0.314969
1738.000000	0.314890
1739.000000	0.314863
1740.000000	0.314968
1741.000000	0.314908
1742.000000	0.314771
1743.000000	0.314756
1744.000000	0.314718
1745.000000	0.314698
1746.000000	0.314767
1747.000000	0.314500
1748.000000	0.314365
1749.000000	0.314248
1750.000000	0.314138
1751.000000	0.314395
1752.000000	0.314524
1753.000000	0.314304
1754.000000	0.314270
1755.000000	0.314209
1756.000000	0.314179
1757.000000	0.314341
1758.000000	0.314400
1759.000000	0.314311
1760.000000	0.314342
1761.000000	0.314356
1762.000000	0.314417
1763.000000	0.314720
1764.000000	0.314754
1765.000000	0.314582
1766.000000	0.314517
1767.000000	0.314209
1768.000000	0.314071
1769.000000	0.314245
1770.000000	0.314260
1771.000000	0.314188
1772.000000	0.314136
1773.000000	0.313965
1774.000000	0.313885
1775.000000	0.313960
1776.000000	0.313887
1777.000000	0.313725
1778.000000	0.313590
1779.000000	0.313356
1780.000000	0.313243
1781.000000	0.313144
1782.000000	0.313137
1783.000000	0.313257
1784.000000	0.313429
1785.000000	0.313454
1786.000000	0.313346
1787.000000	0.313340
1788.000000	0.313336
1789.000000	0.313161
1790.000000	0.313025
1791.000000	0.312967
1792.000000	0.313091
1793.000000	0.313138
1794.000000	0.313281
1795.000000	0.313362
1796.000000	0.313268
1797.000000	0.313297
1798.000000	0.313437
1799.000000	0.313476
1800.000000	0.313567
1801.000000	0.312922
1802.000000	0.313325
1803.000000	0.314233
1804.000000	0.314677
1805.000000	0.314143
1806.000000	0.314307
1807.000000	0.315402
1808.000000	0.315587
1809.000000	0.315833
1810.000000	0.314978
1811.000000	0.314303
1812.000000	0.312760
1813.000000	0.312593
1814.000000	0.313206
1815.000000	0.313150
1816.000000	0.313434
1817.000000	0.313386
1818.000000	0.312915
1819.000000	0.312240
1820.000000	0.312365
1821.000000	0.313135
1822.000000	0.312779
1823.000000	0.311520
1824.000000	0.311091
1825.000000	0.309980
1826.000000	0.309858
1827.000000	0.310496
1828.000000	0.311686
1829.000000	0.311681
1830.000000	0.311843
1831.000000	0.311862
1832.000000	0.311360
1833.000000	0.311138
1834.000000	0.311106
1835.000000	0.310974
1836.000000	0.310138
1837.000000	0.310089
1838.000000	0.310397
1839.000000	0.310951
1840.000000	0.311764
1841.000000	0.312915
1842.000000	0.312822
1843.000000	0.311618
1844.000000	0.311199
1845.000000	0.309951
1846.000000	0.309610
1847.000000	0.309702
1848.000000	0.310489
1849.000000	0.311127
1850.000000	0.310950
1851.000000	0.310959
1852.000000	0.310875
1853.000000	0.310844
1854.000000	0.310496
1855.000000	0.310244
1856.000000	0.310121
1857.000000	0.309529
1858.000000	0.309002
1859.000000	0.308882
1860.000000	0.308296
1861.000000	0.307842
1862.000000	0.307406
1863.000000	0.306934
1864.000000	0.306479
1865.000000	0.305854
1866.000000	0.305627
1867.000000	0.305871
1868.000000	0.305574
1869.000000	0.304614
1870.000000	0.304672
1871.000000	0.303518
1872.000000	0.302492
1873.000000	0.301865
1874.000000	0.301662
1875.000000	0.300895
1876.000000	0.300071
1877.000000	0.298721
1878.000000	0.296339
1879.000000	0.294894
1880.000000	0.293791
1881.000000	0.292543
1882.000000	0.292196
1883.000000	0.290867
1884.000000	0.288994
1885.000000	0.285908
1886.000000	0.283484
1887.000000	0.280655
1888.000000	0.278104
1889.000000	0.275727
1890.000000	0.273271
1891.000000	0.270540
1892.000000	0.267410
1893.000000	0.264669
1894.000000	0.261856
1895.000000	0.258757
1896.000000	0.255453
1897.000000	0.252570
1898.000000	0.249529
1899.000000	0.247050
1900.000000	0.244646
1901.000000	0.242228
1902.000000	0.240345
1903.000000	0.238382
1904.000000	0.237737
1905.000000	0.237503
1906.000000	0.237260
1907.000000	0.237351
1908.000000	0.238021
1909.000000	0.238279
1910.000000	0.238979
1911.000000	0.240283
1912.000000	0.241215
1913.000000	0.241949
1914.000000	0.243244
1915.000000	0.243938
1916.000000	0.244646
1917.000000	0.245782
1918.000000	0.247573
1919.000000	0.248644
1920.000000	0.249819
1921.000000	0.251189
1922.000000	0.251983
1923.000000	0.252912
1924.000000	0.254318
1925.000000	0.255467
1926.000000	0.256394
1927.000000	0.257658
1928.000000	0.258390
1929.000000	0.258662
1930.000000	0.259156
1931.000000	0.259599
1932.000000	0.259515
1933.000000	0.260306
1934.000000	0.260879
1935.000000	0.261435
1936.000000	0.262654
1937.000000	0.262975
1938.000000	0.263009
1939.000000	0.263290
1940.000000	0.263587
1941.000000	0.263612
1942.000000	0.264043
1943.000000	0.264503
1944.000000	0.265125
1945.000000	0.265548
1946.000000	0.265902
1947.000000	0.266385
1948.000000	0.266224
1949.000000	0.266038
1950.000000	0.266290
1951.000000	0.266455
1952.000000	0.266735
1953.000000	0.267069
1954.000000	0.267722
1955.000000	0.268037
1956.000000	0.268496
1957.000000	0.268759
1958.000000	0.268339
1959.000000	0.268496
1960.000000	0.268060
1961.000000	0.267825
1962.000000	0.267927
1963.000000	0.268576
1964.000000	0.268687
1965.000000	0.269575
1966.000000	0.270345
1967.000000	0.270882
1968.000000	0.271859
1969.000000	0.271812
1970.000000	0.271483
1971.000000	0.271747
1972.000000	0.271748
1973.000000	0.271556
1974.000000	0.271411
1975.000000	0.271556
1976.000000	0.271713
1977.000000	0.271516
1978.000000	0.272155
1979.000000	0.273403
1980.000000	0.273977
1981.000000	0.274880
1982.000000	0.275341
1983.000000	0.275392
1984.000000	0.275563
1985.000000	0.275628
1986.000000	0.275723
1987.000000	0.275886
1988.000000	0.276125
1989.000000	0.276203
1990.000000	0.276666
1991.000000	0.277475
1992.000000	0.278125
1993.000000	0.278862
1994.000000	0.279427
1995.000000	0.279017
1996.000000	0.278216
1997.000000	0.277981
1998.000000	0.277528
1999.000000	0.277798
2000.000000	0.278733
2001.000000	0.279902
2002.000000	0.280786
2003.000000	0.281531
2004.000000	0.281791
2005.000000	0.281884
2006.000000	0.282263
2007.000000	0.282005
2008.000000	0.282244
2009.000000	0.282719
2010.000000	0.283258
2011.000000	0.284198
2012.000000	0.284460
2013.000000	0.284298
2014.000000	0.284014
2015.000000	0.283772
2016.000000	0.284152
2017.000000	0.285096
2018.000000	0.285464
2019.000000	0.285914
2020.000000	0.286034
2021.000000	0.286263
2022.000000	0.286542
2023.000000	0.286729
2024.000000	0.286878
2025.000000	0.287180
2026.000000	0.287239
2027.000000	0.287521
2028.000000	0.288246
2029.000000	0.288435
2030.000000	0.288644
2031.000000	0.288802
2032.000000	0.288754
2033.000000	0.289056
2034.000000	0.289363
2035.000000	0.290049
2036.000000	0.290297
2037.000000	0.290695
2038.000000	0.290824
2039.000000	0.290489
2040.000000	0.290693
2041.000000	0.291195
2042.000000	0.291236
2043.000000	0.291738
2044.000000	0.291986
2045.000000	0.292041
2046.000000	0.292556
2047.000000	0.292878
2048.000000	0.293186
2049.000000	0.293569
2050.000000	0.293708
2051.000000	0.293533
2052.000000	0.293122
2053.000000	0.292756
2054.000000	0.292198
2055.000000	0.292034
2056.000000	0.292078
2057.000000	0.292005
2058.000000	0.292453
2059.000000	0.293093
2060.000000	0.293179
2061.000000	0.293194
2062.000000	0.293107
2063.000000	0.292088
2064.000000	0.291992
2065.000000	0.293066
2066.000000	0.293504
2067.000000	0.294219
2068.000000	0.295120
2069.000000	0.295511
2070.000000	0.294931
2071.000000	0.294765
2072.000000	0.294512
2073.000000	0.294092
2074.000000	0.293919
2075.000000	0.293983
2076.000000	0.294283
2077.000000	0.294364
2078.000000	0.294724
2079.000000	0.294770
2080.000000	0.294409
2081.000000	0.294534
2082.000000	0.294910
2083.000000	0.295163
2084.000000	0.295514
2085.000000	0.295632
2086.000000	0.295464
2087.000000	0.295034
2088.000000	0.295322
2089.000000	0.295324
2090.000000	0.295460
2091.000000	0.295937
2092.000000	0.296424
2093.000000	0.296933
2094.000000	0.297440
2095.000000	0.298375
2096.000000	0.298708
2097.000000	0.298993
2098.000000	0.298265
2099.000000	0.297054
2100.000000	0.296542
2101.000000	0.296558
2102.000000	0.297072
2103.000000	0.297161
2104.000000	0.296916
2105.000000	0.296950
2106.000000	0.296340
2107.000000	0.296204
2108.000000	0.296830
2109.000000	0.297207
2110.000000	0.297401
2111.000000	0.297283
2112.000000	0.297209
2113.000000	0.296365
2114.000000	0.295770
2115.000000	0.295114
2116.000000	0.295225
2117.000000	0.295526
2118.000000	0.295823
2119.000000	0.296440
2120.000000	0.296661
2121.000000	0.296817
2122.000000	0.296975
2123.000000	0.296796
2124.000000	0.296804
2125.000000	0.296958
2126.000000	0.297056
2127.000000	0.297119
2128.000000	0.297400
2129.000000	0.297789
2130.000000	0.298137
2131.000000	0.298198
2132.000000	0.297887
2133.000000	0.297710
2134.000000	0.298014
2135.000000	0.298743
2136.000000	0.299309
2137.000000	0.299461
2138.000000	0.299553
2139.000000	0.299015
2140.000000	0.297668
2141.000000	0.296863
2142.000000	0.295103
2143.000000	0.294647
2144.000000	0.295778
2145.000000	0.296112
2146.000000	0.296833
2147.000000	0.297854
2148.000000	0.297929
2149.000000	0.297753
2150.000000	0.297805
2151.000000	0.298458
2152.000000	0.298887
2153.000000	0.298882
2154.000000	0.298737
2155.000000	0.298455
2156.000000	0.297807
2157.000000	0.296589
2158.000000	0.295953
2159.000000	0.295140
2160.000000	0.295035
2161.000000	0.295682
2162.000000	0.295981
2163.000000	0.296039
2164.000000	0.296635
2165.000000	0.297708
2166.000000	0.298357
2167.000000	0.299297
2168.000000	0.300759
2169.000000	0.300366
2170.000000	0.299528
2171.000000	0.299068
2172.000000	0.298019
2173.000000	0.297543
2174.000000	0.297682
2175.000000	0.297493
2176.000000	0.297244
2177.000000	0.297261
2178.000000	0.297434
2179.000000	0.297496
2180.000000	0.297613
2181.000000	0.297745
2182.000000	0.296979
2183.000000	0.296862
2184.000000	0.296691
2185.000000	0.296931
2186.000000	0.297088
2187.000000	0.296968
2188.000000	0.296561
2189.000000	0.295004
2190.000000	0.294118
2191.000000	0.294545
2192.000000	0.294317
2193.000000	0.294642
2194.000000	0.294982
2195.000000	0.294938
2196.000000	0.295193
2197.000000	0.295975
2198.000000	0.296355
2199.000000	0.296567
2200.000000	0.296817
2201.000000	0.297676
2202.000000	0.298042
2203.000000	0.298050
2204.000000	0.297268
2205.000000	0.296004
2206.000000	0.294079
2207.000000	0.293828
2208.000000	0.294837
2209.000000	0.296091
2210.000000	0.298953
2211.000000	0.299867
2212.000000	0.299774
2213.000000	0.298981
2214.000000	0.296010
2215.000000	0.294663
2216.000000	0.293349
2217.000000	0.292873
2218.000000	0.293681
2219.000000	0.294199
2220.000000	0.295064
2221.000000	0.295285
2222.000000	0.294923
2223.000000	0.295622
2224.000000	0.297570
2225.000000	0.297315
2226.000000	0.296666
2227.000000	0.294717
2228.000000	0.291440
2229.000000	0.288017
2230.000000	0.286659
2231.000000	0.286568
2232.000000	0.287466
2233.000000	0.288536
2234.000000	0.288007
2235.000000	0.288072
2236.000000	0.286971
2237.000000	0.283203
2238.000000	0.282704
2239.000000	0.283111
2240.000000	0.283597
2241.000000	0.287057
2242.000000	0.286976
2243.000000	0.284203
2244.000000	0.284256
2245.000000	0.283631
2246.000000	0.283916
2247.000000	0.286504
2248.000000	0.288218
2249.000000	0.289997
2250.000000	0.290790
2251.000000	0.291866
2252.000000	0.292972
2253.000000	0.290727
2254.000000	0.287956
2255.000000	0.285096
2256.000000	0.283017
2257.000000	0.282511
2258.000000	0.282553
2259.000000	0.285207
2260.000000	0.286239
2261.000000	0.286208
2262.000000	0.286250
2263.000000	0.285529
2264.000000	0.282562
2265.000000	0.281793
2266.000000	0.282103
2267.000000	0.281141
2268.000000	0.280390
2269.000000	0.279262
2270.000000	0.276757
2271.000000	0.275928
2272.000000	0.275681
2273.000000	0.275561
2274.000000	0.276937
2275.000000	0.276856
2276.000000	0.276298
2277.000000	0.275296
2278.000000	0.274157
2279.000000	0.273917
2280.000000	0.272436
2281.000000	0.271455
2282.000000	0.270245
2283.000000	0.267738
2284.000000	0.267191
2285.000000	0.265487
2286.000000	0.264352
2287.000000	0.263418
2288.000000	0.261419
2289.000000	0.262002
2290.000000	0.261758
2291.000000	0.260719
2292.000000	0.260999
2293.000000	0.260156
2294.000000	0.259100
2295.000000	0.257715
2296.000000	0.256729
2297.000000	0.255125
2298.000000	0.254291
2299.000000	0.254144
2300.000000	0.253323
2301.000000	0.251576
2302.000000	0.252161
2303.000000	0.253561
2304.000000	0.255138
2305.000000	0.259156
2306.000000	0.261223
2307.000000	0.261293
2308.000000	0.264100
2309.000000	0.266448
2310.000000	0.268061
2311.000000	0.269829
2312.000000	0.269488
2313.000000	0.268743
2314.000000	0.265804
2315.000000	0.263094
2316.000000	0.263837
2317.000000	0.264353
2318.000000	0.267809
2319.000000	0.273200
2320.000000	0.274406
2321.000000	0.275122
2322.000000	0.274298
2323.000000	0.271019
2324.000000	0.268810
2325.000000	0.267986
2326.000000	0.269744
2327.000000	0.271973
2328.000000	0.274571
2329.000000	0.276196
2330.000000	0.274879
2331.000000	0.273879
2332.000000	0.272091
2333.000000	0.269428
2334.000000	0.267228
2335.000000	0.267000
2336.000000	0.267454
2337.000000	0.268329
2338.000000	0.271795
2339.000000	0.273744
2340.000000	0.275579
2341.000000	0.275946
2342.000000	0.274945
2343.000000	0.274725
2344.000000	0.273807
2345.000000	0.272131
2346.000000	0.271232
2347.000000	0.268919
2348.000000	0.263825
2349.000000	0.261637
2350.000000	0.261419
2351.000000	0.262792
2352.000000	0.265360
2353.000000	0.265302
2354.000000	0.265594
2355.000000	0.264051
2356.000000	0.261476
2357.000000	0.264757
2358.000000	0.266910
2359.000000	0.269524
2360.000000	0.275647
2361.000000	0.278424
2362.000000	0.277708
2363.000000	0.277416
2364.000000	0.276790
2365.000000	0.274945
2366.000000	0.274731
2367.000000	0.275892
2368.000000	0.275865
2369.000000	0.272974
2370.000000	0.271325
2371.000000	0.271979
2372.000000	0.271243
2373.000000	0.273291
2374.000000	0.273891
2375.000000	0.268432
2376.000000	0.266486
2377.000000	0.265384
2378.000000	0.263759
2379.000000	0.266028
2380.000000	0.265340
2381.000000	0.264481
2382.000000	0.261427
2383.000000	0.254332
2384.000000	0.252753
2385.000000	0.249956
2386.000000	0.248126
2387.000000	0.251953
2388.000000	0.251727
2389.000000	0.250964
2390.000000	0.249426
2391.000000	0.247925
2392.000000	0.247177
2393.000000	0.242320
2394.000000	0.239626
2395.000000	0.240759
2396.000000	0.241228
2397.000000	0.240718
2398.000000	0.243555
2399.000000	0.245598
2400.000000	0.244613
2401.000000	0.242306
2402.000000	0.238534
2403.000000	0.238321
2404.000000	0.235465
2405.000000	0.232324
2406.000000	0.232896
2407.000000	0.228000
2408.000000	0.223506
2409.000000	0.224316
2410.000000	0.228299
2411.000000	0.239384
2412.000000	0.249703
2413.000000	0.252711
2414.000000	0.252480
2415.000000	0.246341
2416.000000	0.242768
2417.000000	0.251424
2418.000000	0.261639
2419.000000	0.259650
2420.000000	0.257346
2421.000000	0.254115
2422.000000	0.244131
2423.000000	0.246990
2424.000000	0.244746
2425.000000	0.232075
2426.000000	0.232216
2427.000000	0.228341
2428.000000	0.221032
2429.000000	0.219406
2430.000000	0.210615
2431.000000	0.204803
2432.000000	0.206854
2433.000000	0.213120
2434.000000	0.223087
2435.000000	0.229626
2436.000000	0.232620
2437.000000	0.232309
2438.000000	0.227521
2439.000000	0.221158
2440.000000	0.209139
2441.000000	0.199712
2442.000000	0.206035
2443.000000	0.207232
2444.000000	0.220046
2445.000000	0.240890
2446.000000	0.238147
2447.000000	0.248049
2448.000000	0.254706
2449.000000	0.236341
2450.000000	0.231742
2451.000000	0.230942
2452.000000	0.220221
2453.000000	0.222397
2454.000000	0.235252
2455.000000	0.250121
2456.000000	0.266247
2457.000000	0.271446
2458.000000	0.258486
2459.000000	0.232813
2460.000000	0.210406
2461.000000	0.200044
2462.000000	0.205014
2463.000000	0.211259
2464.000000	0.208077
2465.000000	0.196592
2466.000000	0.190093
2467.000000	0.193701
2468.000000	0.193749
2469.000000	0.222379
2470.000000	0.252153
2471.000000	0.240727
2472.000000	0.245813
2473.000000	0.240485
2474.000000	0.232272
2475.000000	0.255868
2476.000000	0.259283
2477.000000	0.256174
2478.000000	0.249535
2479.000000	0.252985
2480.000000	0.274335
2481.000000	0.292580
2482.000000	0.294178
2483.000000	0.263397
2484.000000	0.229025
2485.000000	0.216321
2486.000000	0.216554
2487.000000	0.253214
2488.000000	0.299137
2489.000000	0.282622
2490.000000	0.305651
2491.000000	0.249894
2492.000000	0.207027
2493.000000	0.170896
2494.000000	0.103509
2495.000000	0.002545
2496.000000	-0.028709
2497.000000	-0.022664
2498.000000	-0.011448
2499.000000	0.065658
2500.000000	0.104967
