# Wavelength	NAu-2-20_HEX-50_FV7-30_00000.asd.rts.txt
350.000000	0.168962
351.000000	0.203452
352.000000	0.203165
353.000000	0.185263
354.000000	0.171778
355.000000	0.181598
356.000000	0.181391
357.000000	0.174201
358.000000	0.185415
359.000000	0.184984
360.000000	0.175499
361.000000	0.167976
362.000000	0.175851
363.000000	0.181186
364.000000	0.174903
365.000000	0.174294
366.000000	0.175446
367.000000	0.175327
368.000000	0.171440
369.000000	0.169951
370.000000	0.172353
371.000000	0.177501
372.000000	0.176252
373.000000	0.176277
374.000000	0.181626
375.000000	0.181534
376.000000	0.178109
377.000000	0.174840
378.000000	0.177137
379.000000	0.178964
380.000000	0.178310
381.000000	0.175597
382.000000	0.174203
383.000000	0.174627
384.000000	0.176433
385.000000	0.177524
386.000000	0.178257
387.000000	0.178678
388.000000	0.178021
389.000000	0.179180
390.000000	0.180638
391.000000	0.179549
392.000000	0.179995
393.000000	0.180799
394.000000	0.180707
395.000000	0.180520
396.000000	0.181111
397.000000	0.181824
398.000000	0.179682
399.000000	0.178921
400.000000	0.179870
401.000000	0.181038
402.000000	0.180089
403.000000	0.179709
404.000000	0.181955
405.000000	0.182142
406.000000	0.182302
407.000000	0.183056
408.000000	0.181922
409.000000	0.181964
410.000000	0.183133
411.000000	0.183625
412.000000	0.183572
413.000000	0.183647
414.000000	0.184465
415.000000	0.185407
416.000000	0.185708
417.000000	0.185251
418.000000	0.185164
419.000000	0.185536
420.000000	0.186109
421.000000	0.186264
422.000000	0.186162
423.000000	0.186206
424.000000	0.186826
425.000000	0.187148
426.000000	0.187414
427.000000	0.187815
428.000000	0.187943
429.000000	0.188181
430.000000	0.188639
431.000000	0.189066
432.000000	0.189564
433.000000	0.189946
434.000000	0.190014
435.000000	0.190334
436.000000	0.190544
437.000000	0.190380
438.000000	0.191049
439.000000	0.191324
440.000000	0.190935
441.000000	0.191361
442.000000	0.192117
443.000000	0.192641
444.000000	0.192326
445.000000	0.192439
446.000000	0.192894
447.000000	0.193160
448.000000	0.193767
449.000000	0.194440
450.000000	0.194928
451.000000	0.195189
452.000000	0.195473
453.000000	0.195770
454.000000	0.195938
455.000000	0.196159
456.000000	0.196459
457.000000	0.196683
458.000000	0.197227
459.000000	0.197716
460.000000	0.197844
461.000000	0.197883
462.000000	0.198159
463.000000	0.198627
464.000000	0.199026
465.000000	0.199411
466.000000	0.199718
467.000000	0.199933
468.000000	0.200186
469.000000	0.200494
470.000000	0.200938
471.000000	0.201193
472.000000	0.201540
473.000000	0.202054
474.000000	0.201993
475.000000	0.201981
476.000000	0.202316
477.000000	0.202719
478.000000	0.203017
479.000000	0.203340
480.000000	0.203661
481.000000	0.203870
482.000000	0.204121
483.000000	0.204389
484.000000	0.204755
485.000000	0.204903
486.000000	0.204950
487.000000	0.205383
488.000000	0.205674
489.000000	0.205880
490.000000	0.206421
491.000000	0.206560
492.000000	0.206553
493.000000	0.206765
494.000000	0.207107
495.000000	0.207315
496.000000	0.207293
497.000000	0.207614
498.000000	0.207860
499.000000	0.207996
500.000000	0.208303
501.000000	0.208501
502.000000	0.208661
503.000000	0.208917
504.000000	0.209028
505.000000	0.209190
506.000000	0.209566
507.000000	0.209697
508.000000	0.209904
509.000000	0.210299
510.000000	0.210605
511.000000	0.211015
512.000000	0.211484
513.000000	0.211738
514.000000	0.212028
515.000000	0.212392
516.000000	0.212757
517.000000	0.213166
518.000000	0.213599
519.000000	0.213969
520.000000	0.214332
521.000000	0.214650
522.000000	0.214961
523.000000	0.215407
524.000000	0.215882
525.000000	0.216364
526.000000	0.216907
527.000000	0.217446
528.000000	0.218065
529.000000	0.218872
530.000000	0.219576
531.000000	0.220403
532.000000	0.221360
533.000000	0.222119
534.000000	0.222852
535.000000	0.223642
536.000000	0.224547
537.000000	0.225379
538.000000	0.226154
539.000000	0.226955
540.000000	0.227747
541.000000	0.228456
542.000000	0.229075
543.000000	0.229707
544.000000	0.230424
545.000000	0.231161
546.000000	0.231799
547.000000	0.232502
548.000000	0.233307
549.000000	0.234092
550.000000	0.234871
551.000000	0.235687
552.000000	0.236542
553.000000	0.237430
554.000000	0.238381
555.000000	0.239395
556.000000	0.240360
557.000000	0.241371
558.000000	0.242534
559.000000	0.243653
560.000000	0.244710
561.000000	0.245751
562.000000	0.246735
563.000000	0.247786
564.000000	0.248853
565.000000	0.249782
566.000000	0.250725
567.000000	0.251681
568.000000	0.252585
569.000000	0.253299
570.000000	0.254000
571.000000	0.254708
572.000000	0.255330
573.000000	0.255937
574.000000	0.256492
575.000000	0.256983
576.000000	0.257424
577.000000	0.257795
578.000000	0.258150
579.000000	0.258543
580.000000	0.258907
581.000000	0.259200
582.000000	0.259422
583.000000	0.259588
584.000000	0.259729
585.000000	0.259885
586.000000	0.259977
587.000000	0.260043
588.000000	0.260134
589.000000	0.260178
590.000000	0.260215
591.000000	0.260264
592.000000	0.260282
593.000000	0.260238
594.000000	0.260142
595.000000	0.260056
596.000000	0.259967
597.000000	0.259892
598.000000	0.259770
599.000000	0.259571
600.000000	0.259327
601.000000	0.259025
602.000000	0.258830
603.000000	0.258654
604.000000	0.258459
605.000000	0.258274
606.000000	0.258046
607.000000	0.257794
608.000000	0.257580
609.000000	0.257415
610.000000	0.257219
611.000000	0.256922
612.000000	0.256710
613.000000	0.256591
614.000000	0.256533
615.000000	0.256324
616.000000	0.256073
617.000000	0.255820
618.000000	0.255624
619.000000	0.255492
620.000000	0.255363
621.000000	0.255202
622.000000	0.255028
623.000000	0.254898
624.000000	0.254838
625.000000	0.254765
626.000000	0.254656
627.000000	0.254535
628.000000	0.254493
629.000000	0.254486
630.000000	0.254410
631.000000	0.254367
632.000000	0.254261
633.000000	0.254177
634.000000	0.254182
635.000000	0.254128
636.000000	0.254129
637.000000	0.254195
638.000000	0.254123
639.000000	0.254107
640.000000	0.254206
641.000000	0.254240
642.000000	0.254199
643.000000	0.254213
644.000000	0.254424
645.000000	0.254547
646.000000	0.254669
647.000000	0.254844
648.000000	0.254963
649.000000	0.255124
650.000000	0.255346
651.000000	0.255604
652.000000	0.255810
653.000000	0.255988
654.000000	0.256146
655.000000	0.256432
656.000000	0.256807
657.000000	0.257142
658.000000	0.257376
659.000000	0.257630
660.000000	0.257947
661.000000	0.258280
662.000000	0.258584
663.000000	0.258941
664.000000	0.259421
665.000000	0.259865
666.000000	0.260281
667.000000	0.260694
668.000000	0.261192
669.000000	0.261675
670.000000	0.262099
671.000000	0.262543
672.000000	0.263075
673.000000	0.263653
674.000000	0.264160
675.000000	0.264658
676.000000	0.265211
677.000000	0.265869
678.000000	0.266432
679.000000	0.266996
680.000000	0.267646
681.000000	0.268319
682.000000	0.269005
683.000000	0.269658
684.000000	0.270393
685.000000	0.271141
686.000000	0.271893
687.000000	0.272616
688.000000	0.273368
689.000000	0.274169
690.000000	0.275033
691.000000	0.275831
692.000000	0.276622
693.000000	0.277484
694.000000	0.278357
695.000000	0.279254
696.000000	0.280149
697.000000	0.281014
698.000000	0.281922
699.000000	0.282834
700.000000	0.283733
701.000000	0.284705
702.000000	0.285680
703.000000	0.286621
704.000000	0.287588
705.000000	0.288591
706.000000	0.289586
707.000000	0.290594
708.000000	0.291586
709.000000	0.292558
710.000000	0.293532
711.000000	0.294507
712.000000	0.295523
713.000000	0.296591
714.000000	0.297622
715.000000	0.298678
716.000000	0.299747
717.000000	0.300762
718.000000	0.301763
719.000000	0.302750
720.000000	0.303735
721.000000	0.304723
722.000000	0.305719
723.000000	0.306759
724.000000	0.307737
725.000000	0.308715
726.000000	0.309748
727.000000	0.310726
728.000000	0.311701
729.000000	0.312657
730.000000	0.313543
731.000000	0.314492
732.000000	0.315435
733.000000	0.316379
734.000000	0.317308
735.000000	0.318118
736.000000	0.318980
737.000000	0.319883
738.000000	0.320655
739.000000	0.321438
740.000000	0.322191
741.000000	0.323012
742.000000	0.323821
743.000000	0.324543
744.000000	0.325194
745.000000	0.325793
746.000000	0.326446
747.000000	0.327161
748.000000	0.327876
749.000000	0.328589
750.000000	0.329258
751.000000	0.329854
752.000000	0.330443
753.000000	0.331042
754.000000	0.331599
755.000000	0.332168
756.000000	0.332739
757.000000	0.333241
758.000000	0.333703
759.000000	0.334140
760.000000	0.334525
761.000000	0.335061
762.000000	0.335551
763.000000	0.335954
764.000000	0.336406
765.000000	0.336772
766.000000	0.337116
767.000000	0.337494
768.000000	0.337792
769.000000	0.338089
770.000000	0.338434
771.000000	0.338829
772.000000	0.339160
773.000000	0.339371
774.000000	0.339590
775.000000	0.339839
776.000000	0.340058
777.000000	0.340213
778.000000	0.340472
779.000000	0.340732
780.000000	0.340953
781.000000	0.341131
782.000000	0.341246
783.000000	0.341414
784.000000	0.341574
785.000000	0.341775
786.000000	0.341949
787.000000	0.342063
788.000000	0.342185
789.000000	0.342319
790.000000	0.342441
791.000000	0.342560
792.000000	0.342707
793.000000	0.342845
794.000000	0.342944
795.000000	0.342992
796.000000	0.343022
797.000000	0.343043
798.000000	0.343051
799.000000	0.343054
800.000000	0.343080
801.000000	0.343146
802.000000	0.343115
803.000000	0.343108
804.000000	0.343209
805.000000	0.343256
806.000000	0.343299
807.000000	0.343388
808.000000	0.343406
809.000000	0.343406
810.000000	0.343409
811.000000	0.343396
812.000000	0.343306
813.000000	0.343276
814.000000	0.343308
815.000000	0.343314
816.000000	0.343360
817.000000	0.343424
818.000000	0.343391
819.000000	0.343418
820.000000	0.343455
821.000000	0.343424
822.000000	0.343400
823.000000	0.343321
824.000000	0.343170
825.000000	0.343076
826.000000	0.342948
827.000000	0.342858
828.000000	0.342880
829.000000	0.342898
830.000000	0.342833
831.000000	0.342761
832.000000	0.342656
833.000000	0.342543
834.000000	0.342436
835.000000	0.342378
836.000000	0.342345
837.000000	0.342299
838.000000	0.342249
839.000000	0.342193
840.000000	0.342105
841.000000	0.342035
842.000000	0.341967
843.000000	0.341784
844.000000	0.341671
845.000000	0.341640
846.000000	0.341593
847.000000	0.341644
848.000000	0.341670
849.000000	0.341566
850.000000	0.341390
851.000000	0.341243
852.000000	0.341172
853.000000	0.341019
854.000000	0.340844
855.000000	0.340747
856.000000	0.340616
857.000000	0.340450
858.000000	0.340287
859.000000	0.340074
860.000000	0.339873
861.000000	0.339760
862.000000	0.339669
863.000000	0.339427
864.000000	0.339290
865.000000	0.339211
866.000000	0.339146
867.000000	0.338996
868.000000	0.338895
869.000000	0.338715
870.000000	0.338395
871.000000	0.338141
872.000000	0.338004
873.000000	0.337906
874.000000	0.337802
875.000000	0.337635
876.000000	0.337421
877.000000	0.337146
878.000000	0.336920
879.000000	0.336780
880.000000	0.336585
881.000000	0.336435
882.000000	0.336208
883.000000	0.335936
884.000000	0.335654
885.000000	0.335487
886.000000	0.335312
887.000000	0.335094
888.000000	0.334910
889.000000	0.334672
890.000000	0.334367
891.000000	0.334233
892.000000	0.334007
893.000000	0.333791
894.000000	0.333706
895.000000	0.333399
896.000000	0.333192
897.000000	0.333012
898.000000	0.332702
899.000000	0.332473
900.000000	0.332218
901.000000	0.331914
902.000000	0.331829
903.000000	0.331605
904.000000	0.331348
905.000000	0.331152
906.000000	0.331100
907.000000	0.330943
908.000000	0.330691
909.000000	0.330443
910.000000	0.330268
911.000000	0.330117
912.000000	0.329929
913.000000	0.329615
914.000000	0.329298
915.000000	0.329043
916.000000	0.328689
917.000000	0.328320
918.000000	0.328071
919.000000	0.327946
920.000000	0.327705
921.000000	0.327401
922.000000	0.327141
923.000000	0.327008
924.000000	0.326814
925.000000	0.326634
926.000000	0.326474
927.000000	0.326039
928.000000	0.325740
929.000000	0.325531
930.000000	0.325248
931.000000	0.324951
932.000000	0.324763
933.000000	0.324706
934.000000	0.324581
935.000000	0.324161
936.000000	0.323733
937.000000	0.323458
938.000000	0.323239
939.000000	0.322973
940.000000	0.322634
941.000000	0.322413
942.000000	0.322199
943.000000	0.321953
944.000000	0.321616
945.000000	0.321556
946.000000	0.321244
947.000000	0.320966
948.000000	0.321024
949.000000	0.320840
950.000000	0.320659
951.000000	0.320479
952.000000	0.320174
953.000000	0.319971
954.000000	0.319684
955.000000	0.319180
956.000000	0.318972
957.000000	0.318779
958.000000	0.318525
959.000000	0.318343
960.000000	0.318145
961.000000	0.317931
962.000000	0.317656
963.000000	0.317294
964.000000	0.317121
965.000000	0.317015
966.000000	0.316693
967.000000	0.316214
968.000000	0.316017
969.000000	0.315990
970.000000	0.315890
971.000000	0.315762
972.000000	0.315589
973.000000	0.315314
974.000000	0.315046
975.000000	0.314969
976.000000	0.314874
977.000000	0.314550
978.000000	0.314028
979.000000	0.313902
980.000000	0.313780
981.000000	0.313440
982.000000	0.313299
983.000000	0.313095
984.000000	0.312802
985.000000	0.312541
986.000000	0.312726
987.000000	0.312885
988.000000	0.312567
989.000000	0.312177
990.000000	0.312006
991.000000	0.311961
992.000000	0.311878
993.000000	0.311799
994.000000	0.311673
995.000000	0.311639
996.000000	0.311561
997.000000	0.311617
998.000000	0.311455
999.000000	0.311093
1000.000000	0.310896
1001.000000	0.310987
1002.000000	0.311377
1003.000000	0.311080
1004.000000	0.310733
1005.000000	0.309983
1006.000000	0.309785
1007.000000	0.309607
1008.000000	0.309718
1009.000000	0.310115
1010.000000	0.309810
1011.000000	0.309109
1012.000000	0.309414
1013.000000	0.309868
1014.000000	0.309837
1015.000000	0.310348
1016.000000	0.310336
1017.000000	0.309808
1018.000000	0.310131
1019.000000	0.310086
1020.000000	0.309978
1021.000000	0.309605
1022.000000	0.309128
1023.000000	0.309089
1024.000000	0.309057
1025.000000	0.309014
1026.000000	0.309400
1027.000000	0.309323
1028.000000	0.309015
1029.000000	0.309561
1030.000000	0.309654
1031.000000	0.309666
1032.000000	0.310159
1033.000000	0.309761
1034.000000	0.309552
1035.000000	0.309239
1036.000000	0.309310
1037.000000	0.309426
1038.000000	0.309526
1039.000000	0.309963
1040.000000	0.310345
1041.000000	0.310697
1042.000000	0.311118
1043.000000	0.311209
1044.000000	0.311434
1045.000000	0.311918
1046.000000	0.311964
1047.000000	0.312053
1048.000000	0.312378
1049.000000	0.312290
1050.000000	0.311658
1051.000000	0.311574
1052.000000	0.311570
1053.000000	0.311738
1054.000000	0.312324
1055.000000	0.312712
1056.000000	0.313266
1057.000000	0.313791
1058.000000	0.313600
1059.000000	0.313416
1060.000000	0.313293
1061.000000	0.313303
1062.000000	0.313855
1063.000000	0.314436
1064.000000	0.314723
1065.000000	0.314774
1066.000000	0.314987
1067.000000	0.315028
1068.000000	0.315193
1069.000000	0.315549
1070.000000	0.315741
1071.000000	0.315885
1072.000000	0.315949
1073.000000	0.315916
1074.000000	0.316124
1075.000000	0.316057
1076.000000	0.316112
1077.000000	0.316228
1078.000000	0.316235
1079.000000	0.316205
1080.000000	0.315971
1081.000000	0.316241
1082.000000	0.316868
1083.000000	0.317264
1084.000000	0.317905
1085.000000	0.318525
1086.000000	0.319083
1087.000000	0.319417
1088.000000	0.319774
1089.000000	0.319984
1090.000000	0.319766
1091.000000	0.319607
1092.000000	0.319703
1093.000000	0.319671
1094.000000	0.319727
1095.000000	0.319570
1096.000000	0.319971
1097.000000	0.320929
1098.000000	0.321161
1099.000000	0.321313
1100.000000	0.321493
1101.000000	0.320834
1102.000000	0.321036
1103.000000	0.322063
1104.000000	0.322520
1105.000000	0.323134
1106.000000	0.323431
1107.000000	0.323022
1108.000000	0.323039
1109.000000	0.323284
1110.000000	0.323342
1111.000000	0.323692
1112.000000	0.324424
1113.000000	0.324742
1114.000000	0.325022
1115.000000	0.325192
1116.000000	0.325154
1117.000000	0.325200
1118.000000	0.325129
1119.000000	0.325196
1120.000000	0.325319
1121.000000	0.325452
1122.000000	0.325736
1123.000000	0.326206
1124.000000	0.326588
1125.000000	0.326915
1126.000000	0.327333
1127.000000	0.327527
1128.000000	0.327582
1129.000000	0.327447
1130.000000	0.327479
1131.000000	0.327507
1132.000000	0.327430
1133.000000	0.327274
1134.000000	0.327437
1135.000000	0.327647
1136.000000	0.327782
1137.000000	0.328170
1138.000000	0.328345
1139.000000	0.328314
1140.000000	0.328499
1141.000000	0.328843
1142.000000	0.329017
1143.000000	0.329096
1144.000000	0.329236
1145.000000	0.329107
1146.000000	0.328935
1147.000000	0.328866
1148.000000	0.328615
1149.000000	0.328737
1150.000000	0.329133
1151.000000	0.329338
1152.000000	0.329690
1153.000000	0.329807
1154.000000	0.329658
1155.000000	0.329571
1156.000000	0.329445
1157.000000	0.329336
1158.000000	0.329076
1159.000000	0.328973
1160.000000	0.328885
1161.000000	0.328861
1162.000000	0.328870
1163.000000	0.329345
1164.000000	0.329468
1165.000000	0.329555
1166.000000	0.329683
1167.000000	0.329729
1168.000000	0.329705
1169.000000	0.329687
1170.000000	0.329751
1171.000000	0.329793
1172.000000	0.329907
1173.000000	0.330144
1174.000000	0.330253
1175.000000	0.330293
1176.000000	0.330270
1177.000000	0.330243
1178.000000	0.330252
1179.000000	0.330163
1180.000000	0.330121
1181.000000	0.330276
1182.000000	0.330311
1183.000000	0.330373
1184.000000	0.330615
1185.000000	0.330729
1186.000000	0.330801
1187.000000	0.330876
1188.000000	0.330946
1189.000000	0.330959
1190.000000	0.331025
1191.000000	0.331040
1192.000000	0.331066
1193.000000	0.331174
1194.000000	0.331231
1195.000000	0.331204
1196.000000	0.331010
1197.000000	0.330990
1198.000000	0.330989
1199.000000	0.331004
1200.000000	0.331113
1201.000000	0.331290
1202.000000	0.331258
1203.000000	0.331330
1204.000000	0.331370
1205.000000	0.331247
1206.000000	0.331148
1207.000000	0.331093
1208.000000	0.331022
1209.000000	0.330950
1210.000000	0.330990
1211.000000	0.331114
1212.000000	0.331169
1213.000000	0.331326
1214.000000	0.331457
1215.000000	0.331578
1216.000000	0.331589
1217.000000	0.331448
1218.000000	0.331431
1219.000000	0.331426
1220.000000	0.331429
1221.000000	0.331572
1222.000000	0.331731
1223.000000	0.331755
1224.000000	0.331748
1225.000000	0.331729
1226.000000	0.331754
1227.000000	0.331753
1228.000000	0.331826
1229.000000	0.331764
1230.000000	0.331587
1231.000000	0.331444
1232.000000	0.331294
1233.000000	0.331437
1234.000000	0.331817
1235.000000	0.331955
1236.000000	0.332036
1237.000000	0.332118
1238.000000	0.332039
1239.000000	0.331987
1240.000000	0.331951
1241.000000	0.331909
1242.000000	0.331931
1243.000000	0.331985
1244.000000	0.332214
1245.000000	0.332463
1246.000000	0.332509
1247.000000	0.332624
1248.000000	0.332762
1249.000000	0.332872
1250.000000	0.332883
1251.000000	0.332816
1252.000000	0.332812
1253.000000	0.332761
1254.000000	0.332785
1255.000000	0.332903
1256.000000	0.332962
1257.000000	0.333065
1258.000000	0.333128
1259.000000	0.333078
1260.000000	0.333176
1261.000000	0.333256
1262.000000	0.333248
1263.000000	0.333270
1264.000000	0.333280
1265.000000	0.333328
1266.000000	0.333289
1267.000000	0.333358
1268.000000	0.333501
1269.000000	0.333506
1270.000000	0.333685
1271.000000	0.333775
1272.000000	0.333739
1273.000000	0.333800
1274.000000	0.333859
1275.000000	0.333876
1276.000000	0.333983
1277.000000	0.334043
1278.000000	0.333913
1279.000000	0.333869
1280.000000	0.333745
1281.000000	0.333667
1282.000000	0.333689
1283.000000	0.333752
1284.000000	0.333825
1285.000000	0.333917
1286.000000	0.334077
1287.000000	0.333989
1288.000000	0.334077
1289.000000	0.334094
1290.000000	0.334059
1291.000000	0.334249
1292.000000	0.334427
1293.000000	0.334585
1294.000000	0.334583
1295.000000	0.334643
1296.000000	0.334818
1297.000000	0.334802
1298.000000	0.334957
1299.000000	0.335043
1300.000000	0.334950
1301.000000	0.334885
1302.000000	0.334765
1303.000000	0.334751
1304.000000	0.334658
1305.000000	0.334554
1306.000000	0.334501
1307.000000	0.334507
1308.000000	0.334561
1309.000000	0.334712
1310.000000	0.334762
1311.000000	0.334862
1312.000000	0.334812
1313.000000	0.334604
1314.000000	0.334517
1315.000000	0.334356
1316.000000	0.334168
1317.000000	0.334199
1318.000000	0.334182
1319.000000	0.334061
1320.000000	0.334079
1321.000000	0.334003
1322.000000	0.333810
1323.000000	0.333763
1324.000000	0.333758
1325.000000	0.333547
1326.000000	0.333499
1327.000000	0.333556
1328.000000	0.333407
1329.000000	0.333297
1330.000000	0.333264
1331.000000	0.333229
1332.000000	0.333270
1333.000000	0.333211
1334.000000	0.333116
1335.000000	0.333107
1336.000000	0.333033
1337.000000	0.333035
1338.000000	0.333093
1339.000000	0.333241
1340.000000	0.333196
1341.000000	0.333036
1342.000000	0.332943
1343.000000	0.332781
1344.000000	0.332648
1345.000000	0.332549
1346.000000	0.332504
1347.000000	0.332416
1348.000000	0.332226
1349.000000	0.332004
1350.000000	0.331889
1351.000000	0.331640
1352.000000	0.331484
1353.000000	0.331434
1354.000000	0.331240
1355.000000	0.331111
1356.000000	0.331108
1357.000000	0.330919
1358.000000	0.330777
1359.000000	0.330595
1360.000000	0.330352
1361.000000	0.330006
1362.000000	0.329803
1363.000000	0.329570
1364.000000	0.329495
1365.000000	0.329622
1366.000000	0.329595
1367.000000	0.329605
1368.000000	0.329431
1369.000000	0.329253
1370.000000	0.328877
1371.000000	0.328488
1372.000000	0.328108
1373.000000	0.327728
1374.000000	0.327460
1375.000000	0.327218
1376.000000	0.327135
1377.000000	0.327051
1378.000000	0.326748
1379.000000	0.326439
1380.000000	0.326286
1381.000000	0.325879
1382.000000	0.325513
1383.000000	0.325300
1384.000000	0.324578
1385.000000	0.323939
1386.000000	0.323559
1387.000000	0.322970
1388.000000	0.322462
1389.000000	0.321829
1390.000000	0.321000
1391.000000	0.320133
1392.000000	0.319196
1393.000000	0.318394
1394.000000	0.317768
1395.000000	0.317105
1396.000000	0.316693
1397.000000	0.315824
1398.000000	0.314600
1399.000000	0.313544
1400.000000	0.312215
1401.000000	0.311042
1402.000000	0.310025
1403.000000	0.309190
1404.000000	0.308263
1405.000000	0.307236
1406.000000	0.306220
1407.000000	0.305262
1408.000000	0.304260
1409.000000	0.303350
1410.000000	0.302564
1411.000000	0.301638
1412.000000	0.300722
1413.000000	0.299959
1414.000000	0.299043
1415.000000	0.298139
1416.000000	0.297363
1417.000000	0.296548
1418.000000	0.295815
1419.000000	0.295223
1420.000000	0.294385
1421.000000	0.293494
1422.000000	0.292702
1423.000000	0.292014
1424.000000	0.291301
1425.000000	0.290689
1426.000000	0.290080
1427.000000	0.289358
1428.000000	0.288652
1429.000000	0.287895
1430.000000	0.287102
1431.000000	0.286487
1432.000000	0.285898
1433.000000	0.285494
1434.000000	0.284918
1435.000000	0.284320
1436.000000	0.283798
1437.000000	0.283190
1438.000000	0.282668
1439.000000	0.282325
1440.000000	0.281988
1441.000000	0.281676
1442.000000	0.281468
1443.000000	0.281322
1444.000000	0.281108
1445.000000	0.280939
1446.000000	0.280664
1447.000000	0.280419
1448.000000	0.280353
1449.000000	0.280308
1450.000000	0.280286
1451.000000	0.280237
1452.000000	0.280002
1453.000000	0.279786
1454.000000	0.279694
1455.000000	0.279661
1456.000000	0.279689
1457.000000	0.279789
1458.000000	0.279803
1459.000000	0.279703
1460.000000	0.279734
1461.000000	0.279624
1462.000000	0.279382
1463.000000	0.279324
1464.000000	0.279254
1465.000000	0.279152
1466.000000	0.279131
1467.000000	0.279057
1468.000000	0.278988
1469.000000	0.279137
1470.000000	0.279250
1471.000000	0.279382
1472.000000	0.279439
1473.000000	0.279509
1474.000000	0.279697
1475.000000	0.279825
1476.000000	0.280026
1477.000000	0.280394
1478.000000	0.280718
1479.000000	0.281083
1480.000000	0.281606
1481.000000	0.281996
1482.000000	0.282340
1483.000000	0.282700
1484.000000	0.282997
1485.000000	0.283347
1486.000000	0.283703
1487.000000	0.284089
1488.000000	0.284572
1489.000000	0.285010
1490.000000	0.285276
1491.000000	0.285691
1492.000000	0.286189
1493.000000	0.286556
1494.000000	0.286819
1495.000000	0.287210
1496.000000	0.287606
1497.000000	0.287946
1498.000000	0.288414
1499.000000	0.288721
1500.000000	0.288849
1501.000000	0.288983
1502.000000	0.289140
1503.000000	0.289508
1504.000000	0.289993
1505.000000	0.290306
1506.000000	0.290557
1507.000000	0.290829
1508.000000	0.291169
1509.000000	0.291503
1510.000000	0.291789
1511.000000	0.292012
1512.000000	0.292109
1513.000000	0.292151
1514.000000	0.292193
1515.000000	0.292338
1516.000000	0.292492
1517.000000	0.292562
1518.000000	0.292723
1519.000000	0.292830
1520.000000	0.292958
1521.000000	0.293089
1522.000000	0.293237
1523.000000	0.293482
1524.000000	0.293627
1525.000000	0.293754
1526.000000	0.293835
1527.000000	0.293870
1528.000000	0.294022
1529.000000	0.294121
1530.000000	0.294146
1531.000000	0.294202
1532.000000	0.294193
1533.000000	0.294180
1534.000000	0.294200
1535.000000	0.294293
1536.000000	0.294362
1537.000000	0.294476
1538.000000	0.294664
1539.000000	0.294723
1540.000000	0.294749
1541.000000	0.294891
1542.000000	0.294961
1543.000000	0.295071
1544.000000	0.295347
1545.000000	0.295504
1546.000000	0.295505
1547.000000	0.295583
1548.000000	0.295619
1549.000000	0.295604
1550.000000	0.295637
1551.000000	0.295618
1552.000000	0.295614
1553.000000	0.295598
1554.000000	0.295578
1555.000000	0.295690
1556.000000	0.295767
1557.000000	0.295735
1558.000000	0.295820
1559.000000	0.295943
1560.000000	0.295993
1561.000000	0.296113
1562.000000	0.296138
1563.000000	0.296163
1564.000000	0.296076
1565.000000	0.295840
1566.000000	0.295677
1567.000000	0.295537
1568.000000	0.295461
1569.000000	0.295537
1570.000000	0.295567
1571.000000	0.295564
1572.000000	0.295609
1573.000000	0.295707
1574.000000	0.295772
1575.000000	0.295917
1576.000000	0.295966
1577.000000	0.295913
1578.000000	0.295928
1579.000000	0.295959
1580.000000	0.295966
1581.000000	0.296084
1582.000000	0.296136
1583.000000	0.296162
1584.000000	0.296091
1585.000000	0.295985
1586.000000	0.295987
1587.000000	0.295967
1588.000000	0.296021
1589.000000	0.296231
1590.000000	0.296304
1591.000000	0.296349
1592.000000	0.296379
1593.000000	0.296383
1594.000000	0.296401
1595.000000	0.296482
1596.000000	0.296514
1597.000000	0.296502
1598.000000	0.296553
1599.000000	0.296655
1600.000000	0.296702
1601.000000	0.296863
1602.000000	0.296978
1603.000000	0.297073
1604.000000	0.297138
1605.000000	0.297276
1606.000000	0.297237
1607.000000	0.297055
1608.000000	0.297007
1609.000000	0.296979
1610.000000	0.296938
1611.000000	0.297049
1612.000000	0.297049
1613.000000	0.296997
1614.000000	0.297007
1615.000000	0.297100
1616.000000	0.297178
1617.000000	0.297219
1618.000000	0.297279
1619.000000	0.297360
1620.000000	0.297388
1621.000000	0.297391
1622.000000	0.297483
1623.000000	0.297524
1624.000000	0.297661
1625.000000	0.297807
1626.000000	0.297890
1627.000000	0.298008
1628.000000	0.298097
1629.000000	0.298096
1630.000000	0.298231
1631.000000	0.298352
1632.000000	0.298493
1633.000000	0.298752
1634.000000	0.298907
1635.000000	0.299041
1636.000000	0.299177
1637.000000	0.299300
1638.000000	0.299404
1639.000000	0.299567
1640.000000	0.299737
1641.000000	0.299914
1642.000000	0.300124
1643.000000	0.300440
1644.000000	0.300601
1645.000000	0.300742
1646.000000	0.300805
1647.000000	0.300779
1648.000000	0.300795
1649.000000	0.300818
1650.000000	0.300956
1651.000000	0.301232
1652.000000	0.301407
1653.000000	0.301544
1654.000000	0.301747
1655.000000	0.301816
1656.000000	0.301984
1657.000000	0.302401
1658.000000	0.302601
1659.000000	0.302852
1660.000000	0.303030
1661.000000	0.302974
1662.000000	0.303117
1663.000000	0.303258
1664.000000	0.303438
1665.000000	0.303770
1666.000000	0.303973
1667.000000	0.303984
1668.000000	0.304202
1669.000000	0.304457
1670.000000	0.304604
1671.000000	0.304936
1672.000000	0.305208
1673.000000	0.305332
1674.000000	0.305526
1675.000000	0.305684
1676.000000	0.305728
1677.000000	0.305759
1678.000000	0.305779
1679.000000	0.305842
1680.000000	0.305866
1681.000000	0.305969
1682.000000	0.306159
1683.000000	0.306288
1684.000000	0.306462
1685.000000	0.306506
1686.000000	0.306314
1687.000000	0.306290
1688.000000	0.306231
1689.000000	0.306152
1690.000000	0.306224
1691.000000	0.306411
1692.000000	0.306513
1693.000000	0.306630
1694.000000	0.306850
1695.000000	0.306978
1696.000000	0.307093
1697.000000	0.307120
1698.000000	0.307044
1699.000000	0.307083
1700.000000	0.307119
1701.000000	0.307272
1702.000000	0.307412
1703.000000	0.307470
1704.000000	0.307566
1705.000000	0.307707
1706.000000	0.307956
1707.000000	0.308070
1708.000000	0.308112
1709.000000	0.308112
1710.000000	0.308039
1711.000000	0.308056
1712.000000	0.308200
1713.000000	0.308269
1714.000000	0.308390
1715.000000	0.308415
1716.000000	0.308312
1717.000000	0.308330
1718.000000	0.308308
1719.000000	0.308366
1720.000000	0.308649
1721.000000	0.308786
1722.000000	0.308820
1723.000000	0.308972
1724.000000	0.309238
1725.000000	0.309359
1726.000000	0.309355
1727.000000	0.309460
1728.000000	0.309425
1729.000000	0.309422
1730.000000	0.309710
1731.000000	0.309817
1732.000000	0.309825
1733.000000	0.309893
1734.000000	0.309795
1735.000000	0.309842
1736.000000	0.309858
1737.000000	0.309973
1738.000000	0.310279
1739.000000	0.310401
1740.000000	0.310431
1741.000000	0.310559
1742.000000	0.310690
1743.000000	0.310814
1744.000000	0.311031
1745.000000	0.310998
1746.000000	0.310762
1747.000000	0.310707
1748.000000	0.310654
1749.000000	0.310769
1750.000000	0.310794
1751.000000	0.310876
1752.000000	0.311038
1753.000000	0.311079
1754.000000	0.311147
1755.000000	0.311289
1756.000000	0.311261
1757.000000	0.311024
1758.000000	0.310994
1759.000000	0.310930
1760.000000	0.310935
1761.000000	0.311113
1762.000000	0.311223
1763.000000	0.311294
1764.000000	0.311408
1765.000000	0.311558
1766.000000	0.311675
1767.000000	0.311696
1768.000000	0.311719
1769.000000	0.311775
1770.000000	0.311947
1771.000000	0.312118
1772.000000	0.312329
1773.000000	0.312646
1774.000000	0.312809
1775.000000	0.312996
1776.000000	0.313099
1777.000000	0.313013
1778.000000	0.313050
1779.000000	0.313109
1780.000000	0.313132
1781.000000	0.313128
1782.000000	0.313171
1783.000000	0.313270
1784.000000	0.313270
1785.000000	0.313161
1786.000000	0.313112
1787.000000	0.313238
1788.000000	0.313557
1789.000000	0.313857
1790.000000	0.313792
1791.000000	0.313782
1792.000000	0.313729
1793.000000	0.313744
1794.000000	0.313878
1795.000000	0.314072
1796.000000	0.314355
1797.000000	0.314451
1798.000000	0.314545
1799.000000	0.314563
1800.000000	0.314352
1801.000000	0.315028
1802.000000	0.314804
1803.000000	0.313628
1804.000000	0.313577
1805.000000	0.314445
1806.000000	0.314721
1807.000000	0.315304
1808.000000	0.315389
1809.000000	0.315508
1810.000000	0.314478
1811.000000	0.313927
1812.000000	0.312946
1813.000000	0.312816
1814.000000	0.313233
1815.000000	0.313319
1816.000000	0.313950
1817.000000	0.313882
1818.000000	0.313396
1819.000000	0.312688
1820.000000	0.312488
1821.000000	0.312201
1822.000000	0.312250
1823.000000	0.312857
1824.000000	0.312880
1825.000000	0.312543
1826.000000	0.312592
1827.000000	0.312475
1828.000000	0.312281
1829.000000	0.312893
1830.000000	0.314089
1831.000000	0.314487
1832.000000	0.315024
1833.000000	0.315300
1834.000000	0.314739
1835.000000	0.314652
1836.000000	0.314812
1837.000000	0.314623
1838.000000	0.313960
1839.000000	0.313917
1840.000000	0.313596
1841.000000	0.313585
1842.000000	0.313367
1843.000000	0.312947
1844.000000	0.312965
1845.000000	0.313232
1846.000000	0.313106
1847.000000	0.312866
1848.000000	0.312947
1849.000000	0.312059
1850.000000	0.311007
1851.000000	0.310074
1852.000000	0.308453
1853.000000	0.307967
1854.000000	0.307832
1855.000000	0.307754
1856.000000	0.308222
1857.000000	0.308799
1858.000000	0.308836
1859.000000	0.308132
1860.000000	0.307411
1861.000000	0.306304
1862.000000	0.305169
1863.000000	0.303906
1864.000000	0.302699
1865.000000	0.301394
1866.000000	0.300295
1867.000000	0.299275
1868.000000	0.298087
1869.000000	0.296876
1870.000000	0.294954
1871.000000	0.293792
1872.000000	0.292410
1873.000000	0.290996
1874.000000	0.289962
1875.000000	0.288521
1876.000000	0.286473
1877.000000	0.284323
1878.000000	0.282490
1879.000000	0.280647
1880.000000	0.278217
1881.000000	0.275748
1882.000000	0.273276
1883.000000	0.270795
1884.000000	0.268174
1885.000000	0.265665
1886.000000	0.262662
1887.000000	0.259400
1888.000000	0.255326
1889.000000	0.251430
1890.000000	0.247800
1891.000000	0.243580
1892.000000	0.239904
1893.000000	0.236374
1894.000000	0.232778
1895.000000	0.229097
1896.000000	0.225812
1897.000000	0.222078
1898.000000	0.218181
1899.000000	0.214435
1900.000000	0.210683
1901.000000	0.207503
1902.000000	0.204842
1903.000000	0.202240
1904.000000	0.200086
1905.000000	0.197798
1906.000000	0.195339
1907.000000	0.192518
1908.000000	0.190280
1909.000000	0.188262
1910.000000	0.186465
1911.000000	0.185569
1912.000000	0.184657
1913.000000	0.183233
1914.000000	0.181998
1915.000000	0.180916
1916.000000	0.179975
1917.000000	0.179020
1918.000000	0.178557
1919.000000	0.177864
1920.000000	0.176727
1921.000000	0.175876
1922.000000	0.175208
1923.000000	0.174899
1924.000000	0.174602
1925.000000	0.173877
1926.000000	0.173582
1927.000000	0.173705
1928.000000	0.173700
1929.000000	0.173943
1930.000000	0.174479
1931.000000	0.174742
1932.000000	0.174595
1933.000000	0.174547
1934.000000	0.174665
1935.000000	0.174700
1936.000000	0.174893
1937.000000	0.175192
1938.000000	0.174721
1939.000000	0.174401
1940.000000	0.173855
1941.000000	0.173423
1942.000000	0.173154
1943.000000	0.173704
1944.000000	0.173784
1945.000000	0.173543
1946.000000	0.173523
1947.000000	0.172627
1948.000000	0.172279
1949.000000	0.172559
1950.000000	0.172241
1951.000000	0.172017
1952.000000	0.172133
1953.000000	0.172104
1954.000000	0.171524
1955.000000	0.170790
1956.000000	0.170119
1957.000000	0.169204
1958.000000	0.168288
1959.000000	0.168074
1960.000000	0.168328
1961.000000	0.168705
1962.000000	0.168744
1963.000000	0.168815
1964.000000	0.168847
1965.000000	0.168477
1966.000000	0.168193
1967.000000	0.168755
1968.000000	0.168930
1969.000000	0.169004
1970.000000	0.169321
1971.000000	0.169108
1972.000000	0.169109
1973.000000	0.169150
1974.000000	0.169459
1975.000000	0.169477
1976.000000	0.169262
1977.000000	0.169537
1978.000000	0.169913
1979.000000	0.169668
1980.000000	0.170430
1981.000000	0.171362
1982.000000	0.171559
1983.000000	0.172986
1984.000000	0.173556
1985.000000	0.173323
1986.000000	0.173407
1987.000000	0.173572
1988.000000	0.173467
1989.000000	0.173627
1990.000000	0.174751
1991.000000	0.175533
1992.000000	0.176117
1993.000000	0.176508
1994.000000	0.177037
1995.000000	0.177729
1996.000000	0.177955
1997.000000	0.178401
1998.000000	0.178915
1999.000000	0.179557
2000.000000	0.180076
2001.000000	0.181097
2002.000000	0.182606
2003.000000	0.183971
2004.000000	0.184831
2005.000000	0.185284
2006.000000	0.185431
2007.000000	0.185747
2008.000000	0.186100
2009.000000	0.186414
2010.000000	0.187160
2011.000000	0.187792
2012.000000	0.188714
2013.000000	0.190034
2014.000000	0.191680
2015.000000	0.192603
2016.000000	0.193536
2017.000000	0.194512
2018.000000	0.195120
2019.000000	0.195830
2020.000000	0.196345
2021.000000	0.196893
2022.000000	0.196865
2023.000000	0.197684
2024.000000	0.199143
2025.000000	0.200422
2026.000000	0.202140
2027.000000	0.203125
2028.000000	0.203914
2029.000000	0.204638
2030.000000	0.205281
2031.000000	0.206169
2032.000000	0.207138
2033.000000	0.207834
2034.000000	0.208255
2035.000000	0.208178
2036.000000	0.208614
2037.000000	0.209094
2038.000000	0.209919
2039.000000	0.211315
2040.000000	0.212500
2041.000000	0.213657
2042.000000	0.214197
2043.000000	0.214814
2044.000000	0.215677
2045.000000	0.215804
2046.000000	0.216416
2047.000000	0.216703
2048.000000	0.216188
2049.000000	0.216636
2050.000000	0.217181
2051.000000	0.217763
2052.000000	0.219048
2053.000000	0.219673
2054.000000	0.220077
2055.000000	0.220737
2056.000000	0.221281
2057.000000	0.221987
2058.000000	0.222719
2059.000000	0.223465
2060.000000	0.224009
2061.000000	0.224130
2062.000000	0.224664
2063.000000	0.225435
2064.000000	0.226028
2065.000000	0.226827
2066.000000	0.227499
2067.000000	0.228356
2068.000000	0.229136
2069.000000	0.229500
2070.000000	0.230119
2071.000000	0.230685
2072.000000	0.231276
2073.000000	0.231804
2074.000000	0.232865
2075.000000	0.233765
2076.000000	0.234691
2077.000000	0.235033
2078.000000	0.235150
2079.000000	0.235367
2080.000000	0.234954
2081.000000	0.235338
2082.000000	0.236389
2083.000000	0.237260
2084.000000	0.238104
2085.000000	0.238778
2086.000000	0.239222
2087.000000	0.239996
2088.000000	0.241274
2089.000000	0.242541
2090.000000	0.243548
2091.000000	0.244835
2092.000000	0.245592
2093.000000	0.246012
2094.000000	0.246245
2095.000000	0.246078
2096.000000	0.246069
2097.000000	0.245822
2098.000000	0.245253
2099.000000	0.245650
2100.000000	0.246548
2101.000000	0.247417
2102.000000	0.248253
2103.000000	0.248478
2104.000000	0.249232
2105.000000	0.249960
2106.000000	0.250747
2107.000000	0.251677
2108.000000	0.252916
2109.000000	0.253599
2110.000000	0.254023
2111.000000	0.254539
2112.000000	0.254592
2113.000000	0.254917
2114.000000	0.255667
2115.000000	0.255540
2116.000000	0.255376
2117.000000	0.255166
2118.000000	0.254661
2119.000000	0.255189
2120.000000	0.255444
2121.000000	0.255838
2122.000000	0.256330
2123.000000	0.257209
2124.000000	0.257357
2125.000000	0.257266
2126.000000	0.257258
2127.000000	0.256449
2128.000000	0.256469
2129.000000	0.256917
2130.000000	0.257644
2131.000000	0.258449
2132.000000	0.258885
2133.000000	0.259268
2134.000000	0.259602
2135.000000	0.260453
2136.000000	0.262104
2137.000000	0.262867
2138.000000	0.264037
2139.000000	0.264328
2140.000000	0.263320
2141.000000	0.262856
2142.000000	0.262196
2143.000000	0.261571
2144.000000	0.261156
2145.000000	0.260784
2146.000000	0.260205
2147.000000	0.260556
2148.000000	0.260762
2149.000000	0.261572
2150.000000	0.262888
2151.000000	0.263022
2152.000000	0.262387
2153.000000	0.261973
2154.000000	0.261715
2155.000000	0.261214
2156.000000	0.261071
2157.000000	0.261517
2158.000000	0.261451
2159.000000	0.261207
2160.000000	0.260882
2161.000000	0.260035
2162.000000	0.260107
2163.000000	0.260552
2164.000000	0.260860
2165.000000	0.261928
2166.000000	0.262404
2167.000000	0.262228
2168.000000	0.262377
2169.000000	0.262253
2170.000000	0.262411
2171.000000	0.262703
2172.000000	0.263152
2173.000000	0.263343
2174.000000	0.263426
2175.000000	0.263943
2176.000000	0.264965
2177.000000	0.265333
2178.000000	0.266204
2179.000000	0.266066
2180.000000	0.264136
2181.000000	0.263537
2182.000000	0.262471
2183.000000	0.261837
2184.000000	0.262462
2185.000000	0.262879
2186.000000	0.263575
2187.000000	0.265086
2188.000000	0.265284
2189.000000	0.265602
2190.000000	0.266369
2191.000000	0.266401
2192.000000	0.265916
2193.000000	0.265452
2194.000000	0.264134
2195.000000	0.261065
2196.000000	0.259221
2197.000000	0.256686
2198.000000	0.255888
2199.000000	0.256764
2200.000000	0.257253
2201.000000	0.259553
2202.000000	0.261002
2203.000000	0.261508
2204.000000	0.262549
2205.000000	0.262945
2206.000000	0.263689
2207.000000	0.264999
2208.000000	0.265976
2209.000000	0.266791
2210.000000	0.267777
2211.000000	0.269051
2212.000000	0.267659
2213.000000	0.266797
2214.000000	0.265728
2215.000000	0.263845
2216.000000	0.261562
2217.000000	0.259203
2218.000000	0.254293
2219.000000	0.253608
2220.000000	0.254561
2221.000000	0.255843
2222.000000	0.262022
2223.000000	0.263665
2224.000000	0.263529
2225.000000	0.261783
2226.000000	0.260243
2227.000000	0.258821
2228.000000	0.258758
2229.000000	0.262153
2230.000000	0.265524
2231.000000	0.267930
2232.000000	0.269954
2233.000000	0.267800
2234.000000	0.267063
2235.000000	0.266562
2236.000000	0.265346
2237.000000	0.264785
2238.000000	0.264842
2239.000000	0.263742
2240.000000	0.263672
2241.000000	0.266255
2242.000000	0.265043
2243.000000	0.261443
2244.000000	0.259454
2245.000000	0.255444
2246.000000	0.254158
2247.000000	0.254912
2248.000000	0.255177
2249.000000	0.256633
2250.000000	0.257578
2251.000000	0.258091
2252.000000	0.258096
2253.000000	0.257733
2254.000000	0.258117
2255.000000	0.257781
2256.000000	0.260152
2257.000000	0.263347
2258.000000	0.263248
2259.000000	0.263645
2260.000000	0.265741
2261.000000	0.265290
2262.000000	0.262473
2263.000000	0.261697
2264.000000	0.260828
2265.000000	0.259581
2266.000000	0.259048
2267.000000	0.258518
2268.000000	0.257437
2269.000000	0.256645
2270.000000	0.256496
2271.000000	0.255843
2272.000000	0.254474
2273.000000	0.253446
2274.000000	0.251867
2275.000000	0.251761
2276.000000	0.252646
2277.000000	0.253579
2278.000000	0.255203
2279.000000	0.256662
2280.000000	0.255675
2281.000000	0.254270
2282.000000	0.251742
2283.000000	0.249100
2284.000000	0.246576
2285.000000	0.244740
2286.000000	0.245086
2287.000000	0.244230
2288.000000	0.244130
2289.000000	0.244484
2290.000000	0.242941
2291.000000	0.242918
2292.000000	0.242369
2293.000000	0.241156
2294.000000	0.240154
2295.000000	0.238369
2296.000000	0.237417
2297.000000	0.236876
2298.000000	0.236776
2299.000000	0.238042
2300.000000	0.238646
2301.000000	0.239003
2302.000000	0.238989
2303.000000	0.238691
2304.000000	0.238087
2305.000000	0.236887
2306.000000	0.236097
2307.000000	0.235248
2308.000000	0.234331
2309.000000	0.233753
2310.000000	0.236137
2311.000000	0.237601
2312.000000	0.237339
2313.000000	0.238369
2314.000000	0.237362
2315.000000	0.236024
2316.000000	0.235380
2317.000000	0.232752
2318.000000	0.229326
2319.000000	0.227276
2320.000000	0.226268
2321.000000	0.228463
2322.000000	0.231316
2323.000000	0.230923
2324.000000	0.231613
2325.000000	0.229815
2326.000000	0.226998
2327.000000	0.227911
2328.000000	0.227972
2329.000000	0.228566
2330.000000	0.229228
2331.000000	0.227809
2332.000000	0.227041
2333.000000	0.227440
2334.000000	0.227219
2335.000000	0.226973
2336.000000	0.227600
2337.000000	0.226281
2338.000000	0.223009
2339.000000	0.220214
2340.000000	0.215607
2341.000000	0.213612
2342.000000	0.213303
2343.000000	0.212380
2344.000000	0.213234
2345.000000	0.212906
2346.000000	0.211014
2347.000000	0.209708
2348.000000	0.209191
2349.000000	0.207698
2350.000000	0.203464
2351.000000	0.201503
2352.000000	0.199366
2353.000000	0.197068
2354.000000	0.199351
2355.000000	0.200937
2356.000000	0.201153
2357.000000	0.202442
2358.000000	0.200233
2359.000000	0.200088
2360.000000	0.204745
2361.000000	0.206373
2362.000000	0.208688
2363.000000	0.211138
2364.000000	0.206554
2365.000000	0.199660
2366.000000	0.193983
2367.000000	0.188282
2368.000000	0.186960
2369.000000	0.192423
2370.000000	0.194523
2371.000000	0.192656
2372.000000	0.193356
2373.000000	0.190604
2374.000000	0.189985
2375.000000	0.193808
2376.000000	0.192149
2377.000000	0.189903
2378.000000	0.187179
2379.000000	0.182006
2380.000000	0.179222
2381.000000	0.180253
2382.000000	0.183601
2383.000000	0.185887
2384.000000	0.189871
2385.000000	0.191516
2386.000000	0.188583
2387.000000	0.189793
2388.000000	0.189464
2389.000000	0.185686
2390.000000	0.186092
2391.000000	0.184748
2392.000000	0.179437
2393.000000	0.178199
2394.000000	0.176586
2395.000000	0.174084
2396.000000	0.174544
2397.000000	0.172134
2398.000000	0.169840
2399.000000	0.166597
2400.000000	0.157959
2401.000000	0.156710
2402.000000	0.165630
2403.000000	0.168757
2404.000000	0.174661
2405.000000	0.180638
2406.000000	0.170888
2407.000000	0.164118
2408.000000	0.160321
2409.000000	0.152496
2410.000000	0.150264
2411.000000	0.148724
2412.000000	0.152071
2413.000000	0.163291
2414.000000	0.167241
2415.000000	0.163518
2416.000000	0.152726
2417.000000	0.138907
2418.000000	0.131591
2419.000000	0.132790
2420.000000	0.144810
2421.000000	0.155274
2422.000000	0.155934
2423.000000	0.159568
2424.000000	0.158559
2425.000000	0.156234
2426.000000	0.165054
2427.000000	0.167851
2428.000000	0.172190
2429.000000	0.175789
2430.000000	0.176038
2431.000000	0.181245
2432.000000	0.181845
2433.000000	0.184588
2434.000000	0.181216
2435.000000	0.173420
2436.000000	0.160777
2437.000000	0.140242
2438.000000	0.134971
2439.000000	0.135101
2440.000000	0.133738
2441.000000	0.149834
2442.000000	0.162082
2443.000000	0.160274
2444.000000	0.163862
2445.000000	0.160952
2446.000000	0.149925
2447.000000	0.146160
2448.000000	0.141470
2449.000000	0.132656
2450.000000	0.126056
2451.000000	0.124775
2452.000000	0.128697
2453.000000	0.133740
2454.000000	0.145259
2455.000000	0.149951
2456.000000	0.143566
2457.000000	0.136912
2458.000000	0.123206
2459.000000	0.116456
2460.000000	0.120165
2461.000000	0.131039
2462.000000	0.144260
2463.000000	0.155439
2464.000000	0.170580
2465.000000	0.175581
2466.000000	0.176971
2467.000000	0.170330
2468.000000	0.160307
2469.000000	0.149494
2470.000000	0.143445
2471.000000	0.157898
2472.000000	0.151425
2473.000000	0.149070
2474.000000	0.164287
2475.000000	0.140883
2476.000000	0.121959
2477.000000	0.124535
2478.000000	0.097075
2479.000000	0.086816
2480.000000	0.088172
2481.000000	0.065365
2482.000000	0.065289
2483.000000	0.077655
2484.000000	0.097581
2485.000000	0.134741
2486.000000	0.144678
2487.000000	0.147689
2488.000000	0.179698
2489.000000	0.176479
2490.000000	0.165814
2491.000000	0.199050
2492.000000	0.211545
2493.000000	0.275303
2494.000000	0.291974
2495.000000	0.247153
2496.000000	0.209993
2497.000000	0.127843
2498.000000	0.084132
2499.000000	0.056949
2500.000000	0.038721
