# Wavelength	NAu-1-60_HEX-20_FV7-20_00001.asd.rts.txt
350.000000	0.138754
351.000000	0.093360
352.000000	0.094604
353.000000	0.113395
354.000000	0.124386
355.000000	0.113116
356.000000	0.104833
357.000000	0.108783
358.000000	0.122462
359.000000	0.122577
360.000000	0.118337
361.000000	0.121895
362.000000	0.105858
363.000000	0.100087
364.000000	0.117059
365.000000	0.119713
366.000000	0.114920
367.000000	0.108655
368.000000	0.107395
369.000000	0.110221
370.000000	0.114029
371.000000	0.115309
372.000000	0.114726
373.000000	0.116886
374.000000	0.122280
375.000000	0.118420
376.000000	0.116913
377.000000	0.120672
378.000000	0.125311
379.000000	0.123385
380.000000	0.120075
381.000000	0.123679
382.000000	0.124251
383.000000	0.123866
384.000000	0.124704
385.000000	0.124805
386.000000	0.124287
387.000000	0.124539
388.000000	0.128617
389.000000	0.130144
390.000000	0.130298
391.000000	0.132464
392.000000	0.134303
393.000000	0.136687
394.000000	0.139777
395.000000	0.139792
396.000000	0.141081
397.000000	0.144219
398.000000	0.144810
399.000000	0.145818
400.000000	0.147230
401.000000	0.147865
402.000000	0.148336
403.000000	0.149428
404.000000	0.151602
405.000000	0.153672
406.000000	0.155509
407.000000	0.157153
408.000000	0.158707
409.000000	0.160040
410.000000	0.161031
411.000000	0.161549
412.000000	0.162319
413.000000	0.163653
414.000000	0.165454
415.000000	0.166005
416.000000	0.166105
417.000000	0.166590
418.000000	0.168286
419.000000	0.168849
420.000000	0.168291
421.000000	0.168593
422.000000	0.169402
423.000000	0.169887
424.000000	0.169289
425.000000	0.169095
426.000000	0.169157
427.000000	0.169237
428.000000	0.169627
429.000000	0.170003
430.000000	0.170182
431.000000	0.170122
432.000000	0.169846
433.000000	0.169619
434.000000	0.169858
435.000000	0.169881
436.000000	0.169716
437.000000	0.169513
438.000000	0.169421
439.000000	0.168956
440.000000	0.168182
441.000000	0.168093
442.000000	0.167878
443.000000	0.167404
444.000000	0.167079
445.000000	0.166534
446.000000	0.166264
447.000000	0.166751
448.000000	0.167529
449.000000	0.168635
450.000000	0.170082
451.000000	0.171613
452.000000	0.173471
453.000000	0.175680
454.000000	0.178197
455.000000	0.180969
456.000000	0.183818
457.000000	0.186430
458.000000	0.189059
459.000000	0.191680
460.000000	0.194257
461.000000	0.196767
462.000000	0.198887
463.000000	0.200427
464.000000	0.201756
465.000000	0.203238
466.000000	0.204830
467.000000	0.206299
468.000000	0.207325
469.000000	0.208051
470.000000	0.208896
471.000000	0.210005
472.000000	0.211049
473.000000	0.211825
474.000000	0.212479
475.000000	0.212934
476.000000	0.213427
477.000000	0.214283
478.000000	0.215074
479.000000	0.215707
480.000000	0.215970
481.000000	0.216485
482.000000	0.217305
483.000000	0.218115
484.000000	0.218618
485.000000	0.218976
486.000000	0.219473
487.000000	0.220113
488.000000	0.220743
489.000000	0.221424
490.000000	0.222341
491.000000	0.223084
492.000000	0.223715
493.000000	0.224319
494.000000	0.225130
495.000000	0.225840
496.000000	0.226291
497.000000	0.227051
498.000000	0.227870
499.000000	0.228663
500.000000	0.229353
501.000000	0.230019
502.000000	0.230761
503.000000	0.231610
504.000000	0.232483
505.000000	0.233305
506.000000	0.234048
507.000000	0.234862
508.000000	0.235740
509.000000	0.236623
510.000000	0.237473
511.000000	0.238419
512.000000	0.239406
513.000000	0.240161
514.000000	0.241114
515.000000	0.242190
516.000000	0.243118
517.000000	0.244081
518.000000	0.245092
519.000000	0.246080
520.000000	0.247166
521.000000	0.248191
522.000000	0.249142
523.000000	0.250194
524.000000	0.251347
525.000000	0.252501
526.000000	0.253538
527.000000	0.254716
528.000000	0.255888
529.000000	0.256940
530.000000	0.258207
531.000000	0.259567
532.000000	0.260836
533.000000	0.262111
534.000000	0.263344
535.000000	0.264536
536.000000	0.265773
537.000000	0.267046
538.000000	0.268359
539.000000	0.269703
540.000000	0.270989
541.000000	0.272244
542.000000	0.273530
543.000000	0.274784
544.000000	0.276085
545.000000	0.277397
546.000000	0.278711
547.000000	0.279995
548.000000	0.281270
549.000000	0.282496
550.000000	0.283785
551.000000	0.285140
552.000000	0.286469
553.000000	0.287742
554.000000	0.288984
555.000000	0.290241
556.000000	0.291588
557.000000	0.292810
558.000000	0.293978
559.000000	0.295150
560.000000	0.296169
561.000000	0.297220
562.000000	0.298472
563.000000	0.299550
564.000000	0.300574
565.000000	0.301614
566.000000	0.302669
567.000000	0.303671
568.000000	0.304575
569.000000	0.305481
570.000000	0.306266
571.000000	0.306968
572.000000	0.307803
573.000000	0.308651
574.000000	0.309406
575.000000	0.310046
576.000000	0.310791
577.000000	0.311465
578.000000	0.312007
579.000000	0.312624
580.000000	0.313206
581.000000	0.313709
582.000000	0.314207
583.000000	0.314664
584.000000	0.315103
585.000000	0.315581
586.000000	0.315965
587.000000	0.316278
588.000000	0.316587
589.000000	0.316930
590.000000	0.317228
591.000000	0.317437
592.000000	0.317605
593.000000	0.317832
594.000000	0.318112
595.000000	0.318329
596.000000	0.318533
597.000000	0.318732
598.000000	0.318822
599.000000	0.318927
600.000000	0.319077
601.000000	0.319188
602.000000	0.319267
603.000000	0.319361
604.000000	0.319478
605.000000	0.319494
606.000000	0.319574
607.000000	0.319680
608.000000	0.319644
609.000000	0.319666
610.000000	0.319711
611.000000	0.319705
612.000000	0.319713
613.000000	0.319780
614.000000	0.319917
615.000000	0.319883
616.000000	0.319883
617.000000	0.319937
618.000000	0.319991
619.000000	0.320026
620.000000	0.320039
621.000000	0.320099
622.000000	0.320100
623.000000	0.320082
624.000000	0.320091
625.000000	0.320118
626.000000	0.320168
627.000000	0.320241
628.000000	0.320344
629.000000	0.320404
630.000000	0.320362
631.000000	0.320477
632.000000	0.320595
633.000000	0.320726
634.000000	0.320879
635.000000	0.321006
636.000000	0.321140
637.000000	0.321284
638.000000	0.321426
639.000000	0.321573
640.000000	0.321738
641.000000	0.321764
642.000000	0.321886
643.000000	0.322071
644.000000	0.322217
645.000000	0.322422
646.000000	0.322670
647.000000	0.322891
648.000000	0.323042
649.000000	0.323251
650.000000	0.323496
651.000000	0.323617
652.000000	0.323766
653.000000	0.323991
654.000000	0.324203
655.000000	0.324400
656.000000	0.324642
657.000000	0.324907
658.000000	0.325153
659.000000	0.325419
660.000000	0.325703
661.000000	0.325984
662.000000	0.326170
663.000000	0.326379
664.000000	0.326741
665.000000	0.327106
666.000000	0.327437
667.000000	0.327699
668.000000	0.327978
669.000000	0.328302
670.000000	0.328659
671.000000	0.328934
672.000000	0.329286
673.000000	0.329709
674.000000	0.330086
675.000000	0.330419
676.000000	0.330760
677.000000	0.331179
678.000000	0.331546
679.000000	0.331933
680.000000	0.332383
681.000000	0.332766
682.000000	0.333188
683.000000	0.333596
684.000000	0.334022
685.000000	0.334456
686.000000	0.334938
687.000000	0.335451
688.000000	0.335912
689.000000	0.336365
690.000000	0.336881
691.000000	0.337377
692.000000	0.337857
693.000000	0.338412
694.000000	0.339042
695.000000	0.339569
696.000000	0.340006
697.000000	0.340460
698.000000	0.341037
699.000000	0.341622
700.000000	0.342124
701.000000	0.342633
702.000000	0.343192
703.000000	0.343768
704.000000	0.344275
705.000000	0.344852
706.000000	0.345437
707.000000	0.345990
708.000000	0.346570
709.000000	0.347119
710.000000	0.347624
711.000000	0.348184
712.000000	0.348713
713.000000	0.349220
714.000000	0.349789
715.000000	0.350357
716.000000	0.350920
717.000000	0.351471
718.000000	0.352062
719.000000	0.352634
720.000000	0.353160
721.000000	0.353727
722.000000	0.354255
723.000000	0.354777
724.000000	0.355273
725.000000	0.355727
726.000000	0.356223
727.000000	0.356695
728.000000	0.357180
729.000000	0.357711
730.000000	0.358234
731.000000	0.358729
732.000000	0.359222
733.000000	0.359730
734.000000	0.360109
735.000000	0.360511
736.000000	0.361039
737.000000	0.361478
738.000000	0.361876
739.000000	0.362324
740.000000	0.362695
741.000000	0.363113
742.000000	0.363592
743.000000	0.364054
744.000000	0.364412
745.000000	0.364698
746.000000	0.365000
747.000000	0.365298
748.000000	0.365594
749.000000	0.365887
750.000000	0.366141
751.000000	0.366374
752.000000	0.366649
753.000000	0.366927
754.000000	0.367047
755.000000	0.367217
756.000000	0.367455
757.000000	0.367656
758.000000	0.367795
759.000000	0.367911
760.000000	0.367980
761.000000	0.368157
762.000000	0.368322
763.000000	0.368422
764.000000	0.368536
765.000000	0.368637
766.000000	0.368733
767.000000	0.368823
768.000000	0.368881
769.000000	0.368923
770.000000	0.368965
771.000000	0.369007
772.000000	0.369080
773.000000	0.369071
774.000000	0.368983
775.000000	0.368940
776.000000	0.368837
777.000000	0.368609
778.000000	0.368489
779.000000	0.368400
780.000000	0.368306
781.000000	0.368178
782.000000	0.368041
783.000000	0.367968
784.000000	0.367818
785.000000	0.367662
786.000000	0.367468
787.000000	0.367222
788.000000	0.366965
789.000000	0.366716
790.000000	0.366452
791.000000	0.366184
792.000000	0.365961
793.000000	0.365772
794.000000	0.365580
795.000000	0.365249
796.000000	0.364949
797.000000	0.364707
798.000000	0.364413
799.000000	0.364110
800.000000	0.363810
801.000000	0.363522
802.000000	0.363257
803.000000	0.362979
804.000000	0.362712
805.000000	0.362444
806.000000	0.362105
807.000000	0.361797
808.000000	0.361514
809.000000	0.361126
810.000000	0.360759
811.000000	0.360472
812.000000	0.360041
813.000000	0.359621
814.000000	0.359270
815.000000	0.358993
816.000000	0.358602
817.000000	0.358171
818.000000	0.357728
819.000000	0.357339
820.000000	0.357018
821.000000	0.356691
822.000000	0.356355
823.000000	0.355944
824.000000	0.355442
825.000000	0.355007
826.000000	0.354695
827.000000	0.354401
828.000000	0.354103
829.000000	0.353807
830.000000	0.353444
831.000000	0.353088
832.000000	0.352701
833.000000	0.352329
834.000000	0.351957
835.000000	0.351595
836.000000	0.351191
837.000000	0.350829
838.000000	0.350494
839.000000	0.350047
840.000000	0.349690
841.000000	0.349364
842.000000	0.348956
843.000000	0.348652
844.000000	0.348251
845.000000	0.347747
846.000000	0.347441
847.000000	0.347120
848.000000	0.346727
849.000000	0.346325
850.000000	0.346116
851.000000	0.345924
852.000000	0.345684
853.000000	0.345371
854.000000	0.344983
855.000000	0.344655
856.000000	0.344334
857.000000	0.344019
858.000000	0.343696
859.000000	0.343283
860.000000	0.342849
861.000000	0.342513
862.000000	0.342286
863.000000	0.342027
864.000000	0.341646
865.000000	0.341211
866.000000	0.340807
867.000000	0.340427
868.000000	0.340286
869.000000	0.340182
870.000000	0.339896
871.000000	0.339573
872.000000	0.339261
873.000000	0.338921
874.000000	0.338592
875.000000	0.338295
876.000000	0.338035
877.000000	0.337730
878.000000	0.337398
879.000000	0.337055
880.000000	0.336632
881.000000	0.336462
882.000000	0.336273
883.000000	0.336081
884.000000	0.335923
885.000000	0.335712
886.000000	0.335418
887.000000	0.335091
888.000000	0.334807
889.000000	0.334597
890.000000	0.334321
891.000000	0.334034
892.000000	0.333682
893.000000	0.333436
894.000000	0.333394
895.000000	0.333067
896.000000	0.332873
897.000000	0.332757
898.000000	0.332539
899.000000	0.332333
900.000000	0.332112
901.000000	0.331886
902.000000	0.331867
903.000000	0.331699
904.000000	0.331452
905.000000	0.331205
906.000000	0.331131
907.000000	0.331043
908.000000	0.330925
909.000000	0.330765
910.000000	0.330636
911.000000	0.330457
912.000000	0.330203
913.000000	0.330107
914.000000	0.330011
915.000000	0.329938
916.000000	0.329860
917.000000	0.329622
918.000000	0.329436
919.000000	0.329379
920.000000	0.329104
921.000000	0.328828
922.000000	0.328686
923.000000	0.328694
924.000000	0.328539
925.000000	0.328340
926.000000	0.328217
927.000000	0.328077
928.000000	0.327962
929.000000	0.327829
930.000000	0.327661
931.000000	0.327696
932.000000	0.327599
933.000000	0.327434
934.000000	0.327593
935.000000	0.327407
936.000000	0.327152
937.000000	0.327061
938.000000	0.326992
939.000000	0.327055
940.000000	0.327092
941.000000	0.326984
942.000000	0.326812
943.000000	0.326752
944.000000	0.326698
945.000000	0.326488
946.000000	0.326446
947.000000	0.326469
948.000000	0.326312
949.000000	0.326287
950.000000	0.326332
951.000000	0.326339
952.000000	0.326313
953.000000	0.326289
954.000000	0.326202
955.000000	0.326008
956.000000	0.326087
957.000000	0.326086
958.000000	0.326024
959.000000	0.326145
960.000000	0.326032
961.000000	0.325777
962.000000	0.325517
963.000000	0.325458
964.000000	0.325611
965.000000	0.325830
966.000000	0.325867
967.000000	0.325881
968.000000	0.325846
969.000000	0.325692
970.000000	0.325520
971.000000	0.325598
972.000000	0.325775
973.000000	0.325942
974.000000	0.326279
975.000000	0.326196
976.000000	0.326117
977.000000	0.326355
978.000000	0.326241
979.000000	0.326307
980.000000	0.326345
981.000000	0.326394
982.000000	0.326473
983.000000	0.326566
984.000000	0.326685
985.000000	0.326710
986.000000	0.326708
987.000000	0.326886
988.000000	0.327095
989.000000	0.326778
990.000000	0.326903
991.000000	0.327340
992.000000	0.327642
993.000000	0.327650
994.000000	0.327750
995.000000	0.328106
996.000000	0.328273
997.000000	0.328637
998.000000	0.328818
999.000000	0.328873
1000.000000	0.329322
1001.000000	0.329123
1002.000000	0.328920
1003.000000	0.328969
1004.000000	0.329106
1005.000000	0.329419
1006.000000	0.329614
1007.000000	0.329851
1008.000000	0.330185
1009.000000	0.330799
1010.000000	0.331233
1011.000000	0.331317
1012.000000	0.331207
1013.000000	0.330824
1014.000000	0.330260
1015.000000	0.330596
1016.000000	0.331462
1017.000000	0.331134
1018.000000	0.331331
1019.000000	0.331747
1020.000000	0.332098
1021.000000	0.332088
1022.000000	0.332549
1023.000000	0.333193
1024.000000	0.333446
1025.000000	0.334163
1026.000000	0.334736
1027.000000	0.334950
1028.000000	0.334737
1029.000000	0.334854
1030.000000	0.335655
1031.000000	0.336304
1032.000000	0.336956
1033.000000	0.337264
1034.000000	0.337709
1035.000000	0.338395
1036.000000	0.338591
1037.000000	0.338300
1038.000000	0.338382
1039.000000	0.338412
1040.000000	0.338401
1041.000000	0.339054
1042.000000	0.340209
1043.000000	0.340804
1044.000000	0.341272
1045.000000	0.341636
1046.000000	0.341927
1047.000000	0.342535
1048.000000	0.343356
1049.000000	0.343764
1050.000000	0.344248
1051.000000	0.344628
1052.000000	0.344596
1053.000000	0.344849
1054.000000	0.345451
1055.000000	0.345893
1056.000000	0.346271
1057.000000	0.346963
1058.000000	0.347143
1059.000000	0.346940
1060.000000	0.346956
1061.000000	0.346847
1062.000000	0.347106
1063.000000	0.347944
1064.000000	0.348895
1065.000000	0.350469
1066.000000	0.351206
1067.000000	0.351838
1068.000000	0.352320
1069.000000	0.352151
1070.000000	0.352181
1071.000000	0.352119
1072.000000	0.352436
1073.000000	0.352750
1074.000000	0.353441
1075.000000	0.354824
1076.000000	0.355962
1077.000000	0.356508
1078.000000	0.357062
1079.000000	0.357557
1080.000000	0.357730
1081.000000	0.358092
1082.000000	0.358649
1083.000000	0.359181
1084.000000	0.359628
1085.000000	0.360225
1086.000000	0.361134
1087.000000	0.361790
1088.000000	0.362187
1089.000000	0.362642
1090.000000	0.363087
1091.000000	0.363341
1092.000000	0.363309
1093.000000	0.363760
1094.000000	0.364209
1095.000000	0.364443
1096.000000	0.365087
1097.000000	0.366187
1098.000000	0.367045
1099.000000	0.368128
1100.000000	0.368726
1101.000000	0.368785
1102.000000	0.369278
1103.000000	0.369661
1104.000000	0.370104
1105.000000	0.371013
1106.000000	0.371575
1107.000000	0.371461
1108.000000	0.371854
1109.000000	0.372487
1110.000000	0.373256
1111.000000	0.373922
1112.000000	0.374903
1113.000000	0.375539
1114.000000	0.375808
1115.000000	0.376449
1116.000000	0.377347
1117.000000	0.377917
1118.000000	0.378473
1119.000000	0.378887
1120.000000	0.378864
1121.000000	0.379240
1122.000000	0.380020
1123.000000	0.380745
1124.000000	0.381272
1125.000000	0.381878
1126.000000	0.382389
1127.000000	0.382782
1128.000000	0.383134
1129.000000	0.383551
1130.000000	0.383965
1131.000000	0.384344
1132.000000	0.384578
1133.000000	0.384787
1134.000000	0.385175
1135.000000	0.385272
1136.000000	0.385761
1137.000000	0.386895
1138.000000	0.387354
1139.000000	0.387618
1140.000000	0.388099
1141.000000	0.388173
1142.000000	0.388549
1143.000000	0.389280
1144.000000	0.389946
1145.000000	0.390465
1146.000000	0.390812
1147.000000	0.391175
1148.000000	0.391366
1149.000000	0.391590
1150.000000	0.391796
1151.000000	0.392053
1152.000000	0.392144
1153.000000	0.392464
1154.000000	0.392969
1155.000000	0.393240
1156.000000	0.393470
1157.000000	0.393760
1158.000000	0.393780
1159.000000	0.394043
1160.000000	0.394584
1161.000000	0.394942
1162.000000	0.395296
1163.000000	0.395895
1164.000000	0.396168
1165.000000	0.396490
1166.000000	0.396937
1167.000000	0.397438
1168.000000	0.397773
1169.000000	0.398189
1170.000000	0.398525
1171.000000	0.398765
1172.000000	0.399042
1173.000000	0.399204
1174.000000	0.399547
1175.000000	0.399951
1176.000000	0.400274
1177.000000	0.400804
1178.000000	0.401230
1179.000000	0.401502
1180.000000	0.401757
1181.000000	0.402107
1182.000000	0.402507
1183.000000	0.402823
1184.000000	0.403173
1185.000000	0.403472
1186.000000	0.403765
1187.000000	0.403967
1188.000000	0.404053
1189.000000	0.404284
1190.000000	0.404571
1191.000000	0.404869
1192.000000	0.405420
1193.000000	0.405929
1194.000000	0.406336
1195.000000	0.406641
1196.000000	0.406800
1197.000000	0.406980
1198.000000	0.407042
1199.000000	0.407202
1200.000000	0.407393
1201.000000	0.407596
1202.000000	0.407977
1203.000000	0.408379
1204.000000	0.408568
1205.000000	0.408858
1206.000000	0.409030
1207.000000	0.409150
1208.000000	0.409209
1209.000000	0.409287
1210.000000	0.409484
1211.000000	0.409636
1212.000000	0.409817
1213.000000	0.410250
1214.000000	0.410546
1215.000000	0.410712
1216.000000	0.410902
1217.000000	0.411014
1218.000000	0.411198
1219.000000	0.411429
1220.000000	0.411692
1221.000000	0.411967
1222.000000	0.412266
1223.000000	0.412531
1224.000000	0.412718
1225.000000	0.412895
1226.000000	0.413070
1227.000000	0.413124
1228.000000	0.413270
1229.000000	0.413340
1230.000000	0.413309
1231.000000	0.413405
1232.000000	0.413729
1233.000000	0.414006
1234.000000	0.414382
1235.000000	0.414566
1236.000000	0.414371
1237.000000	0.414547
1238.000000	0.414895
1239.000000	0.414992
1240.000000	0.415051
1241.000000	0.415214
1242.000000	0.415217
1243.000000	0.415335
1244.000000	0.415768
1245.000000	0.416210
1246.000000	0.416244
1247.000000	0.416306
1248.000000	0.416408
1249.000000	0.416431
1250.000000	0.416689
1251.000000	0.416801
1252.000000	0.416835
1253.000000	0.416802
1254.000000	0.416814
1255.000000	0.416727
1256.000000	0.416834
1257.000000	0.417133
1258.000000	0.417327
1259.000000	0.417411
1260.000000	0.417560
1261.000000	0.417593
1262.000000	0.417730
1263.000000	0.417961
1264.000000	0.418246
1265.000000	0.418528
1266.000000	0.418620
1267.000000	0.418501
1268.000000	0.418504
1269.000000	0.418609
1270.000000	0.418698
1271.000000	0.418828
1272.000000	0.418993
1273.000000	0.419069
1274.000000	0.419077
1275.000000	0.419117
1276.000000	0.419243
1277.000000	0.419406
1278.000000	0.419477
1279.000000	0.419484
1280.000000	0.419427
1281.000000	0.419320
1282.000000	0.419133
1283.000000	0.419138
1284.000000	0.419052
1285.000000	0.419082
1286.000000	0.419220
1287.000000	0.419355
1288.000000	0.419422
1289.000000	0.419581
1290.000000	0.419481
1291.000000	0.419319
1292.000000	0.419319
1293.000000	0.419237
1294.000000	0.419254
1295.000000	0.419453
1296.000000	0.419457
1297.000000	0.419484
1298.000000	0.419733
1299.000000	0.419857
1300.000000	0.419838
1301.000000	0.419878
1302.000000	0.419828
1303.000000	0.419696
1304.000000	0.419617
1305.000000	0.419716
1306.000000	0.419727
1307.000000	0.419786
1308.000000	0.419867
1309.000000	0.420049
1310.000000	0.420081
1311.000000	0.420145
1312.000000	0.419867
1313.000000	0.419627
1314.000000	0.419535
1315.000000	0.419314
1316.000000	0.419306
1317.000000	0.419362
1318.000000	0.419162
1319.000000	0.418896
1320.000000	0.418719
1321.000000	0.418428
1322.000000	0.418215
1323.000000	0.418230
1324.000000	0.418192
1325.000000	0.417953
1326.000000	0.417775
1327.000000	0.417825
1328.000000	0.417749
1329.000000	0.417565
1330.000000	0.417470
1331.000000	0.417391
1332.000000	0.417143
1333.000000	0.417067
1334.000000	0.417337
1335.000000	0.417287
1336.000000	0.417014
1337.000000	0.416950
1338.000000	0.416851
1339.000000	0.416694
1340.000000	0.416612
1341.000000	0.416492
1342.000000	0.416231
1343.000000	0.416050
1344.000000	0.415978
1345.000000	0.415829
1346.000000	0.415748
1347.000000	0.415508
1348.000000	0.415287
1349.000000	0.415123
1350.000000	0.414993
1351.000000	0.414826
1352.000000	0.414647
1353.000000	0.414489
1354.000000	0.414406
1355.000000	0.414295
1356.000000	0.414176
1357.000000	0.413927
1358.000000	0.413688
1359.000000	0.413439
1360.000000	0.413176
1361.000000	0.412981
1362.000000	0.412741
1363.000000	0.412378
1364.000000	0.412202
1365.000000	0.412128
1366.000000	0.411906
1367.000000	0.411694
1368.000000	0.411447
1369.000000	0.411141
1370.000000	0.410749
1371.000000	0.410503
1372.000000	0.410183
1373.000000	0.409782
1374.000000	0.409395
1375.000000	0.408890
1376.000000	0.408475
1377.000000	0.408045
1378.000000	0.407645
1379.000000	0.407148
1380.000000	0.406352
1381.000000	0.405416
1382.000000	0.404360
1383.000000	0.403280
1384.000000	0.402152
1385.000000	0.400938
1386.000000	0.399750
1387.000000	0.398417
1388.000000	0.397086
1389.000000	0.395943
1390.000000	0.394694
1391.000000	0.393308
1392.000000	0.391911
1393.000000	0.390336
1394.000000	0.388517
1395.000000	0.386901
1396.000000	0.385360
1397.000000	0.383618
1398.000000	0.381812
1399.000000	0.380047
1400.000000	0.378026
1401.000000	0.376232
1402.000000	0.374685
1403.000000	0.373009
1404.000000	0.371315
1405.000000	0.369642
1406.000000	0.367839
1407.000000	0.366047
1408.000000	0.364285
1409.000000	0.362694
1410.000000	0.361352
1411.000000	0.360020
1412.000000	0.358634
1413.000000	0.357496
1414.000000	0.356460
1415.000000	0.355527
1416.000000	0.354853
1417.000000	0.354313
1418.000000	0.353680
1419.000000	0.353118
1420.000000	0.352624
1421.000000	0.352282
1422.000000	0.352060
1423.000000	0.351893
1424.000000	0.351536
1425.000000	0.351046
1426.000000	0.350440
1427.000000	0.349767
1428.000000	0.349151
1429.000000	0.348613
1430.000000	0.347992
1431.000000	0.347457
1432.000000	0.347101
1433.000000	0.346846
1434.000000	0.346761
1435.000000	0.346953
1436.000000	0.347297
1437.000000	0.347741
1438.000000	0.348386
1439.000000	0.349293
1440.000000	0.350312
1441.000000	0.351671
1442.000000	0.352914
1443.000000	0.354138
1444.000000	0.355424
1445.000000	0.356621
1446.000000	0.357679
1447.000000	0.358838
1448.000000	0.359815
1449.000000	0.360611
1450.000000	0.361292
1451.000000	0.361767
1452.000000	0.362175
1453.000000	0.362552
1454.000000	0.362762
1455.000000	0.362847
1456.000000	0.362950
1457.000000	0.363064
1458.000000	0.363133
1459.000000	0.363299
1460.000000	0.363458
1461.000000	0.363467
1462.000000	0.363540
1463.000000	0.363533
1464.000000	0.363539
1465.000000	0.363812
1466.000000	0.364075
1467.000000	0.364436
1468.000000	0.364884
1469.000000	0.365213
1470.000000	0.365396
1471.000000	0.365628
1472.000000	0.365994
1473.000000	0.366475
1474.000000	0.366955
1475.000000	0.367429
1476.000000	0.367839
1477.000000	0.368288
1478.000000	0.368786
1479.000000	0.369338
1480.000000	0.369902
1481.000000	0.370363
1482.000000	0.370780
1483.000000	0.371292
1484.000000	0.371769
1485.000000	0.372259
1486.000000	0.372817
1487.000000	0.373350
1488.000000	0.373866
1489.000000	0.374453
1490.000000	0.374970
1491.000000	0.375476
1492.000000	0.375940
1493.000000	0.376375
1494.000000	0.376690
1495.000000	0.377096
1496.000000	0.377467
1497.000000	0.377998
1498.000000	0.378699
1499.000000	0.379332
1500.000000	0.379901
1501.000000	0.380326
1502.000000	0.380706
1503.000000	0.381037
1504.000000	0.381360
1505.000000	0.381835
1506.000000	0.382175
1507.000000	0.382467
1508.000000	0.382967
1509.000000	0.383230
1510.000000	0.383491
1511.000000	0.383873
1512.000000	0.384036
1513.000000	0.384251
1514.000000	0.384460
1515.000000	0.384586
1516.000000	0.384788
1517.000000	0.384965
1518.000000	0.385229
1519.000000	0.385334
1520.000000	0.385382
1521.000000	0.385469
1522.000000	0.385660
1523.000000	0.385942
1524.000000	0.386123
1525.000000	0.386377
1526.000000	0.386494
1527.000000	0.386599
1528.000000	0.386909
1529.000000	0.387144
1530.000000	0.387282
1531.000000	0.387533
1532.000000	0.387767
1533.000000	0.387980
1534.000000	0.388321
1535.000000	0.388586
1536.000000	0.388644
1537.000000	0.388868
1538.000000	0.389108
1539.000000	0.389207
1540.000000	0.389481
1541.000000	0.389778
1542.000000	0.389951
1543.000000	0.390202
1544.000000	0.390362
1545.000000	0.390458
1546.000000	0.390599
1547.000000	0.390723
1548.000000	0.390855
1549.000000	0.391005
1550.000000	0.391105
1551.000000	0.391159
1552.000000	0.391282
1553.000000	0.391403
1554.000000	0.391511
1555.000000	0.391670
1556.000000	0.391799
1557.000000	0.391774
1558.000000	0.391813
1559.000000	0.391756
1560.000000	0.391799
1561.000000	0.391939
1562.000000	0.392006
1563.000000	0.392194
1564.000000	0.392215
1565.000000	0.392039
1566.000000	0.392007
1567.000000	0.392062
1568.000000	0.392216
1569.000000	0.392635
1570.000000	0.392844
1571.000000	0.393005
1572.000000	0.393147
1573.000000	0.393224
1574.000000	0.393357
1575.000000	0.393615
1576.000000	0.393685
1577.000000	0.393594
1578.000000	0.393557
1579.000000	0.393469
1580.000000	0.393479
1581.000000	0.393709
1582.000000	0.393767
1583.000000	0.393753
1584.000000	0.393741
1585.000000	0.393707
1586.000000	0.393837
1587.000000	0.394158
1588.000000	0.394268
1589.000000	0.394375
1590.000000	0.394396
1591.000000	0.394246
1592.000000	0.394234
1593.000000	0.394336
1594.000000	0.394355
1595.000000	0.394394
1596.000000	0.394457
1597.000000	0.394554
1598.000000	0.394596
1599.000000	0.394712
1600.000000	0.394745
1601.000000	0.394805
1602.000000	0.394788
1603.000000	0.394790
1604.000000	0.394736
1605.000000	0.394517
1606.000000	0.394519
1607.000000	0.394748
1608.000000	0.394754
1609.000000	0.394853
1610.000000	0.394857
1611.000000	0.394608
1612.000000	0.394631
1613.000000	0.395011
1614.000000	0.395090
1615.000000	0.395237
1616.000000	0.395358
1617.000000	0.395171
1618.000000	0.395204
1619.000000	0.395418
1620.000000	0.395476
1621.000000	0.395507
1622.000000	0.395719
1623.000000	0.395828
1624.000000	0.396042
1625.000000	0.396279
1626.000000	0.396461
1627.000000	0.396774
1628.000000	0.396996
1629.000000	0.397148
1630.000000	0.397323
1631.000000	0.397333
1632.000000	0.397330
1633.000000	0.397372
1634.000000	0.397376
1635.000000	0.397329
1636.000000	0.397333
1637.000000	0.397369
1638.000000	0.397444
1639.000000	0.397682
1640.000000	0.397715
1641.000000	0.397766
1642.000000	0.397787
1643.000000	0.397677
1644.000000	0.397682
1645.000000	0.397789
1646.000000	0.397795
1647.000000	0.397816
1648.000000	0.397826
1649.000000	0.397902
1650.000000	0.397993
1651.000000	0.398135
1652.000000	0.398301
1653.000000	0.398456
1654.000000	0.398634
1655.000000	0.398752
1656.000000	0.398777
1657.000000	0.398853
1658.000000	0.398917
1659.000000	0.399089
1660.000000	0.399247
1661.000000	0.399288
1662.000000	0.399373
1663.000000	0.399412
1664.000000	0.399456
1665.000000	0.399523
1666.000000	0.399725
1667.000000	0.399856
1668.000000	0.399992
1669.000000	0.400197
1670.000000	0.400192
1671.000000	0.400161
1672.000000	0.400366
1673.000000	0.400587
1674.000000	0.400850
1675.000000	0.401055
1676.000000	0.400927
1677.000000	0.400868
1678.000000	0.400991
1679.000000	0.401165
1680.000000	0.401256
1681.000000	0.401226
1682.000000	0.401268
1683.000000	0.401195
1684.000000	0.401082
1685.000000	0.401273
1686.000000	0.401271
1687.000000	0.401103
1688.000000	0.401079
1689.000000	0.401110
1690.000000	0.401047
1691.000000	0.401132
1692.000000	0.401200
1693.000000	0.401188
1694.000000	0.401129
1695.000000	0.401123
1696.000000	0.401092
1697.000000	0.401041
1698.000000	0.401220
1699.000000	0.401244
1700.000000	0.401045
1701.000000	0.401121
1702.000000	0.401031
1703.000000	0.400937
1704.000000	0.401159
1705.000000	0.401217
1706.000000	0.401115
1707.000000	0.401168
1708.000000	0.401313
1709.000000	0.401264
1710.000000	0.401326
1711.000000	0.401327
1712.000000	0.401154
1713.000000	0.401085
1714.000000	0.401112
1715.000000	0.401168
1716.000000	0.401364
1717.000000	0.401351
1718.000000	0.401199
1719.000000	0.401113
1720.000000	0.400977
1721.000000	0.400895
1722.000000	0.400928
1723.000000	0.400901
1724.000000	0.400789
1725.000000	0.400850
1726.000000	0.400969
1727.000000	0.400985
1728.000000	0.400913
1729.000000	0.400876
1730.000000	0.400912
1731.000000	0.401027
1732.000000	0.401334
1733.000000	0.401532
1734.000000	0.401533
1735.000000	0.401576
1736.000000	0.401579
1737.000000	0.401519
1738.000000	0.401411
1739.000000	0.401393
1740.000000	0.401366
1741.000000	0.401227
1742.000000	0.401064
1743.000000	0.401143
1744.000000	0.401230
1745.000000	0.401136
1746.000000	0.401168
1747.000000	0.400932
1748.000000	0.400712
1749.000000	0.400664
1750.000000	0.400596
1751.000000	0.400574
1752.000000	0.400728
1753.000000	0.400990
1754.000000	0.401071
1755.000000	0.401026
1756.000000	0.400957
1757.000000	0.400674
1758.000000	0.400575
1759.000000	0.400574
1760.000000	0.400548
1761.000000	0.400607
1762.000000	0.400513
1763.000000	0.400367
1764.000000	0.400174
1765.000000	0.399681
1766.000000	0.399548
1767.000000	0.399500
1768.000000	0.399380
1769.000000	0.399566
1770.000000	0.399664
1771.000000	0.399608
1772.000000	0.399571
1773.000000	0.399502
1774.000000	0.399473
1775.000000	0.399448
1776.000000	0.399506
1777.000000	0.399641
1778.000000	0.399672
1779.000000	0.399650
1780.000000	0.399666
1781.000000	0.399611
1782.000000	0.399634
1783.000000	0.399775
1784.000000	0.399791
1785.000000	0.399806
1786.000000	0.399920
1787.000000	0.400128
1788.000000	0.400393
1789.000000	0.400409
1790.000000	0.400016
1791.000000	0.399872
1792.000000	0.399997
1793.000000	0.399946
1794.000000	0.400066
1795.000000	0.400037
1796.000000	0.399563
1797.000000	0.399392
1798.000000	0.399296
1799.000000	0.399387
1800.000000	0.399842
1801.000000	0.399962
1802.000000	0.399781
1803.000000	0.398782
1804.000000	0.399132
1805.000000	0.400809
1806.000000	0.401734
1807.000000	0.403298
1808.000000	0.403939
1809.000000	0.404099
1810.000000	0.403865
1811.000000	0.403546
1812.000000	0.402634
1813.000000	0.402096
1814.000000	0.401688
1815.000000	0.401164
1816.000000	0.400251
1817.000000	0.399780
1818.000000	0.399623
1819.000000	0.399457
1820.000000	0.399590
1821.000000	0.400189
1822.000000	0.400396
1823.000000	0.400496
1824.000000	0.400380
1825.000000	0.399637
1826.000000	0.399620
1827.000000	0.399553
1828.000000	0.399935
1829.000000	0.399995
1830.000000	0.400710
1831.000000	0.400900
1832.000000	0.400451
1833.000000	0.400621
1834.000000	0.401316
1835.000000	0.401361
1836.000000	0.401425
1837.000000	0.401234
1838.000000	0.400277
1839.000000	0.399452
1840.000000	0.399134
1841.000000	0.398603
1842.000000	0.397866
1843.000000	0.396668
1844.000000	0.396329
1845.000000	0.395821
1846.000000	0.395938
1847.000000	0.397101
1848.000000	0.397565
1849.000000	0.397728
1850.000000	0.397087
1851.000000	0.396466
1852.000000	0.395027
1853.000000	0.394335
1854.000000	0.393486
1855.000000	0.393022
1856.000000	0.392745
1857.000000	0.392560
1858.000000	0.392487
1859.000000	0.391695
1860.000000	0.390405
1861.000000	0.388921
1862.000000	0.387854
1863.000000	0.386754
1864.000000	0.386080
1865.000000	0.386449
1866.000000	0.385695
1867.000000	0.384712
1868.000000	0.383561
1869.000000	0.380716
1870.000000	0.377598
1871.000000	0.375441
1872.000000	0.372794
1873.000000	0.370754
1874.000000	0.369933
1875.000000	0.368343
1876.000000	0.366249
1877.000000	0.363950
1878.000000	0.361757
1879.000000	0.357907
1880.000000	0.354401
1881.000000	0.351472
1882.000000	0.347833
1883.000000	0.344571
1884.000000	0.341170
1885.000000	0.337591
1886.000000	0.333447
1887.000000	0.329014
1888.000000	0.324493
1889.000000	0.319182
1890.000000	0.313046
1891.000000	0.307582
1892.000000	0.301975
1893.000000	0.296889
1894.000000	0.292474
1895.000000	0.287462
1896.000000	0.282501
1897.000000	0.277276
1898.000000	0.271964
1899.000000	0.266999
1900.000000	0.262066
1901.000000	0.257826
1902.000000	0.254112
1903.000000	0.250476
1904.000000	0.247258
1905.000000	0.244402
1906.000000	0.241769
1907.000000	0.239294
1908.000000	0.237167
1909.000000	0.235988
1910.000000	0.235270
1911.000000	0.234911
1912.000000	0.234410
1913.000000	0.233602
1914.000000	0.233408
1915.000000	0.232892
1916.000000	0.232629
1917.000000	0.232681
1918.000000	0.233262
1919.000000	0.233552
1920.000000	0.234078
1921.000000	0.234515
1922.000000	0.235080
1923.000000	0.235478
1924.000000	0.235198
1925.000000	0.235454
1926.000000	0.236003
1927.000000	0.236771
1928.000000	0.237699
1929.000000	0.239329
1930.000000	0.240582
1931.000000	0.241656
1932.000000	0.242446
1933.000000	0.242602
1934.000000	0.243075
1935.000000	0.243708
1936.000000	0.243908
1937.000000	0.244254
1938.000000	0.244931
1939.000000	0.245597
1940.000000	0.246179
1941.000000	0.247129
1942.000000	0.247774
1943.000000	0.247618
1944.000000	0.247690
1945.000000	0.247368
1946.000000	0.246826
1947.000000	0.247040
1948.000000	0.246983
1949.000000	0.246901
1950.000000	0.247447
1951.000000	0.247897
1952.000000	0.248638
1953.000000	0.249200
1954.000000	0.249434
1955.000000	0.249719
1956.000000	0.249852
1957.000000	0.249564
1958.000000	0.249758
1959.000000	0.249923
1960.000000	0.249810
1961.000000	0.250012
1962.000000	0.250456
1963.000000	0.251071
1964.000000	0.252072
1965.000000	0.253005
1966.000000	0.253717
1967.000000	0.254616
1968.000000	0.255048
1969.000000	0.255316
1970.000000	0.255836
1971.000000	0.255500
1972.000000	0.255283
1973.000000	0.255455
1974.000000	0.256038
1975.000000	0.256485
1976.000000	0.257376
1977.000000	0.257985
1978.000000	0.258189
1979.000000	0.258072
1980.000000	0.258477
1981.000000	0.259080
1982.000000	0.259647
1983.000000	0.260784
1984.000000	0.261656
1985.000000	0.262543
1986.000000	0.263333
1987.000000	0.264413
1988.000000	0.264712
1989.000000	0.264709
1990.000000	0.265287
1991.000000	0.265070
1992.000000	0.265704
1993.000000	0.267627
1994.000000	0.268856
1995.000000	0.270242
1996.000000	0.271900
1997.000000	0.273148
1998.000000	0.273923
1999.000000	0.274902
2000.000000	0.275954
2001.000000	0.276813
2002.000000	0.277481
2003.000000	0.277998
2004.000000	0.278996
2005.000000	0.279920
2006.000000	0.280848
2007.000000	0.281892
2008.000000	0.282551
2009.000000	0.282615
2010.000000	0.283138
2011.000000	0.283586
2012.000000	0.284168
2013.000000	0.284757
2014.000000	0.285363
2015.000000	0.286983
2016.000000	0.287986
2017.000000	0.289050
2018.000000	0.290594
2019.000000	0.291289
2020.000000	0.292366
2021.000000	0.293219
2022.000000	0.293801
2023.000000	0.294775
2024.000000	0.295741
2025.000000	0.296780
2026.000000	0.297973
2027.000000	0.299590
2028.000000	0.300398
2029.000000	0.301093
2030.000000	0.301478
2031.000000	0.301467
2032.000000	0.302320
2033.000000	0.303476
2034.000000	0.304474
2035.000000	0.306427
2036.000000	0.307048
2037.000000	0.306749
2038.000000	0.307127
2039.000000	0.307112
2040.000000	0.307691
2041.000000	0.309141
2042.000000	0.310330
2043.000000	0.311429
2044.000000	0.312380
2045.000000	0.312803
2046.000000	0.313094
2047.000000	0.313584
2048.000000	0.313860
2049.000000	0.314680
2050.000000	0.315528
2051.000000	0.316279
2052.000000	0.317055
2053.000000	0.317560
2054.000000	0.318225
2055.000000	0.318825
2056.000000	0.319155
2057.000000	0.320269
2058.000000	0.320956
2059.000000	0.322040
2060.000000	0.322568
2061.000000	0.322721
2062.000000	0.323133
2063.000000	0.323342
2064.000000	0.323414
2065.000000	0.324007
2066.000000	0.324298
2067.000000	0.324240
2068.000000	0.325039
2069.000000	0.325772
2070.000000	0.326459
2071.000000	0.327188
2072.000000	0.327361
2073.000000	0.327816
2074.000000	0.328038
2075.000000	0.328358
2076.000000	0.328745
2077.000000	0.329090
2078.000000	0.329446
2079.000000	0.329789
2080.000000	0.330067
2081.000000	0.330499
2082.000000	0.331073
2083.000000	0.331378
2084.000000	0.332047
2085.000000	0.332954
2086.000000	0.333616
2087.000000	0.334384
2088.000000	0.335615
2089.000000	0.336481
2090.000000	0.337285
2091.000000	0.338662
2092.000000	0.339236
2093.000000	0.338905
2094.000000	0.339015
2095.000000	0.338937
2096.000000	0.339030
2097.000000	0.338980
2098.000000	0.339552
2099.000000	0.340168
2100.000000	0.340314
2101.000000	0.340830
2102.000000	0.341606
2103.000000	0.341999
2104.000000	0.342343
2105.000000	0.342758
2106.000000	0.343020
2107.000000	0.343266
2108.000000	0.343573
2109.000000	0.344157
2110.000000	0.344374
2111.000000	0.344995
2112.000000	0.346556
2113.000000	0.346494
2114.000000	0.346685
2115.000000	0.347224
2116.000000	0.346503
2117.000000	0.346221
2118.000000	0.346772
2119.000000	0.346494
2120.000000	0.346593
2121.000000	0.347566
2122.000000	0.347617
2123.000000	0.346729
2124.000000	0.346684
2125.000000	0.346536
2126.000000	0.346566
2127.000000	0.347442
2128.000000	0.347914
2129.000000	0.347749
2130.000000	0.348354
2131.000000	0.349541
2132.000000	0.349855
2133.000000	0.350615
2134.000000	0.351862
2135.000000	0.352176
2136.000000	0.352206
2137.000000	0.352414
2138.000000	0.352844
2139.000000	0.352594
2140.000000	0.352089
2141.000000	0.351535
2142.000000	0.350038
2143.000000	0.349212
2144.000000	0.349201
2145.000000	0.348745
2146.000000	0.348400
2147.000000	0.348472
2148.000000	0.347662
2149.000000	0.346633
2150.000000	0.346073
2151.000000	0.345960
2152.000000	0.346320
2153.000000	0.346547
2154.000000	0.346699
2155.000000	0.347164
2156.000000	0.346815
2157.000000	0.345908
2158.000000	0.345428
2159.000000	0.344305
2160.000000	0.344207
2161.000000	0.345013
2162.000000	0.345593
2163.000000	0.346363
2164.000000	0.347089
2165.000000	0.347960
2166.000000	0.348401
2167.000000	0.349433
2168.000000	0.349840
2169.000000	0.349684
2170.000000	0.349636
2171.000000	0.349551
2172.000000	0.349457
2173.000000	0.348869
2174.000000	0.347657
2175.000000	0.347531
2176.000000	0.347530
2177.000000	0.347643
2178.000000	0.349269
2179.000000	0.349357
2180.000000	0.347877
2181.000000	0.347388
2182.000000	0.345716
2183.000000	0.345142
2184.000000	0.346332
2185.000000	0.347225
2186.000000	0.347932
2187.000000	0.349650
2188.000000	0.349422
2189.000000	0.348669
2190.000000	0.348410
2191.000000	0.347515
2192.000000	0.346949
2193.000000	0.347055
2194.000000	0.346018
2195.000000	0.343485
2196.000000	0.342741
2197.000000	0.341840
2198.000000	0.341753
2199.000000	0.344323
2200.000000	0.345876
2201.000000	0.348019
2202.000000	0.348468
2203.000000	0.347399
2204.000000	0.346464
2205.000000	0.344542
2206.000000	0.340191
2207.000000	0.338170
2208.000000	0.336075
2209.000000	0.333415
2210.000000	0.332748
2211.000000	0.332847
2212.000000	0.334549
2213.000000	0.335877
2214.000000	0.338920
2215.000000	0.340287
2216.000000	0.339946
2217.000000	0.341667
2218.000000	0.344430
2219.000000	0.346000
2220.000000	0.348631
2221.000000	0.349681
2222.000000	0.349064
2223.000000	0.348295
2224.000000	0.345829
2225.000000	0.346378
2226.000000	0.345278
2227.000000	0.345310
2228.000000	0.347271
2229.000000	0.344475
2230.000000	0.343004
2231.000000	0.343249
2232.000000	0.343101
2233.000000	0.345628
2234.000000	0.347635
2235.000000	0.346447
2236.000000	0.345361
2237.000000	0.342778
2238.000000	0.341531
2239.000000	0.340491
2240.000000	0.339227
2241.000000	0.337839
2242.000000	0.336272
2243.000000	0.333688
2244.000000	0.332183
2245.000000	0.331272
2246.000000	0.331605
2247.000000	0.333214
2248.000000	0.334337
2249.000000	0.336634
2250.000000	0.337758
2251.000000	0.338450
2252.000000	0.338029
2253.000000	0.336728
2254.000000	0.335365
2255.000000	0.334372
2256.000000	0.334907
2257.000000	0.336804
2258.000000	0.337216
2259.000000	0.336050
2260.000000	0.335213
2261.000000	0.334551
2262.000000	0.333833
2263.000000	0.332371
2264.000000	0.330862
2265.000000	0.329608
2266.000000	0.327828
2267.000000	0.326083
2268.000000	0.324820
2269.000000	0.323366
2270.000000	0.321998
2271.000000	0.319095
2272.000000	0.315873
2273.000000	0.312347
2274.000000	0.305328
2275.000000	0.301827
2276.000000	0.300662
2277.000000	0.299225
2278.000000	0.297856
2279.000000	0.297009
2280.000000	0.293656
2281.000000	0.290935
2282.000000	0.288065
2283.000000	0.286385
2284.000000	0.286264
2285.000000	0.285815
2286.000000	0.287715
2287.000000	0.288823
2288.000000	0.288617
2289.000000	0.287877
2290.000000	0.285836
2291.000000	0.284831
2292.000000	0.284866
2293.000000	0.285216
2294.000000	0.286653
2295.000000	0.289597
2296.000000	0.291704
2297.000000	0.293898
2298.000000	0.296978
2299.000000	0.300900
2300.000000	0.303532
2301.000000	0.306941
2302.000000	0.308482
2303.000000	0.306374
2304.000000	0.307248
2305.000000	0.309871
2306.000000	0.311309
2307.000000	0.313817
2308.000000	0.315630
2309.000000	0.314149
2310.000000	0.313117
2311.000000	0.311265
2312.000000	0.309471
2313.000000	0.310886
2314.000000	0.310613
2315.000000	0.311575
2316.000000	0.314989
2317.000000	0.313265
2318.000000	0.311822
2319.000000	0.313325
2320.000000	0.311702
2321.000000	0.312719
2322.000000	0.315343
2323.000000	0.312508
2324.000000	0.309780
2325.000000	0.307512
2326.000000	0.304726
2327.000000	0.305128
2328.000000	0.307146
2329.000000	0.310267
2330.000000	0.311594
2331.000000	0.311436
2332.000000	0.311417
2333.000000	0.308671
2334.000000	0.306081
2335.000000	0.304592
2336.000000	0.303074
2337.000000	0.300971
2338.000000	0.299614
2339.000000	0.297486
2340.000000	0.292984
2341.000000	0.292252
2342.000000	0.293412
2343.000000	0.293444
2344.000000	0.295704
2345.000000	0.295426
2346.000000	0.293398
2347.000000	0.292882
2348.000000	0.292444
2349.000000	0.292408
2350.000000	0.290220
2351.000000	0.287063
2352.000000	0.283587
2353.000000	0.279262
2354.000000	0.277400
2355.000000	0.277630
2356.000000	0.277122
2357.000000	0.277730
2358.000000	0.278410
2359.000000	0.276774
2360.000000	0.276250
2361.000000	0.275530
2362.000000	0.274614
2363.000000	0.275274
2364.000000	0.274591
2365.000000	0.273442
2366.000000	0.275918
2367.000000	0.277496
2368.000000	0.275094
2369.000000	0.277797
2370.000000	0.277540
2371.000000	0.274107
2372.000000	0.277237
2373.000000	0.275427
2374.000000	0.269112
2375.000000	0.268237
2376.000000	0.265921
2377.000000	0.262493
2378.000000	0.261859
2379.000000	0.258405
2380.000000	0.255870
2381.000000	0.255055
2382.000000	0.257568
2383.000000	0.261638
2384.000000	0.263192
2385.000000	0.262368
2386.000000	0.260626
2387.000000	0.257621
2388.000000	0.253936
2389.000000	0.253810
2390.000000	0.250128
2391.000000	0.245168
2392.000000	0.239919
2393.000000	0.239740
2394.000000	0.244745
2395.000000	0.245759
2396.000000	0.249293
2397.000000	0.248960
2398.000000	0.242116
2399.000000	0.237686
2400.000000	0.235003
2401.000000	0.229891
2402.000000	0.227087
2403.000000	0.227601
2404.000000	0.224857
2405.000000	0.223052
2406.000000	0.225699
2407.000000	0.225974
2408.000000	0.231626
2409.000000	0.238472
2410.000000	0.235882
2411.000000	0.236970
2412.000000	0.231899
2413.000000	0.225183
2414.000000	0.229900
2415.000000	0.233837
2416.000000	0.239389
2417.000000	0.246963
2418.000000	0.246565
2419.000000	0.239575
2420.000000	0.234797
2421.000000	0.230656
2422.000000	0.232975
2423.000000	0.240251
2424.000000	0.244646
2425.000000	0.247601
2426.000000	0.239345
2427.000000	0.232456
2428.000000	0.227333
2429.000000	0.218066
2430.000000	0.214596
2431.000000	0.217909
2432.000000	0.219517
2433.000000	0.227120
2434.000000	0.245423
2435.000000	0.240651
2436.000000	0.237282
2437.000000	0.242888
2438.000000	0.239254
2439.000000	0.249534
2440.000000	0.251383
2441.000000	0.235252
2442.000000	0.220685
2443.000000	0.215871
2444.000000	0.221017
2445.000000	0.230574
2446.000000	0.243855
2447.000000	0.247524
2448.000000	0.238563
2449.000000	0.234738
2450.000000	0.226347
2451.000000	0.212797
2452.000000	0.208071
2453.000000	0.199865
2454.000000	0.198103
2455.000000	0.202096
2456.000000	0.205215
2457.000000	0.226263
2458.000000	0.246149
2459.000000	0.253008
2460.000000	0.265258
2461.000000	0.264433
2462.000000	0.256462
2463.000000	0.252235
2464.000000	0.239815
2465.000000	0.245830
2466.000000	0.239585
2467.000000	0.233218
2468.000000	0.246445
2469.000000	0.221197
2470.000000	0.196707
2471.000000	0.186696
2472.000000	0.173978
2473.000000	0.184403
2474.000000	0.221963
2475.000000	0.246253
2476.000000	0.252506
2477.000000	0.254757
2478.000000	0.221419
2479.000000	0.219511
2480.000000	0.209775
2481.000000	0.164246
2482.000000	0.173269
2483.000000	0.152039
2484.000000	0.129173
2485.000000	0.158710
2486.000000	0.152882
2487.000000	0.157592
2488.000000	0.194855
2489.000000	0.235266
2490.000000	0.296733
2491.000000	0.332305
2492.000000	0.335266
2493.000000	0.292184
2494.000000	0.268313
2495.000000	0.197826
2496.000000	0.186147
2497.000000	0.229993
2498.000000	0.231899
2499.000000	0.292408
2500.000000	0.298044
