# Wavelength	NAu-1-50_HEX-20_FV7-30_00001.asd.rts.txt
350.000000	0.151830
351.000000	0.147616
352.000000	0.150810
353.000000	0.136967
354.000000	0.107804
355.000000	0.117272
356.000000	0.132599
357.000000	0.139915
358.000000	0.132636
359.000000	0.133127
360.000000	0.135823
361.000000	0.130240
362.000000	0.125695
363.000000	0.125458
364.000000	0.128424
365.000000	0.125588
366.000000	0.126392
367.000000	0.131512
368.000000	0.134916
369.000000	0.135729
370.000000	0.134594
371.000000	0.133193
372.000000	0.134836
373.000000	0.136751
374.000000	0.136587
375.000000	0.133379
376.000000	0.131379
377.000000	0.131333
378.000000	0.130861
379.000000	0.131967
380.000000	0.132772
381.000000	0.131599
382.000000	0.135629
383.000000	0.137775
384.000000	0.135215
385.000000	0.140446
386.000000	0.143743
387.000000	0.143080
388.000000	0.143751
389.000000	0.146727
390.000000	0.149652
391.000000	0.149335
392.000000	0.152634
393.000000	0.155500
394.000000	0.154795
395.000000	0.154650
396.000000	0.156100
397.000000	0.158447
398.000000	0.158678
399.000000	0.160199
400.000000	0.162331
401.000000	0.162770
402.000000	0.164333
403.000000	0.165893
404.000000	0.166418
405.000000	0.167691
406.000000	0.168512
407.000000	0.168872
408.000000	0.170919
409.000000	0.172869
410.000000	0.174339
411.000000	0.175631
412.000000	0.175941
413.000000	0.176283
414.000000	0.177738
415.000000	0.179407
416.000000	0.180450
417.000000	0.180628
418.000000	0.180822
419.000000	0.180913
420.000000	0.181005
421.000000	0.181349
422.000000	0.182722
423.000000	0.183977
424.000000	0.183669
425.000000	0.183313
426.000000	0.183004
427.000000	0.182709
428.000000	0.182637
429.000000	0.182945
430.000000	0.183370
431.000000	0.182989
432.000000	0.182788
433.000000	0.182844
434.000000	0.182933
435.000000	0.183278
436.000000	0.183406
437.000000	0.182960
438.000000	0.182742
439.000000	0.182505
440.000000	0.182167
441.000000	0.181752
442.000000	0.181666
443.000000	0.181569
444.000000	0.180678
445.000000	0.180452
446.000000	0.180725
447.000000	0.180856
448.000000	0.181591
449.000000	0.182444
450.000000	0.183226
451.000000	0.184860
452.000000	0.186883
453.000000	0.188970
454.000000	0.191085
455.000000	0.193005
456.000000	0.195214
457.000000	0.198265
458.000000	0.200949
459.000000	0.203273
460.000000	0.205442
461.000000	0.207215
462.000000	0.208836
463.000000	0.210343
464.000000	0.211885
465.000000	0.212801
466.000000	0.213410
467.000000	0.214808
468.000000	0.215867
469.000000	0.216658
470.000000	0.217614
471.000000	0.218209
472.000000	0.218736
473.000000	0.219460
474.000000	0.220345
475.000000	0.220907
476.000000	0.221303
477.000000	0.222140
478.000000	0.222628
479.000000	0.223023
480.000000	0.223660
481.000000	0.224303
482.000000	0.224953
483.000000	0.225478
484.000000	0.226128
485.000000	0.226665
486.000000	0.227149
487.000000	0.227682
488.000000	0.228204
489.000000	0.228724
490.000000	0.229274
491.000000	0.229803
492.000000	0.230356
493.000000	0.230885
494.000000	0.231537
495.000000	0.232199
496.000000	0.232787
497.000000	0.233554
498.000000	0.234145
499.000000	0.234641
500.000000	0.235530
501.000000	0.236310
502.000000	0.236922
503.000000	0.237423
504.000000	0.238147
505.000000	0.238953
506.000000	0.239657
507.000000	0.240312
508.000000	0.241027
509.000000	0.241808
510.000000	0.242600
511.000000	0.243354
512.000000	0.244121
513.000000	0.244994
514.000000	0.245847
515.000000	0.246741
516.000000	0.247695
517.000000	0.248460
518.000000	0.249237
519.000000	0.250110
520.000000	0.250981
521.000000	0.251811
522.000000	0.252633
523.000000	0.253596
524.000000	0.254417
525.000000	0.255194
526.000000	0.256269
527.000000	0.257316
528.000000	0.258315
529.000000	0.259345
530.000000	0.260265
531.000000	0.261236
532.000000	0.262268
533.000000	0.263296
534.000000	0.264348
535.000000	0.265416
536.000000	0.266497
537.000000	0.267491
538.000000	0.268502
539.000000	0.269673
540.000000	0.270684
541.000000	0.271643
542.000000	0.272715
543.000000	0.273782
544.000000	0.274932
545.000000	0.276094
546.000000	0.277132
547.000000	0.278180
548.000000	0.279277
549.000000	0.280311
550.000000	0.281298
551.000000	0.282315
552.000000	0.283381
553.000000	0.284399
554.000000	0.285409
555.000000	0.286452
556.000000	0.287513
557.000000	0.288480
558.000000	0.289458
559.000000	0.290465
560.000000	0.291367
561.000000	0.292269
562.000000	0.293227
563.000000	0.294114
564.000000	0.295023
565.000000	0.295926
566.000000	0.296682
567.000000	0.297396
568.000000	0.298118
569.000000	0.298848
570.000000	0.299572
571.000000	0.300267
572.000000	0.300927
573.000000	0.301562
574.000000	0.302153
575.000000	0.302734
576.000000	0.303322
577.000000	0.303922
578.000000	0.304564
579.000000	0.305063
580.000000	0.305529
581.000000	0.306016
582.000000	0.306507
583.000000	0.306864
584.000000	0.307159
585.000000	0.307598
586.000000	0.307977
587.000000	0.308289
588.000000	0.308580
589.000000	0.308883
590.000000	0.309206
591.000000	0.309535
592.000000	0.309812
593.000000	0.310056
594.000000	0.310259
595.000000	0.310388
596.000000	0.310517
597.000000	0.310697
598.000000	0.310854
599.000000	0.310969
600.000000	0.311107
601.000000	0.311246
602.000000	0.311412
603.000000	0.311569
604.000000	0.311694
605.000000	0.311744
606.000000	0.311815
607.000000	0.311906
608.000000	0.311955
609.000000	0.312022
610.000000	0.312126
611.000000	0.312255
612.000000	0.312295
613.000000	0.312335
614.000000	0.312449
615.000000	0.312478
616.000000	0.312501
617.000000	0.312505
618.000000	0.312502
619.000000	0.312577
620.000000	0.312637
621.000000	0.312605
622.000000	0.312683
623.000000	0.312756
624.000000	0.312732
625.000000	0.312805
626.000000	0.312911
627.000000	0.313014
628.000000	0.313132
629.000000	0.313251
630.000000	0.313289
631.000000	0.313429
632.000000	0.313508
633.000000	0.313576
634.000000	0.313692
635.000000	0.313827
636.000000	0.314031
637.000000	0.314277
638.000000	0.314436
639.000000	0.314519
640.000000	0.314627
641.000000	0.314782
642.000000	0.314954
643.000000	0.315107
644.000000	0.315215
645.000000	0.315333
646.000000	0.315491
647.000000	0.315665
648.000000	0.315809
649.000000	0.315991
650.000000	0.316209
651.000000	0.316440
652.000000	0.316608
653.000000	0.316777
654.000000	0.316985
655.000000	0.317194
656.000000	0.317437
657.000000	0.317686
658.000000	0.317941
659.000000	0.318213
660.000000	0.318475
661.000000	0.318677
662.000000	0.318880
663.000000	0.319129
664.000000	0.319348
665.000000	0.319661
666.000000	0.319966
667.000000	0.320123
668.000000	0.320315
669.000000	0.320583
670.000000	0.320923
671.000000	0.321245
672.000000	0.321563
673.000000	0.321885
674.000000	0.322243
675.000000	0.322500
676.000000	0.322741
677.000000	0.323106
678.000000	0.323475
679.000000	0.323788
680.000000	0.324041
681.000000	0.324305
682.000000	0.324688
683.000000	0.325089
684.000000	0.325429
685.000000	0.325804
686.000000	0.326223
687.000000	0.326611
688.000000	0.326984
689.000000	0.327359
690.000000	0.327784
691.000000	0.328249
692.000000	0.328648
693.000000	0.329039
694.000000	0.329484
695.000000	0.329918
696.000000	0.330336
697.000000	0.330755
698.000000	0.331156
699.000000	0.331581
700.000000	0.332063
701.000000	0.332527
702.000000	0.333042
703.000000	0.333562
704.000000	0.333925
705.000000	0.334356
706.000000	0.334814
707.000000	0.335252
708.000000	0.335679
709.000000	0.336091
710.000000	0.336518
711.000000	0.337007
712.000000	0.337496
713.000000	0.337961
714.000000	0.338362
715.000000	0.338811
716.000000	0.339302
717.000000	0.339744
718.000000	0.340159
719.000000	0.340571
720.000000	0.341016
721.000000	0.341469
722.000000	0.341933
723.000000	0.342441
724.000000	0.342860
725.000000	0.343278
726.000000	0.343783
727.000000	0.344274
728.000000	0.344726
729.000000	0.345165
730.000000	0.345556
731.000000	0.345935
732.000000	0.346290
733.000000	0.346665
734.000000	0.347061
735.000000	0.347335
736.000000	0.347647
737.000000	0.347988
738.000000	0.348366
739.000000	0.348806
740.000000	0.349137
741.000000	0.349495
742.000000	0.349827
743.000000	0.350090
744.000000	0.350353
745.000000	0.350551
746.000000	0.350749
747.000000	0.350943
748.000000	0.351202
749.000000	0.351480
750.000000	0.351698
751.000000	0.351881
752.000000	0.352080
753.000000	0.352312
754.000000	0.352533
755.000000	0.352714
756.000000	0.352876
757.000000	0.352993
758.000000	0.353086
759.000000	0.353203
760.000000	0.353303
761.000000	0.353481
762.000000	0.353578
763.000000	0.353631
764.000000	0.353879
765.000000	0.353934
766.000000	0.353916
767.000000	0.353977
768.000000	0.353961
769.000000	0.353945
770.000000	0.353953
771.000000	0.353918
772.000000	0.353951
773.000000	0.353954
774.000000	0.353904
775.000000	0.353886
776.000000	0.353882
777.000000	0.353838
778.000000	0.353718
779.000000	0.353596
780.000000	0.353510
781.000000	0.353444
782.000000	0.353283
783.000000	0.353161
784.000000	0.353049
785.000000	0.352952
786.000000	0.352862
787.000000	0.352774
788.000000	0.352706
789.000000	0.352625
790.000000	0.352483
791.000000	0.352290
792.000000	0.352182
793.000000	0.352110
794.000000	0.351986
795.000000	0.351660
796.000000	0.351401
797.000000	0.351250
798.000000	0.351018
799.000000	0.350765
800.000000	0.350531
801.000000	0.350344
802.000000	0.350121
803.000000	0.349887
804.000000	0.349678
805.000000	0.349376
806.000000	0.349040
807.000000	0.348790
808.000000	0.348598
809.000000	0.348389
810.000000	0.348207
811.000000	0.348037
812.000000	0.347685
813.000000	0.347342
814.000000	0.347060
815.000000	0.346795
816.000000	0.346573
817.000000	0.346343
818.000000	0.345983
819.000000	0.345764
820.000000	0.345554
821.000000	0.345257
822.000000	0.345027
823.000000	0.344781
824.000000	0.344436
825.000000	0.344064
826.000000	0.343753
827.000000	0.343493
828.000000	0.343280
829.000000	0.342951
830.000000	0.342673
831.000000	0.342478
832.000000	0.342148
833.000000	0.341821
834.000000	0.341502
835.000000	0.341222
836.000000	0.341003
837.000000	0.340732
838.000000	0.340411
839.000000	0.340085
840.000000	0.339797
841.000000	0.339513
842.000000	0.339161
843.000000	0.338844
844.000000	0.338601
845.000000	0.338370
846.000000	0.338060
847.000000	0.337718
848.000000	0.337400
849.000000	0.337169
850.000000	0.336839
851.000000	0.336500
852.000000	0.336253
853.000000	0.336083
854.000000	0.335823
855.000000	0.335539
856.000000	0.335183
857.000000	0.334896
858.000000	0.334756
859.000000	0.334640
860.000000	0.334370
861.000000	0.334138
862.000000	0.333952
863.000000	0.333678
864.000000	0.333366
865.000000	0.333127
866.000000	0.332998
867.000000	0.332795
868.000000	0.332482
869.000000	0.332103
870.000000	0.331846
871.000000	0.331507
872.000000	0.331277
873.000000	0.331136
874.000000	0.330814
875.000000	0.330545
876.000000	0.330287
877.000000	0.329857
878.000000	0.329632
879.000000	0.329520
880.000000	0.329296
881.000000	0.329115
882.000000	0.328977
883.000000	0.328821
884.000000	0.328503
885.000000	0.328190
886.000000	0.327853
887.000000	0.327548
888.000000	0.327432
889.000000	0.327331
890.000000	0.327093
891.000000	0.326821
892.000000	0.326417
893.000000	0.326143
894.000000	0.326142
895.000000	0.325906
896.000000	0.325647
897.000000	0.325423
898.000000	0.325239
899.000000	0.325053
900.000000	0.324930
901.000000	0.324797
902.000000	0.324523
903.000000	0.324108
904.000000	0.323835
905.000000	0.323823
906.000000	0.323726
907.000000	0.323578
908.000000	0.323478
909.000000	0.323385
910.000000	0.323141
911.000000	0.322930
912.000000	0.322892
913.000000	0.322596
914.000000	0.322532
915.000000	0.322697
916.000000	0.322534
917.000000	0.322286
918.000000	0.322023
919.000000	0.321776
920.000000	0.321636
921.000000	0.321487
922.000000	0.321335
923.000000	0.321224
924.000000	0.321281
925.000000	0.321207
926.000000	0.320938
927.000000	0.320780
928.000000	0.320583
929.000000	0.320369
930.000000	0.320185
931.000000	0.319880
932.000000	0.319742
933.000000	0.319755
934.000000	0.319456
935.000000	0.319166
936.000000	0.318991
937.000000	0.318854
938.000000	0.318757
939.000000	0.318695
940.000000	0.318595
941.000000	0.318513
942.000000	0.318353
943.000000	0.318277
944.000000	0.318207
945.000000	0.318044
946.000000	0.317940
947.000000	0.317945
948.000000	0.317964
949.000000	0.317837
950.000000	0.317672
951.000000	0.317546
952.000000	0.317604
953.000000	0.317514
954.000000	0.317345
955.000000	0.317125
956.000000	0.316846
957.000000	0.316718
958.000000	0.316647
959.000000	0.316573
960.000000	0.316646
961.000000	0.316666
962.000000	0.316524
963.000000	0.316323
964.000000	0.316212
965.000000	0.316201
966.000000	0.316162
967.000000	0.316236
968.000000	0.316318
969.000000	0.316342
970.000000	0.316385
971.000000	0.316292
972.000000	0.316158
973.000000	0.316002
974.000000	0.315922
975.000000	0.316114
976.000000	0.316193
977.000000	0.315893
978.000000	0.315637
979.000000	0.315654
980.000000	0.315728
981.000000	0.315936
982.000000	0.316111
983.000000	0.316067
984.000000	0.315933
985.000000	0.315985
986.000000	0.316091
987.000000	0.316283
988.000000	0.316398
989.000000	0.316213
990.000000	0.316274
991.000000	0.316313
992.000000	0.316036
993.000000	0.316219
994.000000	0.316334
995.000000	0.316430
996.000000	0.316567
997.000000	0.316641
998.000000	0.316637
999.000000	0.316773
1000.000000	0.317291
1001.000000	0.316794
1002.000000	0.317037
1003.000000	0.316870
1004.000000	0.317035
1005.000000	0.317291
1006.000000	0.317279
1007.000000	0.317232
1008.000000	0.317518
1009.000000	0.317666
1010.000000	0.317258
1011.000000	0.316914
1012.000000	0.317608
1013.000000	0.317824
1014.000000	0.317350
1015.000000	0.317055
1016.000000	0.317132
1017.000000	0.317628
1018.000000	0.318706
1019.000000	0.319309
1020.000000	0.320561
1021.000000	0.320271
1022.000000	0.318689
1023.000000	0.318360
1024.000000	0.317899
1025.000000	0.317642
1026.000000	0.317885
1027.000000	0.318333
1028.000000	0.318560
1029.000000	0.318864
1030.000000	0.319225
1031.000000	0.319299
1032.000000	0.319356
1033.000000	0.319637
1034.000000	0.319911
1035.000000	0.320293
1036.000000	0.320735
1037.000000	0.321399
1038.000000	0.321673
1039.000000	0.321858
1040.000000	0.322248
1041.000000	0.322799
1042.000000	0.322915
1043.000000	0.323059
1044.000000	0.323560
1045.000000	0.323404
1046.000000	0.323481
1047.000000	0.323975
1048.000000	0.324842
1049.000000	0.325290
1050.000000	0.326009
1051.000000	0.326256
1052.000000	0.325883
1053.000000	0.326088
1054.000000	0.326471
1055.000000	0.326893
1056.000000	0.327675
1057.000000	0.328447
1058.000000	0.328514
1059.000000	0.328818
1060.000000	0.329192
1061.000000	0.329399
1062.000000	0.329918
1063.000000	0.330747
1064.000000	0.331150
1065.000000	0.331229
1066.000000	0.331589
1067.000000	0.331803
1068.000000	0.332090
1069.000000	0.332488
1070.000000	0.332990
1071.000000	0.333713
1072.000000	0.334140
1073.000000	0.334707
1074.000000	0.335168
1075.000000	0.334872
1076.000000	0.334755
1077.000000	0.335473
1078.000000	0.336012
1079.000000	0.336525
1080.000000	0.337543
1081.000000	0.338101
1082.000000	0.338138
1083.000000	0.338726
1084.000000	0.339740
1085.000000	0.340417
1086.000000	0.341293
1087.000000	0.341739
1088.000000	0.341474
1089.000000	0.341624
1090.000000	0.341651
1091.000000	0.341864
1092.000000	0.342226
1093.000000	0.342804
1094.000000	0.343193
1095.000000	0.343402
1096.000000	0.343756
1097.000000	0.344148
1098.000000	0.344600
1099.000000	0.344999
1100.000000	0.345537
1101.000000	0.346206
1102.000000	0.346715
1103.000000	0.347161
1104.000000	0.347687
1105.000000	0.348187
1106.000000	0.348664
1107.000000	0.349111
1108.000000	0.349556
1109.000000	0.350177
1110.000000	0.350506
1111.000000	0.350786
1112.000000	0.350902
1113.000000	0.351397
1114.000000	0.351836
1115.000000	0.352474
1116.000000	0.353689
1117.000000	0.354311
1118.000000	0.354676
1119.000000	0.354996
1120.000000	0.355092
1121.000000	0.355231
1122.000000	0.355285
1123.000000	0.355741
1124.000000	0.356097
1125.000000	0.356522
1126.000000	0.357149
1127.000000	0.357623
1128.000000	0.358028
1129.000000	0.358364
1130.000000	0.358762
1131.000000	0.359142
1132.000000	0.359508
1133.000000	0.359990
1134.000000	0.360354
1135.000000	0.360532
1136.000000	0.360857
1137.000000	0.361267
1138.000000	0.361482
1139.000000	0.361703
1140.000000	0.362085
1141.000000	0.362420
1142.000000	0.362676
1143.000000	0.362827
1144.000000	0.363260
1145.000000	0.363563
1146.000000	0.363777
1147.000000	0.364046
1148.000000	0.364415
1149.000000	0.364648
1150.000000	0.364661
1151.000000	0.364991
1152.000000	0.365481
1153.000000	0.365783
1154.000000	0.366085
1155.000000	0.366324
1156.000000	0.366381
1157.000000	0.366582
1158.000000	0.366819
1159.000000	0.367043
1160.000000	0.367258
1161.000000	0.367469
1162.000000	0.367745
1163.000000	0.368136
1164.000000	0.368382
1165.000000	0.368764
1166.000000	0.369069
1167.000000	0.369294
1168.000000	0.369501
1169.000000	0.369667
1170.000000	0.369987
1171.000000	0.370469
1172.000000	0.370850
1173.000000	0.371302
1174.000000	0.371558
1175.000000	0.371524
1176.000000	0.371645
1177.000000	0.371870
1178.000000	0.372080
1179.000000	0.372342
1180.000000	0.372537
1181.000000	0.372785
1182.000000	0.373016
1183.000000	0.373320
1184.000000	0.373638
1185.000000	0.373846
1186.000000	0.374003
1187.000000	0.374133
1188.000000	0.374160
1189.000000	0.374240
1190.000000	0.374366
1191.000000	0.374521
1192.000000	0.374865
1193.000000	0.375176
1194.000000	0.375298
1195.000000	0.375521
1196.000000	0.375723
1197.000000	0.375903
1198.000000	0.376181
1199.000000	0.376398
1200.000000	0.376549
1201.000000	0.376628
1202.000000	0.376759
1203.000000	0.376972
1204.000000	0.377223
1205.000000	0.377382
1206.000000	0.377493
1207.000000	0.377693
1208.000000	0.377822
1209.000000	0.377918
1210.000000	0.378060
1211.000000	0.378179
1212.000000	0.378341
1213.000000	0.378681
1214.000000	0.378870
1215.000000	0.379044
1216.000000	0.379118
1217.000000	0.378930
1218.000000	0.378856
1219.000000	0.378754
1220.000000	0.378846
1221.000000	0.378975
1222.000000	0.379228
1223.000000	0.379553
1224.000000	0.379655
1225.000000	0.379690
1226.000000	0.379710
1227.000000	0.379713
1228.000000	0.379876
1229.000000	0.379901
1230.000000	0.379890
1231.000000	0.379842
1232.000000	0.379783
1233.000000	0.379949
1234.000000	0.380237
1235.000000	0.380416
1236.000000	0.380549
1237.000000	0.380777
1238.000000	0.380950
1239.000000	0.381091
1240.000000	0.381334
1241.000000	0.381445
1242.000000	0.381434
1243.000000	0.381442
1244.000000	0.381442
1245.000000	0.381559
1246.000000	0.381737
1247.000000	0.381975
1248.000000	0.382227
1249.000000	0.382483
1250.000000	0.382584
1251.000000	0.382575
1252.000000	0.382585
1253.000000	0.382561
1254.000000	0.382559
1255.000000	0.382587
1256.000000	0.382562
1257.000000	0.382493
1258.000000	0.382542
1259.000000	0.382506
1260.000000	0.382570
1261.000000	0.382741
1262.000000	0.382809
1263.000000	0.382812
1264.000000	0.382920
1265.000000	0.383060
1266.000000	0.383002
1267.000000	0.383012
1268.000000	0.383014
1269.000000	0.382934
1270.000000	0.382983
1271.000000	0.382990
1272.000000	0.383125
1273.000000	0.383333
1274.000000	0.383267
1275.000000	0.383257
1276.000000	0.383274
1277.000000	0.383358
1278.000000	0.383363
1279.000000	0.383347
1280.000000	0.383221
1281.000000	0.383148
1282.000000	0.383118
1283.000000	0.383139
1284.000000	0.383118
1285.000000	0.383179
1286.000000	0.383225
1287.000000	0.383329
1288.000000	0.383387
1289.000000	0.383436
1290.000000	0.383377
1291.000000	0.383209
1292.000000	0.383198
1293.000000	0.383188
1294.000000	0.383105
1295.000000	0.383160
1296.000000	0.383250
1297.000000	0.383312
1298.000000	0.383346
1299.000000	0.383265
1300.000000	0.383177
1301.000000	0.383180
1302.000000	0.383132
1303.000000	0.383289
1304.000000	0.383253
1305.000000	0.383240
1306.000000	0.383170
1307.000000	0.383091
1308.000000	0.383029
1309.000000	0.382934
1310.000000	0.382860
1311.000000	0.382802
1312.000000	0.382681
1313.000000	0.382691
1314.000000	0.382817
1315.000000	0.382773
1316.000000	0.382770
1317.000000	0.382874
1318.000000	0.382741
1319.000000	0.382683
1320.000000	0.382916
1321.000000	0.382885
1322.000000	0.382734
1323.000000	0.382711
1324.000000	0.382513
1325.000000	0.382353
1326.000000	0.382273
1327.000000	0.381987
1328.000000	0.381898
1329.000000	0.381755
1330.000000	0.381587
1331.000000	0.381464
1332.000000	0.381491
1333.000000	0.381374
1334.000000	0.381264
1335.000000	0.381212
1336.000000	0.381123
1337.000000	0.381047
1338.000000	0.380947
1339.000000	0.380800
1340.000000	0.380720
1341.000000	0.380828
1342.000000	0.380781
1343.000000	0.380621
1344.000000	0.380562
1345.000000	0.380385
1346.000000	0.380206
1347.000000	0.380151
1348.000000	0.380187
1349.000000	0.379843
1350.000000	0.379657
1351.000000	0.379700
1352.000000	0.379444
1353.000000	0.379197
1354.000000	0.379111
1355.000000	0.378942
1356.000000	0.378857
1357.000000	0.378841
1358.000000	0.378836
1359.000000	0.378788
1360.000000	0.378699
1361.000000	0.378629
1362.000000	0.378473
1363.000000	0.378189
1364.000000	0.378035
1365.000000	0.377859
1366.000000	0.377730
1367.000000	0.377750
1368.000000	0.377490
1369.000000	0.377277
1370.000000	0.377021
1371.000000	0.376647
1372.000000	0.376326
1373.000000	0.375869
1374.000000	0.375393
1375.000000	0.374957
1376.000000	0.374639
1377.000000	0.374411
1378.000000	0.374018
1379.000000	0.373443
1380.000000	0.372988
1381.000000	0.372478
1382.000000	0.371844
1383.000000	0.371273
1384.000000	0.370327
1385.000000	0.369241
1386.000000	0.368493
1387.000000	0.367727
1388.000000	0.366902
1389.000000	0.366246
1390.000000	0.365411
1391.000000	0.364276
1392.000000	0.363260
1393.000000	0.362159
1394.000000	0.360980
1395.000000	0.359770
1396.000000	0.358496
1397.000000	0.357304
1398.000000	0.356051
1399.000000	0.354874
1400.000000	0.353806
1401.000000	0.352615
1402.000000	0.351400
1403.000000	0.350170
1404.000000	0.349121
1405.000000	0.347959
1406.000000	0.346745
1407.000000	0.345680
1408.000000	0.344409
1409.000000	0.343249
1410.000000	0.342278
1411.000000	0.341129
1412.000000	0.339904
1413.000000	0.338933
1414.000000	0.338113
1415.000000	0.337415
1416.000000	0.337031
1417.000000	0.336743
1418.000000	0.336325
1419.000000	0.335954
1420.000000	0.335500
1421.000000	0.335176
1422.000000	0.334904
1423.000000	0.334612
1424.000000	0.334176
1425.000000	0.333629
1426.000000	0.333120
1427.000000	0.332681
1428.000000	0.332254
1429.000000	0.331791
1430.000000	0.331226
1431.000000	0.330666
1432.000000	0.330278
1433.000000	0.329991
1434.000000	0.329898
1435.000000	0.330093
1436.000000	0.330248
1437.000000	0.330417
1438.000000	0.330767
1439.000000	0.331237
1440.000000	0.331896
1441.000000	0.332915
1442.000000	0.333792
1443.000000	0.334617
1444.000000	0.335503
1445.000000	0.336380
1446.000000	0.337173
1447.000000	0.337999
1448.000000	0.338752
1449.000000	0.339270
1450.000000	0.339736
1451.000000	0.340293
1452.000000	0.340647
1453.000000	0.340991
1454.000000	0.341254
1455.000000	0.341368
1456.000000	0.341643
1457.000000	0.341839
1458.000000	0.341908
1459.000000	0.341974
1460.000000	0.341943
1461.000000	0.341949
1462.000000	0.342174
1463.000000	0.342205
1464.000000	0.342132
1465.000000	0.342292
1466.000000	0.342363
1467.000000	0.342458
1468.000000	0.342670
1469.000000	0.342839
1470.000000	0.342871
1471.000000	0.343125
1472.000000	0.343429
1473.000000	0.343739
1474.000000	0.344153
1475.000000	0.344427
1476.000000	0.344707
1477.000000	0.345102
1478.000000	0.345412
1479.000000	0.345681
1480.000000	0.345940
1481.000000	0.346200
1482.000000	0.346442
1483.000000	0.346762
1484.000000	0.347191
1485.000000	0.347544
1486.000000	0.347789
1487.000000	0.348113
1488.000000	0.348466
1489.000000	0.348920
1490.000000	0.349390
1491.000000	0.349867
1492.000000	0.350363
1493.000000	0.350728
1494.000000	0.350932
1495.000000	0.351227
1496.000000	0.351512
1497.000000	0.351800
1498.000000	0.352167
1499.000000	0.352400
1500.000000	0.352685
1501.000000	0.353019
1502.000000	0.353357
1503.000000	0.353743
1504.000000	0.354001
1505.000000	0.354201
1506.000000	0.354460
1507.000000	0.354723
1508.000000	0.355129
1509.000000	0.355569
1510.000000	0.355787
1511.000000	0.355972
1512.000000	0.356113
1513.000000	0.356190
1514.000000	0.356477
1515.000000	0.356765
1516.000000	0.356961
1517.000000	0.357089
1518.000000	0.357173
1519.000000	0.357219
1520.000000	0.357312
1521.000000	0.357438
1522.000000	0.357585
1523.000000	0.357735
1524.000000	0.357872
1525.000000	0.358067
1526.000000	0.358222
1527.000000	0.358301
1528.000000	0.358435
1529.000000	0.358557
1530.000000	0.358525
1531.000000	0.358657
1532.000000	0.358840
1533.000000	0.358858
1534.000000	0.358945
1535.000000	0.359054
1536.000000	0.359066
1537.000000	0.359194
1538.000000	0.359278
1539.000000	0.359325
1540.000000	0.359473
1541.000000	0.359604
1542.000000	0.359825
1543.000000	0.360049
1544.000000	0.360118
1545.000000	0.360287
1546.000000	0.360477
1547.000000	0.360619
1548.000000	0.360843
1549.000000	0.360977
1550.000000	0.360952
1551.000000	0.360981
1552.000000	0.361128
1553.000000	0.361167
1554.000000	0.361160
1555.000000	0.361265
1556.000000	0.361265
1557.000000	0.361187
1558.000000	0.361258
1559.000000	0.361461
1560.000000	0.361403
1561.000000	0.361262
1562.000000	0.361285
1563.000000	0.361262
1564.000000	0.361294
1565.000000	0.361533
1566.000000	0.361580
1567.000000	0.361569
1568.000000	0.361658
1569.000000	0.361916
1570.000000	0.362018
1571.000000	0.362047
1572.000000	0.362077
1573.000000	0.362064
1574.000000	0.362039
1575.000000	0.362020
1576.000000	0.362094
1577.000000	0.362143
1578.000000	0.362178
1579.000000	0.362357
1580.000000	0.362420
1581.000000	0.362507
1582.000000	0.362562
1583.000000	0.362524
1584.000000	0.362554
1585.000000	0.362740
1586.000000	0.362804
1587.000000	0.362861
1588.000000	0.362846
1589.000000	0.362689
1590.000000	0.362615
1591.000000	0.362571
1592.000000	0.362650
1593.000000	0.362879
1594.000000	0.362952
1595.000000	0.363084
1596.000000	0.363169
1597.000000	0.363193
1598.000000	0.363221
1599.000000	0.363248
1600.000000	0.363336
1601.000000	0.363511
1602.000000	0.363608
1603.000000	0.363872
1604.000000	0.363954
1605.000000	0.363911
1606.000000	0.363890
1607.000000	0.363898
1608.000000	0.363834
1609.000000	0.363716
1610.000000	0.363644
1611.000000	0.363554
1612.000000	0.363519
1613.000000	0.363726
1614.000000	0.363752
1615.000000	0.363797
1616.000000	0.363839
1617.000000	0.363689
1618.000000	0.363633
1619.000000	0.363620
1620.000000	0.363618
1621.000000	0.363698
1622.000000	0.363820
1623.000000	0.363912
1624.000000	0.363973
1625.000000	0.363832
1626.000000	0.363823
1627.000000	0.363937
1628.000000	0.364044
1629.000000	0.364167
1630.000000	0.364337
1631.000000	0.364448
1632.000000	0.364510
1633.000000	0.364638
1634.000000	0.364718
1635.000000	0.364739
1636.000000	0.364784
1637.000000	0.364920
1638.000000	0.364921
1639.000000	0.364883
1640.000000	0.364889
1641.000000	0.364854
1642.000000	0.364956
1643.000000	0.365285
1644.000000	0.365393
1645.000000	0.365501
1646.000000	0.365467
1647.000000	0.365248
1648.000000	0.365168
1649.000000	0.365177
1650.000000	0.365288
1651.000000	0.365613
1652.000000	0.365685
1653.000000	0.365583
1654.000000	0.365668
1655.000000	0.365653
1656.000000	0.365591
1657.000000	0.365766
1658.000000	0.365773
1659.000000	0.365675
1660.000000	0.365734
1661.000000	0.365776
1662.000000	0.365841
1663.000000	0.365894
1664.000000	0.366007
1665.000000	0.366179
1666.000000	0.366364
1667.000000	0.366499
1668.000000	0.366584
1669.000000	0.366600
1670.000000	0.366658
1671.000000	0.366911
1672.000000	0.366914
1673.000000	0.366729
1674.000000	0.366741
1675.000000	0.366723
1676.000000	0.366883
1677.000000	0.367162
1678.000000	0.367028
1679.000000	0.366915
1680.000000	0.367049
1681.000000	0.367071
1682.000000	0.367200
1683.000000	0.367402
1684.000000	0.367301
1685.000000	0.367204
1686.000000	0.367076
1687.000000	0.366969
1688.000000	0.367049
1689.000000	0.367114
1690.000000	0.367086
1691.000000	0.367157
1692.000000	0.367081
1693.000000	0.367014
1694.000000	0.367105
1695.000000	0.367246
1696.000000	0.367311
1697.000000	0.367285
1698.000000	0.367240
1699.000000	0.367274
1700.000000	0.367262
1701.000000	0.367410
1702.000000	0.367522
1703.000000	0.367560
1704.000000	0.367753
1705.000000	0.367813
1706.000000	0.367812
1707.000000	0.367813
1708.000000	0.367629
1709.000000	0.367578
1710.000000	0.367716
1711.000000	0.367840
1712.000000	0.368107
1713.000000	0.368258
1714.000000	0.368470
1715.000000	0.368557
1716.000000	0.368556
1717.000000	0.368533
1718.000000	0.368299
1719.000000	0.368211
1720.000000	0.368291
1721.000000	0.368252
1722.000000	0.368249
1723.000000	0.368180
1724.000000	0.368055
1725.000000	0.367905
1726.000000	0.367530
1727.000000	0.367421
1728.000000	0.367303
1729.000000	0.367199
1730.000000	0.367460
1731.000000	0.367517
1732.000000	0.367523
1733.000000	0.367515
1734.000000	0.367253
1735.000000	0.367246
1736.000000	0.367230
1737.000000	0.367268
1738.000000	0.367534
1739.000000	0.367619
1740.000000	0.367548
1741.000000	0.367624
1742.000000	0.367781
1743.000000	0.367897
1744.000000	0.368112
1745.000000	0.367925
1746.000000	0.367495
1747.000000	0.367116
1748.000000	0.366820
1749.000000	0.366796
1750.000000	0.366681
1751.000000	0.366661
1752.000000	0.366747
1753.000000	0.366758
1754.000000	0.366745
1755.000000	0.366718
1756.000000	0.366623
1757.000000	0.366363
1758.000000	0.366300
1759.000000	0.366294
1760.000000	0.366309
1761.000000	0.366514
1762.000000	0.366499
1763.000000	0.366261
1764.000000	0.366258
1765.000000	0.366232
1766.000000	0.366288
1767.000000	0.366514
1768.000000	0.366547
1769.000000	0.366544
1770.000000	0.366643
1771.000000	0.366724
1772.000000	0.366743
1773.000000	0.366753
1774.000000	0.366687
1775.000000	0.366502
1776.000000	0.366527
1777.000000	0.366586
1778.000000	0.366632
1779.000000	0.366838
1780.000000	0.366816
1781.000000	0.366643
1782.000000	0.366450
1783.000000	0.366172
1784.000000	0.366128
1785.000000	0.365895
1786.000000	0.366028
1787.000000	0.366169
1788.000000	0.366094
1789.000000	0.366159
1790.000000	0.366042
1791.000000	0.365913
1792.000000	0.365835
1793.000000	0.365848
1794.000000	0.365936
1795.000000	0.366059
1796.000000	0.366447
1797.000000	0.366524
1798.000000	0.366416
1799.000000	0.366265
1800.000000	0.365798
1801.000000	0.365965
1802.000000	0.366189
1803.000000	0.366325
1804.000000	0.366319
1805.000000	0.365450
1806.000000	0.365414
1807.000000	0.365953
1808.000000	0.366213
1809.000000	0.366795
1810.000000	0.367159
1811.000000	0.366987
1812.000000	0.366244
1813.000000	0.366057
1814.000000	0.365382
1815.000000	0.365495
1816.000000	0.366435
1817.000000	0.366750
1818.000000	0.366941
1819.000000	0.367888
1820.000000	0.368111
1821.000000	0.368603
1822.000000	0.368042
1823.000000	0.366189
1824.000000	0.365596
1825.000000	0.364482
1826.000000	0.364098
1827.000000	0.364503
1828.000000	0.365419
1829.000000	0.364960
1830.000000	0.364944
1831.000000	0.365079
1832.000000	0.365250
1833.000000	0.365081
1834.000000	0.364726
1835.000000	0.364980
1836.000000	0.365322
1837.000000	0.365357
1838.000000	0.365482
1839.000000	0.366071
1840.000000	0.365598
1841.000000	0.365471
1842.000000	0.365429
1843.000000	0.365550
1844.000000	0.365720
1845.000000	0.365961
1846.000000	0.365999
1847.000000	0.366038
1848.000000	0.366169
1849.000000	0.365282
1850.000000	0.364180
1851.000000	0.363211
1852.000000	0.361365
1853.000000	0.360588
1854.000000	0.360029
1855.000000	0.359733
1856.000000	0.359427
1857.000000	0.360611
1858.000000	0.361069
1859.000000	0.361031
1860.000000	0.360656
1861.000000	0.359006
1862.000000	0.358009
1863.000000	0.356860
1864.000000	0.355878
1865.000000	0.355313
1866.000000	0.354584
1867.000000	0.353726
1868.000000	0.352411
1869.000000	0.351900
1870.000000	0.350839
1871.000000	0.349721
1872.000000	0.348598
1873.000000	0.346928
1874.000000	0.344460
1875.000000	0.342682
1876.000000	0.340742
1877.000000	0.338324
1878.000000	0.336196
1879.000000	0.334033
1880.000000	0.331907
1881.000000	0.329377
1882.000000	0.327333
1883.000000	0.324973
1884.000000	0.322255
1885.000000	0.319198
1886.000000	0.315939
1887.000000	0.312176
1888.000000	0.307974
1889.000000	0.304503
1890.000000	0.300837
1891.000000	0.297615
1892.000000	0.294420
1893.000000	0.290814
1894.000000	0.287050
1895.000000	0.283051
1896.000000	0.278874
1897.000000	0.274991
1898.000000	0.270843
1899.000000	0.266621
1900.000000	0.262696
1901.000000	0.259281
1902.000000	0.256282
1903.000000	0.253524
1904.000000	0.251136
1905.000000	0.248774
1906.000000	0.246352
1907.000000	0.243917
1908.000000	0.241567
1909.000000	0.239562
1910.000000	0.238073
1911.000000	0.236955
1912.000000	0.236563
1913.000000	0.236456
1914.000000	0.236535
1915.000000	0.236375
1916.000000	0.235877
1917.000000	0.235503
1918.000000	0.235221
1919.000000	0.234628
1920.000000	0.234388
1921.000000	0.234926
1922.000000	0.235457
1923.000000	0.235626
1924.000000	0.236068
1925.000000	0.236624
1926.000000	0.236575
1927.000000	0.237316
1928.000000	0.238056
1929.000000	0.239039
1930.000000	0.239323
1931.000000	0.240355
1932.000000	0.241236
1933.000000	0.241625
1934.000000	0.242105
1935.000000	0.242287
1936.000000	0.242473
1937.000000	0.242950
1938.000000	0.243854
1939.000000	0.244408
1940.000000	0.245101
1941.000000	0.245539
1942.000000	0.245308
1943.000000	0.244578
1944.000000	0.244490
1945.000000	0.244395
1946.000000	0.244914
1947.000000	0.245753
1948.000000	0.245993
1949.000000	0.246209
1950.000000	0.246170
1951.000000	0.246354
1952.000000	0.246629
1953.000000	0.247123
1954.000000	0.247367
1955.000000	0.247570
1956.000000	0.247504
1957.000000	0.247655
1958.000000	0.248126
1959.000000	0.248486
1960.000000	0.248469
1961.000000	0.248256
1962.000000	0.248284
1963.000000	0.248303
1964.000000	0.248502
1965.000000	0.248875
1966.000000	0.248725
1967.000000	0.248290
1968.000000	0.248166
1969.000000	0.248081
1970.000000	0.248683
1971.000000	0.249511
1972.000000	0.250137
1973.000000	0.250638
1974.000000	0.251103
1975.000000	0.251793
1976.000000	0.252480
1977.000000	0.253378
1978.000000	0.254448
1979.000000	0.255121
1980.000000	0.255449
1981.000000	0.255822
1982.000000	0.256039
1983.000000	0.256886
1984.000000	0.257366
1985.000000	0.257721
1986.000000	0.258076
1987.000000	0.258433
1988.000000	0.258664
1989.000000	0.259294
1990.000000	0.260201
1991.000000	0.260771
1992.000000	0.261240
1993.000000	0.261786
1994.000000	0.262423
1995.000000	0.263075
1996.000000	0.263870
1997.000000	0.264530
1998.000000	0.264983
1999.000000	0.265551
2000.000000	0.265966
2001.000000	0.266937
2002.000000	0.268199
2003.000000	0.269458
2004.000000	0.270935
2005.000000	0.271671
2006.000000	0.271765
2007.000000	0.272152
2008.000000	0.272799
2009.000000	0.273610
2010.000000	0.274548
2011.000000	0.275636
2012.000000	0.276435
2013.000000	0.277120
2014.000000	0.277614
2015.000000	0.278533
2016.000000	0.279943
2017.000000	0.280951
2018.000000	0.281622
2019.000000	0.281766
2020.000000	0.281829
2021.000000	0.282120
2022.000000	0.282565
2023.000000	0.282998
2024.000000	0.283140
2025.000000	0.283903
2026.000000	0.285057
2027.000000	0.285952
2028.000000	0.286732
2029.000000	0.287931
2030.000000	0.288340
2031.000000	0.288714
2032.000000	0.289686
2033.000000	0.290855
2034.000000	0.291494
2035.000000	0.292140
2036.000000	0.292410
2037.000000	0.291847
2038.000000	0.292216
2039.000000	0.293102
2040.000000	0.293831
2041.000000	0.294541
2042.000000	0.295589
2043.000000	0.295789
2044.000000	0.296142
2045.000000	0.297017
2046.000000	0.297687
2047.000000	0.298474
2048.000000	0.299301
2049.000000	0.300145
2050.000000	0.301113
2051.000000	0.301279
2052.000000	0.300558
2053.000000	0.300535
2054.000000	0.300353
2055.000000	0.300637
2056.000000	0.301809
2057.000000	0.303011
2058.000000	0.303781
2059.000000	0.303773
2060.000000	0.304215
2061.000000	0.304502
2062.000000	0.304799
2063.000000	0.305548
2064.000000	0.305909
2065.000000	0.306009
2066.000000	0.306245
2067.000000	0.307074
2068.000000	0.307249
2069.000000	0.307041
2070.000000	0.307022
2071.000000	0.306653
2072.000000	0.306428
2073.000000	0.307028
2074.000000	0.307852
2075.000000	0.308680
2076.000000	0.309988
2077.000000	0.310945
2078.000000	0.311966
2079.000000	0.312500
2080.000000	0.312538
2081.000000	0.312888
2082.000000	0.313118
2083.000000	0.313440
2084.000000	0.313641
2085.000000	0.314078
2086.000000	0.314355
2087.000000	0.314415
2088.000000	0.314750
2089.000000	0.315057
2090.000000	0.315622
2091.000000	0.316508
2092.000000	0.317076
2093.000000	0.317936
2094.000000	0.318386
2095.000000	0.318217
2096.000000	0.318355
2097.000000	0.318457
2098.000000	0.318547
2099.000000	0.318600
2100.000000	0.319176
2101.000000	0.319127
2102.000000	0.319641
2103.000000	0.320883
2104.000000	0.321378
2105.000000	0.321838
2106.000000	0.322544
2107.000000	0.322747
2108.000000	0.321947
2109.000000	0.322172
2110.000000	0.322675
2111.000000	0.323008
2112.000000	0.323320
2113.000000	0.324050
2114.000000	0.324564
2115.000000	0.324556
2116.000000	0.324601
2117.000000	0.324022
2118.000000	0.323392
2119.000000	0.322853
2120.000000	0.322453
2121.000000	0.322320
2122.000000	0.322177
2123.000000	0.321592
2124.000000	0.321988
2125.000000	0.323429
2126.000000	0.324081
2127.000000	0.325247
2128.000000	0.325927
2129.000000	0.326148
2130.000000	0.325630
2131.000000	0.325110
2132.000000	0.324310
2133.000000	0.324022
2134.000000	0.323864
2135.000000	0.324092
2136.000000	0.324771
2137.000000	0.325137
2138.000000	0.325350
2139.000000	0.325816
2140.000000	0.326596
2141.000000	0.326874
2142.000000	0.327072
2143.000000	0.326809
2144.000000	0.326209
2145.000000	0.325752
2146.000000	0.324999
2147.000000	0.325046
2148.000000	0.324905
2149.000000	0.324693
2150.000000	0.324737
2151.000000	0.324464
2152.000000	0.324344
2153.000000	0.324292
2154.000000	0.324678
2155.000000	0.325663
2156.000000	0.326224
2157.000000	0.327736
2158.000000	0.327567
2159.000000	0.326316
2160.000000	0.325359
2161.000000	0.322525
2162.000000	0.321607
2163.000000	0.321557
2164.000000	0.321702
2165.000000	0.323025
2166.000000	0.324591
2167.000000	0.324427
2168.000000	0.324350
2169.000000	0.323535
2170.000000	0.322656
2171.000000	0.322649
2172.000000	0.323496
2173.000000	0.323784
2174.000000	0.324601
2175.000000	0.324681
2176.000000	0.324071
2177.000000	0.323792
2178.000000	0.323339
2179.000000	0.323096
2180.000000	0.322856
2181.000000	0.323328
2182.000000	0.323949
2183.000000	0.323924
2184.000000	0.324124
2185.000000	0.323758
2186.000000	0.323533
2187.000000	0.323500
2188.000000	0.322883
2189.000000	0.322772
2190.000000	0.321905
2191.000000	0.321577
2192.000000	0.322237
2193.000000	0.324496
2194.000000	0.325357
2195.000000	0.327218
2196.000000	0.327496
2197.000000	0.325842
2198.000000	0.324850
2199.000000	0.322922
2200.000000	0.321768
2201.000000	0.321363
2202.000000	0.320164
2203.000000	0.318605
2204.000000	0.317632
2205.000000	0.315131
2206.000000	0.312564
2207.000000	0.312172
2208.000000	0.313071
2209.000000	0.312854
2210.000000	0.315255
2211.000000	0.316865
2212.000000	0.316172
2213.000000	0.315493
2214.000000	0.313563
2215.000000	0.313543
2216.000000	0.312954
2217.000000	0.313737
2218.000000	0.317422
2219.000000	0.318888
2220.000000	0.320275
2221.000000	0.320968
2222.000000	0.320229
2223.000000	0.320222
2224.000000	0.320374
2225.000000	0.319560
2226.000000	0.318744
2227.000000	0.318416
2228.000000	0.318902
2229.000000	0.316696
2230.000000	0.315099
2231.000000	0.313924
2232.000000	0.312964
2233.000000	0.315567
2234.000000	0.316182
2235.000000	0.316965
2236.000000	0.317455
2237.000000	0.315461
2238.000000	0.315346
2239.000000	0.317572
2240.000000	0.317859
2241.000000	0.317570
2242.000000	0.317110
2243.000000	0.315311
2244.000000	0.314356
2245.000000	0.313149
2246.000000	0.312990
2247.000000	0.314103
2248.000000	0.315044
2249.000000	0.316674
2250.000000	0.317355
2251.000000	0.319612
2252.000000	0.320126
2253.000000	0.320998
2254.000000	0.322842
2255.000000	0.319969
2256.000000	0.316423
2257.000000	0.316017
2258.000000	0.314233
2259.000000	0.313905
2260.000000	0.316157
2261.000000	0.315648
2262.000000	0.313223
2263.000000	0.311278
2264.000000	0.308222
2265.000000	0.306716
2266.000000	0.305595
2267.000000	0.304227
2268.000000	0.304323
2269.000000	0.302592
2270.000000	0.299461
2271.000000	0.296556
2272.000000	0.292369
2273.000000	0.290421
2274.000000	0.290001
2275.000000	0.288216
2276.000000	0.286967
2277.000000	0.285347
2278.000000	0.282162
2279.000000	0.279309
2280.000000	0.277870
2281.000000	0.277483
2282.000000	0.277397
2283.000000	0.277988
2284.000000	0.277867
2285.000000	0.276783
2286.000000	0.274930
2287.000000	0.273523
2288.000000	0.274106
2289.000000	0.276220
2290.000000	0.278961
2291.000000	0.280495
2292.000000	0.280915
2293.000000	0.279439
2294.000000	0.279204
2295.000000	0.279137
2296.000000	0.279410
2297.000000	0.279101
2298.000000	0.280911
2299.000000	0.284898
2300.000000	0.286617
2301.000000	0.289808
2302.000000	0.291263
2303.000000	0.288885
2304.000000	0.288394
2305.000000	0.288125
2306.000000	0.288526
2307.000000	0.288708
2308.000000	0.291772
2309.000000	0.295417
2310.000000	0.297413
2311.000000	0.299865
2312.000000	0.299285
2313.000000	0.297510
2314.000000	0.295990
2315.000000	0.292369
2316.000000	0.291157
2317.000000	0.289871
2318.000000	0.289786
2319.000000	0.293417
2320.000000	0.296018
2321.000000	0.298404
2322.000000	0.300280
2323.000000	0.300627
2324.000000	0.299281
2325.000000	0.296176
2326.000000	0.293068
2327.000000	0.287385
2328.000000	0.283395
2329.000000	0.282052
2330.000000	0.278411
2331.000000	0.279668
2332.000000	0.282660
2333.000000	0.284310
2334.000000	0.288837
2335.000000	0.290552
2336.000000	0.289129
2337.000000	0.287662
2338.000000	0.285066
2339.000000	0.282596
2340.000000	0.279126
2341.000000	0.277414
2342.000000	0.275423
2343.000000	0.274523
2344.000000	0.275996
2345.000000	0.274791
2346.000000	0.272936
2347.000000	0.271812
2348.000000	0.269503
2349.000000	0.268566
2350.000000	0.267425
2351.000000	0.266535
2352.000000	0.262583
2353.000000	0.258986
2354.000000	0.257727
2355.000000	0.256907
2356.000000	0.260675
2357.000000	0.263943
2358.000000	0.263082
2359.000000	0.261632
2360.000000	0.260009
2361.000000	0.256706
2362.000000	0.256249
2363.000000	0.259735
2364.000000	0.258780
2365.000000	0.258058
2366.000000	0.260483
2367.000000	0.259098
2368.000000	0.256319
2369.000000	0.255769
2370.000000	0.253274
2371.000000	0.248940
2372.000000	0.248883
2373.000000	0.249255
2374.000000	0.247976
2375.000000	0.250691
2376.000000	0.255365
2377.000000	0.256243
2378.000000	0.256396
2379.000000	0.253769
2380.000000	0.248183
2381.000000	0.247224
2382.000000	0.244207
2383.000000	0.243867
2384.000000	0.247236
2385.000000	0.246654
2386.000000	0.249571
2387.000000	0.252771
2388.000000	0.250432
2389.000000	0.243172
2390.000000	0.232917
2391.000000	0.226508
2392.000000	0.228147
2393.000000	0.232852
2394.000000	0.234167
2395.000000	0.236834
2396.000000	0.232986
2397.000000	0.225940
2398.000000	0.226164
2399.000000	0.222362
2400.000000	0.221306
2401.000000	0.221594
2402.000000	0.222305
2403.000000	0.226987
2404.000000	0.224122
2405.000000	0.221324
2406.000000	0.224051
2407.000000	0.221913
2408.000000	0.223287
2409.000000	0.226291
2410.000000	0.222095
2411.000000	0.223289
2412.000000	0.223668
2413.000000	0.221908
2414.000000	0.221033
2415.000000	0.213515
2416.000000	0.206583
2417.000000	0.203808
2418.000000	0.202766
2419.000000	0.207312
2420.000000	0.218480
2421.000000	0.220602
2422.000000	0.219491
2423.000000	0.223885
2424.000000	0.220642
2425.000000	0.221106
2426.000000	0.223541
2427.000000	0.222473
2428.000000	0.220024
2429.000000	0.220357
2430.000000	0.224064
2431.000000	0.215989
2432.000000	0.207654
2433.000000	0.194754
2434.000000	0.176733
2435.000000	0.171874
2436.000000	0.172930
2437.000000	0.179740
2438.000000	0.193370
2439.000000	0.202516
2440.000000	0.197961
2441.000000	0.188107
2442.000000	0.182911
2443.000000	0.180352
2444.000000	0.185176
2445.000000	0.198582
2446.000000	0.202152
2447.000000	0.198277
2448.000000	0.207977
2449.000000	0.209576
2450.000000	0.205456
2451.000000	0.213383
2452.000000	0.210571
2453.000000	0.199700
2454.000000	0.202310
2455.000000	0.200412
2456.000000	0.184200
2457.000000	0.185408
2458.000000	0.196415
2459.000000	0.196217
2460.000000	0.209758
2461.000000	0.226150
2462.000000	0.209052
2463.000000	0.178934
2464.000000	0.152946
2465.000000	0.126094
2466.000000	0.113681
2467.000000	0.141421
2468.000000	0.180459
2469.000000	0.232938
2470.000000	0.296024
2471.000000	0.321337
2472.000000	0.326989
2473.000000	0.304720
2474.000000	0.266796
2475.000000	0.243239
2476.000000	0.211461
2477.000000	0.184148
2478.000000	0.170072
2479.000000	0.153762
2480.000000	0.151765
2481.000000	0.165447
2482.000000	0.178268
2483.000000	0.175541
2484.000000	0.176891
2485.000000	0.184311
2486.000000	0.112286
2487.000000	0.064675
2488.000000	0.075568
2489.000000	0.087212
2490.000000	0.145853
2491.000000	0.199169
2492.000000	0.204502
2493.000000	0.133426
2494.000000	0.111177
2495.000000	0.106777
2496.000000	0.092427
2497.000000	0.102476
2498.000000	0.096847
2499.000000	0.070947
2500.000000	0.031747
