# Wavelength	NAu-1-60_HEX-20_FV7-20_00000.asd.rts.txt
350.000000	0.125647
351.000000	0.106021
352.000000	0.112962
353.000000	0.123882
354.000000	0.124877
355.000000	0.114225
356.000000	0.109861
357.000000	0.115865
358.000000	0.125140
359.000000	0.126351
360.000000	0.124752
361.000000	0.126578
362.000000	0.113278
363.000000	0.106422
364.000000	0.116954
365.000000	0.125990
366.000000	0.124818
367.000000	0.116432
368.000000	0.114648
369.000000	0.117316
370.000000	0.120217
371.000000	0.118955
372.000000	0.116259
373.000000	0.117955
374.000000	0.124844
375.000000	0.123625
376.000000	0.121632
377.000000	0.122616
378.000000	0.128002
379.000000	0.126952
380.000000	0.123007
381.000000	0.123882
382.000000	0.123868
383.000000	0.124524
384.000000	0.126772
385.000000	0.126790
386.000000	0.128333
387.000000	0.132050
388.000000	0.135455
389.000000	0.136030
390.000000	0.135708
391.000000	0.137582
392.000000	0.138691
393.000000	0.139313
394.000000	0.140383
395.000000	0.143825
396.000000	0.146523
397.000000	0.147471
398.000000	0.148338
399.000000	0.149247
400.000000	0.150412
401.000000	0.151909
402.000000	0.153662
403.000000	0.155282
404.000000	0.156554
405.000000	0.157491
406.000000	0.158929
407.000000	0.161109
408.000000	0.163362
409.000000	0.165195
410.000000	0.166267
411.000000	0.166355
412.000000	0.166759
413.000000	0.167718
414.000000	0.169062
415.000000	0.170007
416.000000	0.170774
417.000000	0.171613
418.000000	0.172711
419.000000	0.173611
420.000000	0.173994
421.000000	0.173566
422.000000	0.173912
423.000000	0.174510
424.000000	0.174361
425.000000	0.174484
426.000000	0.174468
427.000000	0.174126
428.000000	0.174642
429.000000	0.175006
430.000000	0.174803
431.000000	0.174247
432.000000	0.174295
433.000000	0.174631
434.000000	0.174426
435.000000	0.174443
436.000000	0.174414
437.000000	0.174055
438.000000	0.173999
439.000000	0.173734
440.000000	0.173184
441.000000	0.173012
442.000000	0.172562
443.000000	0.171999
444.000000	0.172179
445.000000	0.171589
446.000000	0.171071
447.000000	0.171752
448.000000	0.172580
449.000000	0.173730
450.000000	0.175312
451.000000	0.176872
452.000000	0.178666
453.000000	0.180691
454.000000	0.182788
455.000000	0.185655
456.000000	0.188884
457.000000	0.191519
458.000000	0.193986
459.000000	0.196494
460.000000	0.199168
461.000000	0.201775
462.000000	0.203916
463.000000	0.205430
464.000000	0.206929
465.000000	0.208385
466.000000	0.209697
467.000000	0.210794
468.000000	0.211997
469.000000	0.213143
470.000000	0.214129
471.000000	0.215140
472.000000	0.216051
473.000000	0.216777
474.000000	0.217287
475.000000	0.217761
476.000000	0.218407
477.000000	0.219188
478.000000	0.219867
479.000000	0.220464
480.000000	0.220840
481.000000	0.221345
482.000000	0.222071
483.000000	0.222805
484.000000	0.223398
485.000000	0.223890
486.000000	0.224483
487.000000	0.225178
488.000000	0.225838
489.000000	0.226436
490.000000	0.226994
491.000000	0.227647
492.000000	0.228424
493.000000	0.229188
494.000000	0.229923
495.000000	0.230535
496.000000	0.231044
497.000000	0.232002
498.000000	0.232848
499.000000	0.233477
500.000000	0.234131
501.000000	0.234755
502.000000	0.235506
503.000000	0.236513
504.000000	0.237300
505.000000	0.237989
506.000000	0.238792
507.000000	0.239704
508.000000	0.240560
509.000000	0.241295
510.000000	0.242177
511.000000	0.243109
512.000000	0.244032
513.000000	0.244840
514.000000	0.245823
515.000000	0.246878
516.000000	0.247756
517.000000	0.248784
518.000000	0.249892
519.000000	0.250896
520.000000	0.251790
521.000000	0.252736
522.000000	0.253787
523.000000	0.254807
524.000000	0.255985
525.000000	0.257200
526.000000	0.258211
527.000000	0.259349
528.000000	0.260520
529.000000	0.261620
530.000000	0.262727
531.000000	0.263942
532.000000	0.265211
533.000000	0.266445
534.000000	0.267698
535.000000	0.268957
536.000000	0.270183
537.000000	0.271497
538.000000	0.272860
539.000000	0.274162
540.000000	0.275445
541.000000	0.276689
542.000000	0.277911
543.000000	0.279140
544.000000	0.280408
545.000000	0.281675
546.000000	0.283036
547.000000	0.284326
548.000000	0.285553
549.000000	0.286746
550.000000	0.288049
551.000000	0.289406
552.000000	0.290656
553.000000	0.291875
554.000000	0.293092
555.000000	0.294331
556.000000	0.295613
557.000000	0.296743
558.000000	0.297842
559.000000	0.299071
560.000000	0.300183
561.000000	0.301260
562.000000	0.302380
563.000000	0.303457
564.000000	0.304526
565.000000	0.305528
566.000000	0.306567
567.000000	0.307520
568.000000	0.308341
569.000000	0.309283
570.000000	0.310114
571.000000	0.310847
572.000000	0.311748
573.000000	0.312559
574.000000	0.313279
575.000000	0.314036
576.000000	0.314659
577.000000	0.315188
578.000000	0.315748
579.000000	0.316306
580.000000	0.316890
581.000000	0.317470
582.000000	0.317925
583.000000	0.318316
584.000000	0.318706
585.000000	0.319168
586.000000	0.319526
587.000000	0.319835
588.000000	0.320185
589.000000	0.320507
590.000000	0.320810
591.000000	0.321091
592.000000	0.321301
593.000000	0.321535
594.000000	0.321801
595.000000	0.322023
596.000000	0.322178
597.000000	0.322315
598.000000	0.322408
599.000000	0.322497
600.000000	0.322626
601.000000	0.322732
602.000000	0.322816
603.000000	0.322885
604.000000	0.322952
605.000000	0.323001
606.000000	0.322998
607.000000	0.323010
608.000000	0.323168
609.000000	0.323246
610.000000	0.323246
611.000000	0.323235
612.000000	0.323270
613.000000	0.323342
614.000000	0.323448
615.000000	0.323457
616.000000	0.323432
617.000000	0.323413
618.000000	0.323544
619.000000	0.323591
620.000000	0.323551
621.000000	0.323571
622.000000	0.323584
623.000000	0.323574
624.000000	0.323543
625.000000	0.323533
626.000000	0.323615
627.000000	0.323781
628.000000	0.323896
629.000000	0.324057
630.000000	0.324144
631.000000	0.324239
632.000000	0.324353
633.000000	0.324488
634.000000	0.324622
635.000000	0.324760
636.000000	0.324926
637.000000	0.325098
638.000000	0.325236
639.000000	0.325326
640.000000	0.325437
641.000000	0.325541
642.000000	0.325685
643.000000	0.325843
644.000000	0.325980
645.000000	0.326150
646.000000	0.326335
647.000000	0.326493
648.000000	0.326666
649.000000	0.326863
650.000000	0.327039
651.000000	0.327130
652.000000	0.327301
653.000000	0.327561
654.000000	0.327755
655.000000	0.327958
656.000000	0.328221
657.000000	0.328510
658.000000	0.328793
659.000000	0.329092
660.000000	0.329389
661.000000	0.329640
662.000000	0.329824
663.000000	0.330036
664.000000	0.330329
665.000000	0.330657
666.000000	0.330963
667.000000	0.331185
668.000000	0.331494
669.000000	0.331830
670.000000	0.332151
671.000000	0.332470
672.000000	0.332796
673.000000	0.333131
674.000000	0.333499
675.000000	0.333874
676.000000	0.334266
677.000000	0.334708
678.000000	0.335135
679.000000	0.335549
680.000000	0.335966
681.000000	0.336376
682.000000	0.336795
683.000000	0.337165
684.000000	0.337607
685.000000	0.338031
686.000000	0.338451
687.000000	0.338857
688.000000	0.339273
689.000000	0.339690
690.000000	0.340135
691.000000	0.340613
692.000000	0.341075
693.000000	0.341585
694.000000	0.342150
695.000000	0.342640
696.000000	0.343075
697.000000	0.343543
698.000000	0.344063
699.000000	0.344625
700.000000	0.345209
701.000000	0.345773
702.000000	0.346309
703.000000	0.346832
704.000000	0.347452
705.000000	0.348054
706.000000	0.348583
707.000000	0.349122
708.000000	0.349687
709.000000	0.350238
710.000000	0.350765
711.000000	0.351313
712.000000	0.351852
713.000000	0.352401
714.000000	0.352979
715.000000	0.353563
716.000000	0.354142
717.000000	0.354680
718.000000	0.355230
719.000000	0.355751
720.000000	0.356231
721.000000	0.356736
722.000000	0.357232
723.000000	0.357772
724.000000	0.358313
725.000000	0.358775
726.000000	0.359274
727.000000	0.359808
728.000000	0.360299
729.000000	0.360776
730.000000	0.361213
731.000000	0.361658
732.000000	0.362092
733.000000	0.362537
734.000000	0.362922
735.000000	0.363302
736.000000	0.363782
737.000000	0.364186
738.000000	0.364541
739.000000	0.364982
740.000000	0.365385
741.000000	0.365721
742.000000	0.366108
743.000000	0.366514
744.000000	0.366841
745.000000	0.367146
746.000000	0.367469
747.000000	0.367734
748.000000	0.368070
749.000000	0.368398
750.000000	0.368629
751.000000	0.368875
752.000000	0.369136
753.000000	0.369391
754.000000	0.369561
755.000000	0.369752
756.000000	0.369975
757.000000	0.370158
758.000000	0.370322
759.000000	0.370517
760.000000	0.370684
761.000000	0.370865
762.000000	0.371038
763.000000	0.371169
764.000000	0.371310
765.000000	0.371362
766.000000	0.371385
767.000000	0.371445
768.000000	0.371541
769.000000	0.371607
770.000000	0.371631
771.000000	0.371659
772.000000	0.371679
773.000000	0.371613
774.000000	0.371518
775.000000	0.371364
776.000000	0.371249
777.000000	0.371210
778.000000	0.371161
779.000000	0.371098
780.000000	0.371012
781.000000	0.370862
782.000000	0.370752
783.000000	0.370712
784.000000	0.370536
785.000000	0.370316
786.000000	0.370098
787.000000	0.369890
788.000000	0.369644
789.000000	0.369461
790.000000	0.369296
791.000000	0.369087
792.000000	0.368848
793.000000	0.368609
794.000000	0.368390
795.000000	0.368126
796.000000	0.367863
797.000000	0.367600
798.000000	0.367302
799.000000	0.367110
800.000000	0.366918
801.000000	0.366588
802.000000	0.366293
803.000000	0.365987
804.000000	0.365685
805.000000	0.365387
806.000000	0.365028
807.000000	0.364712
808.000000	0.364437
809.000000	0.364161
810.000000	0.363872
811.000000	0.363540
812.000000	0.363133
813.000000	0.362692
814.000000	0.362277
815.000000	0.361992
816.000000	0.361640
817.000000	0.361289
818.000000	0.360947
819.000000	0.360638
820.000000	0.360304
821.000000	0.359908
822.000000	0.359637
823.000000	0.359277
824.000000	0.358788
825.000000	0.358350
826.000000	0.358023
827.000000	0.357711
828.000000	0.357404
829.000000	0.357149
830.000000	0.356793
831.000000	0.356421
832.000000	0.356055
833.000000	0.355661
834.000000	0.355301
835.000000	0.355027
836.000000	0.354663
837.000000	0.354321
838.000000	0.354035
839.000000	0.353732
840.000000	0.353443
841.000000	0.353155
842.000000	0.352813
843.000000	0.352496
844.000000	0.352089
845.000000	0.351610
846.000000	0.351309
847.000000	0.350952
848.000000	0.350573
849.000000	0.350291
850.000000	0.350043
851.000000	0.349692
852.000000	0.349258
853.000000	0.348859
854.000000	0.348375
855.000000	0.347994
856.000000	0.347742
857.000000	0.347505
858.000000	0.347298
859.000000	0.347009
860.000000	0.346574
861.000000	0.346162
862.000000	0.345881
863.000000	0.345687
864.000000	0.345416
865.000000	0.345091
866.000000	0.344773
867.000000	0.344472
868.000000	0.344214
869.000000	0.343887
870.000000	0.343477
871.000000	0.343138
872.000000	0.342889
873.000000	0.342642
874.000000	0.342365
875.000000	0.342116
876.000000	0.341870
877.000000	0.341508
878.000000	0.341131
879.000000	0.340780
880.000000	0.340385
881.000000	0.340269
882.000000	0.340092
883.000000	0.339885
884.000000	0.339724
885.000000	0.339439
886.000000	0.339121
887.000000	0.338867
888.000000	0.338646
889.000000	0.338354
890.000000	0.337959
891.000000	0.337698
892.000000	0.337404
893.000000	0.337166
894.000000	0.337126
895.000000	0.337039
896.000000	0.336929
897.000000	0.336734
898.000000	0.336412
899.000000	0.336146
900.000000	0.335904
901.000000	0.335639
902.000000	0.335443
903.000000	0.335276
904.000000	0.335139
905.000000	0.334935
906.000000	0.334781
907.000000	0.334565
908.000000	0.334359
909.000000	0.334239
910.000000	0.334048
911.000000	0.333853
912.000000	0.333748
913.000000	0.333646
914.000000	0.333521
915.000000	0.333438
916.000000	0.333352
917.000000	0.333283
918.000000	0.333271
919.000000	0.333258
920.000000	0.332992
921.000000	0.332826
922.000000	0.332800
923.000000	0.332735
924.000000	0.332400
925.000000	0.332188
926.000000	0.332228
927.000000	0.331932
928.000000	0.331873
929.000000	0.331880
930.000000	0.331635
931.000000	0.331432
932.000000	0.331199
933.000000	0.331088
934.000000	0.331359
935.000000	0.331169
936.000000	0.331024
937.000000	0.331229
938.000000	0.330928
939.000000	0.330740
940.000000	0.330735
941.000000	0.330796
942.000000	0.330626
943.000000	0.330588
944.000000	0.330677
945.000000	0.330553
946.000000	0.330315
947.000000	0.330135
948.000000	0.330086
949.000000	0.330069
950.000000	0.329963
951.000000	0.329794
952.000000	0.329846
953.000000	0.329792
954.000000	0.329671
955.000000	0.329503
956.000000	0.329378
957.000000	0.329429
958.000000	0.329500
959.000000	0.329477
960.000000	0.329417
961.000000	0.329318
962.000000	0.329176
963.000000	0.329062
964.000000	0.329103
965.000000	0.329191
966.000000	0.329147
967.000000	0.329351
968.000000	0.329467
969.000000	0.329421
970.000000	0.329401
971.000000	0.329229
972.000000	0.329233
973.000000	0.329409
974.000000	0.329520
975.000000	0.329536
976.000000	0.329531
977.000000	0.329575
978.000000	0.329651
979.000000	0.329780
980.000000	0.329679
981.000000	0.329569
982.000000	0.329860
983.000000	0.330026
984.000000	0.329960
985.000000	0.329901
986.000000	0.330068
987.000000	0.330278
988.000000	0.330282
989.000000	0.330334
990.000000	0.330523
991.000000	0.330812
992.000000	0.331112
993.000000	0.331066
994.000000	0.331136
995.000000	0.331348
996.000000	0.331060
997.000000	0.331468
998.000000	0.331883
999.000000	0.332083
1000.000000	0.332582
1001.000000	0.332054
1002.000000	0.332313
1003.000000	0.332181
1004.000000	0.332056
1005.000000	0.331169
1006.000000	0.330931
1007.000000	0.331135
1008.000000	0.331159
1009.000000	0.331397
1010.000000	0.331905
1011.000000	0.332427
1012.000000	0.333509
1013.000000	0.333182
1014.000000	0.332533
1015.000000	0.332791
1016.000000	0.332733
1017.000000	0.333309
1018.000000	0.334107
1019.000000	0.334513
1020.000000	0.334501
1021.000000	0.334472
1022.000000	0.334575
1023.000000	0.335082
1024.000000	0.335700
1025.000000	0.335877
1026.000000	0.336355
1027.000000	0.336757
1028.000000	0.337200
1029.000000	0.338018
1030.000000	0.338142
1031.000000	0.337802
1032.000000	0.337738
1033.000000	0.337596
1034.000000	0.337726
1035.000000	0.338539
1036.000000	0.338942
1037.000000	0.339192
1038.000000	0.339338
1039.000000	0.339373
1040.000000	0.339712
1041.000000	0.340408
1042.000000	0.340837
1043.000000	0.341222
1044.000000	0.341965
1045.000000	0.342114
1046.000000	0.342111
1047.000000	0.342419
1048.000000	0.342759
1049.000000	0.343104
1050.000000	0.343617
1051.000000	0.344078
1052.000000	0.344690
1053.000000	0.344911
1054.000000	0.344699
1055.000000	0.345275
1056.000000	0.346054
1057.000000	0.347093
1058.000000	0.348228
1059.000000	0.348763
1060.000000	0.349035
1061.000000	0.349184
1062.000000	0.349151
1063.000000	0.349711
1064.000000	0.350347
1065.000000	0.351127
1066.000000	0.351601
1067.000000	0.352148
1068.000000	0.352669
1069.000000	0.352752
1070.000000	0.353055
1071.000000	0.353966
1072.000000	0.354424
1073.000000	0.354574
1074.000000	0.354771
1075.000000	0.355274
1076.000000	0.355663
1077.000000	0.356225
1078.000000	0.356989
1079.000000	0.357539
1080.000000	0.358033
1081.000000	0.358386
1082.000000	0.358591
1083.000000	0.359087
1084.000000	0.359713
1085.000000	0.360290
1086.000000	0.361227
1087.000000	0.361715
1088.000000	0.361447
1089.000000	0.361728
1090.000000	0.362001
1091.000000	0.362506
1092.000000	0.363234
1093.000000	0.363937
1094.000000	0.364672
1095.000000	0.365291
1096.000000	0.365922
1097.000000	0.366723
1098.000000	0.367352
1099.000000	0.367728
1100.000000	0.368229
1101.000000	0.368614
1102.000000	0.369126
1103.000000	0.369576
1104.000000	0.370203
1105.000000	0.371302
1106.000000	0.371915
1107.000000	0.372105
1108.000000	0.372521
1109.000000	0.372669
1110.000000	0.373183
1111.000000	0.373662
1112.000000	0.374423
1113.000000	0.375033
1114.000000	0.375529
1115.000000	0.376167
1116.000000	0.377004
1117.000000	0.377645
1118.000000	0.378374
1119.000000	0.378713
1120.000000	0.378471
1121.000000	0.378854
1122.000000	0.379770
1123.000000	0.380291
1124.000000	0.380397
1125.000000	0.380940
1126.000000	0.381280
1127.000000	0.381528
1128.000000	0.381883
1129.000000	0.382802
1130.000000	0.383282
1131.000000	0.383391
1132.000000	0.383674
1133.000000	0.384070
1134.000000	0.384585
1135.000000	0.385042
1136.000000	0.385480
1137.000000	0.386085
1138.000000	0.386554
1139.000000	0.387042
1140.000000	0.387490
1141.000000	0.387883
1142.000000	0.388236
1143.000000	0.388128
1144.000000	0.388588
1145.000000	0.389292
1146.000000	0.389801
1147.000000	0.390103
1148.000000	0.390320
1149.000000	0.390589
1150.000000	0.390502
1151.000000	0.390853
1152.000000	0.391569
1153.000000	0.392010
1154.000000	0.392271
1155.000000	0.392706
1156.000000	0.393246
1157.000000	0.393642
1158.000000	0.394000
1159.000000	0.394363
1160.000000	0.394484
1161.000000	0.394817
1162.000000	0.395423
1163.000000	0.396188
1164.000000	0.396520
1165.000000	0.396617
1166.000000	0.396853
1167.000000	0.396737
1168.000000	0.396925
1169.000000	0.397378
1170.000000	0.397783
1171.000000	0.398303
1172.000000	0.398656
1173.000000	0.398996
1174.000000	0.399280
1175.000000	0.399289
1176.000000	0.399492
1177.000000	0.399917
1178.000000	0.400238
1179.000000	0.400535
1180.000000	0.400812
1181.000000	0.401258
1182.000000	0.401512
1183.000000	0.401733
1184.000000	0.402191
1185.000000	0.402474
1186.000000	0.402619
1187.000000	0.402881
1188.000000	0.403198
1189.000000	0.403404
1190.000000	0.403649
1191.000000	0.403914
1192.000000	0.404276
1193.000000	0.404664
1194.000000	0.404977
1195.000000	0.405228
1196.000000	0.405283
1197.000000	0.405463
1198.000000	0.405669
1199.000000	0.405950
1200.000000	0.406380
1201.000000	0.406698
1202.000000	0.406903
1203.000000	0.406972
1204.000000	0.407085
1205.000000	0.407272
1206.000000	0.407425
1207.000000	0.407887
1208.000000	0.408008
1209.000000	0.407930
1210.000000	0.408089
1211.000000	0.408240
1212.000000	0.408442
1213.000000	0.408868
1214.000000	0.409209
1215.000000	0.409507
1216.000000	0.409742
1217.000000	0.409912
1218.000000	0.410087
1219.000000	0.410205
1220.000000	0.410473
1221.000000	0.410666
1222.000000	0.410731
1223.000000	0.410751
1224.000000	0.410752
1225.000000	0.410843
1226.000000	0.411039
1227.000000	0.411164
1228.000000	0.411365
1229.000000	0.411492
1230.000000	0.411562
1231.000000	0.411588
1232.000000	0.411676
1233.000000	0.411946
1234.000000	0.412285
1235.000000	0.412474
1236.000000	0.412616
1237.000000	0.412848
1238.000000	0.412892
1239.000000	0.413001
1240.000000	0.413241
1241.000000	0.413438
1242.000000	0.413478
1243.000000	0.413716
1244.000000	0.413961
1245.000000	0.414098
1246.000000	0.414194
1247.000000	0.414312
1248.000000	0.414359
1249.000000	0.414404
1250.000000	0.414550
1251.000000	0.414648
1252.000000	0.414713
1253.000000	0.414874
1254.000000	0.414918
1255.000000	0.414762
1256.000000	0.414839
1257.000000	0.415105
1258.000000	0.415237
1259.000000	0.415310
1260.000000	0.415461
1261.000000	0.415426
1262.000000	0.415482
1263.000000	0.415690
1264.000000	0.415836
1265.000000	0.415981
1266.000000	0.416016
1267.000000	0.416052
1268.000000	0.416147
1269.000000	0.416112
1270.000000	0.416203
1271.000000	0.416326
1272.000000	0.416414
1273.000000	0.416549
1274.000000	0.416706
1275.000000	0.416791
1276.000000	0.416884
1277.000000	0.416996
1278.000000	0.416941
1279.000000	0.416950
1280.000000	0.416871
1281.000000	0.416844
1282.000000	0.416940
1283.000000	0.417058
1284.000000	0.417111
1285.000000	0.417220
1286.000000	0.417375
1287.000000	0.417409
1288.000000	0.417369
1289.000000	0.417350
1290.000000	0.417223
1291.000000	0.417185
1292.000000	0.417416
1293.000000	0.417486
1294.000000	0.417489
1295.000000	0.417524
1296.000000	0.417420
1297.000000	0.417382
1298.000000	0.417394
1299.000000	0.417392
1300.000000	0.417444
1301.000000	0.417508
1302.000000	0.417442
1303.000000	0.417401
1304.000000	0.417350
1305.000000	0.417378
1306.000000	0.417361
1307.000000	0.417533
1308.000000	0.417587
1309.000000	0.417446
1310.000000	0.417369
1311.000000	0.417334
1312.000000	0.417178
1313.000000	0.417110
1314.000000	0.417162
1315.000000	0.417062
1316.000000	0.416967
1317.000000	0.416770
1318.000000	0.416596
1319.000000	0.416561
1320.000000	0.416496
1321.000000	0.416373
1322.000000	0.416288
1323.000000	0.416158
1324.000000	0.415991
1325.000000	0.415848
1326.000000	0.415724
1327.000000	0.415653
1328.000000	0.415588
1329.000000	0.415375
1330.000000	0.415109
1331.000000	0.414952
1332.000000	0.414780
1333.000000	0.414682
1334.000000	0.414736
1335.000000	0.414835
1336.000000	0.415018
1337.000000	0.415031
1338.000000	0.414915
1339.000000	0.415030
1340.000000	0.415001
1341.000000	0.414756
1342.000000	0.414619
1343.000000	0.414550
1344.000000	0.414520
1345.000000	0.414503
1346.000000	0.414510
1347.000000	0.414189
1348.000000	0.413740
1349.000000	0.413337
1350.000000	0.413122
1351.000000	0.413006
1352.000000	0.412734
1353.000000	0.412453
1354.000000	0.412321
1355.000000	0.412123
1356.000000	0.412012
1357.000000	0.411763
1358.000000	0.411447
1359.000000	0.411227
1360.000000	0.411022
1361.000000	0.410925
1362.000000	0.410806
1363.000000	0.410685
1364.000000	0.410537
1365.000000	0.410357
1366.000000	0.410140
1367.000000	0.409882
1368.000000	0.409609
1369.000000	0.409452
1370.000000	0.409175
1371.000000	0.408886
1372.000000	0.408517
1373.000000	0.408001
1374.000000	0.407580
1375.000000	0.406984
1376.000000	0.406361
1377.000000	0.405950
1378.000000	0.405522
1379.000000	0.404896
1380.000000	0.404343
1381.000000	0.403654
1382.000000	0.402606
1383.000000	0.401713
1384.000000	0.400627
1385.000000	0.399333
1386.000000	0.398229
1387.000000	0.396956
1388.000000	0.395718
1389.000000	0.394487
1390.000000	0.393141
1391.000000	0.391906
1392.000000	0.390491
1393.000000	0.389026
1394.000000	0.387621
1395.000000	0.386165
1396.000000	0.384551
1397.000000	0.383015
1398.000000	0.381470
1399.000000	0.379829
1400.000000	0.378166
1401.000000	0.376463
1402.000000	0.374706
1403.000000	0.373022
1404.000000	0.371566
1405.000000	0.369954
1406.000000	0.368405
1407.000000	0.366886
1408.000000	0.365148
1409.000000	0.363713
1410.000000	0.362526
1411.000000	0.361213
1412.000000	0.359976
1413.000000	0.358792
1414.000000	0.357612
1415.000000	0.356715
1416.000000	0.355914
1417.000000	0.355259
1418.000000	0.354721
1419.000000	0.354194
1420.000000	0.353756
1421.000000	0.353509
1422.000000	0.353166
1423.000000	0.352812
1424.000000	0.352444
1425.000000	0.351938
1426.000000	0.351341
1427.000000	0.350785
1428.000000	0.350093
1429.000000	0.349355
1430.000000	0.348650
1431.000000	0.348039
1432.000000	0.347635
1433.000000	0.347446
1434.000000	0.347318
1435.000000	0.347396
1436.000000	0.347676
1437.000000	0.347990
1438.000000	0.348608
1439.000000	0.349640
1440.000000	0.350650
1441.000000	0.351933
1442.000000	0.353165
1443.000000	0.354380
1444.000000	0.355571
1445.000000	0.356727
1446.000000	0.357805
1447.000000	0.358798
1448.000000	0.359661
1449.000000	0.360448
1450.000000	0.361047
1451.000000	0.361482
1452.000000	0.361898
1453.000000	0.362244
1454.000000	0.362426
1455.000000	0.362589
1456.000000	0.362728
1457.000000	0.362791
1458.000000	0.362848
1459.000000	0.362943
1460.000000	0.363044
1461.000000	0.363081
1462.000000	0.363119
1463.000000	0.363136
1464.000000	0.363231
1465.000000	0.363449
1466.000000	0.363679
1467.000000	0.364049
1468.000000	0.364368
1469.000000	0.364587
1470.000000	0.364811
1471.000000	0.365143
1472.000000	0.365519
1473.000000	0.365976
1474.000000	0.366468
1475.000000	0.366905
1476.000000	0.367185
1477.000000	0.367597
1478.000000	0.368071
1479.000000	0.368451
1480.000000	0.368976
1481.000000	0.369413
1482.000000	0.369806
1483.000000	0.370338
1484.000000	0.370921
1485.000000	0.371450
1486.000000	0.372079
1487.000000	0.372592
1488.000000	0.373001
1489.000000	0.373545
1490.000000	0.373933
1491.000000	0.374440
1492.000000	0.375026
1493.000000	0.375565
1494.000000	0.376085
1495.000000	0.376586
1496.000000	0.377074
1497.000000	0.377513
1498.000000	0.377948
1499.000000	0.378308
1500.000000	0.378666
1501.000000	0.379029
1502.000000	0.379474
1503.000000	0.379997
1504.000000	0.380537
1505.000000	0.381095
1506.000000	0.381507
1507.000000	0.381906
1508.000000	0.382333
1509.000000	0.382569
1510.000000	0.382815
1511.000000	0.383085
1512.000000	0.383214
1513.000000	0.383372
1514.000000	0.383610
1515.000000	0.383794
1516.000000	0.384093
1517.000000	0.384407
1518.000000	0.384548
1519.000000	0.384595
1520.000000	0.384712
1521.000000	0.384812
1522.000000	0.385100
1523.000000	0.385408
1524.000000	0.385528
1525.000000	0.385705
1526.000000	0.385790
1527.000000	0.385897
1528.000000	0.386056
1529.000000	0.386079
1530.000000	0.386067
1531.000000	0.386220
1532.000000	0.386508
1533.000000	0.386777
1534.000000	0.387021
1535.000000	0.387269
1536.000000	0.387320
1537.000000	0.387446
1538.000000	0.387691
1539.000000	0.387780
1540.000000	0.387844
1541.000000	0.387946
1542.000000	0.388059
1543.000000	0.388251
1544.000000	0.388526
1545.000000	0.388837
1546.000000	0.389005
1547.000000	0.389103
1548.000000	0.389285
1549.000000	0.389457
1550.000000	0.389653
1551.000000	0.389896
1552.000000	0.390023
1553.000000	0.390122
1554.000000	0.390243
1555.000000	0.390394
1556.000000	0.390567
1557.000000	0.390687
1558.000000	0.390801
1559.000000	0.390765
1560.000000	0.390802
1561.000000	0.390950
1562.000000	0.390988
1563.000000	0.391101
1564.000000	0.391107
1565.000000	0.390935
1566.000000	0.390828
1567.000000	0.390790
1568.000000	0.390799
1569.000000	0.390979
1570.000000	0.391107
1571.000000	0.391246
1572.000000	0.391332
1573.000000	0.391434
1574.000000	0.391487
1575.000000	0.391449
1576.000000	0.391579
1577.000000	0.391770
1578.000000	0.391886
1579.000000	0.392127
1580.000000	0.392250
1581.000000	0.392411
1582.000000	0.392455
1583.000000	0.392434
1584.000000	0.392332
1585.000000	0.392149
1586.000000	0.392069
1587.000000	0.391971
1588.000000	0.391938
1589.000000	0.392019
1590.000000	0.392047
1591.000000	0.392123
1592.000000	0.392192
1593.000000	0.392308
1594.000000	0.392284
1595.000000	0.392220
1596.000000	0.392217
1597.000000	0.392197
1598.000000	0.392239
1599.000000	0.392387
1600.000000	0.392440
1601.000000	0.392578
1602.000000	0.392650
1603.000000	0.392814
1604.000000	0.392833
1605.000000	0.392677
1606.000000	0.392664
1607.000000	0.392688
1608.000000	0.392732
1609.000000	0.392995
1610.000000	0.393088
1611.000000	0.393140
1612.000000	0.393124
1613.000000	0.393120
1614.000000	0.393135
1615.000000	0.393116
1616.000000	0.393292
1617.000000	0.393601
1618.000000	0.393739
1619.000000	0.393882
1620.000000	0.393988
1621.000000	0.393988
1622.000000	0.394123
1623.000000	0.394273
1624.000000	0.394431
1625.000000	0.394438
1626.000000	0.394500
1627.000000	0.394683
1628.000000	0.394828
1629.000000	0.394926
1630.000000	0.395058
1631.000000	0.395138
1632.000000	0.395139
1633.000000	0.395120
1634.000000	0.395148
1635.000000	0.395178
1636.000000	0.395194
1637.000000	0.395274
1638.000000	0.395313
1639.000000	0.395362
1640.000000	0.395414
1641.000000	0.395573
1642.000000	0.395680
1643.000000	0.395794
1644.000000	0.395896
1645.000000	0.396072
1646.000000	0.396024
1647.000000	0.395863
1648.000000	0.395763
1649.000000	0.395655
1650.000000	0.395623
1651.000000	0.395739
1652.000000	0.395803
1653.000000	0.395755
1654.000000	0.395834
1655.000000	0.395872
1656.000000	0.395930
1657.000000	0.396208
1658.000000	0.396280
1659.000000	0.396419
1660.000000	0.396561
1661.000000	0.396461
1662.000000	0.396573
1663.000000	0.396760
1664.000000	0.396914
1665.000000	0.397178
1666.000000	0.397356
1667.000000	0.397362
1668.000000	0.397467
1669.000000	0.397526
1670.000000	0.397529
1671.000000	0.397699
1672.000000	0.397833
1673.000000	0.397873
1674.000000	0.397777
1675.000000	0.397906
1676.000000	0.398107
1677.000000	0.398229
1678.000000	0.398440
1679.000000	0.398616
1680.000000	0.398639
1681.000000	0.398661
1682.000000	0.398791
1683.000000	0.398915
1684.000000	0.398936
1685.000000	0.399014
1686.000000	0.399038
1687.000000	0.399116
1688.000000	0.399172
1689.000000	0.399203
1690.000000	0.399198
1691.000000	0.399113
1692.000000	0.398944
1693.000000	0.398978
1694.000000	0.399063
1695.000000	0.399309
1696.000000	0.399456
1697.000000	0.399489
1698.000000	0.399548
1699.000000	0.399519
1700.000000	0.399320
1701.000000	0.399396
1702.000000	0.399297
1703.000000	0.399200
1704.000000	0.399360
1705.000000	0.399474
1706.000000	0.399615
1707.000000	0.399683
1708.000000	0.399731
1709.000000	0.399684
1710.000000	0.399644
1711.000000	0.399598
1712.000000	0.399545
1713.000000	0.399516
1714.000000	0.399456
1715.000000	0.399502
1716.000000	0.399761
1717.000000	0.399794
1718.000000	0.399679
1719.000000	0.399650
1720.000000	0.399595
1721.000000	0.399576
1722.000000	0.399645
1723.000000	0.399726
1724.000000	0.399841
1725.000000	0.399930
1726.000000	0.399985
1727.000000	0.399994
1728.000000	0.399866
1729.000000	0.399659
1730.000000	0.399524
1731.000000	0.399457
1732.000000	0.399348
1733.000000	0.399407
1734.000000	0.399498
1735.000000	0.399480
1736.000000	0.399421
1737.000000	0.399312
1738.000000	0.399126
1739.000000	0.399037
1740.000000	0.398926
1741.000000	0.398859
1742.000000	0.398834
1743.000000	0.398977
1744.000000	0.399213
1745.000000	0.399256
1746.000000	0.399351
1747.000000	0.399135
1748.000000	0.399030
1749.000000	0.399093
1750.000000	0.399066
1751.000000	0.399251
1752.000000	0.399437
1753.000000	0.399432
1754.000000	0.399383
1755.000000	0.399135
1756.000000	0.399021
1757.000000	0.398881
1758.000000	0.398859
1759.000000	0.399114
1760.000000	0.399099
1761.000000	0.398902
1762.000000	0.398746
1763.000000	0.398542
1764.000000	0.398245
1765.000000	0.397775
1766.000000	0.397549
1767.000000	0.397164
1768.000000	0.396948
1769.000000	0.397201
1770.000000	0.397277
1771.000000	0.397229
1772.000000	0.397230
1773.000000	0.397088
1774.000000	0.397216
1775.000000	0.397656
1776.000000	0.397808
1777.000000	0.397986
1778.000000	0.397997
1779.000000	0.397659
1780.000000	0.397631
1781.000000	0.397686
1782.000000	0.397704
1783.000000	0.397818
1784.000000	0.397836
1785.000000	0.397988
1786.000000	0.398140
1787.000000	0.398270
1788.000000	0.398431
1789.000000	0.398319
1790.000000	0.398305
1791.000000	0.398173
1792.000000	0.397982
1793.000000	0.397931
1794.000000	0.397874
1795.000000	0.397916
1796.000000	0.398164
1797.000000	0.398280
1798.000000	0.398338
1799.000000	0.398414
1800.000000	0.398481
1801.000000	0.398414
1802.000000	0.398495
1803.000000	0.398325
1804.000000	0.398302
1805.000000	0.397046
1806.000000	0.397129
1807.000000	0.398779
1808.000000	0.399282
1809.000000	0.399886
1810.000000	0.399874
1811.000000	0.399642
1812.000000	0.398538
1813.000000	0.398108
1814.000000	0.397796
1815.000000	0.397442
1816.000000	0.396981
1817.000000	0.396730
1818.000000	0.396525
1819.000000	0.396956
1820.000000	0.396760
1821.000000	0.396526
1822.000000	0.396397
1823.000000	0.395779
1824.000000	0.395261
1825.000000	0.395071
1826.000000	0.394840
1827.000000	0.393786
1828.000000	0.393420
1829.000000	0.394570
1830.000000	0.394994
1831.000000	0.395707
1832.000000	0.397534
1833.000000	0.397831
1834.000000	0.396902
1835.000000	0.396850
1836.000000	0.396629
1837.000000	0.396250
1838.000000	0.395882
1839.000000	0.396166
1840.000000	0.394742
1841.000000	0.393158
1842.000000	0.392396
1843.000000	0.391419
1844.000000	0.391007
1845.000000	0.391408
1846.000000	0.391680
1847.000000	0.391896
1848.000000	0.392503
1849.000000	0.392476
1850.000000	0.392423
1851.000000	0.392243
1852.000000	0.391338
1853.000000	0.391044
1854.000000	0.390971
1855.000000	0.390423
1856.000000	0.389358
1857.000000	0.389131
1858.000000	0.388516
1859.000000	0.387488
1860.000000	0.386687
1861.000000	0.385419
1862.000000	0.384201
1863.000000	0.382557
1864.000000	0.381708
1865.000000	0.381683
1866.000000	0.380725
1867.000000	0.379594
1868.000000	0.378541
1869.000000	0.376687
1870.000000	0.374263
1871.000000	0.372855
1872.000000	0.371679
1873.000000	0.369952
1874.000000	0.368255
1875.000000	0.366313
1876.000000	0.363760
1877.000000	0.360627
1878.000000	0.357843
1879.000000	0.355189
1880.000000	0.352511
1881.000000	0.349361
1882.000000	0.346215
1883.000000	0.342809
1884.000000	0.339091
1885.000000	0.334834
1886.000000	0.330592
1887.000000	0.326067
1888.000000	0.320983
1889.000000	0.316476
1890.000000	0.311876
1891.000000	0.307404
1892.000000	0.303237
1893.000000	0.298239
1894.000000	0.293188
1895.000000	0.287889
1896.000000	0.282257
1897.000000	0.276627
1898.000000	0.271565
1899.000000	0.266786
1900.000000	0.262717
1901.000000	0.258532
1902.000000	0.254545
1903.000000	0.251411
1904.000000	0.248062
1905.000000	0.245106
1906.000000	0.242678
1907.000000	0.240769
1908.000000	0.238968
1909.000000	0.237812
1910.000000	0.236777
1911.000000	0.235662
1912.000000	0.234973
1913.000000	0.234482
1914.000000	0.234226
1915.000000	0.234223
1916.000000	0.234101
1917.000000	0.233832
1918.000000	0.233478
1919.000000	0.233220
1920.000000	0.233092
1921.000000	0.233096
1922.000000	0.233558
1923.000000	0.234476
1924.000000	0.235404
1925.000000	0.236356
1926.000000	0.237031
1927.000000	0.237219
1928.000000	0.237702
1929.000000	0.238334
1930.000000	0.238925
1931.000000	0.238989
1932.000000	0.240014
1933.000000	0.240389
1934.000000	0.240279
1935.000000	0.241105
1936.000000	0.241475
1937.000000	0.242142
1938.000000	0.242554
1939.000000	0.242949
1940.000000	0.243161
1941.000000	0.243947
1942.000000	0.244186
1943.000000	0.244550
1944.000000	0.245510
1945.000000	0.245533
1946.000000	0.245610
1947.000000	0.246208
1948.000000	0.246135
1949.000000	0.246346
1950.000000	0.246738
1951.000000	0.246760
1952.000000	0.246602
1953.000000	0.246507
1954.000000	0.246507
1955.000000	0.246647
1956.000000	0.246918
1957.000000	0.247048
1958.000000	0.247466
1959.000000	0.248226
1960.000000	0.248561
1961.000000	0.249413
1962.000000	0.250010
1963.000000	0.250659
1964.000000	0.250464
1965.000000	0.250426
1966.000000	0.250195
1967.000000	0.250556
1968.000000	0.251240
1969.000000	0.251723
1970.000000	0.252783
1971.000000	0.252811
1972.000000	0.252369
1973.000000	0.252354
1974.000000	0.252394
1975.000000	0.252732
1976.000000	0.253513
1977.000000	0.254277
1978.000000	0.254776
1979.000000	0.255510
1980.000000	0.255992
1981.000000	0.256860
1982.000000	0.258114
1983.000000	0.259358
1984.000000	0.260409
1985.000000	0.261708
1986.000000	0.262280
1987.000000	0.262336
1988.000000	0.262694
1989.000000	0.263100
1990.000000	0.263745
1991.000000	0.264803
1992.000000	0.265964
1993.000000	0.266644
1994.000000	0.266863
1995.000000	0.267471
1996.000000	0.268073
1997.000000	0.268850
1998.000000	0.270123
1999.000000	0.271196
2000.000000	0.272369
2001.000000	0.273315
2002.000000	0.273654
2003.000000	0.274232
2004.000000	0.275286
2005.000000	0.276202
2006.000000	0.277554
2007.000000	0.278819
2008.000000	0.279679
2009.000000	0.279809
2010.000000	0.280455
2011.000000	0.280945
2012.000000	0.281611
2013.000000	0.282353
2014.000000	0.283179
2015.000000	0.283927
2016.000000	0.285467
2017.000000	0.287262
2018.000000	0.288402
2019.000000	0.289611
2020.000000	0.290541
2021.000000	0.291197
2022.000000	0.291040
2023.000000	0.291810
2024.000000	0.292823
2025.000000	0.293879
2026.000000	0.295218
2027.000000	0.296607
2028.000000	0.297619
2029.000000	0.298066
2030.000000	0.298135
2031.000000	0.298328
2032.000000	0.298718
2033.000000	0.299456
2034.000000	0.300076
2035.000000	0.301024
2036.000000	0.301707
2037.000000	0.302474
2038.000000	0.303042
2039.000000	0.303545
2040.000000	0.304281
2041.000000	0.304632
2042.000000	0.304968
2043.000000	0.305738
2044.000000	0.306615
2045.000000	0.307404
2046.000000	0.308138
2047.000000	0.308762
2048.000000	0.308956
2049.000000	0.309755
2050.000000	0.310430
2051.000000	0.311189
2052.000000	0.312181
2053.000000	0.312869
2054.000000	0.313741
2055.000000	0.314393
2056.000000	0.315012
2057.000000	0.316250
2058.000000	0.317339
2059.000000	0.318217
2060.000000	0.318902
2061.000000	0.319413
2062.000000	0.319843
2063.000000	0.320253
2064.000000	0.320333
2065.000000	0.320263
2066.000000	0.320355
2067.000000	0.320581
2068.000000	0.320682
2069.000000	0.321486
2070.000000	0.322639
2071.000000	0.323359
2072.000000	0.324443
2073.000000	0.324739
2074.000000	0.324657
2075.000000	0.325082
2076.000000	0.325403
2077.000000	0.325893
2078.000000	0.327119
2079.000000	0.327504
2080.000000	0.327215
2081.000000	0.327436
2082.000000	0.327384
2083.000000	0.327908
2084.000000	0.328682
2085.000000	0.330124
2086.000000	0.331137
2087.000000	0.331931
2088.000000	0.332932
2089.000000	0.333199
2090.000000	0.333632
2091.000000	0.334041
2092.000000	0.334465
2093.000000	0.334923
2094.000000	0.335310
2095.000000	0.335825
2096.000000	0.335951
2097.000000	0.335831
2098.000000	0.335195
2099.000000	0.334699
2100.000000	0.335056
2101.000000	0.335333
2102.000000	0.336258
2103.000000	0.337037
2104.000000	0.337208
2105.000000	0.337857
2106.000000	0.338726
2107.000000	0.339365
2108.000000	0.340118
2109.000000	0.340806
2110.000000	0.341054
2111.000000	0.341484
2112.000000	0.342031
2113.000000	0.342207
2114.000000	0.342089
2115.000000	0.342058
2116.000000	0.341626
2117.000000	0.341120
2118.000000	0.341556
2119.000000	0.342439
2120.000000	0.343160
2121.000000	0.344692
2122.000000	0.345040
2123.000000	0.344634
2124.000000	0.344414
2125.000000	0.343315
2126.000000	0.343164
2127.000000	0.344189
2128.000000	0.344213
2129.000000	0.343636
2130.000000	0.343717
2131.000000	0.343076
2132.000000	0.342252
2133.000000	0.342541
2134.000000	0.343115
2135.000000	0.343565
2136.000000	0.343244
2137.000000	0.343607
2138.000000	0.344314
2139.000000	0.344662
2140.000000	0.345288
2141.000000	0.345696
2142.000000	0.345793
2143.000000	0.345489
2144.000000	0.345177
2145.000000	0.344832
2146.000000	0.344266
2147.000000	0.343754
2148.000000	0.343207
2149.000000	0.343652
2150.000000	0.343991
2151.000000	0.343801
2152.000000	0.343545
2153.000000	0.343676
2154.000000	0.343468
2155.000000	0.343034
2156.000000	0.342665
2157.000000	0.342145
2158.000000	0.341680
2159.000000	0.341315
2160.000000	0.341213
2161.000000	0.341260
2162.000000	0.341418
2163.000000	0.341544
2164.000000	0.341732
2165.000000	0.341930
2166.000000	0.342623
2167.000000	0.342782
2168.000000	0.342093
2169.000000	0.341377
2170.000000	0.340722
2171.000000	0.340894
2172.000000	0.341858
2173.000000	0.342755
2174.000000	0.344473
2175.000000	0.345034
2176.000000	0.345333
2177.000000	0.344995
2178.000000	0.343473
2179.000000	0.343138
2180.000000	0.342943
2181.000000	0.343234
2182.000000	0.343456
2183.000000	0.343901
2184.000000	0.345605
2185.000000	0.345361
2186.000000	0.344976
2187.000000	0.344687
2188.000000	0.343238
2189.000000	0.341857
2190.000000	0.341393
2191.000000	0.341813
2192.000000	0.341644
2193.000000	0.341681
2194.000000	0.341055
2195.000000	0.339567
2196.000000	0.338942
2197.000000	0.338040
2198.000000	0.337541
2199.000000	0.338152
2200.000000	0.338752
2201.000000	0.339841
2202.000000	0.340057
2203.000000	0.340304
2204.000000	0.339529
2205.000000	0.337869
2206.000000	0.336636
2207.000000	0.333787
2208.000000	0.333924
2209.000000	0.333908
2210.000000	0.332986
2211.000000	0.336396
2212.000000	0.339192
2213.000000	0.339330
2214.000000	0.338271
2215.000000	0.337410
2216.000000	0.333016
2217.000000	0.332321
2218.000000	0.334391
2219.000000	0.335366
2220.000000	0.336986
2221.000000	0.338540
2222.000000	0.339840
2223.000000	0.340719
2224.000000	0.342459
2225.000000	0.342668
2226.000000	0.341352
2227.000000	0.340177
2228.000000	0.338125
2229.000000	0.337109
2230.000000	0.337563
2231.000000	0.338380
2232.000000	0.337623
2233.000000	0.337078
2234.000000	0.336858
2235.000000	0.335998
2236.000000	0.335819
2237.000000	0.337589
2238.000000	0.337370
2239.000000	0.335548
2240.000000	0.335159
2241.000000	0.334799
2242.000000	0.334922
2243.000000	0.335914
2244.000000	0.336252
2245.000000	0.335613
2246.000000	0.336465
2247.000000	0.338480
2248.000000	0.339709
2249.000000	0.341908
2250.000000	0.343615
2251.000000	0.343522
2252.000000	0.342763
2253.000000	0.339072
2254.000000	0.337338
2255.000000	0.336068
2256.000000	0.333231
2257.000000	0.334823
2258.000000	0.335253
2259.000000	0.333938
2260.000000	0.334136
2261.000000	0.331902
2262.000000	0.327296
2263.000000	0.324503
2264.000000	0.320167
2265.000000	0.318727
2266.000000	0.321009
2267.000000	0.319612
2268.000000	0.316843
2269.000000	0.316065
2270.000000	0.314249
2271.000000	0.312721
2272.000000	0.315159
2273.000000	0.313597
2274.000000	0.308235
2275.000000	0.304340
2276.000000	0.299715
2277.000000	0.294887
2278.000000	0.291050
2279.000000	0.286876
2280.000000	0.286340
2281.000000	0.286848
2282.000000	0.286348
2283.000000	0.289755
2284.000000	0.289707
2285.000000	0.287990
2286.000000	0.289311
2287.000000	0.287561
2288.000000	0.285958
2289.000000	0.284999
2290.000000	0.283846
2291.000000	0.286040
2292.000000	0.287662
2293.000000	0.289392
2294.000000	0.291747
2295.000000	0.294432
2296.000000	0.295727
2297.000000	0.297331
2298.000000	0.298545
2299.000000	0.297643
2300.000000	0.298459
2301.000000	0.301162
2302.000000	0.302753
2303.000000	0.303939
2304.000000	0.305120
2305.000000	0.305886
2306.000000	0.306314
2307.000000	0.306173
2308.000000	0.307430
2309.000000	0.308068
2310.000000	0.307368
2311.000000	0.306615
2312.000000	0.305833
2313.000000	0.304880
2314.000000	0.305358
2315.000000	0.305686
2316.000000	0.307633
2317.000000	0.308687
2318.000000	0.308300
2319.000000	0.310101
2320.000000	0.309549
2321.000000	0.310257
2322.000000	0.311503
2323.000000	0.308958
2324.000000	0.308924
2325.000000	0.308219
2326.000000	0.306345
2327.000000	0.306569
2328.000000	0.304631
2329.000000	0.302847
2330.000000	0.302105
2331.000000	0.300651
2332.000000	0.300343
2333.000000	0.300669
2334.000000	0.300783
2335.000000	0.300089
2336.000000	0.299344
2337.000000	0.296930
2338.000000	0.290316
2339.000000	0.288357
2340.000000	0.288422
2341.000000	0.289841
2342.000000	0.295157
2343.000000	0.297378
2344.000000	0.300030
2345.000000	0.299886
2346.000000	0.297036
2347.000000	0.295526
2348.000000	0.293813
2349.000000	0.288846
2350.000000	0.287148
2351.000000	0.286347
2352.000000	0.285515
2353.000000	0.284440
2354.000000	0.281170
2355.000000	0.279434
2356.000000	0.277228
2357.000000	0.277940
2358.000000	0.282885
2359.000000	0.286706
2360.000000	0.292709
2361.000000	0.294805
2362.000000	0.288740
2363.000000	0.285033
2364.000000	0.276553
2365.000000	0.267353
2366.000000	0.269322
2367.000000	0.267712
2368.000000	0.263538
2369.000000	0.264116
2370.000000	0.260237
2371.000000	0.257766
2372.000000	0.260783
2373.000000	0.262304
2374.000000	0.263591
2375.000000	0.260927
2376.000000	0.255190
2377.000000	0.253725
2378.000000	0.252093
2379.000000	0.247656
2380.000000	0.246123
2381.000000	0.244074
2382.000000	0.241960
2383.000000	0.244558
2384.000000	0.245115
2385.000000	0.245507
2386.000000	0.247237
2387.000000	0.245063
2388.000000	0.244627
2389.000000	0.244056
2390.000000	0.238571
2391.000000	0.237325
2392.000000	0.240133
2393.000000	0.245256
2394.000000	0.243538
2395.000000	0.236082
2396.000000	0.232815
2397.000000	0.227256
2398.000000	0.232001
2399.000000	0.242483
2400.000000	0.241035
2401.000000	0.234118
2402.000000	0.227356
2403.000000	0.222546
2404.000000	0.220354
2405.000000	0.224464
2406.000000	0.226238
2407.000000	0.222674
2408.000000	0.224217
2409.000000	0.220980
2410.000000	0.220496
2411.000000	0.226086
2412.000000	0.226073
2413.000000	0.230966
2414.000000	0.235641
2415.000000	0.238903
2416.000000	0.245190
2417.000000	0.237665
2418.000000	0.227227
2419.000000	0.223310
2420.000000	0.214880
2421.000000	0.213408
2422.000000	0.216700
2423.000000	0.210604
2424.000000	0.205858
2425.000000	0.209150
2426.000000	0.213989
2427.000000	0.231754
2428.000000	0.241129
2429.000000	0.232153
2430.000000	0.234710
2431.000000	0.226786
2432.000000	0.221393
2433.000000	0.228816
2434.000000	0.221278
2435.000000	0.215637
2436.000000	0.216704
2437.000000	0.222045
2438.000000	0.227705
2439.000000	0.222601
2440.000000	0.217354
2441.000000	0.212119
2442.000000	0.215698
2443.000000	0.231657
2444.000000	0.241763
2445.000000	0.250542
2446.000000	0.257254
2447.000000	0.246017
2448.000000	0.236617
2449.000000	0.236205
2450.000000	0.221358
2451.000000	0.223882
2452.000000	0.228946
2453.000000	0.216148
2454.000000	0.220647
2455.000000	0.221877
2456.000000	0.220291
2457.000000	0.225380
2458.000000	0.220854
2459.000000	0.207767
2460.000000	0.195871
2461.000000	0.198832
2462.000000	0.205520
2463.000000	0.209151
2464.000000	0.231053
2465.000000	0.235733
2466.000000	0.221557
2467.000000	0.229574
2468.000000	0.213750
2469.000000	0.193997
2470.000000	0.206275
2471.000000	0.206001
2472.000000	0.206707
2473.000000	0.202970
2474.000000	0.187654
2475.000000	0.205498
2476.000000	0.211600
2477.000000	0.207517
2478.000000	0.210434
2479.000000	0.179864
2480.000000	0.163006
2481.000000	0.159162
2482.000000	0.152406
2483.000000	0.132113
2484.000000	0.104748
2485.000000	0.112545
2486.000000	0.137065
2487.000000	0.162855
2488.000000	0.219233
2489.000000	0.256929
2490.000000	0.249952
2491.000000	0.202648
2492.000000	0.177016
2493.000000	0.140276
2494.000000	0.138143
2495.000000	0.174887
2496.000000	0.194720
2497.000000	0.220340
2498.000000	0.244165
2499.000000	0.300093
2500.000000	0.329252
