# Wavelength	Nau-1_40_FV7_60_00002.asd.rts.txt
350.000000	0.135838
351.000000	0.120992
352.000000	0.127333
353.000000	0.133362
354.000000	0.131870
355.000000	0.144876
356.000000	0.144748
357.000000	0.134999
358.000000	0.138849
359.000000	0.140963
360.000000	0.142990
361.000000	0.148144
362.000000	0.144813
363.000000	0.141545
364.000000	0.143489
365.000000	0.146598
366.000000	0.148753
367.000000	0.149541
368.000000	0.150519
369.000000	0.151844
370.000000	0.152388
371.000000	0.151301
372.000000	0.153937
373.000000	0.153653
374.000000	0.148354
375.000000	0.149557
376.000000	0.151443
377.000000	0.151698
378.000000	0.151194
379.000000	0.151751
380.000000	0.153563
381.000000	0.156543
382.000000	0.158268
383.000000	0.157226
384.000000	0.154552
385.000000	0.157243
386.000000	0.160893
387.000000	0.163398
388.000000	0.164283
389.000000	0.165659
390.000000	0.166830
391.000000	0.166253
392.000000	0.167361
393.000000	0.168347
394.000000	0.168136
395.000000	0.170703
396.000000	0.172452
397.000000	0.172478
398.000000	0.173435
399.000000	0.174641
400.000000	0.175672
401.000000	0.176109
402.000000	0.178041
403.000000	0.179693
404.000000	0.179756
405.000000	0.180900
406.000000	0.182216
407.000000	0.183296
408.000000	0.184763
409.000000	0.185576
410.000000	0.186185
411.000000	0.187849
412.000000	0.188223
413.000000	0.188112
414.000000	0.188833
415.000000	0.190138
416.000000	0.191100
417.000000	0.191328
418.000000	0.191616
419.000000	0.191601
420.000000	0.191444
421.000000	0.191740
422.000000	0.192383
423.000000	0.193007
424.000000	0.193267
425.000000	0.193417
426.000000	0.193713
427.000000	0.194160
428.000000	0.193971
429.000000	0.194288
430.000000	0.195093
431.000000	0.194738
432.000000	0.194700
433.000000	0.194950
434.000000	0.194906
435.000000	0.194517
436.000000	0.194328
437.000000	0.194702
438.000000	0.194769
439.000000	0.194438
440.000000	0.193970
441.000000	0.194004
442.000000	0.193977
443.000000	0.193775
444.000000	0.193699
445.000000	0.193459
446.000000	0.193598
447.000000	0.194471
448.000000	0.194436
449.000000	0.194750
450.000000	0.196201
451.000000	0.197568
452.000000	0.198622
453.000000	0.199535
454.000000	0.201199
455.000000	0.202858
456.000000	0.204374
457.000000	0.205724
458.000000	0.207394
459.000000	0.209280
460.000000	0.211094
461.000000	0.212008
462.000000	0.212940
463.000000	0.214126
464.000000	0.214973
465.000000	0.215791
466.000000	0.216532
467.000000	0.217068
468.000000	0.217786
469.000000	0.218489
470.000000	0.219030
471.000000	0.219655
472.000000	0.220110
473.000000	0.220339
474.000000	0.220803
475.000000	0.221222
476.000000	0.221666
477.000000	0.222287
478.000000	0.222622
479.000000	0.222990
480.000000	0.223663
481.000000	0.223919
482.000000	0.224241
483.000000	0.224859
484.000000	0.225195
485.000000	0.225396
486.000000	0.225734
487.000000	0.226172
488.000000	0.226608
489.000000	0.227038
490.000000	0.227502
491.000000	0.227902
492.000000	0.228371
493.000000	0.228937
494.000000	0.229416
495.000000	0.229961
496.000000	0.230592
497.000000	0.231016
498.000000	0.231484
499.000000	0.232087
500.000000	0.232535
501.000000	0.233016
502.000000	0.233555
503.000000	0.234042
504.000000	0.234516
505.000000	0.234974
506.000000	0.235422
507.000000	0.235898
508.000000	0.236416
509.000000	0.236939
510.000000	0.237431
511.000000	0.238114
512.000000	0.238863
513.000000	0.239202
514.000000	0.239756
515.000000	0.240483
516.000000	0.241088
517.000000	0.241733
518.000000	0.242330
519.000000	0.242801
520.000000	0.243584
521.000000	0.244296
522.000000	0.244804
523.000000	0.245297
524.000000	0.245968
525.000000	0.246735
526.000000	0.247394
527.000000	0.248062
528.000000	0.248688
529.000000	0.249274
530.000000	0.249999
531.000000	0.250736
532.000000	0.251342
533.000000	0.252001
534.000000	0.252744
535.000000	0.253531
536.000000	0.254276
537.000000	0.255007
538.000000	0.255725
539.000000	0.256418
540.000000	0.257136
541.000000	0.257856
542.000000	0.258575
543.000000	0.259264
544.000000	0.259946
545.000000	0.260600
546.000000	0.261376
547.000000	0.262074
548.000000	0.262721
549.000000	0.263413
550.000000	0.264112
551.000000	0.264848
552.000000	0.265605
553.000000	0.266281
554.000000	0.266940
555.000000	0.267650
556.000000	0.268431
557.000000	0.269140
558.000000	0.269827
559.000000	0.270413
560.000000	0.271053
561.000000	0.271757
562.000000	0.272314
563.000000	0.272858
564.000000	0.273466
565.000000	0.274070
566.000000	0.274612
567.000000	0.275151
568.000000	0.275685
569.000000	0.276115
570.000000	0.276618
571.000000	0.277186
572.000000	0.277665
573.000000	0.278124
574.000000	0.278570
575.000000	0.279045
576.000000	0.279468
577.000000	0.279855
578.000000	0.280279
579.000000	0.280683
580.000000	0.281061
581.000000	0.281400
582.000000	0.281677
583.000000	0.281962
584.000000	0.282332
585.000000	0.282865
586.000000	0.283182
587.000000	0.283378
588.000000	0.283655
589.000000	0.284019
590.000000	0.284361
591.000000	0.284623
592.000000	0.284867
593.000000	0.285148
594.000000	0.285438
595.000000	0.285626
596.000000	0.285839
597.000000	0.286078
598.000000	0.286205
599.000000	0.286267
600.000000	0.286403
601.000000	0.286603
602.000000	0.286628
603.000000	0.286706
604.000000	0.286908
605.000000	0.286972
606.000000	0.287066
607.000000	0.287192
608.000000	0.287254
609.000000	0.287389
610.000000	0.287541
611.000000	0.287617
612.000000	0.287641
613.000000	0.287729
614.000000	0.287963
615.000000	0.288205
616.000000	0.288311
617.000000	0.288308
618.000000	0.288524
619.000000	0.288611
620.000000	0.288601
621.000000	0.288715
622.000000	0.288861
623.000000	0.288964
624.000000	0.289004
625.000000	0.289173
626.000000	0.289310
627.000000	0.289355
628.000000	0.289400
629.000000	0.289570
630.000000	0.289716
631.000000	0.289809
632.000000	0.289863
633.000000	0.289972
634.000000	0.290169
635.000000	0.290181
636.000000	0.290228
637.000000	0.290405
638.000000	0.290538
639.000000	0.290694
640.000000	0.290890
641.000000	0.290949
642.000000	0.291019
643.000000	0.291143
644.000000	0.291323
645.000000	0.291464
646.000000	0.291588
647.000000	0.291710
648.000000	0.291880
649.000000	0.292185
650.000000	0.292526
651.000000	0.292601
652.000000	0.292688
653.000000	0.292842
654.000000	0.292947
655.000000	0.293120
656.000000	0.293344
657.000000	0.293543
658.000000	0.293848
659.000000	0.294070
660.000000	0.294158
661.000000	0.294366
662.000000	0.294532
663.000000	0.294698
664.000000	0.294911
665.000000	0.295132
666.000000	0.295397
667.000000	0.295700
668.000000	0.295943
669.000000	0.296185
670.000000	0.296458
671.000000	0.296664
672.000000	0.296895
673.000000	0.297157
674.000000	0.297408
675.000000	0.297632
676.000000	0.297830
677.000000	0.298028
678.000000	0.298251
679.000000	0.298420
680.000000	0.298529
681.000000	0.298726
682.000000	0.299037
683.000000	0.299355
684.000000	0.299654
685.000000	0.299931
686.000000	0.300193
687.000000	0.300406
688.000000	0.300607
689.000000	0.300864
690.000000	0.301229
691.000000	0.301560
692.000000	0.301838
693.000000	0.302135
694.000000	0.302460
695.000000	0.302732
696.000000	0.302980
697.000000	0.303279
698.000000	0.303588
699.000000	0.303885
700.000000	0.304164
701.000000	0.304387
702.000000	0.304687
703.000000	0.305048
704.000000	0.305297
705.000000	0.305604
706.000000	0.305925
707.000000	0.306226
708.000000	0.306546
709.000000	0.306831
710.000000	0.307080
711.000000	0.307458
712.000000	0.307794
713.000000	0.308077
714.000000	0.308483
715.000000	0.308797
716.000000	0.309027
717.000000	0.309256
718.000000	0.309530
719.000000	0.309843
720.000000	0.310198
721.000000	0.310618
722.000000	0.310965
723.000000	0.311266
724.000000	0.311604
725.000000	0.311800
726.000000	0.311982
727.000000	0.312221
728.000000	0.312364
729.000000	0.312542
730.000000	0.312801
731.000000	0.313002
732.000000	0.313218
733.000000	0.313496
734.000000	0.313723
735.000000	0.314025
736.000000	0.314430
737.000000	0.314678
738.000000	0.314908
739.000000	0.315149
740.000000	0.315250
741.000000	0.315367
742.000000	0.315579
743.000000	0.315832
744.000000	0.316008
745.000000	0.316168
746.000000	0.316339
747.000000	0.316445
748.000000	0.316622
749.000000	0.316840
750.000000	0.317031
751.000000	0.317206
752.000000	0.317376
753.000000	0.317544
754.000000	0.317689
755.000000	0.317811
756.000000	0.317908
757.000000	0.317942
758.000000	0.318070
759.000000	0.318211
760.000000	0.318270
761.000000	0.318441
762.000000	0.318649
763.000000	0.318772
764.000000	0.318736
765.000000	0.318718
766.000000	0.318713
767.000000	0.318691
768.000000	0.318737
769.000000	0.318806
770.000000	0.318851
771.000000	0.318809
772.000000	0.318855
773.000000	0.318896
774.000000	0.318880
775.000000	0.318864
776.000000	0.318857
777.000000	0.318832
778.000000	0.318743
779.000000	0.318661
780.000000	0.318625
781.000000	0.318622
782.000000	0.318568
783.000000	0.318622
784.000000	0.318753
785.000000	0.318701
786.000000	0.318660
787.000000	0.318706
788.000000	0.318665
789.000000	0.318621
790.000000	0.318539
791.000000	0.318391
792.000000	0.318271
793.000000	0.318214
794.000000	0.318208
795.000000	0.318123
796.000000	0.317998
797.000000	0.317881
798.000000	0.317840
799.000000	0.317815
800.000000	0.317738
801.000000	0.317573
802.000000	0.317442
803.000000	0.317306
804.000000	0.317149
805.000000	0.316870
806.000000	0.316637
807.000000	0.316530
808.000000	0.316425
809.000000	0.316409
810.000000	0.316324
811.000000	0.316084
812.000000	0.315964
813.000000	0.315889
814.000000	0.315804
815.000000	0.315692
816.000000	0.315504
817.000000	0.315328
818.000000	0.315175
819.000000	0.315077
820.000000	0.314952
821.000000	0.314756
822.000000	0.314667
823.000000	0.314482
824.000000	0.314226
825.000000	0.314112
826.000000	0.313977
827.000000	0.313845
828.000000	0.313758
829.000000	0.313600
830.000000	0.313389
831.000000	0.313191
832.000000	0.312938
833.000000	0.312665
834.000000	0.312510
835.000000	0.312544
836.000000	0.312464
837.000000	0.312344
838.000000	0.312268
839.000000	0.312274
840.000000	0.312134
841.000000	0.311882
842.000000	0.311575
843.000000	0.311337
844.000000	0.311115
845.000000	0.310860
846.000000	0.310618
847.000000	0.310563
848.000000	0.310609
849.000000	0.310611
850.000000	0.310345
851.000000	0.310036
852.000000	0.309852
853.000000	0.309738
854.000000	0.309498
855.000000	0.309292
856.000000	0.309168
857.000000	0.309032
858.000000	0.308903
859.000000	0.308705
860.000000	0.308443
861.000000	0.308292
862.000000	0.308131
863.000000	0.307720
864.000000	0.307513
865.000000	0.307379
866.000000	0.307225
867.000000	0.307037
868.000000	0.306766
869.000000	0.306412
870.000000	0.306119
871.000000	0.305904
872.000000	0.305866
873.000000	0.305899
874.000000	0.305703
875.000000	0.305432
876.000000	0.305185
877.000000	0.304965
878.000000	0.304718
879.000000	0.304468
880.000000	0.304136
881.000000	0.303955
882.000000	0.303734
883.000000	0.303508
884.000000	0.303323
885.000000	0.303144
886.000000	0.302947
887.000000	0.302773
888.000000	0.302718
889.000000	0.302570
890.000000	0.302204
891.000000	0.301808
892.000000	0.301599
893.000000	0.301558
894.000000	0.301636
895.000000	0.301384
896.000000	0.301077
897.000000	0.300821
898.000000	0.300653
899.000000	0.300498
900.000000	0.300366
901.000000	0.300197
902.000000	0.299955
903.000000	0.299797
904.000000	0.299679
905.000000	0.299448
906.000000	0.299446
907.000000	0.299379
908.000000	0.299183
909.000000	0.298889
910.000000	0.298665
911.000000	0.298517
912.000000	0.298404
913.000000	0.298189
914.000000	0.297934
915.000000	0.297722
916.000000	0.297482
917.000000	0.297243
918.000000	0.297034
919.000000	0.296835
920.000000	0.296610
921.000000	0.296309
922.000000	0.296068
923.000000	0.296043
924.000000	0.295996
925.000000	0.295787
926.000000	0.295472
927.000000	0.295309
928.000000	0.295034
929.000000	0.294742
930.000000	0.294589
931.000000	0.294318
932.000000	0.294036
933.000000	0.293810
934.000000	0.293551
935.000000	0.293260
936.000000	0.293070
937.000000	0.292944
938.000000	0.292676
939.000000	0.292565
940.000000	0.292477
941.000000	0.292212
942.000000	0.292111
943.000000	0.292022
944.000000	0.291786
945.000000	0.291768
946.000000	0.291654
947.000000	0.291553
948.000000	0.291528
949.000000	0.291102
950.000000	0.290620
951.000000	0.290282
952.000000	0.290209
953.000000	0.290197
954.000000	0.290196
955.000000	0.290116
956.000000	0.289962
957.000000	0.289725
958.000000	0.289491
959.000000	0.289432
960.000000	0.289055
961.000000	0.288928
962.000000	0.289019
963.000000	0.288600
964.000000	0.288345
965.000000	0.288322
966.000000	0.288310
967.000000	0.288211
968.000000	0.287930
969.000000	0.287673
970.000000	0.287812
971.000000	0.287727
972.000000	0.287530
973.000000	0.287331
974.000000	0.287333
975.000000	0.287137
976.000000	0.286973
977.000000	0.286987
978.000000	0.286673
979.000000	0.286585
980.000000	0.286505
981.000000	0.286382
982.000000	0.286312
983.000000	0.286085
984.000000	0.285877
985.000000	0.286091
986.000000	0.286071
987.000000	0.285974
988.000000	0.285887
989.000000	0.285795
990.000000	0.285591
991.000000	0.285401
992.000000	0.285431
993.000000	0.285607
994.000000	0.285554
995.000000	0.285394
996.000000	0.285258
997.000000	0.285468
998.000000	0.285669
999.000000	0.285713
1000.000000	0.285644
1001.000000	0.286227
1002.000000	0.285328
1003.000000	0.285472
1004.000000	0.285731
1005.000000	0.285938
1006.000000	0.285737
1007.000000	0.285951
1008.000000	0.285749
1009.000000	0.285249
1010.000000	0.285447
1011.000000	0.285670
1012.000000	0.286113
1013.000000	0.285503
1014.000000	0.284529
1015.000000	0.284592
1016.000000	0.284384
1017.000000	0.284348
1018.000000	0.284996
1019.000000	0.285322
1020.000000	0.285639
1021.000000	0.285452
1022.000000	0.285043
1023.000000	0.285157
1024.000000	0.285083
1025.000000	0.285035
1026.000000	0.285441
1027.000000	0.286188
1028.000000	0.286027
1029.000000	0.285577
1030.000000	0.285641
1031.000000	0.285806
1032.000000	0.286138
1033.000000	0.286625
1034.000000	0.286846
1035.000000	0.286864
1036.000000	0.286799
1037.000000	0.286343
1038.000000	0.286455
1039.000000	0.287121
1040.000000	0.287268
1041.000000	0.287081
1042.000000	0.287251
1043.000000	0.287475
1044.000000	0.287465
1045.000000	0.287906
1046.000000	0.288646
1047.000000	0.288972
1048.000000	0.288734
1049.000000	0.288890
1050.000000	0.289273
1051.000000	0.289458
1052.000000	0.289459
1053.000000	0.289561
1054.000000	0.289849
1055.000000	0.290152
1056.000000	0.290406
1057.000000	0.290977
1058.000000	0.291714
1059.000000	0.291652
1060.000000	0.291217
1061.000000	0.291399
1062.000000	0.291756
1063.000000	0.292035
1064.000000	0.292223
1065.000000	0.292427
1066.000000	0.292817
1067.000000	0.293177
1068.000000	0.293433
1069.000000	0.294052
1070.000000	0.294302
1071.000000	0.293713
1072.000000	0.293923
1073.000000	0.294569
1074.000000	0.295452
1075.000000	0.295890
1076.000000	0.296215
1077.000000	0.296542
1078.000000	0.296494
1079.000000	0.296638
1080.000000	0.297194
1081.000000	0.297468
1082.000000	0.297539
1083.000000	0.297669
1084.000000	0.297736
1085.000000	0.298128
1086.000000	0.298591
1087.000000	0.299043
1088.000000	0.299923
1089.000000	0.300391
1090.000000	0.300509
1091.000000	0.300476
1092.000000	0.300980
1093.000000	0.301521
1094.000000	0.301652
1095.000000	0.301575
1096.000000	0.302012
1097.000000	0.302418
1098.000000	0.302658
1099.000000	0.303184
1100.000000	0.303657
1101.000000	0.303593
1102.000000	0.303907
1103.000000	0.304871
1104.000000	0.305350
1105.000000	0.305394
1106.000000	0.305694
1107.000000	0.305969
1108.000000	0.306243
1109.000000	0.306879
1110.000000	0.307159
1111.000000	0.307324
1112.000000	0.307085
1113.000000	0.307570
1114.000000	0.308374
1115.000000	0.308790
1116.000000	0.309623
1117.000000	0.309918
1118.000000	0.309550
1119.000000	0.309420
1120.000000	0.309094
1121.000000	0.309175
1122.000000	0.309416
1123.000000	0.309942
1124.000000	0.310996
1125.000000	0.311529
1126.000000	0.311625
1127.000000	0.311883
1128.000000	0.312084
1129.000000	0.312061
1130.000000	0.312279
1131.000000	0.312761
1132.000000	0.312977
1133.000000	0.313179
1134.000000	0.313301
1135.000000	0.313223
1136.000000	0.313291
1137.000000	0.313372
1138.000000	0.313382
1139.000000	0.313472
1140.000000	0.313664
1141.000000	0.313685
1142.000000	0.313915
1143.000000	0.314432
1144.000000	0.314802
1145.000000	0.314921
1146.000000	0.315071
1147.000000	0.315294
1148.000000	0.315382
1149.000000	0.315470
1150.000000	0.315618
1151.000000	0.315863
1152.000000	0.315991
1153.000000	0.316190
1154.000000	0.316610
1155.000000	0.316818
1156.000000	0.316848
1157.000000	0.316936
1158.000000	0.316832
1159.000000	0.316975
1160.000000	0.317251
1161.000000	0.317486
1162.000000	0.318017
1163.000000	0.318484
1164.000000	0.318469
1165.000000	0.318620
1166.000000	0.318668
1167.000000	0.318408
1168.000000	0.318484
1169.000000	0.318798
1170.000000	0.318955
1171.000000	0.319243
1172.000000	0.319468
1173.000000	0.319551
1174.000000	0.319633
1175.000000	0.319628
1176.000000	0.319732
1177.000000	0.320001
1178.000000	0.320132
1179.000000	0.320321
1180.000000	0.320369
1181.000000	0.320314
1182.000000	0.320226
1183.000000	0.320328
1184.000000	0.320430
1185.000000	0.320523
1186.000000	0.320658
1187.000000	0.320760
1188.000000	0.320799
1189.000000	0.320943
1190.000000	0.321243
1191.000000	0.321396
1192.000000	0.321631
1193.000000	0.321910
1194.000000	0.322046
1195.000000	0.322176
1196.000000	0.322216
1197.000000	0.322340
1198.000000	0.322551
1199.000000	0.322627
1200.000000	0.322634
1201.000000	0.322756
1202.000000	0.322771
1203.000000	0.322692
1204.000000	0.322748
1205.000000	0.322833
1206.000000	0.322868
1207.000000	0.322974
1208.000000	0.322993
1209.000000	0.323028
1210.000000	0.323103
1211.000000	0.323166
1212.000000	0.323197
1213.000000	0.323341
1214.000000	0.323387
1215.000000	0.323223
1216.000000	0.323245
1217.000000	0.323401
1218.000000	0.323376
1219.000000	0.323325
1220.000000	0.323362
1221.000000	0.323316
1222.000000	0.323311
1223.000000	0.323470
1224.000000	0.323604
1225.000000	0.323543
1226.000000	0.323489
1227.000000	0.323392
1228.000000	0.323320
1229.000000	0.323311
1230.000000	0.323334
1231.000000	0.323341
1232.000000	0.323565
1233.000000	0.323745
1234.000000	0.323885
1235.000000	0.323968
1236.000000	0.323975
1237.000000	0.323961
1238.000000	0.323720
1239.000000	0.323750
1240.000000	0.323944
1241.000000	0.324010
1242.000000	0.324076
1243.000000	0.324208
1244.000000	0.324236
1245.000000	0.324258
1246.000000	0.324344
1247.000000	0.324449
1248.000000	0.324424
1249.000000	0.324389
1250.000000	0.324508
1251.000000	0.324602
1252.000000	0.324639
1253.000000	0.324759
1254.000000	0.324739
1255.000000	0.324586
1256.000000	0.324454
1257.000000	0.324186
1258.000000	0.324155
1259.000000	0.324188
1260.000000	0.324265
1261.000000	0.324445
1262.000000	0.324554
1263.000000	0.324684
1264.000000	0.324669
1265.000000	0.324699
1266.000000	0.324842
1267.000000	0.324865
1268.000000	0.324781
1269.000000	0.324716
1270.000000	0.324747
1271.000000	0.324729
1272.000000	0.324767
1273.000000	0.324874
1274.000000	0.324814
1275.000000	0.324781
1276.000000	0.324748
1277.000000	0.324849
1278.000000	0.324951
1279.000000	0.324951
1280.000000	0.324907
1281.000000	0.324837
1282.000000	0.324651
1283.000000	0.324645
1284.000000	0.324709
1285.000000	0.324748
1286.000000	0.324805
1287.000000	0.324819
1288.000000	0.324897
1289.000000	0.324884
1290.000000	0.324671
1291.000000	0.324614
1292.000000	0.324713
1293.000000	0.324690
1294.000000	0.324663
1295.000000	0.324802
1296.000000	0.324799
1297.000000	0.324696
1298.000000	0.324839
1299.000000	0.324964
1300.000000	0.325039
1301.000000	0.325110
1302.000000	0.325039
1303.000000	0.324910
1304.000000	0.324859
1305.000000	0.324905
1306.000000	0.324848
1307.000000	0.324914
1308.000000	0.324996
1309.000000	0.324838
1310.000000	0.324883
1311.000000	0.325258
1312.000000	0.325278
1313.000000	0.325137
1314.000000	0.325096
1315.000000	0.324863
1316.000000	0.324869
1317.000000	0.324993
1318.000000	0.325088
1319.000000	0.325061
1320.000000	0.324773
1321.000000	0.324526
1322.000000	0.324413
1323.000000	0.324312
1324.000000	0.324314
1325.000000	0.324360
1326.000000	0.324288
1327.000000	0.324226
1328.000000	0.324342
1329.000000	0.324326
1330.000000	0.324268
1331.000000	0.324207
1332.000000	0.324143
1333.000000	0.324054
1334.000000	0.323972
1335.000000	0.323980
1336.000000	0.324050
1337.000000	0.324076
1338.000000	0.324117
1339.000000	0.323998
1340.000000	0.323824
1341.000000	0.323815
1342.000000	0.323703
1343.000000	0.323498
1344.000000	0.323490
1345.000000	0.323457
1346.000000	0.323469
1347.000000	0.323443
1348.000000	0.323410
1349.000000	0.323341
1350.000000	0.323249
1351.000000	0.323247
1352.000000	0.323279
1353.000000	0.323186
1354.000000	0.323125
1355.000000	0.323172
1356.000000	0.323039
1357.000000	0.322715
1358.000000	0.322724
1359.000000	0.322682
1360.000000	0.322610
1361.000000	0.322753
1362.000000	0.322782
1363.000000	0.322587
1364.000000	0.322530
1365.000000	0.322574
1366.000000	0.322513
1367.000000	0.322367
1368.000000	0.322283
1369.000000	0.322362
1370.000000	0.322283
1371.000000	0.322280
1372.000000	0.322199
1373.000000	0.322000
1374.000000	0.321901
1375.000000	0.321619
1376.000000	0.321480
1377.000000	0.321451
1378.000000	0.321180
1379.000000	0.320956
1380.000000	0.320823
1381.000000	0.320467
1382.000000	0.320094
1383.000000	0.319843
1384.000000	0.319516
1385.000000	0.319155
1386.000000	0.318791
1387.000000	0.318340
1388.000000	0.317864
1389.000000	0.317574
1390.000000	0.317349
1391.000000	0.317043
1392.000000	0.316798
1393.000000	0.316427
1394.000000	0.315905
1395.000000	0.315514
1396.000000	0.315182
1397.000000	0.314718
1398.000000	0.314167
1399.000000	0.313664
1400.000000	0.313070
1401.000000	0.312536
1402.000000	0.312056
1403.000000	0.311695
1404.000000	0.311400
1405.000000	0.310997
1406.000000	0.310543
1407.000000	0.310076
1408.000000	0.309546
1409.000000	0.309141
1410.000000	0.308805
1411.000000	0.308466
1412.000000	0.308191
1413.000000	0.308029
1414.000000	0.307937
1415.000000	0.307906
1416.000000	0.307805
1417.000000	0.307667
1418.000000	0.307683
1419.000000	0.307828
1420.000000	0.307923
1421.000000	0.308128
1422.000000	0.308220
1423.000000	0.308249
1424.000000	0.308195
1425.000000	0.308065
1426.000000	0.307930
1427.000000	0.307790
1428.000000	0.307644
1429.000000	0.307483
1430.000000	0.307238
1431.000000	0.307026
1432.000000	0.306922
1433.000000	0.306867
1434.000000	0.306944
1435.000000	0.307317
1436.000000	0.307559
1437.000000	0.307769
1438.000000	0.308094
1439.000000	0.308470
1440.000000	0.308895
1441.000000	0.309424
1442.000000	0.310017
1443.000000	0.310616
1444.000000	0.311255
1445.000000	0.311787
1446.000000	0.312324
1447.000000	0.312776
1448.000000	0.313076
1449.000000	0.313530
1450.000000	0.314010
1451.000000	0.314234
1452.000000	0.314391
1453.000000	0.314508
1454.000000	0.314466
1455.000000	0.314583
1456.000000	0.314772
1457.000000	0.314872
1458.000000	0.315047
1459.000000	0.315177
1460.000000	0.315292
1461.000000	0.315413
1462.000000	0.315467
1463.000000	0.315478
1464.000000	0.315529
1465.000000	0.315683
1466.000000	0.315863
1467.000000	0.316138
1468.000000	0.316359
1469.000000	0.316386
1470.000000	0.316354
1471.000000	0.316414
1472.000000	0.316457
1473.000000	0.316647
1474.000000	0.316831
1475.000000	0.316844
1476.000000	0.316847
1477.000000	0.316982
1478.000000	0.317107
1479.000000	0.317216
1480.000000	0.317327
1481.000000	0.317397
1482.000000	0.317460
1483.000000	0.317550
1484.000000	0.317625
1485.000000	0.317719
1486.000000	0.317760
1487.000000	0.317814
1488.000000	0.317975
1489.000000	0.318115
1490.000000	0.318122
1491.000000	0.318214
1492.000000	0.318202
1493.000000	0.318295
1494.000000	0.318489
1495.000000	0.318569
1496.000000	0.318629
1497.000000	0.318759
1498.000000	0.318906
1499.000000	0.318924
1500.000000	0.319096
1501.000000	0.319291
1502.000000	0.319334
1503.000000	0.319514
1504.000000	0.319703
1505.000000	0.319832
1506.000000	0.320042
1507.000000	0.320126
1508.000000	0.320244
1509.000000	0.320324
1510.000000	0.320228
1511.000000	0.320211
1512.000000	0.320140
1513.000000	0.320139
1514.000000	0.320320
1515.000000	0.320337
1516.000000	0.320352
1517.000000	0.320433
1518.000000	0.320536
1519.000000	0.320691
1520.000000	0.320879
1521.000000	0.320857
1522.000000	0.320862
1523.000000	0.320964
1524.000000	0.320967
1525.000000	0.321095
1526.000000	0.321119
1527.000000	0.321119
1528.000000	0.321135
1529.000000	0.321034
1530.000000	0.320922
1531.000000	0.320800
1532.000000	0.320788
1533.000000	0.320798
1534.000000	0.320761
1535.000000	0.320718
1536.000000	0.320566
1537.000000	0.320608
1538.000000	0.320673
1539.000000	0.320606
1540.000000	0.320639
1541.000000	0.320683
1542.000000	0.320728
1543.000000	0.320892
1544.000000	0.321075
1545.000000	0.321164
1546.000000	0.321193
1547.000000	0.321235
1548.000000	0.321329
1549.000000	0.321509
1550.000000	0.321715
1551.000000	0.321876
1552.000000	0.321931
1553.000000	0.321847
1554.000000	0.321664
1555.000000	0.321572
1556.000000	0.321637
1557.000000	0.321634
1558.000000	0.321651
1559.000000	0.321666
1560.000000	0.321719
1561.000000	0.321842
1562.000000	0.321809
1563.000000	0.321826
1564.000000	0.321799
1565.000000	0.321554
1566.000000	0.321458
1567.000000	0.321615
1568.000000	0.321616
1569.000000	0.321640
1570.000000	0.321598
1571.000000	0.321438
1572.000000	0.321375
1573.000000	0.321376
1574.000000	0.321365
1575.000000	0.321384
1576.000000	0.321415
1577.000000	0.321391
1578.000000	0.321359
1579.000000	0.321458
1580.000000	0.321516
1581.000000	0.321647
1582.000000	0.321658
1583.000000	0.321534
1584.000000	0.321473
1585.000000	0.321468
1586.000000	0.321467
1587.000000	0.321550
1588.000000	0.321584
1589.000000	0.321558
1590.000000	0.321558
1591.000000	0.321628
1592.000000	0.321659
1593.000000	0.321652
1594.000000	0.321665
1595.000000	0.321740
1596.000000	0.321788
1597.000000	0.321888
1598.000000	0.321982
1599.000000	0.322096
1600.000000	0.322121
1601.000000	0.322200
1602.000000	0.322217
1603.000000	0.322170
1604.000000	0.322171
1605.000000	0.322207
1606.000000	0.322240
1607.000000	0.322379
1608.000000	0.322411
1609.000000	0.322471
1610.000000	0.322417
1611.000000	0.322247
1612.000000	0.322136
1613.000000	0.322085
1614.000000	0.322018
1615.000000	0.322052
1616.000000	0.322025
1617.000000	0.321896
1618.000000	0.321880
1619.000000	0.321874
1620.000000	0.321845
1621.000000	0.321867
1622.000000	0.321970
1623.000000	0.322090
1624.000000	0.322109
1625.000000	0.322037
1626.000000	0.321907
1627.000000	0.321604
1628.000000	0.321533
1629.000000	0.321585
1630.000000	0.321608
1631.000000	0.321624
1632.000000	0.321602
1633.000000	0.321604
1634.000000	0.321577
1635.000000	0.321526
1636.000000	0.321510
1637.000000	0.321513
1638.000000	0.321460
1639.000000	0.321543
1640.000000	0.321467
1641.000000	0.321264
1642.000000	0.321224
1643.000000	0.321224
1644.000000	0.321205
1645.000000	0.321342
1646.000000	0.321278
1647.000000	0.321083
1648.000000	0.320973
1649.000000	0.320869
1650.000000	0.320917
1651.000000	0.321143
1652.000000	0.321258
1653.000000	0.321396
1654.000000	0.321449
1655.000000	0.321324
1656.000000	0.321247
1657.000000	0.321229
1658.000000	0.321223
1659.000000	0.321392
1660.000000	0.321395
1661.000000	0.321225
1662.000000	0.321163
1663.000000	0.321060
1664.000000	0.320865
1665.000000	0.320671
1666.000000	0.320602
1667.000000	0.320331
1668.000000	0.320238
1669.000000	0.320337
1670.000000	0.320258
1671.000000	0.320228
1672.000000	0.320272
1673.000000	0.320324
1674.000000	0.320411
1675.000000	0.320410
1676.000000	0.320350
1677.000000	0.320252
1678.000000	0.320160
1679.000000	0.320150
1680.000000	0.320270
1681.000000	0.320392
1682.000000	0.320549
1683.000000	0.320739
1684.000000	0.320749
1685.000000	0.320767
1686.000000	0.320868
1687.000000	0.321022
1688.000000	0.321170
1689.000000	0.321239
1690.000000	0.320969
1691.000000	0.320604
1692.000000	0.320221
1693.000000	0.320012
1694.000000	0.320143
1695.000000	0.320354
1696.000000	0.320520
1697.000000	0.320617
1698.000000	0.320758
1699.000000	0.320788
1700.000000	0.320663
1701.000000	0.320746
1702.000000	0.320689
1703.000000	0.320568
1704.000000	0.320712
1705.000000	0.320664
1706.000000	0.320306
1707.000000	0.320221
1708.000000	0.320231
1709.000000	0.320157
1710.000000	0.320384
1711.000000	0.320388
1712.000000	0.320160
1713.000000	0.320068
1714.000000	0.319956
1715.000000	0.319984
1716.000000	0.320224
1717.000000	0.320318
1718.000000	0.320414
1719.000000	0.320395
1720.000000	0.320198
1721.000000	0.320248
1722.000000	0.320456
1723.000000	0.320520
1724.000000	0.320716
1725.000000	0.320786
1726.000000	0.320565
1727.000000	0.320460
1728.000000	0.320326
1729.000000	0.320168
1730.000000	0.320150
1731.000000	0.320011
1732.000000	0.319829
1733.000000	0.319760
1734.000000	0.319476
1735.000000	0.319410
1736.000000	0.319516
1737.000000	0.319481
1738.000000	0.319480
1739.000000	0.319421
1740.000000	0.319270
1741.000000	0.319145
1742.000000	0.318995
1743.000000	0.319013
1744.000000	0.319050
1745.000000	0.319144
1746.000000	0.319374
1747.000000	0.319550
1748.000000	0.319535
1749.000000	0.319349
1750.000000	0.319179
1751.000000	0.318904
1752.000000	0.318906
1753.000000	0.318996
1754.000000	0.319055
1755.000000	0.319289
1756.000000	0.319302
1757.000000	0.319106
1758.000000	0.319014
1759.000000	0.318811
1760.000000	0.318688
1761.000000	0.318574
1762.000000	0.318548
1763.000000	0.318709
1764.000000	0.318672
1765.000000	0.318537
1766.000000	0.318484
1767.000000	0.318158
1768.000000	0.318069
1769.000000	0.318355
1770.000000	0.318475
1771.000000	0.318578
1772.000000	0.318608
1773.000000	0.318500
1774.000000	0.318431
1775.000000	0.318354
1776.000000	0.318361
1777.000000	0.318368
1778.000000	0.318377
1779.000000	0.318491
1780.000000	0.318420
1781.000000	0.318188
1782.000000	0.318072
1783.000000	0.317963
1784.000000	0.317996
1785.000000	0.317852
1786.000000	0.317889
1787.000000	0.317776
1788.000000	0.317479
1789.000000	0.317562
1790.000000	0.317367
1791.000000	0.317294
1792.000000	0.317394
1793.000000	0.317594
1794.000000	0.318242
1795.000000	0.318473
1796.000000	0.318563
1797.000000	0.318562
1798.000000	0.318030
1799.000000	0.317817
1800.000000	0.317889
1801.000000	0.318564
1802.000000	0.318390
1803.000000	0.316782
1804.000000	0.316797
1805.000000	0.317354
1806.000000	0.317510
1807.000000	0.318248
1808.000000	0.318771
1809.000000	0.319241
1810.000000	0.318796
1811.000000	0.318956
1812.000000	0.319780
1813.000000	0.319739
1814.000000	0.319131
1815.000000	0.318917
1816.000000	0.318494
1817.000000	0.318051
1818.000000	0.317645
1819.000000	0.317860
1820.000000	0.317422
1821.000000	0.316517
1822.000000	0.315882
1823.000000	0.314630
1824.000000	0.314458
1825.000000	0.314620
1826.000000	0.315186
1827.000000	0.317051
1828.000000	0.317675
1829.000000	0.317991
1830.000000	0.318294
1831.000000	0.317985
1832.000000	0.316306
1833.000000	0.316171
1834.000000	0.316512
1835.000000	0.316686
1836.000000	0.317641
1837.000000	0.318105
1838.000000	0.318503
1839.000000	0.317888
1840.000000	0.316896
1841.000000	0.316765
1842.000000	0.316829
1843.000000	0.316994
1844.000000	0.317128
1845.000000	0.317769
1846.000000	0.318005
1847.000000	0.317648
1848.000000	0.317327
1849.000000	0.317556
1850.000000	0.318104
1851.000000	0.318256
1852.000000	0.318341
1853.000000	0.318471
1854.000000	0.317962
1855.000000	0.317838
1856.000000	0.317935
1857.000000	0.317846
1858.000000	0.317827
1859.000000	0.318388
1860.000000	0.317621
1861.000000	0.316912
1862.000000	0.316601
1863.000000	0.316046
1864.000000	0.315909
1865.000000	0.316657
1866.000000	0.316740
1867.000000	0.316610
1868.000000	0.316387
1869.000000	0.315732
1870.000000	0.315433
1871.000000	0.314811
1872.000000	0.313809
1873.000000	0.313139
1874.000000	0.312471
1875.000000	0.311814
1876.000000	0.311250
1877.000000	0.310060
1878.000000	0.308720
1879.000000	0.307354
1880.000000	0.306342
1881.000000	0.305859
1882.000000	0.305861
1883.000000	0.306296
1884.000000	0.305903
1885.000000	0.305117
1886.000000	0.304066
1887.000000	0.302659
1888.000000	0.300151
1889.000000	0.298253
1890.000000	0.296485
1891.000000	0.294320
1892.000000	0.292389
1893.000000	0.290341
1894.000000	0.288174
1895.000000	0.286266
1896.000000	0.284751
1897.000000	0.283260
1898.000000	0.281535
1899.000000	0.280121
1900.000000	0.278146
1901.000000	0.276112
1902.000000	0.275061
1903.000000	0.274174
1904.000000	0.273512
1905.000000	0.273071
1906.000000	0.272721
1907.000000	0.272299
1908.000000	0.272289
1909.000000	0.272759
1910.000000	0.273017
1911.000000	0.272689
1912.000000	0.272174
1913.000000	0.271911
1914.000000	0.272242
1915.000000	0.272861
1916.000000	0.273775
1917.000000	0.274443
1918.000000	0.275096
1919.000000	0.275453
1920.000000	0.276302
1921.000000	0.276633
1922.000000	0.276702
1923.000000	0.277693
1924.000000	0.278364
1925.000000	0.278854
1926.000000	0.279389
1927.000000	0.279377
1928.000000	0.279441
1929.000000	0.279305
1930.000000	0.279325
1931.000000	0.279471
1932.000000	0.279781
1933.000000	0.280090
1934.000000	0.280471
1935.000000	0.280925
1936.000000	0.281513
1937.000000	0.281703
1938.000000	0.282292
1939.000000	0.282812
1940.000000	0.283402
1941.000000	0.283768
1942.000000	0.284618
1943.000000	0.284671
1944.000000	0.284728
1945.000000	0.284896
1946.000000	0.285100
1947.000000	0.285649
1948.000000	0.285785
1949.000000	0.286135
1950.000000	0.286286
1951.000000	0.286256
1952.000000	0.286002
1953.000000	0.286130
1954.000000	0.286129
1955.000000	0.286074
1956.000000	0.286124
1957.000000	0.286583
1958.000000	0.287202
1959.000000	0.287344
1960.000000	0.287363
1961.000000	0.287608
1962.000000	0.287813
1963.000000	0.287907
1964.000000	0.288420
1965.000000	0.288860
1966.000000	0.288791
1967.000000	0.289089
1968.000000	0.289780
1969.000000	0.290421
1970.000000	0.290832
1971.000000	0.290826
1972.000000	0.290718
1973.000000	0.290500
1974.000000	0.290122
1975.000000	0.290242
1976.000000	0.290747
1977.000000	0.290679
1978.000000	0.290835
1979.000000	0.291494
1980.000000	0.291617
1981.000000	0.291871
1982.000000	0.292648
1983.000000	0.293009
1984.000000	0.293261
1985.000000	0.293552
1986.000000	0.293817
1987.000000	0.293879
1988.000000	0.294141
1989.000000	0.294676
1990.000000	0.295204
1991.000000	0.295887
1992.000000	0.296367
1993.000000	0.296727
1994.000000	0.297035
1995.000000	0.296428
1996.000000	0.295633
1997.000000	0.295461
1998.000000	0.295367
1999.000000	0.295614
2000.000000	0.296319
2001.000000	0.297554
2002.000000	0.298566
2003.000000	0.298641
2004.000000	0.298805
2005.000000	0.298712
2006.000000	0.298485
2007.000000	0.298713
2008.000000	0.298769
2009.000000	0.298764
2010.000000	0.298994
2011.000000	0.299158
2012.000000	0.299290
2013.000000	0.299355
2014.000000	0.299844
2015.000000	0.300417
2016.000000	0.300306
2017.000000	0.300658
2018.000000	0.301251
2019.000000	0.301378
2020.000000	0.301493
2021.000000	0.301625
2022.000000	0.301560
2023.000000	0.301629
2024.000000	0.301953
2025.000000	0.302193
2026.000000	0.302411
2027.000000	0.302355
2028.000000	0.302265
2029.000000	0.301971
2030.000000	0.302069
2031.000000	0.302329
2032.000000	0.302532
2033.000000	0.302954
2034.000000	0.302911
2035.000000	0.302465
2036.000000	0.302372
2037.000000	0.302149
2038.000000	0.302303
2039.000000	0.303110
2040.000000	0.303646
2041.000000	0.303428
2042.000000	0.303520
2043.000000	0.303282
2044.000000	0.302749
2045.000000	0.303146
2046.000000	0.303725
2047.000000	0.304101
2048.000000	0.304528
2049.000000	0.305072
2050.000000	0.305411
2051.000000	0.305528
2052.000000	0.305507
2053.000000	0.305223
2054.000000	0.304828
2055.000000	0.304177
2056.000000	0.304219
2057.000000	0.304445
2058.000000	0.304984
2059.000000	0.305274
2060.000000	0.305075
2061.000000	0.304176
2062.000000	0.304107
2063.000000	0.304250
2064.000000	0.304153
2065.000000	0.304589
2066.000000	0.304612
2067.000000	0.304769
2068.000000	0.304187
2069.000000	0.304096
2070.000000	0.304922
2071.000000	0.304765
2072.000000	0.305173
2073.000000	0.305526
2074.000000	0.305262
2075.000000	0.305468
2076.000000	0.305958
2077.000000	0.306006
2078.000000	0.305938
2079.000000	0.305906
2080.000000	0.305745
2081.000000	0.305811
2082.000000	0.306049
2083.000000	0.306414
2084.000000	0.306662
2085.000000	0.305984
2086.000000	0.305072
2087.000000	0.304467
2088.000000	0.303828
2089.000000	0.303511
2090.000000	0.303746
2091.000000	0.304884
2092.000000	0.305406
2093.000000	0.306712
2094.000000	0.306925
2095.000000	0.306082
2096.000000	0.305804
2097.000000	0.305385
2098.000000	0.304211
2099.000000	0.304283
2100.000000	0.304975
2101.000000	0.305502
2102.000000	0.306376
2103.000000	0.306756
2104.000000	0.306644
2105.000000	0.306496
2106.000000	0.305813
2107.000000	0.305588
2108.000000	0.305231
2109.000000	0.305509
2110.000000	0.306292
2111.000000	0.306741
2112.000000	0.307788
2113.000000	0.307520
2114.000000	0.306701
2115.000000	0.305999
2116.000000	0.305187
2117.000000	0.303996
2118.000000	0.304078
2119.000000	0.304713
2120.000000	0.304891
2121.000000	0.305553
2122.000000	0.305706
2123.000000	0.305227
2124.000000	0.304923
2125.000000	0.304208
2126.000000	0.304219
2127.000000	0.304611
2128.000000	0.305131
2129.000000	0.306195
2130.000000	0.307319
2131.000000	0.307185
2132.000000	0.307067
2133.000000	0.306656
2134.000000	0.305634
2135.000000	0.305054
2136.000000	0.304367
2137.000000	0.304580
2138.000000	0.305656
2139.000000	0.306342
2140.000000	0.308132
2141.000000	0.308363
2142.000000	0.306726
2143.000000	0.306404
2144.000000	0.306267
2145.000000	0.306462
2146.000000	0.307994
2147.000000	0.309292
2148.000000	0.308563
2149.000000	0.308036
2150.000000	0.307357
2151.000000	0.305990
2152.000000	0.304861
2153.000000	0.304210
2154.000000	0.303786
2155.000000	0.303149
2156.000000	0.303172
2157.000000	0.304329
2158.000000	0.304790
2159.000000	0.305168
2160.000000	0.305788
2161.000000	0.306375
2162.000000	0.306837
2163.000000	0.307900
2164.000000	0.307953
2165.000000	0.307139
2166.000000	0.306525
2167.000000	0.305555
2168.000000	0.303969
2169.000000	0.303836
2170.000000	0.304429
2171.000000	0.305423
2172.000000	0.307953
2173.000000	0.308771
2174.000000	0.309725
2175.000000	0.309414
2176.000000	0.307390
2177.000000	0.306113
2178.000000	0.304275
2179.000000	0.303191
2180.000000	0.302125
2181.000000	0.302129
2182.000000	0.302804
2183.000000	0.302670
2184.000000	0.303269
2185.000000	0.303819
2186.000000	0.303483
2187.000000	0.302589
2188.000000	0.302665
2189.000000	0.301576
2190.000000	0.300107
2191.000000	0.300515
2192.000000	0.299767
2193.000000	0.298211
2194.000000	0.297496
2195.000000	0.296253
2196.000000	0.296571
2197.000000	0.298998
2198.000000	0.299542
2199.000000	0.301044
2200.000000	0.301513
2201.000000	0.299421
2202.000000	0.298941
2203.000000	0.299160
2204.000000	0.298082
2205.000000	0.299259
2206.000000	0.299328
2207.000000	0.298736
2208.000000	0.299313
2209.000000	0.297984
2210.000000	0.296270
2211.000000	0.296741
2212.000000	0.296915
2213.000000	0.297560
2214.000000	0.299791
2215.000000	0.300420
2216.000000	0.299828
2217.000000	0.301270
2218.000000	0.303507
2219.000000	0.304243
2220.000000	0.305607
2221.000000	0.305913
2222.000000	0.305358
2223.000000	0.304221
2224.000000	0.302147
2225.000000	0.300826
2226.000000	0.299673
2227.000000	0.297071
2228.000000	0.298261
2229.000000	0.299952
2230.000000	0.299646
2231.000000	0.301416
2232.000000	0.303548
2233.000000	0.302772
2234.000000	0.301943
2235.000000	0.302001
2236.000000	0.301233
2237.000000	0.298624
2238.000000	0.298409
2239.000000	0.299429
2240.000000	0.299732
2241.000000	0.301566
2242.000000	0.300952
2243.000000	0.298154
2244.000000	0.296904
2245.000000	0.295070
2246.000000	0.294012
2247.000000	0.293881
2248.000000	0.294134
2249.000000	0.295177
2250.000000	0.294996
2251.000000	0.295183
2252.000000	0.294371
2253.000000	0.290976
2254.000000	0.287968
2255.000000	0.288138
2256.000000	0.289202
2257.000000	0.291337
2258.000000	0.293823
2259.000000	0.295018
2260.000000	0.295717
2261.000000	0.295266
2262.000000	0.294332
2263.000000	0.293932
2264.000000	0.291573
2265.000000	0.290977
2266.000000	0.293072
2267.000000	0.291469
2268.000000	0.287561
2269.000000	0.286380
2270.000000	0.284232
2271.000000	0.283399
2272.000000	0.286062
2273.000000	0.286760
2274.000000	0.286190
2275.000000	0.285502
2276.000000	0.285257
2277.000000	0.282775
2278.000000	0.279716
2279.000000	0.279183
2280.000000	0.277666
2281.000000	0.275879
2282.000000	0.274807
2283.000000	0.272902
2284.000000	0.272361
2285.000000	0.272785
2286.000000	0.273148
2287.000000	0.275493
2288.000000	0.278003
2289.000000	0.280203
2290.000000	0.282861
2291.000000	0.283408
2292.000000	0.283084
2293.000000	0.282527
2294.000000	0.281768
2295.000000	0.279099
2296.000000	0.278998
2297.000000	0.280337
2298.000000	0.281662
2299.000000	0.285590
2300.000000	0.287280
2301.000000	0.288070
2302.000000	0.288092
2303.000000	0.285188
2304.000000	0.284419
2305.000000	0.284639
2306.000000	0.284155
2307.000000	0.283719
2308.000000	0.284931
2309.000000	0.284606
2310.000000	0.284814
2311.000000	0.284202
2312.000000	0.283976
2313.000000	0.285142
2314.000000	0.285008
2315.000000	0.287088
2316.000000	0.289488
2317.000000	0.287672
2318.000000	0.286738
2319.000000	0.286161
2320.000000	0.284957
2321.000000	0.286746
2322.000000	0.289319
2323.000000	0.290415
2324.000000	0.290506
2325.000000	0.289821
2326.000000	0.289779
2327.000000	0.290010
2328.000000	0.289693
2329.000000	0.290743
2330.000000	0.289278
2331.000000	0.286726
2332.000000	0.287982
2333.000000	0.289512
2334.000000	0.291778
2335.000000	0.293024
2336.000000	0.293439
2337.000000	0.292233
2338.000000	0.289245
2339.000000	0.287220
2340.000000	0.285359
2341.000000	0.285084
2342.000000	0.283512
2343.000000	0.284184
2344.000000	0.287605
2345.000000	0.288744
2346.000000	0.292256
2347.000000	0.294005
2348.000000	0.294553
2349.000000	0.292510
2350.000000	0.290147
2351.000000	0.286058
2352.000000	0.281340
2353.000000	0.281063
2354.000000	0.283033
2355.000000	0.285084
2356.000000	0.288413
2357.000000	0.288504
2358.000000	0.284773
2359.000000	0.283339
2360.000000	0.282756
2361.000000	0.282627
2362.000000	0.284764
2363.000000	0.284986
2364.000000	0.282930
2365.000000	0.282669
2366.000000	0.280266
2367.000000	0.276849
2368.000000	0.277079
2369.000000	0.276056
2370.000000	0.274136
2371.000000	0.277729
2372.000000	0.282050
2373.000000	0.281616
2374.000000	0.282566
2375.000000	0.280227
2376.000000	0.276774
2377.000000	0.275456
2378.000000	0.269812
2379.000000	0.266831
2380.000000	0.265045
2381.000000	0.262052
2382.000000	0.265867
2383.000000	0.269802
2384.000000	0.269844
2385.000000	0.273532
2386.000000	0.272255
2387.000000	0.269369
2388.000000	0.272558
2389.000000	0.268521
2390.000000	0.265595
2391.000000	0.266420
2392.000000	0.262728
2393.000000	0.266040
2394.000000	0.271462
2395.000000	0.272285
2396.000000	0.271134
2397.000000	0.262844
2398.000000	0.255021
2399.000000	0.252261
2400.000000	0.249777
2401.000000	0.252494
2402.000000	0.255772
2403.000000	0.255697
2404.000000	0.256355
2405.000000	0.258002
2406.000000	0.259558
2407.000000	0.255102
2408.000000	0.255463
2409.000000	0.261725
2410.000000	0.262397
2411.000000	0.266857
2412.000000	0.273529
2413.000000	0.270992
2414.000000	0.265904
2415.000000	0.265388
2416.000000	0.267584
2417.000000	0.274054
2418.000000	0.284968
2419.000000	0.284700
2420.000000	0.282037
2421.000000	0.279192
2422.000000	0.268888
2423.000000	0.271921
2424.000000	0.262789
2425.000000	0.248938
2426.000000	0.247996
2427.000000	0.243785
2428.000000	0.259270
2429.000000	0.271946
2430.000000	0.265617
2431.000000	0.249942
2432.000000	0.225280
2433.000000	0.219895
2434.000000	0.224553
2435.000000	0.239304
2436.000000	0.258176
2437.000000	0.252309
2438.000000	0.247144
2439.000000	0.251619
2440.000000	0.248327
2441.000000	0.249888
2442.000000	0.247394
2443.000000	0.234464
2444.000000	0.234630
2445.000000	0.236654
2446.000000	0.239573
2447.000000	0.248789
2448.000000	0.247498
2449.000000	0.250657
2450.000000	0.248523
2451.000000	0.233584
2452.000000	0.229339
2453.000000	0.223363
2454.000000	0.219489
2455.000000	0.230332
2456.000000	0.235921
2457.000000	0.240769
2458.000000	0.249938
2459.000000	0.258924
2460.000000	0.255412
2461.000000	0.246137
2462.000000	0.247537
2463.000000	0.219400
2464.000000	0.209840
2465.000000	0.225035
2466.000000	0.217584
2467.000000	0.227162
2468.000000	0.223320
2469.000000	0.209792
2470.000000	0.219968
2471.000000	0.231300
2472.000000	0.254918
2473.000000	0.255110
2474.000000	0.227752
2475.000000	0.215559
2476.000000	0.202538
2477.000000	0.190037
2478.000000	0.196998
2479.000000	0.197616
2480.000000	0.217673
2481.000000	0.250971
2482.000000	0.250851
2483.000000	0.259011
2484.000000	0.233811
2485.000000	0.189400
2486.000000	0.200060
2487.000000	0.208167
2488.000000	0.220067
2489.000000	0.281596
2490.000000	0.294190
2491.000000	0.269235
2492.000000	0.240499
2493.000000	0.173746
2494.000000	0.155945
2495.000000	0.151304
2496.000000	0.167838
2497.000000	0.244880
2498.000000	0.237961
2499.000000	0.188959
2500.000000	0.182284
