# Wavelength	NAu-1-20_HEX-30_FV7-50_00002.asd.rts.txt
350.000000	0.169072
351.000000	0.179823
352.000000	0.184013
353.000000	0.169771
354.000000	0.145008
355.000000	0.156650
356.000000	0.171671
357.000000	0.177205
358.000000	0.168731
359.000000	0.164203
360.000000	0.165541
361.000000	0.168745
362.000000	0.166451
363.000000	0.164572
364.000000	0.166426
365.000000	0.167613
366.000000	0.170432
367.000000	0.174202
368.000000	0.175893
369.000000	0.173388
370.000000	0.172949
371.000000	0.180662
372.000000	0.178330
373.000000	0.176347
374.000000	0.180573
375.000000	0.175174
376.000000	0.174848
377.000000	0.180544
378.000000	0.180277
379.000000	0.179911
380.000000	0.181135
381.000000	0.184423
382.000000	0.182812
383.000000	0.180134
384.000000	0.180153
385.000000	0.182178
386.000000	0.186424
387.000000	0.190421
388.000000	0.187741
389.000000	0.185453
390.000000	0.185203
391.000000	0.186475
392.000000	0.188718
393.000000	0.189824
394.000000	0.189226
395.000000	0.191904
396.000000	0.193099
397.000000	0.191903
398.000000	0.192477
399.000000	0.194622
400.000000	0.197005
401.000000	0.197643
402.000000	0.198169
403.000000	0.198971
404.000000	0.200184
405.000000	0.201354
406.000000	0.202107
407.000000	0.202609
408.000000	0.203819
409.000000	0.204927
410.000000	0.205639
411.000000	0.205902
412.000000	0.206502
413.000000	0.207127
414.000000	0.207398
415.000000	0.208111
416.000000	0.208440
417.000000	0.208231
418.000000	0.209100
419.000000	0.209751
420.000000	0.210000
421.000000	0.210540
422.000000	0.211101
423.000000	0.211477
424.000000	0.211642
425.000000	0.212664
426.000000	0.212816
427.000000	0.211392
428.000000	0.211855
429.000000	0.212553
430.000000	0.212810
431.000000	0.213162
432.000000	0.213490
433.000000	0.213638
434.000000	0.213534
435.000000	0.213620
436.000000	0.213730
437.000000	0.213656
438.000000	0.213660
439.000000	0.213820
440.000000	0.214095
441.000000	0.213845
442.000000	0.214191
443.000000	0.214825
444.000000	0.214553
445.000000	0.214051
446.000000	0.213941
447.000000	0.214474
448.000000	0.214388
449.000000	0.214595
450.000000	0.215642
451.000000	0.216487
452.000000	0.217304
453.000000	0.218167
454.000000	0.219251
455.000000	0.220713
456.000000	0.222344
457.000000	0.223617
458.000000	0.224700
459.000000	0.225660
460.000000	0.226605
461.000000	0.227598
462.000000	0.228642
463.000000	0.229519
464.000000	0.230041
465.000000	0.230618
466.000000	0.231250
467.000000	0.231805
468.000000	0.232679
469.000000	0.233387
470.000000	0.233560
471.000000	0.234072
472.000000	0.234506
473.000000	0.234698
474.000000	0.235406
475.000000	0.235869
476.000000	0.236102
477.000000	0.236643
478.000000	0.236902
479.000000	0.237070
480.000000	0.237307
481.000000	0.237646
482.000000	0.238104
483.000000	0.238487
484.000000	0.238987
485.000000	0.239204
486.000000	0.239282
487.000000	0.239881
488.000000	0.240242
489.000000	0.240440
490.000000	0.241063
491.000000	0.241636
492.000000	0.242031
493.000000	0.242145
494.000000	0.242420
495.000000	0.242850
496.000000	0.243360
497.000000	0.244085
498.000000	0.244526
499.000000	0.244740
500.000000	0.245291
501.000000	0.245828
502.000000	0.246279
503.000000	0.246601
504.000000	0.247016
505.000000	0.247429
506.000000	0.247760
507.000000	0.248250
508.000000	0.248803
509.000000	0.249315
510.000000	0.249831
511.000000	0.250311
512.000000	0.250812
513.000000	0.251425
514.000000	0.251975
515.000000	0.252519
516.000000	0.253110
517.000000	0.253649
518.000000	0.254166
519.000000	0.254641
520.000000	0.255233
521.000000	0.255690
522.000000	0.256043
523.000000	0.256778
524.000000	0.257421
525.000000	0.257926
526.000000	0.258496
527.000000	0.258959
528.000000	0.259450
529.000000	0.260148
530.000000	0.260701
531.000000	0.261203
532.000000	0.261677
533.000000	0.262233
534.000000	0.262844
535.000000	0.263471
536.000000	0.264092
537.000000	0.264665
538.000000	0.265216
539.000000	0.265789
540.000000	0.266375
541.000000	0.266921
542.000000	0.267435
543.000000	0.268001
544.000000	0.268603
545.000000	0.269183
546.000000	0.269857
547.000000	0.270469
548.000000	0.271044
549.000000	0.271639
550.000000	0.272183
551.000000	0.272720
552.000000	0.273262
553.000000	0.273739
554.000000	0.274288
555.000000	0.274972
556.000000	0.275531
557.000000	0.276063
558.000000	0.276699
559.000000	0.277256
560.000000	0.277757
561.000000	0.278288
562.000000	0.278826
563.000000	0.279412
564.000000	0.280032
565.000000	0.280561
566.000000	0.281092
567.000000	0.281605
568.000000	0.282072
569.000000	0.282535
570.000000	0.283043
571.000000	0.283543
572.000000	0.283904
573.000000	0.284325
574.000000	0.284765
575.000000	0.285167
576.000000	0.285612
577.000000	0.285974
578.000000	0.286250
579.000000	0.286664
580.000000	0.287093
581.000000	0.287457
582.000000	0.287727
583.000000	0.288065
584.000000	0.288444
585.000000	0.288729
586.000000	0.289042
587.000000	0.289349
588.000000	0.289602
589.000000	0.289925
590.000000	0.290226
591.000000	0.290449
592.000000	0.290633
593.000000	0.290864
594.000000	0.291145
595.000000	0.291407
596.000000	0.291702
597.000000	0.291980
598.000000	0.292075
599.000000	0.292233
600.000000	0.292415
601.000000	0.292501
602.000000	0.292714
603.000000	0.292869
604.000000	0.292935
605.000000	0.293139
606.000000	0.293307
607.000000	0.293462
608.000000	0.293737
609.000000	0.293889
610.000000	0.294004
611.000000	0.294218
612.000000	0.294347
613.000000	0.294418
614.000000	0.294516
615.000000	0.294692
616.000000	0.294779
617.000000	0.294778
618.000000	0.294969
619.000000	0.295122
620.000000	0.295228
621.000000	0.295409
622.000000	0.295545
623.000000	0.295638
624.000000	0.295726
625.000000	0.295933
626.000000	0.296035
627.000000	0.296013
628.000000	0.296194
629.000000	0.296419
630.000000	0.296518
631.000000	0.296586
632.000000	0.296715
633.000000	0.296915
634.000000	0.297132
635.000000	0.297241
636.000000	0.297384
637.000000	0.297593
638.000000	0.297693
639.000000	0.297848
640.000000	0.298084
641.000000	0.298155
642.000000	0.298305
643.000000	0.298513
644.000000	0.298686
645.000000	0.298811
646.000000	0.298952
647.000000	0.299105
648.000000	0.299144
649.000000	0.299201
650.000000	0.299322
651.000000	0.299516
652.000000	0.299721
653.000000	0.299944
654.000000	0.300138
655.000000	0.300320
656.000000	0.300535
657.000000	0.300756
658.000000	0.300957
659.000000	0.301191
660.000000	0.301446
661.000000	0.301626
662.000000	0.301793
663.000000	0.302002
664.000000	0.302206
665.000000	0.302408
666.000000	0.302593
667.000000	0.302734
668.000000	0.302943
669.000000	0.303151
670.000000	0.303331
671.000000	0.303565
672.000000	0.303783
673.000000	0.303975
674.000000	0.304202
675.000000	0.304431
676.000000	0.304630
677.000000	0.304805
678.000000	0.305070
679.000000	0.305329
680.000000	0.305523
681.000000	0.305698
682.000000	0.305956
683.000000	0.306221
684.000000	0.306471
685.000000	0.306625
686.000000	0.306779
687.000000	0.307027
688.000000	0.307341
689.000000	0.307609
690.000000	0.307829
691.000000	0.308249
692.000000	0.308543
693.000000	0.308729
694.000000	0.309055
695.000000	0.309344
696.000000	0.309597
697.000000	0.309874
698.000000	0.310114
699.000000	0.310331
700.000000	0.310560
701.000000	0.310848
702.000000	0.311152
703.000000	0.311395
704.000000	0.311491
705.000000	0.311764
706.000000	0.312132
707.000000	0.312429
708.000000	0.312699
709.000000	0.312954
710.000000	0.313224
711.000000	0.313516
712.000000	0.313816
713.000000	0.314119
714.000000	0.314355
715.000000	0.314646
716.000000	0.314967
717.000000	0.315202
718.000000	0.315392
719.000000	0.315514
720.000000	0.315606
721.000000	0.315910
722.000000	0.316178
723.000000	0.316386
724.000000	0.316639
725.000000	0.316849
726.000000	0.317078
727.000000	0.317274
728.000000	0.317475
729.000000	0.317714
730.000000	0.317954
731.000000	0.318181
732.000000	0.318378
733.000000	0.318596
734.000000	0.318851
735.000000	0.319042
736.000000	0.319266
737.000000	0.319429
738.000000	0.319527
739.000000	0.319661
740.000000	0.319755
741.000000	0.320010
742.000000	0.320194
743.000000	0.320280
744.000000	0.320557
745.000000	0.320717
746.000000	0.320834
747.000000	0.320993
748.000000	0.321196
749.000000	0.321347
750.000000	0.321385
751.000000	0.321510
752.000000	0.321612
753.000000	0.321710
754.000000	0.321900
755.000000	0.322124
756.000000	0.322309
757.000000	0.322350
758.000000	0.322370
759.000000	0.322470
760.000000	0.322593
761.000000	0.322666
762.000000	0.322760
763.000000	0.322833
764.000000	0.322867
765.000000	0.322931
766.000000	0.322999
767.000000	0.323021
768.000000	0.322982
769.000000	0.322982
770.000000	0.323048
771.000000	0.323090
772.000000	0.323166
773.000000	0.323233
774.000000	0.323347
775.000000	0.323450
776.000000	0.323519
777.000000	0.323522
778.000000	0.323435
779.000000	0.323387
780.000000	0.323407
781.000000	0.323406
782.000000	0.323374
783.000000	0.323377
784.000000	0.323317
785.000000	0.323298
786.000000	0.323228
787.000000	0.323113
788.000000	0.323209
789.000000	0.323251
790.000000	0.323254
791.000000	0.323401
792.000000	0.323410
793.000000	0.323334
794.000000	0.323272
795.000000	0.323235
796.000000	0.323159
797.000000	0.323056
798.000000	0.323032
799.000000	0.323034
800.000000	0.323043
801.000000	0.323048
802.000000	0.323023
803.000000	0.322908
804.000000	0.322756
805.000000	0.322706
806.000000	0.322627
807.000000	0.322548
808.000000	0.322416
809.000000	0.322311
810.000000	0.322246
811.000000	0.322204
812.000000	0.322192
813.000000	0.322096
814.000000	0.321967
815.000000	0.322029
816.000000	0.321948
817.000000	0.321820
818.000000	0.321722
819.000000	0.321650
820.000000	0.321569
821.000000	0.321443
822.000000	0.321393
823.000000	0.321307
824.000000	0.321201
825.000000	0.321226
826.000000	0.321144
827.000000	0.320943
828.000000	0.320729
829.000000	0.320650
830.000000	0.320571
831.000000	0.320504
832.000000	0.320358
833.000000	0.320239
834.000000	0.320092
835.000000	0.319927
836.000000	0.319878
837.000000	0.319802
838.000000	0.319707
839.000000	0.319675
840.000000	0.319550
841.000000	0.319398
842.000000	0.319262
843.000000	0.319103
844.000000	0.318989
845.000000	0.318908
846.000000	0.318836
847.000000	0.318743
848.000000	0.318589
849.000000	0.318395
850.000000	0.318240
851.000000	0.318147
852.000000	0.318126
853.000000	0.318057
854.000000	0.317999
855.000000	0.318016
856.000000	0.317963
857.000000	0.317763
858.000000	0.317578
859.000000	0.317392
860.000000	0.317129
861.000000	0.316964
862.000000	0.316853
863.000000	0.316623
864.000000	0.316494
865.000000	0.316381
866.000000	0.316218
867.000000	0.315904
868.000000	0.315747
869.000000	0.315644
870.000000	0.315454
871.000000	0.315257
872.000000	0.315052
873.000000	0.314810
874.000000	0.314694
875.000000	0.314522
876.000000	0.314338
877.000000	0.314190
878.000000	0.313986
879.000000	0.313790
880.000000	0.313546
881.000000	0.313459
882.000000	0.313367
883.000000	0.313225
884.000000	0.312988
885.000000	0.312837
886.000000	0.312668
887.000000	0.312464
888.000000	0.312337
889.000000	0.312158
890.000000	0.311857
891.000000	0.311620
892.000000	0.311404
893.000000	0.311214
894.000000	0.311149
895.000000	0.311053
896.000000	0.310789
897.000000	0.310439
898.000000	0.310160
899.000000	0.309982
900.000000	0.309839
901.000000	0.309650
902.000000	0.309456
903.000000	0.309450
904.000000	0.309517
905.000000	0.309376
906.000000	0.309151
907.000000	0.308800
908.000000	0.308429
909.000000	0.308123
910.000000	0.307894
911.000000	0.307744
912.000000	0.307663
913.000000	0.307552
914.000000	0.307344
915.000000	0.307133
916.000000	0.306956
917.000000	0.306702
918.000000	0.306495
919.000000	0.306359
920.000000	0.306011
921.000000	0.305793
922.000000	0.305776
923.000000	0.305822
924.000000	0.305644
925.000000	0.305366
926.000000	0.305119
927.000000	0.304834
928.000000	0.304543
929.000000	0.304250
930.000000	0.303974
931.000000	0.303819
932.000000	0.303605
933.000000	0.303351
934.000000	0.303191
935.000000	0.303001
936.000000	0.302780
937.000000	0.302501
938.000000	0.302426
939.000000	0.302331
940.000000	0.302135
941.000000	0.301997
942.000000	0.301700
943.000000	0.301521
944.000000	0.301488
945.000000	0.301524
946.000000	0.301321
947.000000	0.301020
948.000000	0.300820
949.000000	0.300773
950.000000	0.300698
951.000000	0.300491
952.000000	0.300269
953.000000	0.300091
954.000000	0.299934
955.000000	0.299693
956.000000	0.299392
957.000000	0.299156
958.000000	0.298956
959.000000	0.298810
960.000000	0.298562
961.000000	0.298440
962.000000	0.298334
963.000000	0.297804
964.000000	0.297731
965.000000	0.297822
966.000000	0.297610
967.000000	0.297497
968.000000	0.297168
969.000000	0.296801
970.000000	0.296824
971.000000	0.296554
972.000000	0.296193
973.000000	0.295967
974.000000	0.296195
975.000000	0.295908
976.000000	0.295568
977.000000	0.295636
978.000000	0.295708
979.000000	0.295421
980.000000	0.294988
981.000000	0.295186
982.000000	0.294935
983.000000	0.294641
984.000000	0.294534
985.000000	0.294396
986.000000	0.294177
987.000000	0.294073
988.000000	0.294062
989.000000	0.293955
990.000000	0.293873
991.000000	0.293766
992.000000	0.293635
993.000000	0.293732
994.000000	0.293658
995.000000	0.293533
996.000000	0.293452
997.000000	0.293153
998.000000	0.293207
999.000000	0.293676
1000.000000	0.293512
1001.000000	0.293929
1002.000000	0.293351
1003.000000	0.293115
1004.000000	0.292924
1005.000000	0.292713
1006.000000	0.292624
1007.000000	0.292797
1008.000000	0.292786
1009.000000	0.292863
1010.000000	0.293015
1011.000000	0.293168
1012.000000	0.293569
1013.000000	0.293620
1014.000000	0.293141
1015.000000	0.293148
1016.000000	0.293539
1017.000000	0.293412
1018.000000	0.293372
1019.000000	0.293361
1020.000000	0.292994
1021.000000	0.292737
1022.000000	0.293241
1023.000000	0.293368
1024.000000	0.293228
1025.000000	0.292962
1026.000000	0.292658
1027.000000	0.291938
1028.000000	0.291650
1029.000000	0.292268
1030.000000	0.292667
1031.000000	0.292822
1032.000000	0.292937
1033.000000	0.292555
1034.000000	0.292718
1035.000000	0.293272
1036.000000	0.293608
1037.000000	0.294189
1038.000000	0.294326
1039.000000	0.294192
1040.000000	0.294124
1041.000000	0.293862
1042.000000	0.294101
1043.000000	0.294615
1044.000000	0.294413
1045.000000	0.294449
1046.000000	0.294926
1047.000000	0.295127
1048.000000	0.295192
1049.000000	0.295611
1050.000000	0.296182
1051.000000	0.296280
1052.000000	0.296317
1053.000000	0.296237
1054.000000	0.295939
1055.000000	0.295948
1056.000000	0.296061
1057.000000	0.296273
1058.000000	0.297114
1059.000000	0.297313
1060.000000	0.297678
1061.000000	0.298462
1062.000000	0.298586
1063.000000	0.298958
1064.000000	0.299225
1065.000000	0.299467
1066.000000	0.299724
1067.000000	0.299963
1068.000000	0.300063
1069.000000	0.300072
1070.000000	0.300150
1071.000000	0.300091
1072.000000	0.300153
1073.000000	0.300211
1074.000000	0.300745
1075.000000	0.301276
1076.000000	0.301621
1077.000000	0.301958
1078.000000	0.302195
1079.000000	0.302487
1080.000000	0.302731
1081.000000	0.302845
1082.000000	0.303059
1083.000000	0.303303
1084.000000	0.303302
1085.000000	0.303591
1086.000000	0.304264
1087.000000	0.304588
1088.000000	0.304664
1089.000000	0.304892
1090.000000	0.305105
1091.000000	0.305111
1092.000000	0.305392
1093.000000	0.305977
1094.000000	0.306259
1095.000000	0.306433
1096.000000	0.306611
1097.000000	0.306602
1098.000000	0.306846
1099.000000	0.307194
1100.000000	0.307511
1101.000000	0.307919
1102.000000	0.308174
1103.000000	0.308181
1104.000000	0.308431
1105.000000	0.308754
1106.000000	0.309099
1107.000000	0.309535
1108.000000	0.309932
1109.000000	0.310481
1110.000000	0.310856
1111.000000	0.311065
1112.000000	0.311070
1113.000000	0.311427
1114.000000	0.311852
1115.000000	0.312065
1116.000000	0.312446
1117.000000	0.312696
1118.000000	0.312519
1119.000000	0.312633
1120.000000	0.313057
1121.000000	0.313276
1122.000000	0.313540
1123.000000	0.313885
1124.000000	0.313847
1125.000000	0.314083
1126.000000	0.314391
1127.000000	0.314646
1128.000000	0.314935
1129.000000	0.315410
1130.000000	0.315740
1131.000000	0.316101
1132.000000	0.316177
1133.000000	0.316136
1134.000000	0.316203
1135.000000	0.316020
1136.000000	0.315997
1137.000000	0.315997
1138.000000	0.316177
1139.000000	0.316765
1140.000000	0.316982
1141.000000	0.317004
1142.000000	0.317221
1143.000000	0.317057
1144.000000	0.317278
1145.000000	0.317873
1146.000000	0.318247
1147.000000	0.318475
1148.000000	0.318479
1149.000000	0.318652
1150.000000	0.318765
1151.000000	0.318950
1152.000000	0.319226
1153.000000	0.319397
1154.000000	0.319459
1155.000000	0.319527
1156.000000	0.319572
1157.000000	0.319655
1158.000000	0.319685
1159.000000	0.319722
1160.000000	0.319731
1161.000000	0.319781
1162.000000	0.319908
1163.000000	0.320145
1164.000000	0.320250
1165.000000	0.320342
1166.000000	0.320388
1167.000000	0.320274
1168.000000	0.320246
1169.000000	0.320281
1170.000000	0.320294
1171.000000	0.320266
1172.000000	0.320421
1173.000000	0.320718
1174.000000	0.320813
1175.000000	0.320859
1176.000000	0.320919
1177.000000	0.320958
1178.000000	0.320948
1179.000000	0.320930
1180.000000	0.320947
1181.000000	0.321041
1182.000000	0.321004
1183.000000	0.321101
1184.000000	0.321245
1185.000000	0.321340
1186.000000	0.321394
1187.000000	0.321388
1188.000000	0.321326
1189.000000	0.321344
1190.000000	0.321377
1191.000000	0.321377
1192.000000	0.321575
1193.000000	0.321770
1194.000000	0.321708
1195.000000	0.321799
1196.000000	0.321993
1197.000000	0.322092
1198.000000	0.322203
1199.000000	0.322314
1200.000000	0.322423
1201.000000	0.322432
1202.000000	0.322414
1203.000000	0.322512
1204.000000	0.322558
1205.000000	0.322706
1206.000000	0.322739
1207.000000	0.322849
1208.000000	0.322864
1209.000000	0.322824
1210.000000	0.322871
1211.000000	0.323016
1212.000000	0.323039
1213.000000	0.323106
1214.000000	0.323109
1215.000000	0.322928
1216.000000	0.322886
1217.000000	0.322843
1218.000000	0.322795
1219.000000	0.322837
1220.000000	0.322898
1221.000000	0.322844
1222.000000	0.322871
1223.000000	0.322886
1224.000000	0.322927
1225.000000	0.322839
1226.000000	0.322733
1227.000000	0.322761
1228.000000	0.322783
1229.000000	0.322807
1230.000000	0.322995
1231.000000	0.322968
1232.000000	0.322883
1233.000000	0.322972
1234.000000	0.323089
1235.000000	0.323132
1236.000000	0.323078
1237.000000	0.323168
1238.000000	0.323258
1239.000000	0.323289
1240.000000	0.323405
1241.000000	0.323442
1242.000000	0.323282
1243.000000	0.323304
1244.000000	0.323415
1245.000000	0.323406
1246.000000	0.323498
1247.000000	0.323658
1248.000000	0.323700
1249.000000	0.323840
1250.000000	0.323937
1251.000000	0.323848
1252.000000	0.323812
1253.000000	0.323831
1254.000000	0.323771
1255.000000	0.323607
1256.000000	0.323537
1257.000000	0.323405
1258.000000	0.323466
1259.000000	0.323759
1260.000000	0.323843
1261.000000	0.323790
1262.000000	0.323823
1263.000000	0.323820
1264.000000	0.323719
1265.000000	0.323849
1266.000000	0.323883
1267.000000	0.323778
1268.000000	0.323737
1269.000000	0.323629
1270.000000	0.323638
1271.000000	0.323532
1272.000000	0.323380
1273.000000	0.323458
1274.000000	0.323583
1275.000000	0.323619
1276.000000	0.323799
1277.000000	0.323902
1278.000000	0.323748
1279.000000	0.323699
1280.000000	0.323662
1281.000000	0.323599
1282.000000	0.323603
1283.000000	0.323594
1284.000000	0.323475
1285.000000	0.323440
1286.000000	0.323385
1287.000000	0.323279
1288.000000	0.323413
1289.000000	0.323539
1290.000000	0.323559
1291.000000	0.323685
1292.000000	0.323684
1293.000000	0.323623
1294.000000	0.323637
1295.000000	0.323592
1296.000000	0.323598
1297.000000	0.323710
1298.000000	0.323794
1299.000000	0.323914
1300.000000	0.324107
1301.000000	0.324162
1302.000000	0.324096
1303.000000	0.324080
1304.000000	0.323937
1305.000000	0.323645
1306.000000	0.323507
1307.000000	0.323465
1308.000000	0.323435
1309.000000	0.323469
1310.000000	0.323437
1311.000000	0.323405
1312.000000	0.323351
1313.000000	0.323290
1314.000000	0.323404
1315.000000	0.323332
1316.000000	0.323189
1317.000000	0.323109
1318.000000	0.323012
1319.000000	0.323056
1320.000000	0.323136
1321.000000	0.323062
1322.000000	0.322776
1323.000000	0.322541
1324.000000	0.322425
1325.000000	0.322290
1326.000000	0.322328
1327.000000	0.322341
1328.000000	0.322322
1329.000000	0.322205
1330.000000	0.321989
1331.000000	0.321884
1332.000000	0.321841
1333.000000	0.321718
1334.000000	0.321687
1335.000000	0.321697
1336.000000	0.321632
1337.000000	0.321629
1338.000000	0.321710
1339.000000	0.321656
1340.000000	0.321555
1341.000000	0.321403
1342.000000	0.321241
1343.000000	0.321154
1344.000000	0.320978
1345.000000	0.320790
1346.000000	0.320825
1347.000000	0.320656
1348.000000	0.320460
1349.000000	0.320333
1350.000000	0.320108
1351.000000	0.319870
1352.000000	0.319781
1353.000000	0.319728
1354.000000	0.319606
1355.000000	0.319468
1356.000000	0.319416
1357.000000	0.319256
1358.000000	0.319193
1359.000000	0.319221
1360.000000	0.319157
1361.000000	0.319108
1362.000000	0.319051
1363.000000	0.318909
1364.000000	0.318822
1365.000000	0.318782
1366.000000	0.318692
1367.000000	0.318593
1368.000000	0.318366
1369.000000	0.318376
1370.000000	0.318194
1371.000000	0.317889
1372.000000	0.317750
1373.000000	0.317483
1374.000000	0.317306
1375.000000	0.317201
1376.000000	0.317171
1377.000000	0.317086
1378.000000	0.316834
1379.000000	0.316561
1380.000000	0.316242
1381.000000	0.315904
1382.000000	0.315786
1383.000000	0.315766
1384.000000	0.315478
1385.000000	0.315176
1386.000000	0.314901
1387.000000	0.314469
1388.000000	0.314119
1389.000000	0.313871
1390.000000	0.313462
1391.000000	0.313049
1392.000000	0.312752
1393.000000	0.312313
1394.000000	0.311793
1395.000000	0.311388
1396.000000	0.310975
1397.000000	0.310486
1398.000000	0.310068
1399.000000	0.309518
1400.000000	0.308728
1401.000000	0.308129
1402.000000	0.307694
1403.000000	0.306985
1404.000000	0.306385
1405.000000	0.305869
1406.000000	0.305138
1407.000000	0.304701
1408.000000	0.304280
1409.000000	0.303628
1410.000000	0.303039
1411.000000	0.302336
1412.000000	0.301607
1413.000000	0.301178
1414.000000	0.300812
1415.000000	0.300302
1416.000000	0.299795
1417.000000	0.299371
1418.000000	0.298931
1419.000000	0.298569
1420.000000	0.298184
1421.000000	0.297806
1422.000000	0.297467
1423.000000	0.297228
1424.000000	0.296829
1425.000000	0.296452
1426.000000	0.296045
1427.000000	0.295582
1428.000000	0.295332
1429.000000	0.295096
1430.000000	0.294790
1431.000000	0.294507
1432.000000	0.294165
1433.000000	0.293759
1434.000000	0.293510
1435.000000	0.293364
1436.000000	0.293185
1437.000000	0.293058
1438.000000	0.292905
1439.000000	0.292738
1440.000000	0.292745
1441.000000	0.292937
1442.000000	0.293029
1443.000000	0.293103
1444.000000	0.293124
1445.000000	0.293122
1446.000000	0.293163
1447.000000	0.293159
1448.000000	0.293211
1449.000000	0.293275
1450.000000	0.293223
1451.000000	0.293233
1452.000000	0.293176
1453.000000	0.293018
1454.000000	0.292892
1455.000000	0.292854
1456.000000	0.293001
1457.000000	0.293169
1458.000000	0.293258
1459.000000	0.293286
1460.000000	0.293188
1461.000000	0.293018
1462.000000	0.292913
1463.000000	0.292881
1464.000000	0.292837
1465.000000	0.292802
1466.000000	0.292737
1467.000000	0.292585
1468.000000	0.292464
1469.000000	0.292457
1470.000000	0.292437
1471.000000	0.292513
1472.000000	0.292632
1473.000000	0.292841
1474.000000	0.292981
1475.000000	0.293141
1476.000000	0.293389
1477.000000	0.293506
1478.000000	0.293684
1479.000000	0.293968
1480.000000	0.294186
1481.000000	0.294400
1482.000000	0.294706
1483.000000	0.294929
1484.000000	0.295112
1485.000000	0.295299
1486.000000	0.295399
1487.000000	0.295615
1488.000000	0.295921
1489.000000	0.296146
1490.000000	0.296283
1491.000000	0.296468
1492.000000	0.296556
1493.000000	0.296716
1494.000000	0.296877
1495.000000	0.297061
1496.000000	0.297296
1497.000000	0.297466
1498.000000	0.297639
1499.000000	0.297817
1500.000000	0.297948
1501.000000	0.298041
1502.000000	0.298175
1503.000000	0.298358
1504.000000	0.298570
1505.000000	0.298767
1506.000000	0.298876
1507.000000	0.299003
1508.000000	0.299185
1509.000000	0.299323
1510.000000	0.299403
1511.000000	0.299566
1512.000000	0.299749
1513.000000	0.299831
1514.000000	0.300053
1515.000000	0.300251
1516.000000	0.300318
1517.000000	0.300276
1518.000000	0.300231
1519.000000	0.300286
1520.000000	0.300355
1521.000000	0.300450
1522.000000	0.300650
1523.000000	0.300755
1524.000000	0.300719
1525.000000	0.300829
1526.000000	0.300911
1527.000000	0.300888
1528.000000	0.301028
1529.000000	0.301216
1530.000000	0.301291
1531.000000	0.301433
1532.000000	0.301509
1533.000000	0.301473
1534.000000	0.301434
1535.000000	0.301398
1536.000000	0.301476
1537.000000	0.301601
1538.000000	0.301657
1539.000000	0.301746
1540.000000	0.301675
1541.000000	0.301546
1542.000000	0.301572
1543.000000	0.301584
1544.000000	0.301683
1545.000000	0.301841
1546.000000	0.301887
1547.000000	0.301910
1548.000000	0.301839
1549.000000	0.301759
1550.000000	0.301736
1551.000000	0.301719
1552.000000	0.301776
1553.000000	0.301778
1554.000000	0.301766
1555.000000	0.301883
1556.000000	0.301962
1557.000000	0.301942
1558.000000	0.301928
1559.000000	0.301802
1560.000000	0.301694
1561.000000	0.301589
1562.000000	0.301539
1563.000000	0.301544
1564.000000	0.301509
1565.000000	0.301499
1566.000000	0.301436
1567.000000	0.301429
1568.000000	0.301433
1569.000000	0.301501
1570.000000	0.301485
1571.000000	0.301428
1572.000000	0.301379
1573.000000	0.301298
1574.000000	0.301301
1575.000000	0.301340
1576.000000	0.301376
1577.000000	0.301472
1578.000000	0.301477
1579.000000	0.301490
1580.000000	0.301564
1581.000000	0.301685
1582.000000	0.301755
1583.000000	0.301835
1584.000000	0.301834
1585.000000	0.301855
1586.000000	0.301876
1587.000000	0.301890
1588.000000	0.301921
1589.000000	0.301969
1590.000000	0.301954
1591.000000	0.301872
1592.000000	0.301936
1593.000000	0.302106
1594.000000	0.302128
1595.000000	0.302247
1596.000000	0.302301
1597.000000	0.302217
1598.000000	0.302212
1599.000000	0.302313
1600.000000	0.302301
1601.000000	0.302322
1602.000000	0.302281
1603.000000	0.302208
1604.000000	0.302133
1605.000000	0.301973
1606.000000	0.301949
1607.000000	0.302071
1608.000000	0.302152
1609.000000	0.302395
1610.000000	0.302456
1611.000000	0.302403
1612.000000	0.302386
1613.000000	0.302404
1614.000000	0.302383
1615.000000	0.302451
1616.000000	0.302504
1617.000000	0.302403
1618.000000	0.302471
1619.000000	0.302637
1620.000000	0.302701
1621.000000	0.302842
1622.000000	0.303004
1623.000000	0.303056
1624.000000	0.303170
1625.000000	0.303226
1626.000000	0.303267
1627.000000	0.303334
1628.000000	0.303442
1629.000000	0.303573
1630.000000	0.303707
1631.000000	0.303761
1632.000000	0.303800
1633.000000	0.303834
1634.000000	0.303911
1635.000000	0.304081
1636.000000	0.304154
1637.000000	0.304215
1638.000000	0.304254
1639.000000	0.304290
1640.000000	0.304269
1641.000000	0.304299
1642.000000	0.304331
1643.000000	0.304341
1644.000000	0.304332
1645.000000	0.304327
1646.000000	0.304282
1647.000000	0.304189
1648.000000	0.304183
1649.000000	0.304347
1650.000000	0.304418
1651.000000	0.304528
1652.000000	0.304615
1653.000000	0.304617
1654.000000	0.304631
1655.000000	0.304573
1656.000000	0.304485
1657.000000	0.304427
1658.000000	0.304383
1659.000000	0.304443
1660.000000	0.304538
1661.000000	0.304549
1662.000000	0.304603
1663.000000	0.304723
1664.000000	0.304748
1665.000000	0.304723
1666.000000	0.304806
1667.000000	0.304796
1668.000000	0.304846
1669.000000	0.304944
1670.000000	0.304984
1671.000000	0.305126
1672.000000	0.305253
1673.000000	0.305353
1674.000000	0.305440
1675.000000	0.305434
1676.000000	0.305496
1677.000000	0.305569
1678.000000	0.305534
1679.000000	0.305544
1680.000000	0.305336
1681.000000	0.305199
1682.000000	0.305333
1683.000000	0.305352
1684.000000	0.305376
1685.000000	0.305486
1686.000000	0.305435
1687.000000	0.305418
1688.000000	0.305526
1689.000000	0.305647
1690.000000	0.305592
1691.000000	0.305724
1692.000000	0.305893
1693.000000	0.305862
1694.000000	0.305940
1695.000000	0.306024
1696.000000	0.305765
1697.000000	0.305684
1698.000000	0.305699
1699.000000	0.305759
1700.000000	0.306024
1701.000000	0.306247
1702.000000	0.306280
1703.000000	0.306293
1704.000000	0.306344
1705.000000	0.306379
1706.000000	0.306448
1707.000000	0.306490
1708.000000	0.306567
1709.000000	0.306448
1710.000000	0.306094
1711.000000	0.306084
1712.000000	0.306232
1713.000000	0.306292
1714.000000	0.306690
1715.000000	0.306832
1716.000000	0.306708
1717.000000	0.306654
1718.000000	0.306481
1719.000000	0.306467
1720.000000	0.306582
1721.000000	0.306634
1722.000000	0.306762
1723.000000	0.306898
1724.000000	0.307089
1725.000000	0.307145
1726.000000	0.307112
1727.000000	0.307064
1728.000000	0.306725
1729.000000	0.306606
1730.000000	0.306740
1731.000000	0.306844
1732.000000	0.307043
1733.000000	0.307226
1734.000000	0.307339
1735.000000	0.307397
1736.000000	0.307357
1737.000000	0.307419
1738.000000	0.307514
1739.000000	0.307546
1740.000000	0.307600
1741.000000	0.307581
1742.000000	0.307489
1743.000000	0.307429
1744.000000	0.307353
1745.000000	0.307270
1746.000000	0.307120
1747.000000	0.307093
1748.000000	0.307063
1749.000000	0.307148
1750.000000	0.307117
1751.000000	0.307211
1752.000000	0.307279
1753.000000	0.306950
1754.000000	0.306927
1755.000000	0.307148
1756.000000	0.307129
1757.000000	0.307087
1758.000000	0.307147
1759.000000	0.306989
1760.000000	0.307003
1761.000000	0.307322
1762.000000	0.307431
1763.000000	0.307421
1764.000000	0.307486
1765.000000	0.307532
1766.000000	0.307541
1767.000000	0.307395
1768.000000	0.307430
1769.000000	0.307685
1770.000000	0.307761
1771.000000	0.307807
1772.000000	0.307925
1773.000000	0.307860
1774.000000	0.307913
1775.000000	0.308278
1776.000000	0.308354
1777.000000	0.308203
1778.000000	0.308138
1779.000000	0.307981
1780.000000	0.308015
1781.000000	0.308129
1782.000000	0.308120
1783.000000	0.308222
1784.000000	0.308209
1785.000000	0.308001
1786.000000	0.307852
1787.000000	0.307891
1788.000000	0.307870
1789.000000	0.307922
1790.000000	0.307982
1791.000000	0.307974
1792.000000	0.308017
1793.000000	0.308013
1794.000000	0.308001
1795.000000	0.308006
1796.000000	0.307877
1797.000000	0.307903
1798.000000	0.308071
1799.000000	0.308149
1800.000000	0.308337
1801.000000	0.308632
1802.000000	0.308357
1803.000000	0.307568
1804.000000	0.307649
1805.000000	0.307627
1806.000000	0.307802
1807.000000	0.309235
1808.000000	0.309609
1809.000000	0.309168
1810.000000	0.308861
1811.000000	0.308566
1812.000000	0.307628
1813.000000	0.307734
1814.000000	0.308586
1815.000000	0.308951
1816.000000	0.310257
1817.000000	0.310362
1818.000000	0.309946
1819.000000	0.308671
1820.000000	0.308463
1821.000000	0.307889
1822.000000	0.307557
1823.000000	0.308015
1824.000000	0.307661
1825.000000	0.306027
1826.000000	0.305930
1827.000000	0.306369
1828.000000	0.306549
1829.000000	0.308187
1830.000000	0.309026
1831.000000	0.309341
1832.000000	0.309181
1833.000000	0.309088
1834.000000	0.308421
1835.000000	0.308132
1836.000000	0.307655
1837.000000	0.307498
1838.000000	0.307470
1839.000000	0.307426
1840.000000	0.307488
1841.000000	0.307741
1842.000000	0.307779
1843.000000	0.307583
1844.000000	0.307808
1845.000000	0.308355
1846.000000	0.308262
1847.000000	0.308174
1848.000000	0.307231
1849.000000	0.306076
1850.000000	0.305812
1851.000000	0.305574
1852.000000	0.305665
1853.000000	0.305665
1854.000000	0.305653
1855.000000	0.305433
1856.000000	0.304818
1857.000000	0.305028
1858.000000	0.304631
1859.000000	0.304590
1860.000000	0.305118
1861.000000	0.304820
1862.000000	0.304413
1863.000000	0.303990
1864.000000	0.303423
1865.000000	0.302172
1866.000000	0.301570
1867.000000	0.301536
1868.000000	0.301020
1869.000000	0.299685
1870.000000	0.298721
1871.000000	0.297778
1872.000000	0.296177
1873.000000	0.295509
1874.000000	0.296129
1875.000000	0.295751
1876.000000	0.294859
1877.000000	0.294216
1878.000000	0.293211
1879.000000	0.291326
1880.000000	0.289432
1881.000000	0.287467
1882.000000	0.285830
1883.000000	0.284284
1884.000000	0.282882
1885.000000	0.282186
1886.000000	0.280816
1887.000000	0.279251
1888.000000	0.276840
1889.000000	0.274935
1890.000000	0.272342
1891.000000	0.269466
1892.000000	0.267732
1893.000000	0.265934
1894.000000	0.263496
1895.000000	0.261247
1896.000000	0.259411
1897.000000	0.257150
1898.000000	0.254723
1899.000000	0.252722
1900.000000	0.250535
1901.000000	0.248771
1902.000000	0.246382
1903.000000	0.243979
1904.000000	0.242090
1905.000000	0.239441
1906.000000	0.237534
1907.000000	0.236031
1908.000000	0.235233
1909.000000	0.233914
1910.000000	0.232790
1911.000000	0.230975
1912.000000	0.228626
1913.000000	0.227610
1914.000000	0.226801
1915.000000	0.225984
1916.000000	0.225724
1917.000000	0.225195
1918.000000	0.224443
1919.000000	0.223782
1920.000000	0.223197
1921.000000	0.222822
1922.000000	0.222514
1923.000000	0.222173
1924.000000	0.222184
1925.000000	0.222136
1926.000000	0.221781
1927.000000	0.221256
1928.000000	0.220956
1929.000000	0.220744
1930.000000	0.220575
1931.000000	0.220570
1932.000000	0.221039
1933.000000	0.221468
1934.000000	0.221719
1935.000000	0.222286
1936.000000	0.222540
1937.000000	0.222595
1938.000000	0.222940
1939.000000	0.222873
1940.000000	0.222331
1941.000000	0.222325
1942.000000	0.222323
1943.000000	0.221848
1944.000000	0.222271
1945.000000	0.222332
1946.000000	0.222322
1947.000000	0.222446
1948.000000	0.221872
1949.000000	0.221527
1950.000000	0.221559
1951.000000	0.221433
1952.000000	0.221465
1953.000000	0.221606
1954.000000	0.221414
1955.000000	0.221051
1956.000000	0.220755
1957.000000	0.220734
1958.000000	0.220828
1959.000000	0.220750
1960.000000	0.220698
1961.000000	0.220702
1962.000000	0.220642
1963.000000	0.220690
1964.000000	0.220771
1965.000000	0.220442
1966.000000	0.219583
1967.000000	0.218993
1968.000000	0.218659
1969.000000	0.218733
1970.000000	0.219664
1971.000000	0.220672
1972.000000	0.221629
1973.000000	0.221904
1974.000000	0.221753
1975.000000	0.221619
1976.000000	0.221150
1977.000000	0.220283
1978.000000	0.219847
1979.000000	0.219791
1980.000000	0.220307
1981.000000	0.221439
1982.000000	0.222813
1983.000000	0.224462
1984.000000	0.225323
1985.000000	0.225713
1986.000000	0.225969
1987.000000	0.225995
1988.000000	0.225501
1989.000000	0.225117
1990.000000	0.224914
1991.000000	0.224558
1992.000000	0.224651
1993.000000	0.225004
1994.000000	0.225771
1995.000000	0.227008
1996.000000	0.227870
1997.000000	0.228668
1998.000000	0.229628
1999.000000	0.230287
2000.000000	0.230617
2001.000000	0.231056
2002.000000	0.231307
2003.000000	0.231553
2004.000000	0.231778
2005.000000	0.231880
2006.000000	0.232472
2007.000000	0.233431
2008.000000	0.234235
2009.000000	0.235123
2010.000000	0.236082
2011.000000	0.237185
2012.000000	0.237866
2013.000000	0.238398
2014.000000	0.238684
2015.000000	0.238904
2016.000000	0.238841
2017.000000	0.239276
2018.000000	0.240212
2019.000000	0.240973
2020.000000	0.241530
2021.000000	0.242000
2022.000000	0.242224
2023.000000	0.242440
2024.000000	0.242573
2025.000000	0.242756
2026.000000	0.242630
2027.000000	0.242657
2028.000000	0.243056
2029.000000	0.243914
2030.000000	0.245447
2031.000000	0.246870
2032.000000	0.248074
2033.000000	0.249203
2034.000000	0.249745
2035.000000	0.249614
2036.000000	0.249720
2037.000000	0.249393
2038.000000	0.249705
2039.000000	0.250503
2040.000000	0.251023
2041.000000	0.251902
2042.000000	0.253187
2043.000000	0.253200
2044.000000	0.253491
2045.000000	0.254134
2046.000000	0.253367
2047.000000	0.253590
2048.000000	0.254568
2049.000000	0.255090
2050.000000	0.255439
2051.000000	0.255849
2052.000000	0.255756
2053.000000	0.255765
2054.000000	0.256263
2055.000000	0.256310
2056.000000	0.255898
2057.000000	0.256483
2058.000000	0.256129
2059.000000	0.256260
2060.000000	0.256715
2061.000000	0.257483
2062.000000	0.257879
2063.000000	0.258653
2064.000000	0.258785
2065.000000	0.258638
2066.000000	0.258752
2067.000000	0.258893
2068.000000	0.259321
2069.000000	0.260073
2070.000000	0.260472
2071.000000	0.260864
2072.000000	0.261424
2073.000000	0.261869
2074.000000	0.261996
2075.000000	0.262356
2076.000000	0.262899
2077.000000	0.263124
2078.000000	0.263265
2079.000000	0.263492
2080.000000	0.263336
2081.000000	0.263710
2082.000000	0.264527
2083.000000	0.265150
2084.000000	0.266072
2085.000000	0.266914
2086.000000	0.267303
2087.000000	0.267703
2088.000000	0.267822
2089.000000	0.267742
2090.000000	0.267891
2091.000000	0.267978
2092.000000	0.268419
2093.000000	0.269449
2094.000000	0.269995
2095.000000	0.270583
2096.000000	0.271168
2097.000000	0.271505
2098.000000	0.271339
2099.000000	0.272580
2100.000000	0.273002
2101.000000	0.273443
2102.000000	0.273841
2103.000000	0.272917
2104.000000	0.272644
2105.000000	0.272716
2106.000000	0.272943
2107.000000	0.273402
2108.000000	0.274484
2109.000000	0.275136
2110.000000	0.275593
2111.000000	0.276023
2112.000000	0.276058
2113.000000	0.276680
2114.000000	0.277367
2115.000000	0.276839
2116.000000	0.276720
2117.000000	0.276285
2118.000000	0.275198
2119.000000	0.275741
2120.000000	0.276075
2121.000000	0.276755
2122.000000	0.277237
2123.000000	0.278213
2124.000000	0.278288
2125.000000	0.277808
2126.000000	0.277577
2127.000000	0.276694
2128.000000	0.276728
2129.000000	0.277515
2130.000000	0.277882
2131.000000	0.277891
2132.000000	0.277187
2133.000000	0.276449
2134.000000	0.276115
2135.000000	0.276356
2136.000000	0.277420
2137.000000	0.277711
2138.000000	0.277738
2139.000000	0.277800
2140.000000	0.277455
2141.000000	0.277389
2142.000000	0.277520
2143.000000	0.277358
2144.000000	0.277180
2145.000000	0.277433
2146.000000	0.277832
2147.000000	0.278587
2148.000000	0.279769
2149.000000	0.280200
2150.000000	0.279855
2151.000000	0.279055
2152.000000	0.277797
2153.000000	0.277149
2154.000000	0.276925
2155.000000	0.277347
2156.000000	0.277674
2157.000000	0.278400
2158.000000	0.278959
2159.000000	0.279839
2160.000000	0.280304
2161.000000	0.280647
2162.000000	0.280792
2163.000000	0.280312
2164.000000	0.280107
2165.000000	0.279511
2166.000000	0.279969
2167.000000	0.280309
2168.000000	0.279937
2169.000000	0.280153
2170.000000	0.280074
2171.000000	0.279902
2172.000000	0.279628
2173.000000	0.279648
2174.000000	0.279899
2175.000000	0.279350
2176.000000	0.278183
2177.000000	0.278073
2178.000000	0.277947
2179.000000	0.277902
2180.000000	0.279186
2181.000000	0.279665
2182.000000	0.279097
2183.000000	0.278080
2184.000000	0.277209
2185.000000	0.275811
2186.000000	0.273747
2187.000000	0.273541
2188.000000	0.273981
2189.000000	0.274510
2190.000000	0.276634
2191.000000	0.277508
2192.000000	0.277852
2193.000000	0.277387
2194.000000	0.277324
2195.000000	0.276376
2196.000000	0.276530
2197.000000	0.278094
2198.000000	0.278625
2199.000000	0.278761
2200.000000	0.279257
2201.000000	0.279333
2202.000000	0.279373
2203.000000	0.279569
2204.000000	0.279673
2205.000000	0.279581
2206.000000	0.280178
2207.000000	0.279469
2208.000000	0.278247
2209.000000	0.277106
2210.000000	0.275898
2211.000000	0.276275
2212.000000	0.279170
2213.000000	0.279828
2214.000000	0.279752
2215.000000	0.279687
2216.000000	0.278472
2217.000000	0.278048
2218.000000	0.278327
2219.000000	0.278633
2220.000000	0.279417
2221.000000	0.279544
2222.000000	0.278837
2223.000000	0.278963
2224.000000	0.280590
2225.000000	0.278791
2226.000000	0.278784
2227.000000	0.277588
2228.000000	0.272702
2229.000000	0.273494
2230.000000	0.274277
2231.000000	0.275236
2232.000000	0.278525
2233.000000	0.279558
2234.000000	0.279234
2235.000000	0.280766
2236.000000	0.282060
2237.000000	0.284208
2238.000000	0.283946
2239.000000	0.282722
2240.000000	0.281847
2241.000000	0.278495
2242.000000	0.277943
2243.000000	0.279918
2244.000000	0.280175
2245.000000	0.280747
2246.000000	0.280902
2247.000000	0.279881
2248.000000	0.279629
2249.000000	0.279776
2250.000000	0.279544
2251.000000	0.280734
2252.000000	0.280246
2253.000000	0.278030
2254.000000	0.276834
2255.000000	0.274633
2256.000000	0.274641
2257.000000	0.276754
2258.000000	0.276898
2259.000000	0.277887
2260.000000	0.277583
2261.000000	0.277279
2262.000000	0.277409
2263.000000	0.276526
2264.000000	0.274388
2265.000000	0.273313
2266.000000	0.271044
2267.000000	0.270877
2268.000000	0.272681
2269.000000	0.273743
2270.000000	0.276923
2271.000000	0.277429
2272.000000	0.276007
2273.000000	0.274730
2274.000000	0.270612
2275.000000	0.268870
2276.000000	0.268278
2277.000000	0.268746
2278.000000	0.268349
2279.000000	0.268648
2280.000000	0.266878
2281.000000	0.264298
2282.000000	0.264145
2283.000000	0.264090
2284.000000	0.262271
2285.000000	0.260631
2286.000000	0.259365
2287.000000	0.257575
2288.000000	0.258510
2289.000000	0.261927
2290.000000	0.261752
2291.000000	0.261347
2292.000000	0.262091
2293.000000	0.259160
2294.000000	0.258285
2295.000000	0.258823
2296.000000	0.259063
2297.000000	0.259416
2298.000000	0.260353
2299.000000	0.261757
2300.000000	0.262586
2301.000000	0.263070
2302.000000	0.263368
2303.000000	0.263236
2304.000000	0.264349
2305.000000	0.266116
2306.000000	0.267947
2307.000000	0.271496
2308.000000	0.272385
2309.000000	0.272438
2310.000000	0.270735
2311.000000	0.266679
2312.000000	0.263427
2313.000000	0.260174
2314.000000	0.258060
2315.000000	0.258656
2316.000000	0.260831
2317.000000	0.262231
2318.000000	0.263635
2319.000000	0.264827
2320.000000	0.262688
2321.000000	0.261664
2322.000000	0.262225
2323.000000	0.260955
2324.000000	0.260563
2325.000000	0.259805
2326.000000	0.258642
2327.000000	0.258314
2328.000000	0.259041
2329.000000	0.259419
2330.000000	0.258157
2331.000000	0.257021
2332.000000	0.255472
2333.000000	0.255706
2334.000000	0.256622
2335.000000	0.257779
2336.000000	0.260818
2337.000000	0.260237
2338.000000	0.257673
2339.000000	0.256860
2340.000000	0.253365
2341.000000	0.252743
2342.000000	0.254873
2343.000000	0.254736
2344.000000	0.255562
2345.000000	0.255345
2346.000000	0.254464
2347.000000	0.253731
2348.000000	0.252131
2349.000000	0.250279
2350.000000	0.249520
2351.000000	0.247460
2352.000000	0.248507
2353.000000	0.248905
2354.000000	0.248980
2355.000000	0.251666
2356.000000	0.252413
2357.000000	0.251269
2358.000000	0.249315
2359.000000	0.245698
2360.000000	0.240298
2361.000000	0.236595
2362.000000	0.235772
2363.000000	0.235915
2364.000000	0.235489
2365.000000	0.235404
2366.000000	0.233505
2367.000000	0.229572
2368.000000	0.230604
2369.000000	0.229858
2370.000000	0.227893
2371.000000	0.231550
2372.000000	0.230368
2373.000000	0.230902
2374.000000	0.236521
2375.000000	0.233406
2376.000000	0.228966
2377.000000	0.228113
2378.000000	0.221588
2379.000000	0.220063
2380.000000	0.222193
2381.000000	0.219545
2382.000000	0.219667
2383.000000	0.219153
2384.000000	0.221486
2385.000000	0.222256
2386.000000	0.219683
2387.000000	0.219689
2388.000000	0.213689
2389.000000	0.208044
2390.000000	0.209186
2391.000000	0.208621
2392.000000	0.207958
2393.000000	0.210837
2394.000000	0.210410
2395.000000	0.211977
2396.000000	0.212432
2397.000000	0.209931
2398.000000	0.213972
2399.000000	0.211675
2400.000000	0.206911
2401.000000	0.208403
2402.000000	0.209396
2403.000000	0.208675
2404.000000	0.208457
2405.000000	0.211327
2406.000000	0.210567
2407.000000	0.210030
2408.000000	0.218046
2409.000000	0.224348
2410.000000	0.225049
2411.000000	0.226902
2412.000000	0.217612
2413.000000	0.205208
2414.000000	0.203731
2415.000000	0.193357
2416.000000	0.197824
2417.000000	0.210478
2418.000000	0.198607
2419.000000	0.199419
2420.000000	0.202167
2421.000000	0.194810
2422.000000	0.203135
2423.000000	0.210174
2424.000000	0.208050
2425.000000	0.200564
2426.000000	0.184935
2427.000000	0.174170
2428.000000	0.171705
2429.000000	0.167831
2430.000000	0.170033
2431.000000	0.171078
2432.000000	0.157301
2433.000000	0.160104
2434.000000	0.171713
2435.000000	0.174435
2436.000000	0.187637
2437.000000	0.185764
2438.000000	0.182781
2439.000000	0.186431
2440.000000	0.192667
2441.000000	0.205918
2442.000000	0.201945
2443.000000	0.202004
2444.000000	0.207682
2445.000000	0.215118
2446.000000	0.215230
2447.000000	0.208049
2448.000000	0.199123
2449.000000	0.172828
2450.000000	0.165455
2451.000000	0.169675
2452.000000	0.169296
2453.000000	0.174363
2454.000000	0.176520
2455.000000	0.179406
2456.000000	0.174270
2457.000000	0.168738
2458.000000	0.177879
2459.000000	0.181196
2460.000000	0.184083
2461.000000	0.193820
2462.000000	0.184198
2463.000000	0.181578
2464.000000	0.185353
2465.000000	0.184687
2466.000000	0.202425
2467.000000	0.197080
2468.000000	0.185444
2469.000000	0.185046
2470.000000	0.179304
2471.000000	0.192365
2472.000000	0.210836
2473.000000	0.225341
2474.000000	0.212798
2475.000000	0.200039
2476.000000	0.188677
2477.000000	0.148533
2478.000000	0.150320
2479.000000	0.162367
2480.000000	0.160731
2481.000000	0.200157
2482.000000	0.236404
2483.000000	0.242310
2484.000000	0.218461
2485.000000	0.155794
2486.000000	0.082472
2487.000000	0.039692
2488.000000	0.034850
2489.000000	0.090680
2490.000000	0.156162
2491.000000	0.175394
2492.000000	0.159858
2493.000000	0.085570
2494.000000	0.054280
2495.000000	0.012407
2496.000000	-0.005555
2497.000000	-0.004278
2498.000000	0.022746
2499.000000	0.108708
2500.000000	0.146151
