# Wavelength	NAu-2-20_HEX-60_FV7-20_000000001.asd.rts.txt
350.000000	0.182308
351.000000	0.184453
352.000000	0.186987
353.000000	0.182090
354.000000	0.172815
355.000000	0.177484
356.000000	0.180121
357.000000	0.178427
358.000000	0.175558
359.000000	0.175826
360.000000	0.176402
361.000000	0.173807
362.000000	0.175627
363.000000	0.178495
364.000000	0.178976
365.000000	0.176300
366.000000	0.175550
367.000000	0.176564
368.000000	0.175161
369.000000	0.175520
370.000000	0.177130
371.000000	0.178201
372.000000	0.178853
373.000000	0.178241
374.000000	0.176829
375.000000	0.176995
376.000000	0.178604
377.000000	0.180261
378.000000	0.179424
379.000000	0.178260
380.000000	0.177619
381.000000	0.178326
382.000000	0.178750
383.000000	0.178558
384.000000	0.178251
385.000000	0.179457
386.000000	0.180712
387.000000	0.181478
388.000000	0.181790
389.000000	0.182584
390.000000	0.183306
391.000000	0.182779
392.000000	0.182038
393.000000	0.181769
394.000000	0.182219
395.000000	0.182603
396.000000	0.182919
397.000000	0.183177
398.000000	0.183483
399.000000	0.183553
400.000000	0.183590
401.000000	0.183882
402.000000	0.184205
403.000000	0.184179
404.000000	0.183877
405.000000	0.184816
406.000000	0.185495
407.000000	0.185415
408.000000	0.185685
409.000000	0.186056
410.000000	0.186505
411.000000	0.187066
412.000000	0.187261
413.000000	0.187380
414.000000	0.187789
415.000000	0.188028
416.000000	0.188297
417.000000	0.188694
418.000000	0.188997
419.000000	0.189204
420.000000	0.189341
421.000000	0.189453
422.000000	0.189651
423.000000	0.189958
424.000000	0.190409
425.000000	0.190830
426.000000	0.191246
427.000000	0.191664
428.000000	0.192001
429.000000	0.192264
430.000000	0.192516
431.000000	0.192898
432.000000	0.193163
433.000000	0.193383
434.000000	0.193842
435.000000	0.194176
436.000000	0.194386
437.000000	0.194549
438.000000	0.194837
439.000000	0.195098
440.000000	0.195323
441.000000	0.195546
442.000000	0.195766
443.000000	0.195963
444.000000	0.196237
445.000000	0.196459
446.000000	0.196814
447.000000	0.197340
448.000000	0.197537
449.000000	0.197733
450.000000	0.198183
451.000000	0.198710
452.000000	0.199164
453.000000	0.199486
454.000000	0.199909
455.000000	0.200296
456.000000	0.200654
457.000000	0.200907
458.000000	0.201264
459.000000	0.201606
460.000000	0.201866
461.000000	0.202224
462.000000	0.202631
463.000000	0.202943
464.000000	0.203267
465.000000	0.203688
466.000000	0.204078
467.000000	0.204268
468.000000	0.204590
469.000000	0.204966
470.000000	0.205357
471.000000	0.205711
472.000000	0.205974
473.000000	0.206174
474.000000	0.206442
475.000000	0.206731
476.000000	0.207108
477.000000	0.207475
478.000000	0.207689
479.000000	0.207955
480.000000	0.208314
481.000000	0.208559
482.000000	0.208848
483.000000	0.209163
484.000000	0.209538
485.000000	0.209774
486.000000	0.209971
487.000000	0.210318
488.000000	0.210577
489.000000	0.210787
490.000000	0.211144
491.000000	0.211412
492.000000	0.211627
493.000000	0.211785
494.000000	0.211943
495.000000	0.212102
496.000000	0.212241
497.000000	0.212465
498.000000	0.212646
499.000000	0.212809
500.000000	0.212995
501.000000	0.213162
502.000000	0.213347
503.000000	0.213547
504.000000	0.213765
505.000000	0.213956
506.000000	0.214111
507.000000	0.214414
508.000000	0.214757
509.000000	0.215044
510.000000	0.215337
511.000000	0.215681
512.000000	0.216061
513.000000	0.216359
514.000000	0.216723
515.000000	0.217129
516.000000	0.217453
517.000000	0.217786
518.000000	0.218170
519.000000	0.218558
520.000000	0.218959
521.000000	0.219343
522.000000	0.219736
523.000000	0.220235
524.000000	0.220781
525.000000	0.221343
526.000000	0.221940
527.000000	0.222601
528.000000	0.223314
529.000000	0.224096
530.000000	0.224866
531.000000	0.225727
532.000000	0.226663
533.000000	0.227641
534.000000	0.228643
535.000000	0.229642
536.000000	0.230635
537.000000	0.231579
538.000000	0.232506
539.000000	0.233458
540.000000	0.234362
541.000000	0.235203
542.000000	0.236015
543.000000	0.236804
544.000000	0.237631
545.000000	0.238461
546.000000	0.239284
547.000000	0.240127
548.000000	0.241006
549.000000	0.241855
550.000000	0.242748
551.000000	0.243737
552.000000	0.244799
553.000000	0.245839
554.000000	0.246924
555.000000	0.248108
556.000000	0.249320
557.000000	0.250555
558.000000	0.251883
559.000000	0.253132
560.000000	0.254412
561.000000	0.255760
562.000000	0.257040
563.000000	0.258268
564.000000	0.259510
565.000000	0.260716
566.000000	0.261855
567.000000	0.262943
568.000000	0.263970
569.000000	0.264927
570.000000	0.265832
571.000000	0.266681
572.000000	0.267470
573.000000	0.268163
574.000000	0.268760
575.000000	0.269328
576.000000	0.269844
577.000000	0.270319
578.000000	0.270804
579.000000	0.271187
580.000000	0.271503
581.000000	0.271770
582.000000	0.271982
583.000000	0.272178
584.000000	0.272364
585.000000	0.272523
586.000000	0.272587
587.000000	0.272598
588.000000	0.272618
589.000000	0.272611
590.000000	0.272560
591.000000	0.272463
592.000000	0.272346
593.000000	0.272209
594.000000	0.272038
595.000000	0.271808
596.000000	0.271583
597.000000	0.271399
598.000000	0.271183
599.000000	0.270886
600.000000	0.270602
601.000000	0.270331
602.000000	0.270020
603.000000	0.269703
604.000000	0.269408
605.000000	0.269119
606.000000	0.268779
607.000000	0.268417
608.000000	0.268115
609.000000	0.267779
610.000000	0.267458
611.000000	0.267210
612.000000	0.266899
613.000000	0.266587
614.000000	0.266333
615.000000	0.266020
616.000000	0.265677
617.000000	0.265302
618.000000	0.264954
619.000000	0.264644
620.000000	0.264337
621.000000	0.264035
622.000000	0.263758
623.000000	0.263482
624.000000	0.263192
625.000000	0.262934
626.000000	0.262698
627.000000	0.262481
628.000000	0.262281
629.000000	0.262159
630.000000	0.261997
631.000000	0.261834
632.000000	0.261715
633.000000	0.261624
634.000000	0.261522
635.000000	0.261414
636.000000	0.261363
637.000000	0.261375
638.000000	0.261392
639.000000	0.261446
640.000000	0.261549
641.000000	0.261554
642.000000	0.261604
643.000000	0.261699
644.000000	0.261804
645.000000	0.261912
646.000000	0.262020
647.000000	0.262106
648.000000	0.262200
649.000000	0.262332
650.000000	0.262490
651.000000	0.262668
652.000000	0.262851
653.000000	0.263068
654.000000	0.263296
655.000000	0.263581
656.000000	0.263888
657.000000	0.264145
658.000000	0.264483
659.000000	0.264859
660.000000	0.265225
661.000000	0.265574
662.000000	0.265951
663.000000	0.266390
664.000000	0.266820
665.000000	0.267272
666.000000	0.267749
667.000000	0.268229
668.000000	0.268753
669.000000	0.269305
670.000000	0.269868
671.000000	0.270415
672.000000	0.270997
673.000000	0.271613
674.000000	0.272232
675.000000	0.272881
676.000000	0.273560
677.000000	0.274283
678.000000	0.275043
679.000000	0.275816
680.000000	0.276590
681.000000	0.277353
682.000000	0.278170
683.000000	0.279007
684.000000	0.279942
685.000000	0.280869
686.000000	0.281794
687.000000	0.282713
688.000000	0.283647
689.000000	0.284603
690.000000	0.285612
691.000000	0.286648
692.000000	0.287645
693.000000	0.288671
694.000000	0.289788
695.000000	0.290904
696.000000	0.292000
697.000000	0.293090
698.000000	0.294229
699.000000	0.295415
700.000000	0.296636
701.000000	0.297843
702.000000	0.299067
703.000000	0.300299
704.000000	0.301528
705.000000	0.302807
706.000000	0.304091
707.000000	0.305391
708.000000	0.306694
709.000000	0.307990
710.000000	0.309296
711.000000	0.310631
712.000000	0.312005
713.000000	0.313412
714.000000	0.314753
715.000000	0.316085
716.000000	0.317437
717.000000	0.318804
718.000000	0.320185
719.000000	0.321568
720.000000	0.322950
721.000000	0.324290
722.000000	0.325575
723.000000	0.326884
724.000000	0.328234
725.000000	0.329546
726.000000	0.330889
727.000000	0.332209
728.000000	0.333530
729.000000	0.334842
730.000000	0.336087
731.000000	0.337340
732.000000	0.338585
733.000000	0.339840
734.000000	0.341038
735.000000	0.342207
736.000000	0.343468
737.000000	0.344679
738.000000	0.345805
739.000000	0.346956
740.000000	0.348029
741.000000	0.349106
742.000000	0.350153
743.000000	0.351131
744.000000	0.352096
745.000000	0.353071
746.000000	0.354061
747.000000	0.354958
748.000000	0.355896
749.000000	0.356837
750.000000	0.357704
751.000000	0.358544
752.000000	0.359324
753.000000	0.360075
754.000000	0.360850
755.000000	0.361611
756.000000	0.362360
757.000000	0.363060
758.000000	0.363771
759.000000	0.364473
760.000000	0.365086
761.000000	0.365746
762.000000	0.366390
763.000000	0.366959
764.000000	0.367489
765.000000	0.368009
766.000000	0.368539
767.000000	0.369069
768.000000	0.369544
769.000000	0.369982
770.000000	0.370417
771.000000	0.370889
772.000000	0.371355
773.000000	0.371746
774.000000	0.372144
775.000000	0.372501
776.000000	0.372869
777.000000	0.373244
778.000000	0.373534
779.000000	0.373768
780.000000	0.373985
781.000000	0.374214
782.000000	0.374407
783.000000	0.374677
784.000000	0.374924
785.000000	0.375100
786.000000	0.375235
787.000000	0.375366
788.000000	0.375548
789.000000	0.375734
790.000000	0.375899
791.000000	0.376084
792.000000	0.376236
793.000000	0.376362
794.000000	0.376478
795.000000	0.376550
796.000000	0.376612
797.000000	0.376682
798.000000	0.376776
799.000000	0.376874
800.000000	0.376971
801.000000	0.377077
802.000000	0.377206
803.000000	0.377291
804.000000	0.377351
805.000000	0.377416
806.000000	0.377373
807.000000	0.377337
808.000000	0.377338
809.000000	0.377286
810.000000	0.377256
811.000000	0.377276
812.000000	0.377248
813.000000	0.377212
814.000000	0.377186
815.000000	0.377197
816.000000	0.377220
817.000000	0.377243
818.000000	0.377166
819.000000	0.377126
820.000000	0.377125
821.000000	0.377080
822.000000	0.376990
823.000000	0.376920
824.000000	0.376809
825.000000	0.376705
826.000000	0.376643
827.000000	0.376592
828.000000	0.376580
829.000000	0.376587
830.000000	0.376562
831.000000	0.376544
832.000000	0.376423
833.000000	0.376306
834.000000	0.376226
835.000000	0.376203
836.000000	0.376103
837.000000	0.375932
838.000000	0.375776
839.000000	0.375724
840.000000	0.375620
841.000000	0.375483
842.000000	0.375321
843.000000	0.375194
844.000000	0.375125
845.000000	0.375045
846.000000	0.374881
847.000000	0.374747
848.000000	0.374609
849.000000	0.374440
850.000000	0.374210
851.000000	0.374003
852.000000	0.373891
853.000000	0.373803
854.000000	0.373607
855.000000	0.373461
856.000000	0.373356
857.000000	0.373195
858.000000	0.373094
859.000000	0.372996
860.000000	0.372845
861.000000	0.372702
862.000000	0.372580
863.000000	0.372384
864.000000	0.372159
865.000000	0.371928
866.000000	0.371743
867.000000	0.371619
868.000000	0.371511
869.000000	0.371335
870.000000	0.371138
871.000000	0.370906
872.000000	0.370665
873.000000	0.370396
874.000000	0.370264
875.000000	0.370043
876.000000	0.369755
877.000000	0.369448
878.000000	0.369209
879.000000	0.369085
880.000000	0.368907
881.000000	0.368708
882.000000	0.368526
883.000000	0.368313
884.000000	0.367940
885.000000	0.367730
886.000000	0.367522
887.000000	0.367270
888.000000	0.367127
889.000000	0.366923
890.000000	0.366611
891.000000	0.366441
892.000000	0.366209
893.000000	0.365946
894.000000	0.365779
895.000000	0.365483
896.000000	0.365148
897.000000	0.364841
898.000000	0.364606
899.000000	0.364328
900.000000	0.364037
901.000000	0.363743
902.000000	0.363570
903.000000	0.363354
904.000000	0.363149
905.000000	0.362931
906.000000	0.362792
907.000000	0.362630
908.000000	0.362433
909.000000	0.362091
910.000000	0.361755
911.000000	0.361420
912.000000	0.361083
913.000000	0.360795
914.000000	0.360542
915.000000	0.360387
916.000000	0.360240
917.000000	0.359994
918.000000	0.359731
919.000000	0.359509
920.000000	0.359345
921.000000	0.359122
922.000000	0.358838
923.000000	0.358529
924.000000	0.358271
925.000000	0.358019
926.000000	0.357764
927.000000	0.357446
928.000000	0.357083
929.000000	0.356704
930.000000	0.356366
931.000000	0.356191
932.000000	0.356065
933.000000	0.355937
934.000000	0.355718
935.000000	0.355427
936.000000	0.355090
937.000000	0.354647
938.000000	0.354280
939.000000	0.354020
940.000000	0.353798
941.000000	0.353660
942.000000	0.353426
943.000000	0.353230
944.000000	0.353000
945.000000	0.352725
946.000000	0.352411
947.000000	0.352174
948.000000	0.352034
949.000000	0.351860
950.000000	0.351695
951.000000	0.351453
952.000000	0.351077
953.000000	0.350870
954.000000	0.350657
955.000000	0.350231
956.000000	0.349870
957.000000	0.349649
958.000000	0.349494
959.000000	0.349385
960.000000	0.349139
961.000000	0.348803
962.000000	0.348460
963.000000	0.348271
964.000000	0.348110
965.000000	0.347940
966.000000	0.347634
967.000000	0.347352
968.000000	0.347066
969.000000	0.346787
970.000000	0.346665
971.000000	0.346505
972.000000	0.346357
973.000000	0.346151
974.000000	0.345883
975.000000	0.345720
976.000000	0.345529
977.000000	0.345212
978.000000	0.344999
979.000000	0.344931
980.000000	0.344718
981.000000	0.344538
982.000000	0.344530
983.000000	0.344376
984.000000	0.344100
985.000000	0.343921
986.000000	0.343733
987.000000	0.343496
988.000000	0.343170
989.000000	0.343200
990.000000	0.343199
991.000000	0.343080
992.000000	0.342944
993.000000	0.342948
994.000000	0.342828
995.000000	0.342739
996.000000	0.342670
997.000000	0.342569
998.000000	0.342473
999.000000	0.342496
1000.000000	0.342544
1001.000000	0.342742
1002.000000	0.342498
1003.000000	0.342274
1004.000000	0.342180
1005.000000	0.342317
1006.000000	0.342124
1007.000000	0.341872
1008.000000	0.341684
1009.000000	0.341424
1010.000000	0.341091
1011.000000	0.341188
1012.000000	0.341560
1013.000000	0.341506
1014.000000	0.341420
1015.000000	0.341250
1016.000000	0.340979
1017.000000	0.341069
1018.000000	0.341546
1019.000000	0.341815
1020.000000	0.342510
1021.000000	0.342323
1022.000000	0.341676
1023.000000	0.341606
1024.000000	0.341236
1025.000000	0.341244
1026.000000	0.341566
1027.000000	0.341691
1028.000000	0.341869
1029.000000	0.342123
1030.000000	0.342081
1031.000000	0.342139
1032.000000	0.342294
1033.000000	0.342190
1034.000000	0.342200
1035.000000	0.342398
1036.000000	0.342451
1037.000000	0.342366
1038.000000	0.342355
1039.000000	0.342460
1040.000000	0.342611
1041.000000	0.342851
1042.000000	0.342942
1043.000000	0.343059
1044.000000	0.343272
1045.000000	0.343375
1046.000000	0.343436
1047.000000	0.343673
1048.000000	0.344019
1049.000000	0.344146
1050.000000	0.344301
1051.000000	0.344401
1052.000000	0.344157
1053.000000	0.344173
1054.000000	0.344599
1055.000000	0.344886
1056.000000	0.345171
1057.000000	0.345650
1058.000000	0.345804
1059.000000	0.345697
1060.000000	0.345939
1061.000000	0.346122
1062.000000	0.346354
1063.000000	0.346752
1064.000000	0.347028
1065.000000	0.347137
1066.000000	0.347347
1067.000000	0.347570
1068.000000	0.347771
1069.000000	0.347874
1070.000000	0.348054
1071.000000	0.348365
1072.000000	0.348578
1073.000000	0.348708
1074.000000	0.349158
1075.000000	0.349510
1076.000000	0.349776
1077.000000	0.349946
1078.000000	0.350024
1079.000000	0.350117
1080.000000	0.350033
1081.000000	0.350185
1082.000000	0.350610
1083.000000	0.350861
1084.000000	0.351180
1085.000000	0.351460
1086.000000	0.351644
1087.000000	0.351879
1088.000000	0.351981
1089.000000	0.352170
1090.000000	0.352419
1091.000000	0.352559
1092.000000	0.352665
1093.000000	0.353022
1094.000000	0.353234
1095.000000	0.353242
1096.000000	0.353528
1097.000000	0.354002
1098.000000	0.354297
1099.000000	0.354514
1100.000000	0.354882
1101.000000	0.355265
1102.000000	0.355488
1103.000000	0.355690
1104.000000	0.355937
1105.000000	0.355972
1106.000000	0.356149
1107.000000	0.356482
1108.000000	0.356725
1109.000000	0.357103
1110.000000	0.357217
1111.000000	0.357451
1112.000000	0.357704
1113.000000	0.357932
1114.000000	0.358149
1115.000000	0.358366
1116.000000	0.358591
1117.000000	0.358773
1118.000000	0.358955
1119.000000	0.359020
1120.000000	0.358958
1121.000000	0.358999
1122.000000	0.359076
1123.000000	0.359408
1124.000000	0.359665
1125.000000	0.359955
1126.000000	0.360305
1127.000000	0.360517
1128.000000	0.360666
1129.000000	0.360794
1130.000000	0.360957
1131.000000	0.361090
1132.000000	0.361166
1133.000000	0.361339
1134.000000	0.361428
1135.000000	0.361287
1136.000000	0.361330
1137.000000	0.361491
1138.000000	0.361501
1139.000000	0.361578
1140.000000	0.361740
1141.000000	0.361766
1142.000000	0.361882
1143.000000	0.362089
1144.000000	0.362331
1145.000000	0.362404
1146.000000	0.362396
1147.000000	0.362416
1148.000000	0.362275
1149.000000	0.362279
1150.000000	0.362365
1151.000000	0.362418
1152.000000	0.362430
1153.000000	0.362487
1154.000000	0.362489
1155.000000	0.362513
1156.000000	0.362631
1157.000000	0.362660
1158.000000	0.362539
1159.000000	0.362523
1160.000000	0.362518
1161.000000	0.362489
1162.000000	0.362510
1163.000000	0.362759
1164.000000	0.362847
1165.000000	0.362835
1166.000000	0.362882
1167.000000	0.362873
1168.000000	0.362885
1169.000000	0.362947
1170.000000	0.362984
1171.000000	0.363070
1172.000000	0.363161
1173.000000	0.363171
1174.000000	0.363244
1175.000000	0.363358
1176.000000	0.363383
1177.000000	0.363487
1178.000000	0.363548
1179.000000	0.363524
1180.000000	0.363487
1181.000000	0.363536
1182.000000	0.363553
1183.000000	0.363627
1184.000000	0.363765
1185.000000	0.363826
1186.000000	0.363886
1187.000000	0.363896
1188.000000	0.363836
1189.000000	0.363804
1190.000000	0.363837
1191.000000	0.363826
1192.000000	0.363892
1193.000000	0.364048
1194.000000	0.364107
1195.000000	0.364158
1196.000000	0.364171
1197.000000	0.364199
1198.000000	0.364210
1199.000000	0.364237
1200.000000	0.364268
1201.000000	0.364335
1202.000000	0.364368
1203.000000	0.364429
1204.000000	0.364477
1205.000000	0.364548
1206.000000	0.364542
1207.000000	0.364592
1208.000000	0.364577
1209.000000	0.364558
1210.000000	0.364582
1211.000000	0.364621
1212.000000	0.364633
1213.000000	0.364707
1214.000000	0.364781
1215.000000	0.364828
1216.000000	0.364854
1217.000000	0.364829
1218.000000	0.364827
1219.000000	0.364832
1220.000000	0.364871
1221.000000	0.364980
1222.000000	0.365105
1223.000000	0.365227
1224.000000	0.365367
1225.000000	0.365408
1226.000000	0.365435
1227.000000	0.365463
1228.000000	0.365542
1229.000000	0.365554
1230.000000	0.365557
1231.000000	0.365522
1232.000000	0.365548
1233.000000	0.365652
1234.000000	0.365814
1235.000000	0.365862
1236.000000	0.365744
1237.000000	0.365776
1238.000000	0.365757
1239.000000	0.365749
1240.000000	0.365803
1241.000000	0.365870
1242.000000	0.365880
1243.000000	0.365892
1244.000000	0.365960
1245.000000	0.366104
1246.000000	0.366193
1247.000000	0.366349
1248.000000	0.366507
1249.000000	0.366598
1250.000000	0.366717
1251.000000	0.366812
1252.000000	0.366848
1253.000000	0.366865
1254.000000	0.366911
1255.000000	0.366923
1256.000000	0.366942
1257.000000	0.367042
1258.000000	0.367110
1259.000000	0.366998
1260.000000	0.367080
1261.000000	0.367195
1262.000000	0.367268
1263.000000	0.367433
1264.000000	0.367555
1265.000000	0.367591
1266.000000	0.367623
1267.000000	0.367652
1268.000000	0.367695
1269.000000	0.367712
1270.000000	0.367796
1271.000000	0.367863
1272.000000	0.367999
1273.000000	0.368167
1274.000000	0.368222
1275.000000	0.368269
1276.000000	0.368310
1277.000000	0.368423
1278.000000	0.368449
1279.000000	0.368478
1280.000000	0.368459
1281.000000	0.368410
1282.000000	0.368357
1283.000000	0.368432
1284.000000	0.368483
1285.000000	0.368556
1286.000000	0.368681
1287.000000	0.368730
1288.000000	0.368777
1289.000000	0.368811
1290.000000	0.368735
1291.000000	0.368690
1292.000000	0.368726
1293.000000	0.368754
1294.000000	0.368806
1295.000000	0.368883
1296.000000	0.368863
1297.000000	0.368858
1298.000000	0.368928
1299.000000	0.368919
1300.000000	0.368929
1301.000000	0.368922
1302.000000	0.368835
1303.000000	0.368814
1304.000000	0.368717
1305.000000	0.368649
1306.000000	0.368579
1307.000000	0.368542
1308.000000	0.368540
1309.000000	0.368539
1310.000000	0.368562
1311.000000	0.368669
1312.000000	0.368657
1313.000000	0.368631
1314.000000	0.368670
1315.000000	0.368571
1316.000000	0.368546
1317.000000	0.368600
1318.000000	0.368538
1319.000000	0.368405
1320.000000	0.368337
1321.000000	0.368175
1322.000000	0.368014
1323.000000	0.367981
1324.000000	0.367892
1325.000000	0.367742
1326.000000	0.367626
1327.000000	0.367522
1328.000000	0.367495
1329.000000	0.367366
1330.000000	0.367244
1331.000000	0.367143
1332.000000	0.367047
1333.000000	0.366922
1334.000000	0.366921
1335.000000	0.366874
1336.000000	0.366776
1337.000000	0.366619
1338.000000	0.366385
1339.000000	0.366114
1340.000000	0.365794
1341.000000	0.365534
1342.000000	0.365343
1343.000000	0.365105
1344.000000	0.364890
1345.000000	0.364659
1346.000000	0.364516
1347.000000	0.364323
1348.000000	0.364127
1349.000000	0.363936
1350.000000	0.363771
1351.000000	0.363536
1352.000000	0.363286
1353.000000	0.363004
1354.000000	0.362722
1355.000000	0.362416
1356.000000	0.362110
1357.000000	0.361786
1358.000000	0.361544
1359.000000	0.361321
1360.000000	0.361077
1361.000000	0.360930
1362.000000	0.360692
1363.000000	0.360334
1364.000000	0.360104
1365.000000	0.359903
1366.000000	0.359701
1367.000000	0.359544
1368.000000	0.359308
1369.000000	0.359202
1370.000000	0.358950
1371.000000	0.358611
1372.000000	0.358288
1373.000000	0.357920
1374.000000	0.357555
1375.000000	0.357178
1376.000000	0.356899
1377.000000	0.356541
1378.000000	0.356104
1379.000000	0.355623
1380.000000	0.355104
1381.000000	0.354571
1382.000000	0.353975
1383.000000	0.353438
1384.000000	0.352835
1385.000000	0.352143
1386.000000	0.351514
1387.000000	0.350819
1388.000000	0.350006
1389.000000	0.349138
1390.000000	0.348205
1391.000000	0.347170
1392.000000	0.346167
1393.000000	0.345087
1394.000000	0.344018
1395.000000	0.342875
1396.000000	0.341682
1397.000000	0.340356
1398.000000	0.338874
1399.000000	0.337448
1400.000000	0.335952
1401.000000	0.334444
1402.000000	0.332991
1403.000000	0.331484
1404.000000	0.330009
1405.000000	0.328580
1406.000000	0.327203
1407.000000	0.325853
1408.000000	0.324486
1409.000000	0.323200
1410.000000	0.321963
1411.000000	0.320724
1412.000000	0.319469
1413.000000	0.318247
1414.000000	0.317044
1415.000000	0.315902
1416.000000	0.314808
1417.000000	0.313724
1418.000000	0.312596
1419.000000	0.311501
1420.000000	0.310393
1421.000000	0.309353
1422.000000	0.308319
1423.000000	0.307398
1424.000000	0.306427
1425.000000	0.305453
1426.000000	0.304501
1427.000000	0.303542
1428.000000	0.302612
1429.000000	0.301733
1430.000000	0.300894
1431.000000	0.300092
1432.000000	0.299305
1433.000000	0.298588
1434.000000	0.297839
1435.000000	0.297166
1436.000000	0.296510
1437.000000	0.295823
1438.000000	0.295171
1439.000000	0.294595
1440.000000	0.294071
1441.000000	0.293579
1442.000000	0.293176
1443.000000	0.292794
1444.000000	0.292447
1445.000000	0.292158
1446.000000	0.291931
1447.000000	0.291764
1448.000000	0.291621
1449.000000	0.291497
1450.000000	0.291420
1451.000000	0.291387
1452.000000	0.291293
1453.000000	0.291201
1454.000000	0.291108
1455.000000	0.290997
1456.000000	0.290962
1457.000000	0.290929
1458.000000	0.290860
1459.000000	0.290761
1460.000000	0.290635
1461.000000	0.290495
1462.000000	0.290378
1463.000000	0.290270
1464.000000	0.290206
1465.000000	0.290219
1466.000000	0.290183
1467.000000	0.290167
1468.000000	0.290196
1469.000000	0.290239
1470.000000	0.290285
1471.000000	0.290436
1472.000000	0.290583
1473.000000	0.290778
1474.000000	0.291012
1475.000000	0.291280
1476.000000	0.291575
1477.000000	0.291929
1478.000000	0.292307
1479.000000	0.292655
1480.000000	0.293060
1481.000000	0.293477
1482.000000	0.293964
1483.000000	0.294473
1484.000000	0.295049
1485.000000	0.295555
1486.000000	0.296020
1487.000000	0.296516
1488.000000	0.297017
1489.000000	0.297539
1490.000000	0.297972
1491.000000	0.298452
1492.000000	0.298909
1493.000000	0.299374
1494.000000	0.299812
1495.000000	0.300279
1496.000000	0.300767
1497.000000	0.301209
1498.000000	0.301666
1499.000000	0.302089
1500.000000	0.302487
1501.000000	0.302872
1502.000000	0.303283
1503.000000	0.303741
1504.000000	0.304152
1505.000000	0.304492
1506.000000	0.304826
1507.000000	0.305136
1508.000000	0.305473
1509.000000	0.305840
1510.000000	0.306172
1511.000000	0.306485
1512.000000	0.306766
1513.000000	0.307057
1514.000000	0.307376
1515.000000	0.307638
1516.000000	0.307958
1517.000000	0.308229
1518.000000	0.308416
1519.000000	0.308587
1520.000000	0.308760
1521.000000	0.308889
1522.000000	0.309107
1523.000000	0.309401
1524.000000	0.309597
1525.000000	0.309780
1526.000000	0.309909
1527.000000	0.309998
1528.000000	0.310144
1529.000000	0.310287
1530.000000	0.310386
1531.000000	0.310549
1532.000000	0.310681
1533.000000	0.310781
1534.000000	0.310948
1535.000000	0.311113
1536.000000	0.311236
1537.000000	0.311435
1538.000000	0.311609
1539.000000	0.311687
1540.000000	0.311776
1541.000000	0.311892
1542.000000	0.311984
1543.000000	0.312100
1544.000000	0.312227
1545.000000	0.312347
1546.000000	0.312446
1547.000000	0.312520
1548.000000	0.312614
1549.000000	0.312682
1550.000000	0.312715
1551.000000	0.312763
1552.000000	0.312813
1553.000000	0.312856
1554.000000	0.312904
1555.000000	0.312981
1556.000000	0.313050
1557.000000	0.313089
1558.000000	0.313158
1559.000000	0.313190
1560.000000	0.313207
1561.000000	0.313270
1562.000000	0.313285
1563.000000	0.313309
1564.000000	0.313338
1565.000000	0.313358
1566.000000	0.313266
1567.000000	0.313216
1568.000000	0.313185
1569.000000	0.313177
1570.000000	0.313168
1571.000000	0.313172
1572.000000	0.313149
1573.000000	0.313091
1574.000000	0.313071
1575.000000	0.313102
1576.000000	0.313141
1577.000000	0.313190
1578.000000	0.313197
1579.000000	0.313257
1580.000000	0.313284
1581.000000	0.313347
1582.000000	0.313368
1583.000000	0.313339
1584.000000	0.313331
1585.000000	0.313388
1586.000000	0.313450
1587.000000	0.313556
1588.000000	0.313621
1589.000000	0.313683
1590.000000	0.313724
1591.000000	0.313770
1592.000000	0.313808
1593.000000	0.313854
1594.000000	0.313848
1595.000000	0.313871
1596.000000	0.313882
1597.000000	0.313887
1598.000000	0.313869
1599.000000	0.313879
1600.000000	0.313824
1601.000000	0.313767
1602.000000	0.313747
1603.000000	0.313751
1604.000000	0.313770
1605.000000	0.313863
1606.000000	0.313903
1607.000000	0.313964
1608.000000	0.314040
1609.000000	0.314179
1610.000000	0.314252
1611.000000	0.314334
1612.000000	0.314416
1613.000000	0.314533
1614.000000	0.314650
1615.000000	0.314862
1616.000000	0.315065
1617.000000	0.315220
1618.000000	0.315364
1619.000000	0.315498
1620.000000	0.315642
1621.000000	0.315782
1622.000000	0.316006
1623.000000	0.316237
1624.000000	0.316454
1625.000000	0.316599
1626.000000	0.316706
1627.000000	0.316793
1628.000000	0.316943
1629.000000	0.317073
1630.000000	0.317236
1631.000000	0.317383
1632.000000	0.317502
1633.000000	0.317595
1634.000000	0.317769
1635.000000	0.318045
1636.000000	0.318221
1637.000000	0.318438
1638.000000	0.318573
1639.000000	0.318630
1640.000000	0.318761
1641.000000	0.318981
1642.000000	0.319172
1643.000000	0.319415
1644.000000	0.319640
1645.000000	0.319841
1646.000000	0.320046
1647.000000	0.320304
1648.000000	0.320502
1649.000000	0.320781
1650.000000	0.321036
1651.000000	0.321290
1652.000000	0.321559
1653.000000	0.321786
1654.000000	0.322040
1655.000000	0.322261
1656.000000	0.322371
1657.000000	0.322513
1658.000000	0.322642
1659.000000	0.322799
1660.000000	0.323003
1661.000000	0.323154
1662.000000	0.323330
1663.000000	0.323492
1664.000000	0.323655
1665.000000	0.323826
1666.000000	0.324093
1667.000000	0.324307
1668.000000	0.324527
1669.000000	0.324802
1670.000000	0.324943
1671.000000	0.325101
1672.000000	0.325324
1673.000000	0.325490
1674.000000	0.325725
1675.000000	0.326004
1676.000000	0.326177
1677.000000	0.326345
1678.000000	0.326507
1679.000000	0.326640
1680.000000	0.326711
1681.000000	0.326802
1682.000000	0.326949
1683.000000	0.327088
1684.000000	0.327230
1685.000000	0.327411
1686.000000	0.327506
1687.000000	0.327583
1688.000000	0.327655
1689.000000	0.327750
1690.000000	0.327794
1691.000000	0.327861
1692.000000	0.327893
1693.000000	0.327922
1694.000000	0.327969
1695.000000	0.328100
1696.000000	0.328142
1697.000000	0.328165
1698.000000	0.328195
1699.000000	0.328271
1700.000000	0.328386
1701.000000	0.328586
1702.000000	0.328670
1703.000000	0.328720
1704.000000	0.328891
1705.000000	0.329000
1706.000000	0.329062
1707.000000	0.329183
1708.000000	0.329309
1709.000000	0.329352
1710.000000	0.329489
1711.000000	0.329616
1712.000000	0.329695
1713.000000	0.329806
1714.000000	0.330007
1715.000000	0.330179
1716.000000	0.330383
1717.000000	0.330524
1718.000000	0.330603
1719.000000	0.330673
1720.000000	0.330734
1721.000000	0.330818
1722.000000	0.330933
1723.000000	0.331020
1724.000000	0.331109
1725.000000	0.331240
1726.000000	0.331291
1727.000000	0.331366
1728.000000	0.331431
1729.000000	0.331409
1730.000000	0.331425
1731.000000	0.331526
1732.000000	0.331647
1733.000000	0.331871
1734.000000	0.332088
1735.000000	0.332271
1736.000000	0.332442
1737.000000	0.332573
1738.000000	0.332696
1739.000000	0.332800
1740.000000	0.332852
1741.000000	0.332902
1742.000000	0.332950
1743.000000	0.333035
1744.000000	0.333102
1745.000000	0.333150
1746.000000	0.333196
1747.000000	0.333212
1748.000000	0.333196
1749.000000	0.333159
1750.000000	0.333135
1751.000000	0.333290
1752.000000	0.333449
1753.000000	0.333444
1754.000000	0.333508
1755.000000	0.333519
1756.000000	0.333548
1757.000000	0.333667
1758.000000	0.333746
1759.000000	0.333721
1760.000000	0.333798
1761.000000	0.333909
1762.000000	0.333971
1763.000000	0.334082
1764.000000	0.334194
1765.000000	0.334186
1766.000000	0.334307
1767.000000	0.334500
1768.000000	0.334546
1769.000000	0.334667
1770.000000	0.334781
1771.000000	0.334748
1772.000000	0.334791
1773.000000	0.334828
1774.000000	0.334887
1775.000000	0.335025
1776.000000	0.335116
1777.000000	0.335160
1778.000000	0.335251
1779.000000	0.335318
1780.000000	0.335440
1781.000000	0.335582
1782.000000	0.335728
1783.000000	0.335931
1784.000000	0.336146
1785.000000	0.336318
1786.000000	0.336455
1787.000000	0.336657
1788.000000	0.336802
1789.000000	0.336826
1790.000000	0.336816
1791.000000	0.336813
1792.000000	0.336898
1793.000000	0.336972
1794.000000	0.337094
1795.000000	0.337229
1796.000000	0.337349
1797.000000	0.337459
1798.000000	0.337546
1799.000000	0.337653
1800.000000	0.337851
1801.000000	0.337523
1802.000000	0.337699
1803.000000	0.337828
1804.000000	0.338165
1805.000000	0.338635
1806.000000	0.339027
1807.000000	0.339744
1808.000000	0.340132
1809.000000	0.340353
1810.000000	0.340308
1811.000000	0.340434
1812.000000	0.340474
1813.000000	0.340539
1814.000000	0.340801
1815.000000	0.340842
1816.000000	0.340620
1817.000000	0.340473
1818.000000	0.340337
1819.000000	0.340356
1820.000000	0.340270
1821.000000	0.340339
1822.000000	0.340322
1823.000000	0.340271
1824.000000	0.339958
1825.000000	0.339260
1826.000000	0.339054
1827.000000	0.338685
1828.000000	0.338541
1829.000000	0.338807
1830.000000	0.338866
1831.000000	0.338736
1832.000000	0.338194
1833.000000	0.338087
1834.000000	0.338161
1835.000000	0.338157
1836.000000	0.338223
1837.000000	0.338264
1838.000000	0.338166
1839.000000	0.337968
1840.000000	0.337691
1841.000000	0.337442
1842.000000	0.337056
1843.000000	0.336266
1844.000000	0.335869
1845.000000	0.335480
1846.000000	0.335246
1847.000000	0.335162
1848.000000	0.334829
1849.000000	0.334539
1850.000000	0.334313
1851.000000	0.334076
1852.000000	0.333874
1853.000000	0.333527
1854.000000	0.333072
1855.000000	0.332258
1856.000000	0.330946
1857.000000	0.329807
1858.000000	0.328880
1859.000000	0.327976
1860.000000	0.327336
1861.000000	0.326488
1862.000000	0.325343
1863.000000	0.323862
1864.000000	0.322658
1865.000000	0.321443
1866.000000	0.320156
1867.000000	0.319048
1868.000000	0.317462
1869.000000	0.315707
1870.000000	0.313846
1871.000000	0.311707
1872.000000	0.309713
1873.000000	0.307571
1874.000000	0.305172
1875.000000	0.302953
1876.000000	0.300725
1877.000000	0.297918
1878.000000	0.295189
1879.000000	0.292497
1880.000000	0.289247
1881.000000	0.286219
1882.000000	0.283079
1883.000000	0.279370
1884.000000	0.275852
1885.000000	0.272176
1886.000000	0.268329
1887.000000	0.264398
1888.000000	0.260140
1889.000000	0.255673
1890.000000	0.251345
1891.000000	0.246906
1892.000000	0.242688
1893.000000	0.238602
1894.000000	0.234214
1895.000000	0.229758
1896.000000	0.225244
1897.000000	0.220820
1898.000000	0.216459
1899.000000	0.212332
1900.000000	0.208253
1901.000000	0.204534
1902.000000	0.200807
1903.000000	0.197100
1904.000000	0.194103
1905.000000	0.191131
1906.000000	0.188155
1907.000000	0.185300
1908.000000	0.182863
1909.000000	0.180485
1910.000000	0.178197
1911.000000	0.176141
1912.000000	0.174377
1913.000000	0.172661
1914.000000	0.170950
1915.000000	0.169424
1916.000000	0.168231
1917.000000	0.167034
1918.000000	0.165968
1919.000000	0.165007
1920.000000	0.164199
1921.000000	0.163291
1922.000000	0.162589
1923.000000	0.162223
1924.000000	0.161944
1925.000000	0.161685
1926.000000	0.161314
1927.000000	0.161093
1928.000000	0.160877
1929.000000	0.160709
1930.000000	0.160569
1931.000000	0.160572
1932.000000	0.160528
1933.000000	0.160554
1934.000000	0.160706
1935.000000	0.160920
1936.000000	0.161027
1937.000000	0.161056
1938.000000	0.161132
1939.000000	0.161175
1940.000000	0.161197
1941.000000	0.161285
1942.000000	0.161250
1943.000000	0.161061
1944.000000	0.160879
1945.000000	0.160536
1946.000000	0.160221
1947.000000	0.159838
1948.000000	0.159356
1949.000000	0.159156
1950.000000	0.158918
1951.000000	0.158557
1952.000000	0.158216
1953.000000	0.157973
1954.000000	0.157590
1955.000000	0.157234
1956.000000	0.157021
1957.000000	0.156707
1958.000000	0.156361
1959.000000	0.156108
1960.000000	0.155992
1961.000000	0.156079
1962.000000	0.155981
1963.000000	0.155939
1964.000000	0.155745
1965.000000	0.155373
1966.000000	0.154938
1967.000000	0.154674
1968.000000	0.154800
1969.000000	0.155071
1970.000000	0.155187
1971.000000	0.155250
1972.000000	0.155133
1973.000000	0.155148
1974.000000	0.155234
1975.000000	0.155468
1976.000000	0.155816
1977.000000	0.156377
1978.000000	0.156889
1979.000000	0.157157
1980.000000	0.157588
1981.000000	0.157816
1982.000000	0.157886
1983.000000	0.158241
1984.000000	0.158661
1985.000000	0.159316
1986.000000	0.159709
1987.000000	0.160091
1988.000000	0.160600
1989.000000	0.160934
1990.000000	0.161313
1991.000000	0.162134
1992.000000	0.162953
1993.000000	0.163738
1994.000000	0.164629
1995.000000	0.165360
1996.000000	0.165879
1997.000000	0.166503
1998.000000	0.167115
1999.000000	0.167790
2000.000000	0.168471
2001.000000	0.169293
2002.000000	0.170212
2003.000000	0.170916
2004.000000	0.171570
2005.000000	0.172347
2006.000000	0.173139
2007.000000	0.174129
2008.000000	0.175195
2009.000000	0.176547
2010.000000	0.177640
2011.000000	0.178650
2012.000000	0.179595
2013.000000	0.180376
2014.000000	0.181059
2015.000000	0.182035
2016.000000	0.182884
2017.000000	0.183910
2018.000000	0.185262
2019.000000	0.186344
2020.000000	0.187442
2021.000000	0.188542
2022.000000	0.189513
2023.000000	0.190520
2024.000000	0.191624
2025.000000	0.192723
2026.000000	0.193738
2027.000000	0.194698
2028.000000	0.195707
2029.000000	0.196701
2030.000000	0.197520
2031.000000	0.198479
2032.000000	0.199486
2033.000000	0.200385
2034.000000	0.201327
2035.000000	0.202457
2036.000000	0.203276
2037.000000	0.204023
2038.000000	0.204827
2039.000000	0.205551
2040.000000	0.206361
2041.000000	0.207206
2042.000000	0.208190
2043.000000	0.209094
2044.000000	0.209915
2045.000000	0.210742
2046.000000	0.211403
2047.000000	0.212152
2048.000000	0.212756
2049.000000	0.213679
2050.000000	0.214646
2051.000000	0.215425
2052.000000	0.216303
2053.000000	0.216877
2054.000000	0.217303
2055.000000	0.217633
2056.000000	0.218252
2057.000000	0.219013
2058.000000	0.219920
2059.000000	0.221005
2060.000000	0.221862
2061.000000	0.222704
2062.000000	0.223402
2063.000000	0.223934
2064.000000	0.224457
2065.000000	0.225045
2066.000000	0.225524
2067.000000	0.226062
2068.000000	0.226819
2069.000000	0.227564
2070.000000	0.228419
2071.000000	0.229200
2072.000000	0.230042
2073.000000	0.230675
2074.000000	0.231226
2075.000000	0.231930
2076.000000	0.232597
2077.000000	0.233426
2078.000000	0.234581
2079.000000	0.235388
2080.000000	0.236157
2081.000000	0.236890
2082.000000	0.237457
2083.000000	0.237990
2084.000000	0.238628
2085.000000	0.239343
2086.000000	0.240044
2087.000000	0.240817
2088.000000	0.241600
2089.000000	0.242429
2090.000000	0.243330
2091.000000	0.244346
2092.000000	0.245339
2093.000000	0.246531
2094.000000	0.247468
2095.000000	0.248364
2096.000000	0.249104
2097.000000	0.249499
2098.000000	0.250035
2099.000000	0.250557
2100.000000	0.251364
2101.000000	0.252205
2102.000000	0.252758
2103.000000	0.253278
2104.000000	0.253802
2105.000000	0.254339
2106.000000	0.254840
2107.000000	0.255512
2108.000000	0.256255
2109.000000	0.256940
2110.000000	0.257650
2111.000000	0.258239
2112.000000	0.258633
2113.000000	0.258919
2114.000000	0.259343
2115.000000	0.259586
2116.000000	0.259886
2117.000000	0.260158
2118.000000	0.260438
2119.000000	0.260589
2120.000000	0.260911
2121.000000	0.261305
2122.000000	0.261707
2123.000000	0.262165
2124.000000	0.262698
2125.000000	0.263331
2126.000000	0.263817
2127.000000	0.264454
2128.000000	0.264931
2129.000000	0.265112
2130.000000	0.265371
2131.000000	0.265586
2132.000000	0.265603
2133.000000	0.265820
2134.000000	0.266149
2135.000000	0.266379
2136.000000	0.266914
2137.000000	0.267256
2138.000000	0.267625
2139.000000	0.267906
2140.000000	0.267997
2141.000000	0.268204
2142.000000	0.268591
2143.000000	0.268511
2144.000000	0.268335
2145.000000	0.268364
2146.000000	0.268350
2147.000000	0.268380
2148.000000	0.268754
2149.000000	0.269212
2150.000000	0.269469
2151.000000	0.269873
2152.000000	0.269905
2153.000000	0.269850
2154.000000	0.269848
2155.000000	0.269700
2156.000000	0.269708
2157.000000	0.269848
2158.000000	0.270002
2159.000000	0.270251
2160.000000	0.270536
2161.000000	0.270925
2162.000000	0.271323
2163.000000	0.271721
2164.000000	0.271925
2165.000000	0.271985
2166.000000	0.272098
2167.000000	0.272323
2168.000000	0.272326
2169.000000	0.272214
2170.000000	0.272074
2171.000000	0.271929
2172.000000	0.271565
2173.000000	0.271435
2174.000000	0.271435
2175.000000	0.271405
2176.000000	0.271337
2177.000000	0.271329
2178.000000	0.271504
2179.000000	0.271728
2180.000000	0.271921
2181.000000	0.272363
2182.000000	0.272573
2183.000000	0.272754
2184.000000	0.272460
2185.000000	0.271982
2186.000000	0.271422
2187.000000	0.270942
2188.000000	0.271337
2189.000000	0.271668
2190.000000	0.271850
2191.000000	0.272387
2192.000000	0.272413
2193.000000	0.271778
2194.000000	0.271674
2195.000000	0.271626
2196.000000	0.271765
2197.000000	0.272542
2198.000000	0.272803
2199.000000	0.272747
2200.000000	0.272893
2201.000000	0.272682
2202.000000	0.272825
2203.000000	0.273114
2204.000000	0.273822
2205.000000	0.274022
2206.000000	0.273580
2207.000000	0.272580
2208.000000	0.272168
2209.000000	0.271861
2210.000000	0.271927
2211.000000	0.272136
2212.000000	0.272436
2213.000000	0.272445
2214.000000	0.272221
2215.000000	0.271988
2216.000000	0.271441
2217.000000	0.271398
2218.000000	0.271624
2219.000000	0.271707
2220.000000	0.271936
2221.000000	0.272264
2222.000000	0.272561
2223.000000	0.272863
2224.000000	0.273294
2225.000000	0.274001
2226.000000	0.273778
2227.000000	0.272801
2228.000000	0.273553
2229.000000	0.273459
2230.000000	0.273016
2231.000000	0.273293
2232.000000	0.272511
2233.000000	0.271736
2234.000000	0.271584
2235.000000	0.271919
2236.000000	0.271892
2237.000000	0.271611
2238.000000	0.271796
2239.000000	0.272014
2240.000000	0.272468
2241.000000	0.273975
2242.000000	0.273913
2243.000000	0.272963
2244.000000	0.272330
2245.000000	0.270357
2246.000000	0.269692
2247.000000	0.270198
2248.000000	0.270158
2249.000000	0.270497
2250.000000	0.270550
2251.000000	0.269796
2252.000000	0.269521
2253.000000	0.269682
2254.000000	0.269883
2255.000000	0.271203
2256.000000	0.272697
2257.000000	0.273532
2258.000000	0.273943
2259.000000	0.273340
2260.000000	0.272107
2261.000000	0.270687
2262.000000	0.268698
2263.000000	0.267189
2264.000000	0.264912
2265.000000	0.264416
2266.000000	0.265554
2267.000000	0.265055
2268.000000	0.264743
2269.000000	0.264269
2270.000000	0.262593
2271.000000	0.261674
2272.000000	0.261731
2273.000000	0.261383
2274.000000	0.260058
2275.000000	0.259621
2276.000000	0.260241
2277.000000	0.259837
2278.000000	0.258636
2279.000000	0.258353
2280.000000	0.256959
2281.000000	0.255354
2282.000000	0.255361
2283.000000	0.254696
2284.000000	0.252919
2285.000000	0.251407
2286.000000	0.249356
2287.000000	0.247411
2288.000000	0.246630
2289.000000	0.245740
2290.000000	0.244260
2291.000000	0.243331
2292.000000	0.242333
2293.000000	0.241255
2294.000000	0.240434
2295.000000	0.239832
2296.000000	0.239069
2297.000000	0.238303
2298.000000	0.237849
2299.000000	0.237602
2300.000000	0.237355
2301.000000	0.237166
2302.000000	0.236874
2303.000000	0.236401
2304.000000	0.236299
2305.000000	0.236483
2306.000000	0.236697
2307.000000	0.237241
2308.000000	0.237449
2309.000000	0.237145
2310.000000	0.236935
2311.000000	0.236746
2312.000000	0.236843
2313.000000	0.236489
2314.000000	0.235968
2315.000000	0.235273
2316.000000	0.233868
2317.000000	0.232965
2318.000000	0.233232
2319.000000	0.234158
2320.000000	0.234726
2321.000000	0.235322
2322.000000	0.235016
2323.000000	0.233783
2324.000000	0.233167
2325.000000	0.232137
2326.000000	0.230987
2327.000000	0.230067
2328.000000	0.228705
2329.000000	0.228210
2330.000000	0.228395
2331.000000	0.227801
2332.000000	0.226916
2333.000000	0.225811
2334.000000	0.224137
2335.000000	0.223281
2336.000000	0.222704
2337.000000	0.221884
2338.000000	0.221844
2339.000000	0.220419
2340.000000	0.217923
2341.000000	0.215655
2342.000000	0.211967
2343.000000	0.210414
2344.000000	0.210262
2345.000000	0.210057
2346.000000	0.211538
2347.000000	0.210991
2348.000000	0.209783
2349.000000	0.207454
2350.000000	0.204620
2351.000000	0.202776
2352.000000	0.201495
2353.000000	0.201349
2354.000000	0.200847
2355.000000	0.200245
2356.000000	0.199692
2357.000000	0.198767
2358.000000	0.198351
2359.000000	0.198661
2360.000000	0.198548
2361.000000	0.197618
2362.000000	0.195902
2363.000000	0.193040
2364.000000	0.189060
2365.000000	0.186059
2366.000000	0.184703
2367.000000	0.183661
2368.000000	0.184713
2369.000000	0.185028
2370.000000	0.182980
2371.000000	0.182245
2372.000000	0.181003
2373.000000	0.179691
2374.000000	0.179151
2375.000000	0.178328
2376.000000	0.177784
2377.000000	0.176745
2378.000000	0.176064
2379.000000	0.174911
2380.000000	0.173083
2381.000000	0.172505
2382.000000	0.171572
2383.000000	0.171770
2384.000000	0.171920
2385.000000	0.170880
2386.000000	0.170939
2387.000000	0.170164
2388.000000	0.170365
2389.000000	0.171011
2390.000000	0.171196
2391.000000	0.171164
2392.000000	0.169305
2393.000000	0.168168
2394.000000	0.167906
2395.000000	0.168113
2396.000000	0.167432
2397.000000	0.164774
2398.000000	0.161433
2399.000000	0.156599
2400.000000	0.153587
2401.000000	0.155118
2402.000000	0.157458
2403.000000	0.159134
2404.000000	0.160673
2405.000000	0.158808
2406.000000	0.156272
2407.000000	0.156522
2408.000000	0.156885
2409.000000	0.157768
2410.000000	0.157113
2411.000000	0.155278
2412.000000	0.154262
2413.000000	0.155179
2414.000000	0.157212
2415.000000	0.158855
2416.000000	0.162674
2417.000000	0.162281
2418.000000	0.159550
2419.000000	0.157398
2420.000000	0.152946
2421.000000	0.153110
2422.000000	0.154881
2423.000000	0.157968
2424.000000	0.159537
2425.000000	0.155521
2426.000000	0.154476
2427.000000	0.151887
2428.000000	0.146646
2429.000000	0.146484
2430.000000	0.147825
2431.000000	0.147736
2432.000000	0.150591
2433.000000	0.152135
2434.000000	0.150713
2435.000000	0.151299
2436.000000	0.147618
2437.000000	0.143942
2438.000000	0.143203
2439.000000	0.139924
2440.000000	0.140493
2441.000000	0.144631
2442.000000	0.146698
2443.000000	0.148902
2444.000000	0.151558
2445.000000	0.149241
2446.000000	0.144341
2447.000000	0.138557
2448.000000	0.133092
2449.000000	0.133445
2450.000000	0.134854
2451.000000	0.135913
2452.000000	0.139270
2453.000000	0.141915
2454.000000	0.142756
2455.000000	0.140464
2456.000000	0.137637
2457.000000	0.136662
2458.000000	0.134794
2459.000000	0.136242
2460.000000	0.141525
2461.000000	0.141349
2462.000000	0.137701
2463.000000	0.138006
2464.000000	0.132918
2465.000000	0.129628
2466.000000	0.133431
2467.000000	0.130684
2468.000000	0.130092
2469.000000	0.133981
2470.000000	0.132965
2471.000000	0.125931
2472.000000	0.125919
2473.000000	0.127068
2474.000000	0.122394
2475.000000	0.136029
2476.000000	0.144071
2477.000000	0.130726
2478.000000	0.123079
2479.000000	0.112281
2480.000000	0.100813
2481.000000	0.101534
2482.000000	0.108593
2483.000000	0.113294
2484.000000	0.113882
2485.000000	0.116831
2486.000000	0.114778
2487.000000	0.104488
2488.000000	0.100882
2489.000000	0.110866
2490.000000	0.124540
2491.000000	0.146059
2492.000000	0.145929
2493.000000	0.124504
2494.000000	0.116792
2495.000000	0.096578
2496.000000	0.096471
2497.000000	0.124951
2498.000000	0.129065
2499.000000	0.136805
2500.000000	0.136447
