# Wavelength	NAu-2-40_HEX-30_FV7-30_00002.asd.rts.txt
350.000000	0.152925
351.000000	0.131602
352.000000	0.125493
353.000000	0.127246
354.000000	0.132594
355.000000	0.147833
356.000000	0.148217
357.000000	0.138303
358.000000	0.141006
359.000000	0.146955
360.000000	0.148959
361.000000	0.141852
362.000000	0.133743
363.000000	0.132330
364.000000	0.137156
365.000000	0.130203
366.000000	0.129920
367.000000	0.137646
368.000000	0.141184
369.000000	0.140229
370.000000	0.138333
371.000000	0.139630
372.000000	0.137631
373.000000	0.136894
374.000000	0.139592
375.000000	0.137556
376.000000	0.137696
377.000000	0.140058
378.000000	0.138424
379.000000	0.137072
380.000000	0.136677
381.000000	0.137070
382.000000	0.136382
383.000000	0.135673
384.000000	0.135610
385.000000	0.133950
386.000000	0.134499
387.000000	0.137522
388.000000	0.139487
389.000000	0.140742
390.000000	0.141126
391.000000	0.140334
392.000000	0.138631
393.000000	0.137666
394.000000	0.138346
395.000000	0.138918
396.000000	0.140294
397.000000	0.141726
398.000000	0.139854
399.000000	0.139094
400.000000	0.139963
401.000000	0.141265
402.000000	0.142608
403.000000	0.142712
404.000000	0.141284
405.000000	0.141862
406.000000	0.142121
407.000000	0.141514
408.000000	0.142879
409.000000	0.143275
410.000000	0.142694
411.000000	0.142703
412.000000	0.142958
413.000000	0.143201
414.000000	0.143241
415.000000	0.143161
416.000000	0.143348
417.000000	0.143996
418.000000	0.145047
419.000000	0.145398
420.000000	0.145216
421.000000	0.145781
422.000000	0.146172
423.000000	0.146474
424.000000	0.147023
425.000000	0.147129
426.000000	0.147147
427.000000	0.147468
428.000000	0.148346
429.000000	0.148878
430.000000	0.148881
431.000000	0.149082
432.000000	0.149001
433.000000	0.149009
434.000000	0.149833
435.000000	0.150056
436.000000	0.149980
437.000000	0.150139
438.000000	0.150550
439.000000	0.150986
440.000000	0.151300
441.000000	0.151223
442.000000	0.151397
443.000000	0.151893
444.000000	0.152489
445.000000	0.152707
446.000000	0.152786
447.000000	0.153045
448.000000	0.153559
449.000000	0.154147
450.000000	0.154646
451.000000	0.154977
452.000000	0.155200
453.000000	0.155376
454.000000	0.155723
455.000000	0.156078
456.000000	0.156536
457.000000	0.157130
458.000000	0.157171
459.000000	0.157256
460.000000	0.157916
461.000000	0.158290
462.000000	0.158668
463.000000	0.159124
464.000000	0.159630
465.000000	0.160003
466.000000	0.160194
467.000000	0.160328
468.000000	0.160524
469.000000	0.160733
470.000000	0.160987
471.000000	0.161384
472.000000	0.161866
473.000000	0.162363
474.000000	0.162749
475.000000	0.162979
476.000000	0.163165
477.000000	0.163386
478.000000	0.163462
479.000000	0.163712
480.000000	0.164376
481.000000	0.164732
482.000000	0.165036
483.000000	0.165443
484.000000	0.165773
485.000000	0.165957
486.000000	0.166125
487.000000	0.166410
488.000000	0.166535
489.000000	0.166540
490.000000	0.166662
491.000000	0.167051
492.000000	0.167439
493.000000	0.167444
494.000000	0.167636
495.000000	0.167798
496.000000	0.167763
497.000000	0.167859
498.000000	0.167968
499.000000	0.168109
500.000000	0.168336
501.000000	0.168614
502.000000	0.168831
503.000000	0.168814
504.000000	0.169146
505.000000	0.169508
506.000000	0.169572
507.000000	0.169829
508.000000	0.170149
509.000000	0.170418
510.000000	0.170684
511.000000	0.171106
512.000000	0.171600
513.000000	0.171823
514.000000	0.172152
515.000000	0.172611
516.000000	0.173065
517.000000	0.173424
518.000000	0.173792
519.000000	0.174191
520.000000	0.174542
521.000000	0.174938
522.000000	0.175418
523.000000	0.175940
524.000000	0.176478
525.000000	0.177077
526.000000	0.177854
527.000000	0.178667
528.000000	0.179479
529.000000	0.180341
530.000000	0.181417
531.000000	0.182540
532.000000	0.183543
533.000000	0.184532
534.000000	0.185590
535.000000	0.186734
536.000000	0.187944
537.000000	0.189091
538.000000	0.190172
539.000000	0.191230
540.000000	0.192242
541.000000	0.193211
542.000000	0.194176
543.000000	0.195191
544.000000	0.196152
545.000000	0.196997
546.000000	0.197916
547.000000	0.198817
548.000000	0.199756
549.000000	0.200820
550.000000	0.201925
551.000000	0.203071
552.000000	0.204243
553.000000	0.205459
554.000000	0.206737
555.000000	0.208111
556.000000	0.209659
557.000000	0.211172
558.000000	0.212684
559.000000	0.214272
560.000000	0.215802
561.000000	0.217324
562.000000	0.218854
563.000000	0.220345
564.000000	0.221828
565.000000	0.223241
566.000000	0.224494
567.000000	0.225751
568.000000	0.227046
569.000000	0.228167
570.000000	0.229141
571.000000	0.230026
572.000000	0.230941
573.000000	0.231733
574.000000	0.232412
575.000000	0.233081
576.000000	0.233622
577.000000	0.234038
578.000000	0.234411
579.000000	0.234787
580.000000	0.235101
581.000000	0.235315
582.000000	0.235437
583.000000	0.235557
584.000000	0.235685
585.000000	0.235784
586.000000	0.235786
587.000000	0.235726
588.000000	0.235646
589.000000	0.235474
590.000000	0.235284
591.000000	0.235122
592.000000	0.234929
593.000000	0.234719
594.000000	0.234476
595.000000	0.234150
596.000000	0.233827
597.000000	0.233457
598.000000	0.232885
599.000000	0.232415
600.000000	0.232001
601.000000	0.231500
602.000000	0.230992
603.000000	0.230521
604.000000	0.230084
605.000000	0.229542
606.000000	0.229074
607.000000	0.228668
608.000000	0.228188
609.000000	0.227709
610.000000	0.227264
611.000000	0.226862
612.000000	0.226403
613.000000	0.225965
614.000000	0.225597
615.000000	0.225113
616.000000	0.224648
617.000000	0.224220
618.000000	0.223809
619.000000	0.223426
620.000000	0.223035
621.000000	0.222641
622.000000	0.222312
623.000000	0.222003
624.000000	0.221675
625.000000	0.221406
626.000000	0.221136
627.000000	0.220866
628.000000	0.220696
629.000000	0.220531
630.000000	0.220294
631.000000	0.220126
632.000000	0.219983
633.000000	0.219835
634.000000	0.219654
635.000000	0.219497
636.000000	0.219415
637.000000	0.219389
638.000000	0.219300
639.000000	0.219195
640.000000	0.219135
641.000000	0.219080
642.000000	0.219121
643.000000	0.219193
644.000000	0.219205
645.000000	0.219274
646.000000	0.219378
647.000000	0.219471
648.000000	0.219583
649.000000	0.219690
650.000000	0.219798
651.000000	0.219994
652.000000	0.220225
653.000000	0.220487
654.000000	0.220730
655.000000	0.220995
656.000000	0.221303
657.000000	0.221630
658.000000	0.222028
659.000000	0.222420
660.000000	0.222779
661.000000	0.223217
662.000000	0.223614
663.000000	0.224034
664.000000	0.224571
665.000000	0.225187
666.000000	0.225767
667.000000	0.226219
668.000000	0.226877
669.000000	0.227573
670.000000	0.228206
671.000000	0.228892
672.000000	0.229610
673.000000	0.230359
674.000000	0.231172
675.000000	0.231976
676.000000	0.232774
677.000000	0.233606
678.000000	0.234473
679.000000	0.235343
680.000000	0.236215
681.000000	0.237173
682.000000	0.238172
683.000000	0.239161
684.000000	0.240260
685.000000	0.241335
686.000000	0.242414
687.000000	0.243529
688.000000	0.244644
689.000000	0.245803
690.000000	0.247050
691.000000	0.248263
692.000000	0.249491
693.000000	0.250798
694.000000	0.252122
695.000000	0.253432
696.000000	0.254749
697.000000	0.256114
698.000000	0.257469
699.000000	0.258847
700.000000	0.260285
701.000000	0.261754
702.000000	0.263208
703.000000	0.264661
704.000000	0.266268
705.000000	0.267896
706.000000	0.269477
707.000000	0.271061
708.000000	0.272763
709.000000	0.274455
710.000000	0.276048
711.000000	0.277674
712.000000	0.279324
713.000000	0.281008
714.000000	0.282717
715.000000	0.284406
716.000000	0.286082
717.000000	0.287761
718.000000	0.289502
719.000000	0.291233
720.000000	0.292911
721.000000	0.294602
722.000000	0.296243
723.000000	0.297889
724.000000	0.299593
725.000000	0.301315
726.000000	0.303092
727.000000	0.304830
728.000000	0.306524
729.000000	0.308219
730.000000	0.309895
731.000000	0.311555
732.000000	0.313159
733.000000	0.314735
734.000000	0.316278
735.000000	0.317857
736.000000	0.319522
737.000000	0.321049
738.000000	0.322460
739.000000	0.323929
740.000000	0.325395
741.000000	0.326892
742.000000	0.328265
743.000000	0.329493
744.000000	0.330805
745.000000	0.332061
746.000000	0.333330
747.000000	0.334614
748.000000	0.335785
749.000000	0.336980
750.000000	0.338221
751.000000	0.339303
752.000000	0.340304
753.000000	0.341311
754.000000	0.342403
755.000000	0.343423
756.000000	0.344401
757.000000	0.345349
758.000000	0.346215
759.000000	0.347066
760.000000	0.347878
761.000000	0.348729
762.000000	0.349543
763.000000	0.350325
764.000000	0.351211
765.000000	0.351958
766.000000	0.352577
767.000000	0.353145
768.000000	0.353791
769.000000	0.354430
770.000000	0.355010
771.000000	0.355516
772.000000	0.356073
773.000000	0.356599
774.000000	0.357085
775.000000	0.357538
776.000000	0.357923
777.000000	0.358243
778.000000	0.358742
779.000000	0.359202
780.000000	0.359543
781.000000	0.359785
782.000000	0.360041
783.000000	0.360366
784.000000	0.360595
785.000000	0.360902
786.000000	0.361158
787.000000	0.361333
788.000000	0.361662
789.000000	0.361902
790.000000	0.362045
791.000000	0.362260
792.000000	0.362530
793.000000	0.362710
794.000000	0.362728
795.000000	0.362781
796.000000	0.362905
797.000000	0.363078
798.000000	0.363226
799.000000	0.363327
800.000000	0.363402
801.000000	0.363482
802.000000	0.363519
803.000000	0.363566
804.000000	0.363659
805.000000	0.363651
806.000000	0.363532
807.000000	0.363478
808.000000	0.363565
809.000000	0.363607
810.000000	0.363566
811.000000	0.363460
812.000000	0.363462
813.000000	0.363465
814.000000	0.363439
815.000000	0.363444
816.000000	0.363416
817.000000	0.363404
818.000000	0.363370
819.000000	0.363345
820.000000	0.363237
821.000000	0.363013
822.000000	0.362914
823.000000	0.362798
824.000000	0.362618
825.000000	0.362512
826.000000	0.362513
827.000000	0.362549
828.000000	0.362567
829.000000	0.362370
830.000000	0.362207
831.000000	0.362155
832.000000	0.362004
833.000000	0.361887
834.000000	0.361775
835.000000	0.361666
836.000000	0.361521
837.000000	0.361350
838.000000	0.361196
839.000000	0.361073
840.000000	0.360888
841.000000	0.360741
842.000000	0.360676
843.000000	0.360613
844.000000	0.360478
845.000000	0.360222
846.000000	0.359922
847.000000	0.359631
848.000000	0.359384
849.000000	0.359232
850.000000	0.359131
851.000000	0.358971
852.000000	0.358769
853.000000	0.358600
854.000000	0.358273
855.000000	0.358011
856.000000	0.357890
857.000000	0.357758
858.000000	0.357565
859.000000	0.357275
860.000000	0.357166
861.000000	0.356999
862.000000	0.356812
863.000000	0.356641
864.000000	0.356423
865.000000	0.356162
866.000000	0.355926
867.000000	0.355812
868.000000	0.355660
869.000000	0.355390
870.000000	0.355098
871.000000	0.354820
872.000000	0.354479
873.000000	0.354033
874.000000	0.353790
875.000000	0.353544
876.000000	0.353307
877.000000	0.353080
878.000000	0.352763
879.000000	0.352495
880.000000	0.352226
881.000000	0.352091
882.000000	0.351881
883.000000	0.351643
884.000000	0.351444
885.000000	0.351264
886.000000	0.351043
887.000000	0.350773
888.000000	0.350428
889.000000	0.350171
890.000000	0.349913
891.000000	0.349718
892.000000	0.349473
893.000000	0.349191
894.000000	0.348981
895.000000	0.348638
896.000000	0.348286
897.000000	0.347899
898.000000	0.347451
899.000000	0.347212
900.000000	0.347013
901.000000	0.346766
902.000000	0.346687
903.000000	0.346458
904.000000	0.346146
905.000000	0.345812
906.000000	0.345663
907.000000	0.345354
908.000000	0.344940
909.000000	0.344716
910.000000	0.344452
911.000000	0.344096
912.000000	0.343719
913.000000	0.343597
914.000000	0.343305
915.000000	0.342881
916.000000	0.342548
917.000000	0.342412
918.000000	0.342243
919.000000	0.341876
920.000000	0.341564
921.000000	0.341413
922.000000	0.341237
923.000000	0.340737
924.000000	0.340497
925.000000	0.340241
926.000000	0.339856
927.000000	0.339563
928.000000	0.339229
929.000000	0.338892
930.000000	0.338642
931.000000	0.338506
932.000000	0.338292
933.000000	0.337961
934.000000	0.337540
935.000000	0.337281
936.000000	0.337057
937.000000	0.336673
938.000000	0.336569
939.000000	0.336440
940.000000	0.336150
941.000000	0.335862
942.000000	0.335557
943.000000	0.335241
944.000000	0.334872
945.000000	0.334822
946.000000	0.334660
947.000000	0.334440
948.000000	0.334235
949.000000	0.333801
950.000000	0.333451
951.000000	0.333218
952.000000	0.332980
953.000000	0.332879
954.000000	0.332662
955.000000	0.332153
956.000000	0.331851
957.000000	0.331580
958.000000	0.331282
959.000000	0.331061
960.000000	0.330752
961.000000	0.330586
962.000000	0.330506
963.000000	0.330165
964.000000	0.329854
965.000000	0.329752
966.000000	0.329744
967.000000	0.329557
968.000000	0.329127
969.000000	0.328607
970.000000	0.328393
971.000000	0.328518
972.000000	0.328442
973.000000	0.328024
974.000000	0.327862
975.000000	0.327826
976.000000	0.327617
977.000000	0.327184
978.000000	0.327367
979.000000	0.327392
980.000000	0.326957
981.000000	0.326556
982.000000	0.326307
983.000000	0.326223
984.000000	0.326185
985.000000	0.325812
986.000000	0.325538
987.000000	0.325476
988.000000	0.325466
989.000000	0.325340
990.000000	0.325495
991.000000	0.325423
992.000000	0.324742
993.000000	0.324891
994.000000	0.325002
995.000000	0.324937
996.000000	0.324753
997.000000	0.324837
998.000000	0.324864
999.000000	0.324722
1000.000000	0.324473
1001.000000	0.324902
1002.000000	0.324667
1003.000000	0.324490
1004.000000	0.324297
1005.000000	0.323765
1006.000000	0.323022
1007.000000	0.322151
1008.000000	0.321779
1009.000000	0.321530
1010.000000	0.321736
1011.000000	0.322954
1012.000000	0.323655
1013.000000	0.323220
1014.000000	0.322664
1015.000000	0.321517
1016.000000	0.320579
1017.000000	0.320827
1018.000000	0.321042
1019.000000	0.321322
1020.000000	0.322641
1021.000000	0.322733
1022.000000	0.322081
1023.000000	0.322176
1024.000000	0.322263
1025.000000	0.321959
1026.000000	0.321483
1027.000000	0.321489
1028.000000	0.321906
1029.000000	0.322407
1030.000000	0.323186
1031.000000	0.323682
1032.000000	0.323660
1033.000000	0.323196
1034.000000	0.322975
1035.000000	0.322882
1036.000000	0.323025
1037.000000	0.323198
1038.000000	0.323378
1039.000000	0.324123
1040.000000	0.324326
1041.000000	0.324030
1042.000000	0.323987
1043.000000	0.323856
1044.000000	0.324023
1045.000000	0.324525
1046.000000	0.324625
1047.000000	0.324812
1048.000000	0.324851
1049.000000	0.324906
1050.000000	0.324955
1051.000000	0.325097
1052.000000	0.325188
1053.000000	0.325296
1054.000000	0.325827
1055.000000	0.326030
1056.000000	0.325999
1057.000000	0.326139
1058.000000	0.326107
1059.000000	0.326024
1060.000000	0.326651
1061.000000	0.326965
1062.000000	0.327101
1063.000000	0.327553
1064.000000	0.327761
1065.000000	0.327449
1066.000000	0.327697
1067.000000	0.328233
1068.000000	0.328654
1069.000000	0.329384
1070.000000	0.329661
1071.000000	0.329599
1072.000000	0.329719
1073.000000	0.329595
1074.000000	0.329931
1075.000000	0.330378
1076.000000	0.330381
1077.000000	0.330282
1078.000000	0.330556
1079.000000	0.330697
1080.000000	0.330924
1081.000000	0.331152
1082.000000	0.331400
1083.000000	0.331706
1084.000000	0.332176
1085.000000	0.332632
1086.000000	0.333313
1087.000000	0.333595
1088.000000	0.333394
1089.000000	0.333462
1090.000000	0.333406
1091.000000	0.333256
1092.000000	0.333645
1093.000000	0.334525
1094.000000	0.334845
1095.000000	0.335000
1096.000000	0.335316
1097.000000	0.335482
1098.000000	0.335716
1099.000000	0.336073
1100.000000	0.336399
1101.000000	0.336581
1102.000000	0.336716
1103.000000	0.336840
1104.000000	0.337077
1105.000000	0.337325
1106.000000	0.337448
1107.000000	0.337512
1108.000000	0.337608
1109.000000	0.337515
1110.000000	0.337575
1111.000000	0.337927
1112.000000	0.338593
1113.000000	0.339126
1114.000000	0.339997
1115.000000	0.340329
1116.000000	0.340394
1117.000000	0.340516
1118.000000	0.340324
1119.000000	0.340303
1120.000000	0.340354
1121.000000	0.340455
1122.000000	0.340730
1123.000000	0.341073
1124.000000	0.341301
1125.000000	0.341500
1126.000000	0.341553
1127.000000	0.341584
1128.000000	0.341583
1129.000000	0.341494
1130.000000	0.341717
1131.000000	0.342166
1132.000000	0.342267
1133.000000	0.342373
1134.000000	0.342645
1135.000000	0.342840
1136.000000	0.342862
1137.000000	0.342878
1138.000000	0.343007
1139.000000	0.343094
1140.000000	0.343196
1141.000000	0.343459
1142.000000	0.343695
1143.000000	0.343685
1144.000000	0.343835
1145.000000	0.343943
1146.000000	0.344070
1147.000000	0.344139
1148.000000	0.343925
1149.000000	0.344048
1150.000000	0.344417
1151.000000	0.344565
1152.000000	0.344658
1153.000000	0.344819
1154.000000	0.344901
1155.000000	0.344900
1156.000000	0.344934
1157.000000	0.344951
1158.000000	0.344702
1159.000000	0.344666
1160.000000	0.344856
1161.000000	0.344881
1162.000000	0.344909
1163.000000	0.345051
1164.000000	0.345199
1165.000000	0.345272
1166.000000	0.345397
1167.000000	0.345588
1168.000000	0.345678
1169.000000	0.345691
1170.000000	0.345808
1171.000000	0.346052
1172.000000	0.346190
1173.000000	0.346232
1174.000000	0.346323
1175.000000	0.346379
1176.000000	0.346391
1177.000000	0.346462
1178.000000	0.346599
1179.000000	0.346802
1180.000000	0.346810
1181.000000	0.346926
1182.000000	0.346870
1183.000000	0.346830
1184.000000	0.346854
1185.000000	0.346924
1186.000000	0.347131
1187.000000	0.347257
1188.000000	0.347386
1189.000000	0.347420
1190.000000	0.347443
1191.000000	0.347468
1192.000000	0.347527
1193.000000	0.347699
1194.000000	0.347824
1195.000000	0.347965
1196.000000	0.348048
1197.000000	0.348162
1198.000000	0.348343
1199.000000	0.348493
1200.000000	0.348735
1201.000000	0.348776
1202.000000	0.348681
1203.000000	0.348642
1204.000000	0.348590
1205.000000	0.348604
1206.000000	0.348549
1207.000000	0.348639
1208.000000	0.348654
1209.000000	0.348610
1210.000000	0.348689
1211.000000	0.348910
1212.000000	0.348986
1213.000000	0.349063
1214.000000	0.349147
1215.000000	0.349191
1216.000000	0.349232
1217.000000	0.349202
1218.000000	0.349247
1219.000000	0.349378
1220.000000	0.349419
1221.000000	0.349516
1222.000000	0.349658
1223.000000	0.349790
1224.000000	0.349914
1225.000000	0.349886
1226.000000	0.349913
1227.000000	0.349951
1228.000000	0.349954
1229.000000	0.349965
1230.000000	0.350067
1231.000000	0.350032
1232.000000	0.349966
1233.000000	0.350128
1234.000000	0.350380
1235.000000	0.350498
1236.000000	0.350567
1237.000000	0.350716
1238.000000	0.350741
1239.000000	0.350839
1240.000000	0.351115
1241.000000	0.351217
1242.000000	0.351157
1243.000000	0.351090
1244.000000	0.351177
1245.000000	0.351409
1246.000000	0.351578
1247.000000	0.351875
1248.000000	0.351964
1249.000000	0.351856
1250.000000	0.351930
1251.000000	0.352022
1252.000000	0.352203
1253.000000	0.352732
1254.000000	0.352790
1255.000000	0.352565
1256.000000	0.352574
1257.000000	0.352420
1258.000000	0.352430
1259.000000	0.352622
1260.000000	0.352853
1261.000000	0.353073
1262.000000	0.353217
1263.000000	0.353476
1264.000000	0.353598
1265.000000	0.353621
1266.000000	0.353456
1267.000000	0.353313
1268.000000	0.353316
1269.000000	0.353366
1270.000000	0.353639
1271.000000	0.353852
1272.000000	0.353937
1273.000000	0.354048
1274.000000	0.354066
1275.000000	0.354099
1276.000000	0.354212
1277.000000	0.354414
1278.000000	0.354522
1279.000000	0.354592
1280.000000	0.354676
1281.000000	0.354673
1282.000000	0.354549
1283.000000	0.354627
1284.000000	0.354710
1285.000000	0.354819
1286.000000	0.354964
1287.000000	0.355186
1288.000000	0.355288
1289.000000	0.355337
1290.000000	0.355273
1291.000000	0.355169
1292.000000	0.355202
1293.000000	0.355193
1294.000000	0.355193
1295.000000	0.355353
1296.000000	0.355489
1297.000000	0.355664
1298.000000	0.355773
1299.000000	0.355662
1300.000000	0.355723
1301.000000	0.355806
1302.000000	0.355824
1303.000000	0.356143
1304.000000	0.356203
1305.000000	0.356149
1306.000000	0.356132
1307.000000	0.356141
1308.000000	0.356151
1309.000000	0.356142
1310.000000	0.356128
1311.000000	0.356102
1312.000000	0.356109
1313.000000	0.356199
1314.000000	0.356204
1315.000000	0.356133
1316.000000	0.356147
1317.000000	0.356037
1318.000000	0.355857
1319.000000	0.355801
1320.000000	0.355727
1321.000000	0.355662
1322.000000	0.355679
1323.000000	0.355631
1324.000000	0.355638
1325.000000	0.355703
1326.000000	0.355746
1327.000000	0.355879
1328.000000	0.355965
1329.000000	0.355897
1330.000000	0.355716
1331.000000	0.355597
1332.000000	0.355424
1333.000000	0.355396
1334.000000	0.355578
1335.000000	0.355632
1336.000000	0.355669
1337.000000	0.355597
1338.000000	0.355364
1339.000000	0.355139
1340.000000	0.354984
1341.000000	0.354944
1342.000000	0.354994
1343.000000	0.354920
1344.000000	0.354785
1345.000000	0.354695
1346.000000	0.354641
1347.000000	0.354467
1348.000000	0.354240
1349.000000	0.354034
1350.000000	0.353765
1351.000000	0.353499
1352.000000	0.353481
1353.000000	0.353395
1354.000000	0.353282
1355.000000	0.353292
1356.000000	0.353210
1357.000000	0.352985
1358.000000	0.352904
1359.000000	0.352828
1360.000000	0.352747
1361.000000	0.352788
1362.000000	0.352694
1363.000000	0.352462
1364.000000	0.352330
1365.000000	0.352149
1366.000000	0.352054
1367.000000	0.352009
1368.000000	0.352059
1369.000000	0.351986
1370.000000	0.351642
1371.000000	0.351423
1372.000000	0.351085
1373.000000	0.350784
1374.000000	0.350675
1375.000000	0.350422
1376.000000	0.350091
1377.000000	0.349917
1378.000000	0.349718
1379.000000	0.349119
1380.000000	0.348648
1381.000000	0.348125
1382.000000	0.347355
1383.000000	0.346988
1384.000000	0.346465
1385.000000	0.345575
1386.000000	0.344899
1387.000000	0.344244
1388.000000	0.343389
1389.000000	0.342610
1390.000000	0.341832
1391.000000	0.340813
1392.000000	0.339703
1393.000000	0.338533
1394.000000	0.337344
1395.000000	0.336193
1396.000000	0.334953
1397.000000	0.333683
1398.000000	0.332386
1399.000000	0.331021
1400.000000	0.329589
1401.000000	0.328196
1402.000000	0.326858
1403.000000	0.325451
1404.000000	0.324094
1405.000000	0.322780
1406.000000	0.321526
1407.000000	0.320447
1408.000000	0.319456
1409.000000	0.318427
1410.000000	0.317477
1411.000000	0.316621
1412.000000	0.315687
1413.000000	0.314969
1414.000000	0.314472
1415.000000	0.313795
1416.000000	0.313220
1417.000000	0.312752
1418.000000	0.312040
1419.000000	0.311614
1420.000000	0.311127
1421.000000	0.310533
1422.000000	0.310112
1423.000000	0.309554
1424.000000	0.308956
1425.000000	0.308530
1426.000000	0.308048
1427.000000	0.307667
1428.000000	0.307344
1429.000000	0.307027
1430.000000	0.306786
1431.000000	0.306545
1432.000000	0.306203
1433.000000	0.305790
1434.000000	0.305503
1435.000000	0.305247
1436.000000	0.305049
1437.000000	0.305012
1438.000000	0.304872
1439.000000	0.304697
1440.000000	0.304620
1441.000000	0.304572
1442.000000	0.304586
1443.000000	0.304576
1444.000000	0.304713
1445.000000	0.304861
1446.000000	0.305153
1447.000000	0.305606
1448.000000	0.305917
1449.000000	0.306156
1450.000000	0.306466
1451.000000	0.306777
1452.000000	0.307055
1453.000000	0.307410
1454.000000	0.307719
1455.000000	0.307888
1456.000000	0.308055
1457.000000	0.308246
1458.000000	0.308487
1459.000000	0.308733
1460.000000	0.308960
1461.000000	0.309257
1462.000000	0.309449
1463.000000	0.309482
1464.000000	0.309670
1465.000000	0.309851
1466.000000	0.309923
1467.000000	0.310207
1468.000000	0.310425
1469.000000	0.310523
1470.000000	0.310674
1471.000000	0.310859
1472.000000	0.311085
1473.000000	0.311531
1474.000000	0.311982
1475.000000	0.312362
1476.000000	0.312775
1477.000000	0.313120
1478.000000	0.313360
1479.000000	0.313734
1480.000000	0.314119
1481.000000	0.314473
1482.000000	0.314922
1483.000000	0.315385
1484.000000	0.315802
1485.000000	0.316270
1486.000000	0.316787
1487.000000	0.317259
1488.000000	0.317779
1489.000000	0.318218
1490.000000	0.318492
1491.000000	0.318845
1492.000000	0.319077
1493.000000	0.319400
1494.000000	0.319758
1495.000000	0.320078
1496.000000	0.320459
1497.000000	0.320769
1498.000000	0.321063
1499.000000	0.321269
1500.000000	0.321476
1501.000000	0.321765
1502.000000	0.322065
1503.000000	0.322355
1504.000000	0.322714
1505.000000	0.322929
1506.000000	0.323136
1507.000000	0.323408
1508.000000	0.323675
1509.000000	0.323922
1510.000000	0.324091
1511.000000	0.324380
1512.000000	0.324679
1513.000000	0.324882
1514.000000	0.325155
1515.000000	0.325342
1516.000000	0.325468
1517.000000	0.325652
1518.000000	0.325915
1519.000000	0.326053
1520.000000	0.326175
1521.000000	0.326321
1522.000000	0.326421
1523.000000	0.326669
1524.000000	0.326914
1525.000000	0.327050
1526.000000	0.327241
1527.000000	0.327438
1528.000000	0.327576
1529.000000	0.327724
1530.000000	0.327735
1531.000000	0.327695
1532.000000	0.327735
1533.000000	0.327830
1534.000000	0.328066
1535.000000	0.328309
1536.000000	0.328411
1537.000000	0.328533
1538.000000	0.328518
1539.000000	0.328471
1540.000000	0.328568
1541.000000	0.328723
1542.000000	0.328879
1543.000000	0.328985
1544.000000	0.329155
1545.000000	0.329256
1546.000000	0.329263
1547.000000	0.329402
1548.000000	0.329259
1549.000000	0.329030
1550.000000	0.329081
1551.000000	0.329054
1552.000000	0.329161
1553.000000	0.329423
1554.000000	0.329524
1555.000000	0.329637
1556.000000	0.329792
1557.000000	0.329956
1558.000000	0.330129
1559.000000	0.330259
1560.000000	0.330329
1561.000000	0.330429
1562.000000	0.330453
1563.000000	0.330462
1564.000000	0.330544
1565.000000	0.330608
1566.000000	0.330575
1567.000000	0.330643
1568.000000	0.330610
1569.000000	0.330540
1570.000000	0.330542
1571.000000	0.330509
1572.000000	0.330529
1573.000000	0.330638
1574.000000	0.330704
1575.000000	0.330838
1576.000000	0.330866
1577.000000	0.330734
1578.000000	0.330731
1579.000000	0.330830
1580.000000	0.330860
1581.000000	0.331065
1582.000000	0.331072
1583.000000	0.330870
1584.000000	0.330748
1585.000000	0.330665
1586.000000	0.330678
1587.000000	0.330772
1588.000000	0.330792
1589.000000	0.330846
1590.000000	0.330877
1591.000000	0.330894
1592.000000	0.330955
1593.000000	0.331091
1594.000000	0.331121
1595.000000	0.331124
1596.000000	0.331137
1597.000000	0.331142
1598.000000	0.331178
1599.000000	0.331318
1600.000000	0.331331
1601.000000	0.331379
1602.000000	0.331380
1603.000000	0.331290
1604.000000	0.331320
1605.000000	0.331426
1606.000000	0.331486
1607.000000	0.331691
1608.000000	0.331713
1609.000000	0.331672
1610.000000	0.331605
1611.000000	0.331413
1612.000000	0.331411
1613.000000	0.331629
1614.000000	0.331713
1615.000000	0.331915
1616.000000	0.332006
1617.000000	0.331873
1618.000000	0.331880
1619.000000	0.331915
1620.000000	0.331974
1621.000000	0.332132
1622.000000	0.332277
1623.000000	0.332399
1624.000000	0.332506
1625.000000	0.332436
1626.000000	0.332465
1627.000000	0.332534
1628.000000	0.332660
1629.000000	0.332836
1630.000000	0.333016
1631.000000	0.333182
1632.000000	0.333272
1633.000000	0.333372
1634.000000	0.333496
1635.000000	0.333576
1636.000000	0.333716
1637.000000	0.333971
1638.000000	0.334073
1639.000000	0.334208
1640.000000	0.334247
1641.000000	0.334194
1642.000000	0.334280
1643.000000	0.334419
1644.000000	0.334546
1645.000000	0.334757
1646.000000	0.334878
1647.000000	0.334973
1648.000000	0.335070
1649.000000	0.335254
1650.000000	0.335427
1651.000000	0.335599
1652.000000	0.335844
1653.000000	0.336121
1654.000000	0.336316
1655.000000	0.336490
1656.000000	0.336500
1657.000000	0.336447
1658.000000	0.336422
1659.000000	0.336370
1660.000000	0.336484
1661.000000	0.336617
1662.000000	0.336717
1663.000000	0.336902
1664.000000	0.336947
1665.000000	0.336828
1666.000000	0.336984
1667.000000	0.337148
1668.000000	0.337220
1669.000000	0.337399
1670.000000	0.337345
1671.000000	0.337176
1672.000000	0.337205
1673.000000	0.337195
1674.000000	0.337339
1675.000000	0.337521
1676.000000	0.337618
1677.000000	0.337712
1678.000000	0.337720
1679.000000	0.337726
1680.000000	0.337804
1681.000000	0.338026
1682.000000	0.338329
1683.000000	0.338617
1684.000000	0.338786
1685.000000	0.338882
1686.000000	0.338896
1687.000000	0.338789
1688.000000	0.338623
1689.000000	0.338524
1690.000000	0.338496
1691.000000	0.338632
1692.000000	0.338772
1693.000000	0.338900
1694.000000	0.338893
1695.000000	0.338902
1696.000000	0.338815
1697.000000	0.338746
1698.000000	0.338755
1699.000000	0.338739
1700.000000	0.338752
1701.000000	0.338819
1702.000000	0.338556
1703.000000	0.338518
1704.000000	0.338847
1705.000000	0.338946
1706.000000	0.339111
1707.000000	0.339197
1708.000000	0.338970
1709.000000	0.338882
1710.000000	0.339038
1711.000000	0.339127
1712.000000	0.339271
1713.000000	0.339321
1714.000000	0.339372
1715.000000	0.339364
1716.000000	0.339244
1717.000000	0.339234
1718.000000	0.339223
1719.000000	0.339176
1720.000000	0.339238
1721.000000	0.339245
1722.000000	0.339121
1723.000000	0.339183
1724.000000	0.339475
1725.000000	0.339528
1726.000000	0.339346
1727.000000	0.339450
1728.000000	0.339500
1729.000000	0.339505
1730.000000	0.339877
1731.000000	0.340053
1732.000000	0.340019
1733.000000	0.340167
1734.000000	0.340320
1735.000000	0.340414
1736.000000	0.340427
1737.000000	0.340456
1738.000000	0.340489
1739.000000	0.340545
1740.000000	0.340587
1741.000000	0.340586
1742.000000	0.340595
1743.000000	0.340672
1744.000000	0.340748
1745.000000	0.340663
1746.000000	0.340543
1747.000000	0.340455
1748.000000	0.340281
1749.000000	0.340172
1750.000000	0.340064
1751.000000	0.339950
1752.000000	0.340006
1753.000000	0.340151
1754.000000	0.340189
1755.000000	0.340131
1756.000000	0.340094
1757.000000	0.339938
1758.000000	0.339948
1759.000000	0.340031
1760.000000	0.340167
1761.000000	0.340474
1762.000000	0.340586
1763.000000	0.340659
1764.000000	0.340721
1765.000000	0.340563
1766.000000	0.340592
1767.000000	0.340656
1768.000000	0.340676
1769.000000	0.340830
1770.000000	0.340997
1771.000000	0.341172
1772.000000	0.341214
1773.000000	0.341164
1774.000000	0.341123
1775.000000	0.341000
1776.000000	0.340981
1777.000000	0.341028
1778.000000	0.340996
1779.000000	0.340925
1780.000000	0.340897
1781.000000	0.340818
1782.000000	0.340729
1783.000000	0.340724
1784.000000	0.340569
1785.000000	0.340381
1786.000000	0.340131
1787.000000	0.340194
1788.000000	0.340342
1789.000000	0.340337
1790.000000	0.340689
1791.000000	0.340743
1792.000000	0.340730
1793.000000	0.340757
1794.000000	0.340538
1795.000000	0.340551
1796.000000	0.340790
1797.000000	0.340937
1798.000000	0.341109
1799.000000	0.341306
1800.000000	0.341580
1801.000000	0.341158
1802.000000	0.341435
1803.000000	0.341402
1804.000000	0.341774
1805.000000	0.342567
1806.000000	0.343115
1807.000000	0.343984
1808.000000	0.344244
1809.000000	0.343846
1810.000000	0.344206
1811.000000	0.344059
1812.000000	0.343305
1813.000000	0.343058
1814.000000	0.342909
1815.000000	0.343068
1816.000000	0.344132
1817.000000	0.343880
1818.000000	0.343058
1819.000000	0.342674
1820.000000	0.341607
1821.000000	0.340411
1822.000000	0.340522
1823.000000	0.342273
1824.000000	0.342422
1825.000000	0.342373
1826.000000	0.342499
1827.000000	0.341867
1828.000000	0.341572
1829.000000	0.341564
1830.000000	0.341643
1831.000000	0.341415
1832.000000	0.340380
1833.000000	0.340327
1834.000000	0.341134
1835.000000	0.341050
1836.000000	0.340788
1837.000000	0.340877
1838.000000	0.340615
1839.000000	0.339939
1840.000000	0.340505
1841.000000	0.340532
1842.000000	0.340189
1843.000000	0.339203
1844.000000	0.338774
1845.000000	0.338143
1846.000000	0.337662
1847.000000	0.337045
1848.000000	0.337069
1849.000000	0.336504
1850.000000	0.336073
1851.000000	0.336091
1852.000000	0.336438
1853.000000	0.336419
1854.000000	0.336626
1855.000000	0.336271
1856.000000	0.335506
1857.000000	0.334574
1858.000000	0.332925
1859.000000	0.331924
1860.000000	0.331110
1861.000000	0.329761
1862.000000	0.328821
1863.000000	0.328532
1864.000000	0.327678
1865.000000	0.326742
1866.000000	0.325723
1867.000000	0.324751
1868.000000	0.323053
1869.000000	0.321136
1870.000000	0.319441
1871.000000	0.317985
1872.000000	0.316868
1873.000000	0.315608
1874.000000	0.314978
1875.000000	0.313495
1876.000000	0.311434
1877.000000	0.308748
1878.000000	0.306228
1879.000000	0.303173
1880.000000	0.300759
1881.000000	0.298381
1882.000000	0.294883
1883.000000	0.291813
1884.000000	0.288475
1885.000000	0.283969
1886.000000	0.280167
1887.000000	0.276893
1888.000000	0.273253
1889.000000	0.269136
1890.000000	0.264934
1891.000000	0.260709
1892.000000	0.255601
1893.000000	0.250581
1894.000000	0.246202
1895.000000	0.241613
1896.000000	0.236888
1897.000000	0.232971
1898.000000	0.228590
1899.000000	0.224789
1900.000000	0.221934
1901.000000	0.218575
1902.000000	0.216182
1903.000000	0.214120
1904.000000	0.211835
1905.000000	0.209653
1906.000000	0.207639
1907.000000	0.205713
1908.000000	0.204004
1909.000000	0.202871
1910.000000	0.202392
1911.000000	0.201848
1912.000000	0.201533
1913.000000	0.201427
1914.000000	0.200880
1915.000000	0.200721
1916.000000	0.201132
1917.000000	0.201116
1918.000000	0.201043
1919.000000	0.200755
1920.000000	0.200700
1921.000000	0.200955
1922.000000	0.200945
1923.000000	0.201728
1924.000000	0.202646
1925.000000	0.202880
1926.000000	0.203289
1927.000000	0.203594
1928.000000	0.203799
1929.000000	0.203780
1930.000000	0.204071
1931.000000	0.204604
1932.000000	0.205047
1933.000000	0.205538
1934.000000	0.205228
1935.000000	0.205155
1936.000000	0.205452
1937.000000	0.204852
1938.000000	0.204839
1939.000000	0.204931
1940.000000	0.204839
1941.000000	0.204527
1942.000000	0.205351
1943.000000	0.206137
1944.000000	0.206663
1945.000000	0.206781
1946.000000	0.206690
1947.000000	0.206595
1948.000000	0.206104
1949.000000	0.206571
1950.000000	0.207366
1951.000000	0.207461
1952.000000	0.207369
1953.000000	0.207272
1954.000000	0.206948
1955.000000	0.206901
1956.000000	0.206681
1957.000000	0.206030
1958.000000	0.205324
1959.000000	0.204454
1960.000000	0.204003
1961.000000	0.204374
1962.000000	0.204723
1963.000000	0.205498
1964.000000	0.206037
1965.000000	0.206607
1966.000000	0.207096
1967.000000	0.207344
1968.000000	0.207190
1969.000000	0.206819
1970.000000	0.206622
1971.000000	0.206089
1972.000000	0.206080
1973.000000	0.206268
1974.000000	0.206653
1975.000000	0.207022
1976.000000	0.207995
1977.000000	0.208422
1978.000000	0.208527
1979.000000	0.209578
1980.000000	0.209738
1981.000000	0.210139
1982.000000	0.210989
1983.000000	0.211360
1984.000000	0.211809
1985.000000	0.212757
1986.000000	0.213249
1987.000000	0.213313
1988.000000	0.213620
1989.000000	0.214336
1990.000000	0.214836
1991.000000	0.215469
1992.000000	0.215784
1993.000000	0.216206
1994.000000	0.216889
1995.000000	0.217370
1996.000000	0.218208
1997.000000	0.218999
1998.000000	0.219691
1999.000000	0.220336
2000.000000	0.221020
2001.000000	0.222011
2002.000000	0.222492
2003.000000	0.223579
2004.000000	0.224557
2005.000000	0.224958
2006.000000	0.225785
2007.000000	0.226759
2008.000000	0.227726
2009.000000	0.228864
2010.000000	0.229869
2011.000000	0.230661
2012.000000	0.231620
2013.000000	0.232499
2014.000000	0.233612
2015.000000	0.234989
2016.000000	0.235826
2017.000000	0.236356
2018.000000	0.237498
2019.000000	0.238313
2020.000000	0.238964
2021.000000	0.239466
2022.000000	0.239397
2023.000000	0.240077
2024.000000	0.241203
2025.000000	0.241958
2026.000000	0.242969
2027.000000	0.243809
2028.000000	0.243845
2029.000000	0.243712
2030.000000	0.244022
2031.000000	0.244909
2032.000000	0.245561
2033.000000	0.246327
2034.000000	0.246958
2035.000000	0.247187
2036.000000	0.247900
2037.000000	0.249117
2038.000000	0.250121
2039.000000	0.251306
2040.000000	0.252697
2041.000000	0.253840
2042.000000	0.254524
2043.000000	0.255322
2044.000000	0.255840
2045.000000	0.255496
2046.000000	0.255691
2047.000000	0.256036
2048.000000	0.256181
2049.000000	0.256897
2050.000000	0.258128
2051.000000	0.258702
2052.000000	0.259016
2053.000000	0.259346
2054.000000	0.259566
2055.000000	0.259949
2056.000000	0.260488
2057.000000	0.261424
2058.000000	0.261814
2059.000000	0.262122
2060.000000	0.262667
2061.000000	0.263073
2062.000000	0.263738
2063.000000	0.264986
2064.000000	0.265482
2065.000000	0.265805
2066.000000	0.266171
2067.000000	0.266311
2068.000000	0.267233
2069.000000	0.267525
2070.000000	0.268158
2071.000000	0.268191
2072.000000	0.267656
2073.000000	0.267660
2074.000000	0.267749
2075.000000	0.268275
2076.000000	0.269260
2077.000000	0.270111
2078.000000	0.271463
2079.000000	0.272257
2080.000000	0.272791
2081.000000	0.273510
2082.000000	0.274160
2083.000000	0.274701
2084.000000	0.275148
2085.000000	0.275763
2086.000000	0.276361
2087.000000	0.277035
2088.000000	0.278169
2089.000000	0.279066
2090.000000	0.279644
2091.000000	0.280038
2092.000000	0.280360
2093.000000	0.280287
2094.000000	0.280348
2095.000000	0.279996
2096.000000	0.280447
2097.000000	0.281121
2098.000000	0.282237
2099.000000	0.283680
2100.000000	0.284870
2101.000000	0.285221
2102.000000	0.285623
2103.000000	0.285978
2104.000000	0.286808
2105.000000	0.286966
2106.000000	0.286749
2107.000000	0.286751
2108.000000	0.285935
2109.000000	0.286095
2110.000000	0.287184
2111.000000	0.287570
2112.000000	0.287882
2113.000000	0.288286
2114.000000	0.287442
2115.000000	0.287207
2116.000000	0.287741
2117.000000	0.287761
2118.000000	0.287962
2119.000000	0.288611
2120.000000	0.289178
2121.000000	0.289436
2122.000000	0.290026
2123.000000	0.291633
2124.000000	0.291729
2125.000000	0.290671
2126.000000	0.290358
2127.000000	0.289246
2128.000000	0.289144
2129.000000	0.289569
2130.000000	0.291144
2131.000000	0.291674
2132.000000	0.291862
2133.000000	0.292056
2134.000000	0.291722
2135.000000	0.292950
2136.000000	0.294258
2137.000000	0.294623
2138.000000	0.295121
2139.000000	0.295125
2140.000000	0.293475
2141.000000	0.293155
2142.000000	0.293406
2143.000000	0.293445
2144.000000	0.294140
2145.000000	0.294482
2146.000000	0.294811
2147.000000	0.295467
2148.000000	0.295119
2149.000000	0.295097
2150.000000	0.295066
2151.000000	0.294719
2152.000000	0.294721
2153.000000	0.295058
2154.000000	0.295169
2155.000000	0.295159
2156.000000	0.295153
2157.000000	0.295251
2158.000000	0.295128
2159.000000	0.294861
2160.000000	0.295255
2161.000000	0.295918
2162.000000	0.296359
2163.000000	0.297078
2164.000000	0.297420
2165.000000	0.297404
2166.000000	0.297174
2167.000000	0.297280
2168.000000	0.297288
2169.000000	0.296766
2170.000000	0.296166
2171.000000	0.296048
2172.000000	0.295899
2173.000000	0.296128
2174.000000	0.297220
2175.000000	0.297562
2176.000000	0.297969
2177.000000	0.297998
2178.000000	0.297298
2179.000000	0.297117
2180.000000	0.296712
2181.000000	0.296649
2182.000000	0.296161
2183.000000	0.296491
2184.000000	0.296372
2185.000000	0.296602
2186.000000	0.297254
2187.000000	0.297375
2188.000000	0.296466
2189.000000	0.295499
2190.000000	0.294459
2191.000000	0.293264
2192.000000	0.292741
2193.000000	0.293402
2194.000000	0.293575
2195.000000	0.293896
2196.000000	0.294023
2197.000000	0.294117
2198.000000	0.294259
2199.000000	0.294345
2200.000000	0.294242
2201.000000	0.293927
2202.000000	0.293860
2203.000000	0.292871
2204.000000	0.293663
2205.000000	0.293852
2206.000000	0.293761
2207.000000	0.294070
2208.000000	0.292806
2209.000000	0.292157
2210.000000	0.293125
2211.000000	0.292696
2212.000000	0.292940
2213.000000	0.292477
2214.000000	0.291422
2215.000000	0.290927
2216.000000	0.290252
2217.000000	0.289994
2218.000000	0.289559
2219.000000	0.289805
2220.000000	0.291525
2221.000000	0.291724
2222.000000	0.292305
2223.000000	0.292325
2224.000000	0.291470
2225.000000	0.288984
2226.000000	0.289207
2227.000000	0.288211
2228.000000	0.285381
2229.000000	0.284373
2230.000000	0.283777
2231.000000	0.282173
2232.000000	0.282628
2233.000000	0.284867
2234.000000	0.286042
2235.000000	0.287108
2236.000000	0.286991
2237.000000	0.286462
2238.000000	0.284790
2239.000000	0.280644
2240.000000	0.279601
2241.000000	0.279128
2242.000000	0.279072
2243.000000	0.280979
2244.000000	0.281748
2245.000000	0.282976
2246.000000	0.282995
2247.000000	0.281219
2248.000000	0.280908
2249.000000	0.280170
2250.000000	0.280271
2251.000000	0.281481
2252.000000	0.283156
2253.000000	0.284343
2254.000000	0.284955
2255.000000	0.284292
2256.000000	0.286690
2257.000000	0.289547
2258.000000	0.290569
2259.000000	0.293579
2260.000000	0.292535
2261.000000	0.291038
2262.000000	0.286997
2263.000000	0.285253
2264.000000	0.283248
2265.000000	0.282043
2266.000000	0.282378
2267.000000	0.281478
2268.000000	0.280274
2269.000000	0.279776
2270.000000	0.278645
2271.000000	0.277630
2272.000000	0.277190
2273.000000	0.276374
2274.000000	0.275712
2275.000000	0.274795
2276.000000	0.274187
2277.000000	0.272412
2278.000000	0.269437
2279.000000	0.267058
2280.000000	0.264580
2281.000000	0.262171
2282.000000	0.261148
2283.000000	0.261247
2284.000000	0.260734
2285.000000	0.259981
2286.000000	0.258499
2287.000000	0.256292
2288.000000	0.256776
2289.000000	0.257745
2290.000000	0.256441
2291.000000	0.255301
2292.000000	0.252876
2293.000000	0.248439
2294.000000	0.245518
2295.000000	0.242716
2296.000000	0.241802
2297.000000	0.241688
2298.000000	0.242552
2299.000000	0.247018
2300.000000	0.247748
2301.000000	0.246667
2302.000000	0.246590
2303.000000	0.244824
2304.000000	0.244028
2305.000000	0.243244
2306.000000	0.244394
2307.000000	0.246137
2308.000000	0.249719
2309.000000	0.253122
2310.000000	0.256871
2311.000000	0.257359
2312.000000	0.255731
2313.000000	0.255941
2314.000000	0.255611
2315.000000	0.257099
2316.000000	0.258014
2317.000000	0.258106
2318.000000	0.258788
2319.000000	0.256033
2320.000000	0.255567
2321.000000	0.255315
2322.000000	0.253947
2323.000000	0.255940
2324.000000	0.255387
2325.000000	0.254281
2326.000000	0.254617
2327.000000	0.254209
2328.000000	0.254164
2329.000000	0.253637
2330.000000	0.252058
2331.000000	0.248781
2332.000000	0.248921
2333.000000	0.249736
2334.000000	0.249173
2335.000000	0.250281
2336.000000	0.252471
2337.000000	0.251745
2338.000000	0.250850
2339.000000	0.249697
2340.000000	0.246139
2341.000000	0.245183
2342.000000	0.245719
2343.000000	0.245184
2344.000000	0.245011
2345.000000	0.243937
2346.000000	0.242910
2347.000000	0.241628
2348.000000	0.239748
2349.000000	0.237603
2350.000000	0.235176
2351.000000	0.231647
2352.000000	0.230886
2353.000000	0.232512
2354.000000	0.237030
2355.000000	0.240308
2356.000000	0.240207
2357.000000	0.240402
2358.000000	0.237095
2359.000000	0.232938
2360.000000	0.230641
2361.000000	0.225428
2362.000000	0.222675
2363.000000	0.223293
2364.000000	0.222543
2365.000000	0.225099
2366.000000	0.224296
2367.000000	0.221369
2368.000000	0.222276
2369.000000	0.222640
2370.000000	0.225003
2371.000000	0.227891
2372.000000	0.226727
2373.000000	0.220049
2374.000000	0.212923
2375.000000	0.208462
2376.000000	0.208853
2377.000000	0.216367
2378.000000	0.221553
2379.000000	0.223031
2380.000000	0.218979
2381.000000	0.211498
2382.000000	0.209374
2383.000000	0.202991
2384.000000	0.198181
2385.000000	0.196874
2386.000000	0.194544
2387.000000	0.196695
2388.000000	0.196586
2389.000000	0.196907
2390.000000	0.197827
2391.000000	0.198493
2392.000000	0.200565
2393.000000	0.197912
2394.000000	0.192317
2395.000000	0.191572
2396.000000	0.192568
2397.000000	0.198271
2398.000000	0.204016
2399.000000	0.198738
2400.000000	0.194874
2401.000000	0.189499
2402.000000	0.182899
2403.000000	0.181152
2404.000000	0.179977
2405.000000	0.180531
2406.000000	0.181902
2407.000000	0.182930
2408.000000	0.185428
2409.000000	0.187575
2410.000000	0.184120
2411.000000	0.183013
2412.000000	0.182386
2413.000000	0.181288
2414.000000	0.188397
2415.000000	0.189365
2416.000000	0.181848
2417.000000	0.174215
2418.000000	0.164156
2419.000000	0.156189
2420.000000	0.153846
2421.000000	0.149235
2422.000000	0.146093
2423.000000	0.149092
2424.000000	0.161088
2425.000000	0.172059
2426.000000	0.173884
2427.000000	0.178784
2428.000000	0.172810
2429.000000	0.162991
2430.000000	0.163437
2431.000000	0.165328
2432.000000	0.169242
2433.000000	0.174223
2434.000000	0.176474
2435.000000	0.180927
2436.000000	0.191103
2437.000000	0.194845
2438.000000	0.198039
2439.000000	0.200585
2440.000000	0.192383
2441.000000	0.186777
2442.000000	0.187118
2443.000000	0.182753
2444.000000	0.174458
2445.000000	0.163586
2446.000000	0.155821
2447.000000	0.147306
2448.000000	0.143776
2449.000000	0.157463
2450.000000	0.165680
2451.000000	0.165992
2452.000000	0.160955
2453.000000	0.152075
2454.000000	0.144403
2455.000000	0.136638
2456.000000	0.136252
2457.000000	0.146151
2458.000000	0.166083
2459.000000	0.198912
2460.000000	0.225660
2461.000000	0.219136
2462.000000	0.202095
2463.000000	0.172458
2464.000000	0.142933
2465.000000	0.135970
2466.000000	0.136292
2467.000000	0.144988
2468.000000	0.158911
2469.000000	0.161445
2470.000000	0.147286
2471.000000	0.124962
2472.000000	0.109986
2473.000000	0.111000
2474.000000	0.117788
2475.000000	0.129814
2476.000000	0.141757
2477.000000	0.149928
2478.000000	0.171660
2479.000000	0.185104
2480.000000	0.188363
2481.000000	0.193372
2482.000000	0.158004
2483.000000	0.121162
2484.000000	0.124244
2485.000000	0.125469
2486.000000	0.123966
2487.000000	0.138689
2488.000000	0.142685
2489.000000	0.129860
2490.000000	0.140714
2491.000000	0.171929
2492.000000	0.150427
2493.000000	0.076714
2494.000000	0.054421
2495.000000	0.027913
2496.000000	0.001252
2497.000000	0.014873
2498.000000	0.030673
2499.000000	0.020432
2500.000000	0.043827
