# Wavelength	NAu-1-10_HEX-40_FV7-50_00000.asd.rts.txt
350.000000	0.223426
351.000000	0.215028
352.000000	0.203498
353.000000	0.187219
354.000000	0.172397
355.000000	0.188370
356.000000	0.201246
357.000000	0.205431
358.000000	0.209672
359.000000	0.202738
360.000000	0.194789
361.000000	0.197148
362.000000	0.200707
363.000000	0.199328
364.000000	0.192800
365.000000	0.196140
366.000000	0.200257
367.000000	0.202875
368.000000	0.207562
369.000000	0.202970
370.000000	0.197683
371.000000	0.203472
372.000000	0.205449
373.000000	0.205229
374.000000	0.205138
375.000000	0.201697
376.000000	0.202523
377.000000	0.207212
378.000000	0.207889
379.000000	0.207902
380.000000	0.208706
381.000000	0.211374
382.000000	0.209632
383.000000	0.207611
384.000000	0.209085
385.000000	0.213376
386.000000	0.216306
387.000000	0.217010
388.000000	0.217457
389.000000	0.216351
390.000000	0.215427
391.000000	0.216783
392.000000	0.217490
393.000000	0.217610
394.000000	0.217587
395.000000	0.217429
396.000000	0.218248
397.000000	0.219593
398.000000	0.218631
399.000000	0.220521
400.000000	0.223306
401.000000	0.222251
402.000000	0.222720
403.000000	0.223978
404.000000	0.224669
405.000000	0.224784
406.000000	0.224822
407.000000	0.225219
408.000000	0.226347
409.000000	0.227151
410.000000	0.227548
411.000000	0.227974
412.000000	0.228216
413.000000	0.228408
414.000000	0.228828
415.000000	0.230212
416.000000	0.230845
417.000000	0.230233
418.000000	0.230756
419.000000	0.231455
420.000000	0.232176
421.000000	0.233415
422.000000	0.233395
423.000000	0.232881
424.000000	0.233337
425.000000	0.233470
426.000000	0.233687
427.000000	0.234280
428.000000	0.234637
429.000000	0.235032
430.000000	0.235522
431.000000	0.235860
432.000000	0.235958
433.000000	0.235885
434.000000	0.235917
435.000000	0.236306
436.000000	0.236714
437.000000	0.236756
438.000000	0.236474
439.000000	0.236458
440.000000	0.236925
441.000000	0.237018
442.000000	0.237289
443.000000	0.237731
444.000000	0.238141
445.000000	0.238203
446.000000	0.238016
447.000000	0.237710
448.000000	0.237972
449.000000	0.238413
450.000000	0.238787
451.000000	0.239568
452.000000	0.240190
453.000000	0.240588
454.000000	0.241487
455.000000	0.242518
456.000000	0.243525
457.000000	0.244248
458.000000	0.244803
459.000000	0.245441
460.000000	0.246317
461.000000	0.246813
462.000000	0.247511
463.000000	0.248364
464.000000	0.248630
465.000000	0.248980
466.000000	0.249443
467.000000	0.249805
468.000000	0.250543
469.000000	0.251088
470.000000	0.251012
471.000000	0.251531
472.000000	0.252044
473.000000	0.252181
474.000000	0.252518
475.000000	0.252805
476.000000	0.253132
477.000000	0.253617
478.000000	0.253841
479.000000	0.254004
480.000000	0.254208
481.000000	0.254454
482.000000	0.254907
483.000000	0.255426
484.000000	0.255784
485.000000	0.256004
486.000000	0.256245
487.000000	0.256237
488.000000	0.256488
489.000000	0.257009
490.000000	0.257457
491.000000	0.257717
492.000000	0.258009
493.000000	0.258457
494.000000	0.258870
495.000000	0.259211
496.000000	0.259491
497.000000	0.259998
498.000000	0.260435
499.000000	0.260784
500.000000	0.261168
501.000000	0.261533
502.000000	0.261919
503.000000	0.262307
504.000000	0.262588
505.000000	0.262902
506.000000	0.263362
507.000000	0.263685
508.000000	0.264022
509.000000	0.264422
510.000000	0.264828
511.000000	0.265269
512.000000	0.265763
513.000000	0.266264
514.000000	0.266658
515.000000	0.267067
516.000000	0.267592
517.000000	0.268012
518.000000	0.268442
519.000000	0.268903
520.000000	0.269373
521.000000	0.269742
522.000000	0.270043
523.000000	0.270527
524.000000	0.271050
525.000000	0.271535
526.000000	0.271967
527.000000	0.272347
528.000000	0.272752
529.000000	0.273294
530.000000	0.273764
531.000000	0.274188
532.000000	0.274544
533.000000	0.275007
534.000000	0.275468
535.000000	0.275888
536.000000	0.276332
537.000000	0.276824
538.000000	0.277312
539.000000	0.277706
540.000000	0.278123
541.000000	0.278554
542.000000	0.279002
543.000000	0.279414
544.000000	0.279882
545.000000	0.280363
546.000000	0.280790
547.000000	0.281238
548.000000	0.281742
549.000000	0.282221
550.000000	0.282656
551.000000	0.283110
552.000000	0.283600
553.000000	0.284041
554.000000	0.284501
555.000000	0.285019
556.000000	0.285474
557.000000	0.285882
558.000000	0.286362
559.000000	0.286780
560.000000	0.287187
561.000000	0.287660
562.000000	0.288130
563.000000	0.288559
564.000000	0.289027
565.000000	0.289501
566.000000	0.289956
567.000000	0.290384
568.000000	0.290774
569.000000	0.291188
570.000000	0.291581
571.000000	0.291948
572.000000	0.292346
573.000000	0.292756
574.000000	0.293149
575.000000	0.293549
576.000000	0.293928
577.000000	0.294271
578.000000	0.294631
579.000000	0.294973
580.000000	0.295316
581.000000	0.295648
582.000000	0.295906
583.000000	0.296209
584.000000	0.296553
585.000000	0.296866
586.000000	0.297154
587.000000	0.297434
588.000000	0.297735
589.000000	0.298096
590.000000	0.298425
591.000000	0.298675
592.000000	0.298917
593.000000	0.299259
594.000000	0.299640
595.000000	0.299814
596.000000	0.300039
597.000000	0.300304
598.000000	0.300421
599.000000	0.300733
600.000000	0.300998
601.000000	0.300979
602.000000	0.301300
603.000000	0.301599
604.000000	0.301740
605.000000	0.301984
606.000000	0.302128
607.000000	0.302195
608.000000	0.302340
609.000000	0.302497
610.000000	0.302661
611.000000	0.302837
612.000000	0.302992
613.000000	0.303140
614.000000	0.303316
615.000000	0.303460
616.000000	0.303564
617.000000	0.303645
618.000000	0.303856
619.000000	0.304005
620.000000	0.304115
621.000000	0.304338
622.000000	0.304507
623.000000	0.304651
624.000000	0.304809
625.000000	0.304945
626.000000	0.305050
627.000000	0.305142
628.000000	0.305289
629.000000	0.305466
630.000000	0.305594
631.000000	0.305844
632.000000	0.305979
633.000000	0.306083
634.000000	0.306262
635.000000	0.306429
636.000000	0.306592
637.000000	0.306749
638.000000	0.306945
639.000000	0.307102
640.000000	0.307248
641.000000	0.307334
642.000000	0.307452
643.000000	0.307618
644.000000	0.307816
645.000000	0.307973
646.000000	0.308138
647.000000	0.308322
648.000000	0.308493
649.000000	0.308620
650.000000	0.308718
651.000000	0.308940
652.000000	0.309125
653.000000	0.309271
654.000000	0.309368
655.000000	0.309563
656.000000	0.309819
657.000000	0.310012
658.000000	0.310167
659.000000	0.310323
660.000000	0.310485
661.000000	0.310663
662.000000	0.310822
663.000000	0.311009
664.000000	0.311204
665.000000	0.311392
666.000000	0.311561
667.000000	0.311683
668.000000	0.311853
669.000000	0.312054
670.000000	0.312270
671.000000	0.312487
672.000000	0.312713
673.000000	0.312936
674.000000	0.313148
675.000000	0.313327
676.000000	0.313499
677.000000	0.313717
678.000000	0.313961
679.000000	0.314167
680.000000	0.314317
681.000000	0.314460
682.000000	0.314648
683.000000	0.314821
684.000000	0.315038
685.000000	0.315233
686.000000	0.315424
687.000000	0.315603
688.000000	0.315809
689.000000	0.315997
690.000000	0.316194
691.000000	0.316538
692.000000	0.316794
693.000000	0.316982
694.000000	0.317234
695.000000	0.317485
696.000000	0.317712
697.000000	0.317913
698.000000	0.318137
699.000000	0.318394
700.000000	0.318679
701.000000	0.318930
702.000000	0.319206
703.000000	0.319473
704.000000	0.319608
705.000000	0.319753
706.000000	0.319899
707.000000	0.320071
708.000000	0.320224
709.000000	0.320390
710.000000	0.320617
711.000000	0.320839
712.000000	0.321063
713.000000	0.321321
714.000000	0.321632
715.000000	0.321889
716.000000	0.322097
717.000000	0.322283
718.000000	0.322474
719.000000	0.322626
720.000000	0.322740
721.000000	0.322943
722.000000	0.323114
723.000000	0.323278
724.000000	0.323462
725.000000	0.323661
726.000000	0.323890
727.000000	0.324007
728.000000	0.324214
729.000000	0.324472
730.000000	0.324670
731.000000	0.324898
732.000000	0.325108
733.000000	0.325303
734.000000	0.325414
735.000000	0.325538
736.000000	0.325783
737.000000	0.325985
738.000000	0.326127
739.000000	0.326278
740.000000	0.326335
741.000000	0.326471
742.000000	0.326600
743.000000	0.326665
744.000000	0.326720
745.000000	0.326779
746.000000	0.326884
747.000000	0.326978
748.000000	0.327077
749.000000	0.327195
750.000000	0.327301
751.000000	0.327398
752.000000	0.327477
753.000000	0.327580
754.000000	0.327760
755.000000	0.327910
756.000000	0.328010
757.000000	0.328030
758.000000	0.328064
759.000000	0.328154
760.000000	0.328234
761.000000	0.328331
762.000000	0.328440
763.000000	0.328536
764.000000	0.328666
765.000000	0.328739
766.000000	0.328802
767.000000	0.328898
768.000000	0.328925
769.000000	0.328974
770.000000	0.329072
771.000000	0.329136
772.000000	0.329220
773.000000	0.329287
774.000000	0.329405
775.000000	0.329490
776.000000	0.329541
777.000000	0.329555
778.000000	0.329558
779.000000	0.329603
780.000000	0.329667
781.000000	0.329629
782.000000	0.329624
783.000000	0.329710
784.000000	0.329721
785.000000	0.329708
786.000000	0.329700
787.000000	0.329707
788.000000	0.329741
789.000000	0.329742
790.000000	0.329740
791.000000	0.329850
792.000000	0.329856
793.000000	0.329811
794.000000	0.329803
795.000000	0.329831
796.000000	0.329845
797.000000	0.329841
798.000000	0.329872
799.000000	0.329879
800.000000	0.329883
801.000000	0.329916
802.000000	0.329892
803.000000	0.329886
804.000000	0.329935
805.000000	0.329832
806.000000	0.329758
807.000000	0.329788
808.000000	0.329776
809.000000	0.329692
810.000000	0.329649
811.000000	0.329694
812.000000	0.329675
813.000000	0.329603
814.000000	0.329510
815.000000	0.329471
816.000000	0.329399
817.000000	0.329327
818.000000	0.329228
819.000000	0.329209
820.000000	0.329201
821.000000	0.329140
822.000000	0.329155
823.000000	0.329132
824.000000	0.329062
825.000000	0.329081
826.000000	0.329035
827.000000	0.328921
828.000000	0.328815
829.000000	0.328759
830.000000	0.328738
831.000000	0.328760
832.000000	0.328664
833.000000	0.328556
834.000000	0.328439
835.000000	0.328331
836.000000	0.328183
837.000000	0.328006
838.000000	0.327872
839.000000	0.327850
840.000000	0.327710
841.000000	0.327578
842.000000	0.327538
843.000000	0.327397
844.000000	0.327344
845.000000	0.327375
846.000000	0.327355
847.000000	0.327259
848.000000	0.327110
849.000000	0.326986
850.000000	0.326853
851.000000	0.326784
852.000000	0.326811
853.000000	0.326796
854.000000	0.326710
855.000000	0.326633
856.000000	0.326472
857.000000	0.326218
858.000000	0.326045
859.000000	0.325966
860.000000	0.325983
861.000000	0.325948
862.000000	0.325927
863.000000	0.325961
864.000000	0.325919
865.000000	0.325895
866.000000	0.325883
867.000000	0.325532
868.000000	0.325412
869.000000	0.325383
870.000000	0.325168
871.000000	0.324894
872.000000	0.324735
873.000000	0.324682
874.000000	0.324591
875.000000	0.324466
876.000000	0.324354
877.000000	0.324241
878.000000	0.324104
879.000000	0.323929
880.000000	0.323610
881.000000	0.323395
882.000000	0.323205
883.000000	0.323091
884.000000	0.323041
885.000000	0.322834
886.000000	0.322569
887.000000	0.322379
888.000000	0.322329
889.000000	0.322206
890.000000	0.321951
891.000000	0.321791
892.000000	0.321537
893.000000	0.321324
894.000000	0.321260
895.000000	0.320927
896.000000	0.320702
897.000000	0.320564
898.000000	0.320383
899.000000	0.320229
900.000000	0.320046
901.000000	0.319819
902.000000	0.319733
903.000000	0.319689
904.000000	0.319600
905.000000	0.319321
906.000000	0.319127
907.000000	0.318860
908.000000	0.318543
909.000000	0.318221
910.000000	0.318070
911.000000	0.317994
912.000000	0.317876
913.000000	0.317704
914.000000	0.317579
915.000000	0.317502
916.000000	0.317233
917.000000	0.316966
918.000000	0.316762
919.000000	0.316589
920.000000	0.316318
921.000000	0.316213
922.000000	0.316149
923.000000	0.315814
924.000000	0.315560
925.000000	0.315329
926.000000	0.315084
927.000000	0.314782
928.000000	0.314410
929.000000	0.314136
930.000000	0.314079
931.000000	0.313764
932.000000	0.313398
933.000000	0.313152
934.000000	0.313007
935.000000	0.312750
936.000000	0.312523
937.000000	0.312341
938.000000	0.312015
939.000000	0.311875
940.000000	0.311766
941.000000	0.311459
942.000000	0.311358
943.000000	0.311303
944.000000	0.311064
945.000000	0.310862
946.000000	0.310694
947.000000	0.310533
948.000000	0.310284
949.000000	0.310043
950.000000	0.309865
951.000000	0.309702
952.000000	0.309542
953.000000	0.309602
954.000000	0.309502
955.000000	0.309017
956.000000	0.308883
957.000000	0.308828
958.000000	0.308626
959.000000	0.308248
960.000000	0.307923
961.000000	0.307665
962.000000	0.307394
963.000000	0.307013
964.000000	0.306963
965.000000	0.306974
966.000000	0.306677
967.000000	0.306468
968.000000	0.306150
969.000000	0.305805
970.000000	0.305716
971.000000	0.305509
972.000000	0.305323
973.000000	0.305183
974.000000	0.305115
975.000000	0.304769
976.000000	0.304426
977.000000	0.304329
978.000000	0.304234
979.000000	0.304327
980.000000	0.304193
981.000000	0.303809
982.000000	0.303878
983.000000	0.303801
984.000000	0.303519
985.000000	0.303454
986.000000	0.303091
987.000000	0.302877
988.000000	0.302901
989.000000	0.302447
990.000000	0.302394
991.000000	0.302534
992.000000	0.302403
993.000000	0.302019
994.000000	0.301960
995.000000	0.302155
996.000000	0.301735
997.000000	0.301685
998.000000	0.301833
999.000000	0.301976
1000.000000	0.301836
1001.000000	0.301765
1002.000000	0.301857
1003.000000	0.302023
1004.000000	0.301900
1005.000000	0.301019
1006.000000	0.300839
1007.000000	0.301057
1008.000000	0.301169
1009.000000	0.301324
1010.000000	0.301534
1011.000000	0.301675
1012.000000	0.301620
1013.000000	0.301464
1014.000000	0.301099
1015.000000	0.300427
1016.000000	0.299850
1017.000000	0.299851
1018.000000	0.300404
1019.000000	0.300524
1020.000000	0.301108
1021.000000	0.300922
1022.000000	0.300070
1023.000000	0.299906
1024.000000	0.299613
1025.000000	0.299829
1026.000000	0.300414
1027.000000	0.300883
1028.000000	0.301242
1029.000000	0.301549
1030.000000	0.300963
1031.000000	0.300160
1032.000000	0.300389
1033.000000	0.300528
1034.000000	0.300429
1035.000000	0.300789
1036.000000	0.300966
1037.000000	0.300428
1038.000000	0.300395
1039.000000	0.301120
1040.000000	0.301327
1041.000000	0.301346
1042.000000	0.301460
1043.000000	0.301733
1044.000000	0.302385
1045.000000	0.302846
1046.000000	0.303056
1047.000000	0.303029
1048.000000	0.302340
1049.000000	0.302277
1050.000000	0.302285
1051.000000	0.302499
1052.000000	0.303133
1053.000000	0.303459
1054.000000	0.304132
1055.000000	0.304362
1056.000000	0.304191
1057.000000	0.304261
1058.000000	0.304422
1059.000000	0.303927
1060.000000	0.304225
1061.000000	0.304921
1062.000000	0.304986
1063.000000	0.305424
1064.000000	0.305775
1065.000000	0.305892
1066.000000	0.306112
1067.000000	0.306432
1068.000000	0.306790
1069.000000	0.307302
1070.000000	0.307360
1071.000000	0.307264
1072.000000	0.307277
1073.000000	0.306836
1074.000000	0.306844
1075.000000	0.307379
1076.000000	0.307843
1077.000000	0.308206
1078.000000	0.308635
1079.000000	0.308977
1080.000000	0.309318
1081.000000	0.309551
1082.000000	0.309832
1083.000000	0.309985
1084.000000	0.309896
1085.000000	0.310078
1086.000000	0.310198
1087.000000	0.310578
1088.000000	0.311338
1089.000000	0.311765
1090.000000	0.312130
1091.000000	0.312485
1092.000000	0.312560
1093.000000	0.312585
1094.000000	0.312613
1095.000000	0.312429
1096.000000	0.312626
1097.000000	0.313031
1098.000000	0.313196
1099.000000	0.313387
1100.000000	0.313687
1101.000000	0.313747
1102.000000	0.313995
1103.000000	0.314565
1104.000000	0.314898
1105.000000	0.315119
1106.000000	0.315336
1107.000000	0.315344
1108.000000	0.315525
1109.000000	0.316068
1110.000000	0.316147
1111.000000	0.316318
1112.000000	0.316449
1113.000000	0.316786
1114.000000	0.317258
1115.000000	0.317370
1116.000000	0.317416
1117.000000	0.317593
1118.000000	0.317476
1119.000000	0.317498
1120.000000	0.317844
1121.000000	0.318052
1122.000000	0.318115
1123.000000	0.318476
1124.000000	0.318862
1125.000000	0.319200
1126.000000	0.319580
1127.000000	0.319762
1128.000000	0.319837
1129.000000	0.319776
1130.000000	0.319928
1131.000000	0.320066
1132.000000	0.320176
1133.000000	0.320485
1134.000000	0.320661
1135.000000	0.320626
1136.000000	0.320696
1137.000000	0.320799
1138.000000	0.320881
1139.000000	0.321161
1140.000000	0.321254
1141.000000	0.321062
1142.000000	0.321134
1143.000000	0.321157
1144.000000	0.321297
1145.000000	0.321501
1146.000000	0.321668
1147.000000	0.321709
1148.000000	0.321406
1149.000000	0.321520
1150.000000	0.321806
1151.000000	0.322001
1152.000000	0.322432
1153.000000	0.322486
1154.000000	0.322152
1155.000000	0.322074
1156.000000	0.321850
1157.000000	0.321860
1158.000000	0.322202
1159.000000	0.322268
1160.000000	0.322199
1161.000000	0.322221
1162.000000	0.322229
1163.000000	0.322280
1164.000000	0.322590
1165.000000	0.322860
1166.000000	0.322976
1167.000000	0.322996
1168.000000	0.323007
1169.000000	0.322898
1170.000000	0.322889
1171.000000	0.322949
1172.000000	0.323056
1173.000000	0.323249
1174.000000	0.323233
1175.000000	0.323089
1176.000000	0.323017
1177.000000	0.322865
1178.000000	0.322795
1179.000000	0.322822
1180.000000	0.322834
1181.000000	0.322896
1182.000000	0.323066
1183.000000	0.323084
1184.000000	0.323232
1185.000000	0.323357
1186.000000	0.323435
1187.000000	0.323418
1188.000000	0.323401
1189.000000	0.323390
1190.000000	0.323310
1191.000000	0.323305
1192.000000	0.323565
1193.000000	0.323706
1194.000000	0.323548
1195.000000	0.323597
1196.000000	0.323653
1197.000000	0.323706
1198.000000	0.323961
1199.000000	0.324059
1200.000000	0.323997
1201.000000	0.324029
1202.000000	0.324010
1203.000000	0.323922
1204.000000	0.324033
1205.000000	0.324239
1206.000000	0.324234
1207.000000	0.324333
1208.000000	0.324255
1209.000000	0.323982
1210.000000	0.323920
1211.000000	0.323919
1212.000000	0.323896
1213.000000	0.323989
1214.000000	0.324009
1215.000000	0.324006
1216.000000	0.323971
1217.000000	0.323783
1218.000000	0.323738
1219.000000	0.323755
1220.000000	0.323811
1221.000000	0.323992
1222.000000	0.324278
1223.000000	0.324282
1224.000000	0.324176
1225.000000	0.324176
1226.000000	0.324017
1227.000000	0.323823
1228.000000	0.323951
1229.000000	0.323973
1230.000000	0.323986
1231.000000	0.323874
1232.000000	0.323834
1233.000000	0.323898
1234.000000	0.323833
1235.000000	0.323887
1236.000000	0.324176
1237.000000	0.324220
1238.000000	0.324031
1239.000000	0.323947
1240.000000	0.323787
1241.000000	0.323633
1242.000000	0.323708
1243.000000	0.323704
1244.000000	0.323586
1245.000000	0.323620
1246.000000	0.323596
1247.000000	0.323663
1248.000000	0.323914
1249.000000	0.324129
1250.000000	0.324173
1251.000000	0.324154
1252.000000	0.324163
1253.000000	0.324108
1254.000000	0.324097
1255.000000	0.324241
1256.000000	0.324150
1257.000000	0.323823
1258.000000	0.323754
1259.000000	0.323614
1260.000000	0.323622
1261.000000	0.323829
1262.000000	0.323916
1263.000000	0.324018
1264.000000	0.323990
1265.000000	0.324042
1266.000000	0.324073
1267.000000	0.324050
1268.000000	0.324113
1269.000000	0.324019
1270.000000	0.324098
1271.000000	0.324229
1272.000000	0.324241
1273.000000	0.324425
1274.000000	0.324502
1275.000000	0.324538
1276.000000	0.324608
1277.000000	0.324671
1278.000000	0.324551
1279.000000	0.324515
1280.000000	0.324435
1281.000000	0.324353
1282.000000	0.324342
1283.000000	0.324376
1284.000000	0.324317
1285.000000	0.324320
1286.000000	0.324337
1287.000000	0.324380
1288.000000	0.324507
1289.000000	0.324564
1290.000000	0.324411
1291.000000	0.324273
1292.000000	0.324069
1293.000000	0.323988
1294.000000	0.324156
1295.000000	0.324266
1296.000000	0.324185
1297.000000	0.324100
1298.000000	0.324131
1299.000000	0.324181
1300.000000	0.324293
1301.000000	0.324385
1302.000000	0.324335
1303.000000	0.324173
1304.000000	0.324005
1305.000000	0.323922
1306.000000	0.323827
1307.000000	0.323682
1308.000000	0.323627
1309.000000	0.323643
1310.000000	0.323584
1311.000000	0.323537
1312.000000	0.323510
1313.000000	0.323301
1314.000000	0.323273
1315.000000	0.323378
1316.000000	0.323351
1317.000000	0.323344
1318.000000	0.323309
1319.000000	0.323123
1320.000000	0.323177
1321.000000	0.323314
1322.000000	0.323323
1323.000000	0.323120
1324.000000	0.322780
1325.000000	0.322613
1326.000000	0.322517
1327.000000	0.322601
1328.000000	0.322756
1329.000000	0.322617
1330.000000	0.322193
1331.000000	0.322116
1332.000000	0.322126
1333.000000	0.322011
1334.000000	0.322068
1335.000000	0.322051
1336.000000	0.321866
1337.000000	0.321765
1338.000000	0.321694
1339.000000	0.321688
1340.000000	0.321522
1341.000000	0.321310
1342.000000	0.321183
1343.000000	0.321017
1344.000000	0.320931
1345.000000	0.320867
1346.000000	0.320903
1347.000000	0.320900
1348.000000	0.320798
1349.000000	0.320600
1350.000000	0.320451
1351.000000	0.320339
1352.000000	0.320265
1353.000000	0.320316
1354.000000	0.320428
1355.000000	0.320268
1356.000000	0.320164
1357.000000	0.320067
1358.000000	0.319823
1359.000000	0.319658
1360.000000	0.319529
1361.000000	0.319518
1362.000000	0.319375
1363.000000	0.319169
1364.000000	0.319019
1365.000000	0.318737
1366.000000	0.318676
1367.000000	0.318751
1368.000000	0.318782
1369.000000	0.318914
1370.000000	0.318785
1371.000000	0.318456
1372.000000	0.318280
1373.000000	0.318156
1374.000000	0.317925
1375.000000	0.317617
1376.000000	0.317321
1377.000000	0.317064
1378.000000	0.316962
1379.000000	0.316956
1380.000000	0.316955
1381.000000	0.316842
1382.000000	0.316610
1383.000000	0.316409
1384.000000	0.316133
1385.000000	0.315647
1386.000000	0.315324
1387.000000	0.315115
1388.000000	0.314697
1389.000000	0.314552
1390.000000	0.314410
1391.000000	0.313849
1392.000000	0.313512
1393.000000	0.313208
1394.000000	0.312939
1395.000000	0.312609
1396.000000	0.312382
1397.000000	0.312010
1398.000000	0.311394
1399.000000	0.310942
1400.000000	0.310635
1401.000000	0.310146
1402.000000	0.309659
1403.000000	0.309070
1404.000000	0.308427
1405.000000	0.307768
1406.000000	0.307162
1407.000000	0.306667
1408.000000	0.306124
1409.000000	0.305632
1410.000000	0.305206
1411.000000	0.304615
1412.000000	0.304042
1413.000000	0.303496
1414.000000	0.302876
1415.000000	0.302285
1416.000000	0.301647
1417.000000	0.301063
1418.000000	0.300400
1419.000000	0.299854
1420.000000	0.299381
1421.000000	0.298859
1422.000000	0.298443
1423.000000	0.298090
1424.000000	0.297488
1425.000000	0.296892
1426.000000	0.296393
1427.000000	0.295928
1428.000000	0.295562
1429.000000	0.295238
1430.000000	0.294757
1431.000000	0.294180
1432.000000	0.293680
1433.000000	0.293220
1434.000000	0.292790
1435.000000	0.292490
1436.000000	0.292114
1437.000000	0.291699
1438.000000	0.291360
1439.000000	0.291083
1440.000000	0.290848
1441.000000	0.290627
1442.000000	0.290521
1443.000000	0.290432
1444.000000	0.290366
1445.000000	0.290437
1446.000000	0.290459
1447.000000	0.290309
1448.000000	0.290296
1449.000000	0.290227
1450.000000	0.290175
1451.000000	0.290195
1452.000000	0.289989
1453.000000	0.289827
1454.000000	0.289685
1455.000000	0.289490
1456.000000	0.289499
1457.000000	0.289439
1458.000000	0.289201
1459.000000	0.289043
1460.000000	0.288856
1461.000000	0.288755
1462.000000	0.288688
1463.000000	0.288411
1464.000000	0.288267
1465.000000	0.288106
1466.000000	0.287823
1467.000000	0.287715
1468.000000	0.287579
1469.000000	0.287599
1470.000000	0.287745
1471.000000	0.287872
1472.000000	0.288047
1473.000000	0.288188
1474.000000	0.288131
1475.000000	0.288180
1476.000000	0.288318
1477.000000	0.288361
1478.000000	0.288525
1479.000000	0.288760
1480.000000	0.288937
1481.000000	0.289079
1482.000000	0.289253
1483.000000	0.289416
1484.000000	0.289529
1485.000000	0.289673
1486.000000	0.289810
1487.000000	0.290017
1488.000000	0.290263
1489.000000	0.290541
1490.000000	0.290807
1491.000000	0.291062
1492.000000	0.291271
1493.000000	0.291463
1494.000000	0.291623
1495.000000	0.291731
1496.000000	0.291781
1497.000000	0.291872
1498.000000	0.291981
1499.000000	0.292007
1500.000000	0.292102
1501.000000	0.292274
1502.000000	0.292358
1503.000000	0.292557
1504.000000	0.292820
1505.000000	0.292935
1506.000000	0.293166
1507.000000	0.293391
1508.000000	0.293603
1509.000000	0.293871
1510.000000	0.294049
1511.000000	0.294207
1512.000000	0.294315
1513.000000	0.294506
1514.000000	0.294791
1515.000000	0.295005
1516.000000	0.295188
1517.000000	0.295183
1518.000000	0.295152
1519.000000	0.295160
1520.000000	0.295295
1521.000000	0.295497
1522.000000	0.295600
1523.000000	0.295716
1524.000000	0.295888
1525.000000	0.296057
1526.000000	0.296153
1527.000000	0.296241
1528.000000	0.296231
1529.000000	0.296095
1530.000000	0.296000
1531.000000	0.296108
1532.000000	0.296196
1533.000000	0.296235
1534.000000	0.296429
1535.000000	0.296540
1536.000000	0.296476
1537.000000	0.296466
1538.000000	0.296401
1539.000000	0.296296
1540.000000	0.296344
1541.000000	0.296441
1542.000000	0.296445
1543.000000	0.296363
1544.000000	0.296254
1545.000000	0.296322
1546.000000	0.296417
1547.000000	0.296426
1548.000000	0.296388
1549.000000	0.296258
1550.000000	0.296122
1551.000000	0.296067
1552.000000	0.296165
1553.000000	0.296179
1554.000000	0.296125
1555.000000	0.296172
1556.000000	0.296142
1557.000000	0.296096
1558.000000	0.296086
1559.000000	0.296011
1560.000000	0.295995
1561.000000	0.296097
1562.000000	0.296095
1563.000000	0.296132
1564.000000	0.296160
1565.000000	0.296081
1566.000000	0.296036
1567.000000	0.296144
1568.000000	0.296175
1569.000000	0.296285
1570.000000	0.296262
1571.000000	0.296082
1572.000000	0.296026
1573.000000	0.296030
1574.000000	0.295962
1575.000000	0.295932
1576.000000	0.295881
1577.000000	0.295657
1578.000000	0.295580
1579.000000	0.295694
1580.000000	0.295746
1581.000000	0.295930
1582.000000	0.295976
1583.000000	0.295878
1584.000000	0.295903
1585.000000	0.296028
1586.000000	0.296089
1587.000000	0.296205
1588.000000	0.296236
1589.000000	0.296223
1590.000000	0.296182
1591.000000	0.296108
1592.000000	0.296109
1593.000000	0.296120
1594.000000	0.296090
1595.000000	0.296110
1596.000000	0.296195
1597.000000	0.296338
1598.000000	0.296369
1599.000000	0.296533
1600.000000	0.296473
1601.000000	0.296174
1602.000000	0.296126
1603.000000	0.296211
1604.000000	0.296160
1605.000000	0.296244
1606.000000	0.296169
1607.000000	0.295848
1608.000000	0.295759
1609.000000	0.295785
1610.000000	0.295807
1611.000000	0.295972
1612.000000	0.296054
1613.000000	0.296216
1614.000000	0.296317
1615.000000	0.296463
1616.000000	0.296556
1617.000000	0.296560
1618.000000	0.296567
1619.000000	0.296471
1620.000000	0.296454
1621.000000	0.296478
1622.000000	0.296592
1623.000000	0.296796
1624.000000	0.296936
1625.000000	0.296946
1626.000000	0.296990
1627.000000	0.297035
1628.000000	0.297082
1629.000000	0.297179
1630.000000	0.297245
1631.000000	0.297153
1632.000000	0.297171
1633.000000	0.297263
1634.000000	0.297368
1635.000000	0.297568
1636.000000	0.297696
1637.000000	0.297839
1638.000000	0.297927
1639.000000	0.298031
1640.000000	0.298092
1641.000000	0.298126
1642.000000	0.298232
1643.000000	0.298418
1644.000000	0.298546
1645.000000	0.298674
1646.000000	0.298768
1647.000000	0.298870
1648.000000	0.298863
1649.000000	0.298921
1650.000000	0.298974
1651.000000	0.298912
1652.000000	0.299005
1653.000000	0.299170
1654.000000	0.299312
1655.000000	0.299428
1656.000000	0.299507
1657.000000	0.299675
1658.000000	0.299711
1659.000000	0.299800
1660.000000	0.299874
1661.000000	0.299718
1662.000000	0.299805
1663.000000	0.299987
1664.000000	0.300126
1665.000000	0.300413
1666.000000	0.300548
1667.000000	0.300492
1668.000000	0.300535
1669.000000	0.300468
1670.000000	0.300516
1671.000000	0.300752
1672.000000	0.300985
1673.000000	0.301298
1674.000000	0.301464
1675.000000	0.301553
1676.000000	0.301573
1677.000000	0.301590
1678.000000	0.301612
1679.000000	0.301711
1680.000000	0.301676
1681.000000	0.301547
1682.000000	0.301600
1683.000000	0.301634
1684.000000	0.301683
1685.000000	0.301788
1686.000000	0.301741
1687.000000	0.301637
1688.000000	0.301516
1689.000000	0.301568
1690.000000	0.301681
1691.000000	0.301804
1692.000000	0.301872
1693.000000	0.301875
1694.000000	0.301918
1695.000000	0.302101
1696.000000	0.302311
1697.000000	0.302378
1698.000000	0.302363
1699.000000	0.302355
1700.000000	0.302251
1701.000000	0.302301
1702.000000	0.302290
1703.000000	0.302180
1704.000000	0.302069
1705.000000	0.302092
1706.000000	0.302178
1707.000000	0.302256
1708.000000	0.302538
1709.000000	0.302579
1710.000000	0.302466
1711.000000	0.302461
1712.000000	0.302499
1713.000000	0.302457
1714.000000	0.302401
1715.000000	0.302439
1716.000000	0.302480
1717.000000	0.302504
1718.000000	0.302614
1719.000000	0.302666
1720.000000	0.302675
1721.000000	0.302694
1722.000000	0.302804
1723.000000	0.302767
1724.000000	0.302587
1725.000000	0.302575
1726.000000	0.302405
1727.000000	0.302484
1728.000000	0.302788
1729.000000	0.302863
1730.000000	0.303064
1731.000000	0.303212
1732.000000	0.303284
1733.000000	0.303389
1734.000000	0.303370
1735.000000	0.303473
1736.000000	0.303541
1737.000000	0.303632
1738.000000	0.303910
1739.000000	0.303923
1740.000000	0.303696
1741.000000	0.303740
1742.000000	0.303833
1743.000000	0.303909
1744.000000	0.304086
1745.000000	0.304213
1746.000000	0.304240
1747.000000	0.304396
1748.000000	0.304468
1749.000000	0.304385
1750.000000	0.304361
1751.000000	0.304545
1752.000000	0.304717
1753.000000	0.304729
1754.000000	0.304819
1755.000000	0.304930
1756.000000	0.304939
1757.000000	0.304897
1758.000000	0.304942
1759.000000	0.304960
1760.000000	0.304929
1761.000000	0.304959
1762.000000	0.304879
1763.000000	0.304563
1764.000000	0.304492
1765.000000	0.304499
1766.000000	0.304524
1767.000000	0.304564
1768.000000	0.304660
1769.000000	0.304960
1770.000000	0.305094
1771.000000	0.305209
1772.000000	0.305245
1773.000000	0.304980
1774.000000	0.304987
1775.000000	0.305178
1776.000000	0.305334
1777.000000	0.305569
1778.000000	0.305691
1779.000000	0.305774
1780.000000	0.305811
1781.000000	0.305709
1782.000000	0.305734
1783.000000	0.305855
1784.000000	0.305937
1785.000000	0.305908
1786.000000	0.305893
1787.000000	0.305850
1788.000000	0.305859
1789.000000	0.305883
1790.000000	0.305806
1791.000000	0.305765
1792.000000	0.305907
1793.000000	0.305901
1794.000000	0.305815
1795.000000	0.305843
1796.000000	0.305834
1797.000000	0.305817
1798.000000	0.305819
1799.000000	0.305907
1800.000000	0.306025
1801.000000	0.306542
1802.000000	0.306179
1803.000000	0.305030
1804.000000	0.304920
1805.000000	0.305427
1806.000000	0.305553
1807.000000	0.306161
1808.000000	0.306356
1809.000000	0.306010
1810.000000	0.305734
1811.000000	0.305891
1812.000000	0.306378
1813.000000	0.306541
1814.000000	0.307046
1815.000000	0.307093
1816.000000	0.306539
1817.000000	0.306155
1818.000000	0.306009
1819.000000	0.305688
1820.000000	0.304428
1821.000000	0.304259
1822.000000	0.304080
1823.000000	0.303871
1824.000000	0.303602
1825.000000	0.303644
1826.000000	0.303742
1827.000000	0.303655
1828.000000	0.303513
1829.000000	0.303770
1830.000000	0.303986
1831.000000	0.303650
1832.000000	0.302566
1833.000000	0.302323
1834.000000	0.302128
1835.000000	0.301921
1836.000000	0.302070
1837.000000	0.302115
1838.000000	0.301978
1839.000000	0.301537
1840.000000	0.302107
1841.000000	0.302196
1842.000000	0.302151
1843.000000	0.302250
1844.000000	0.302201
1845.000000	0.301490
1846.000000	0.301250
1847.000000	0.301216
1848.000000	0.300644
1849.000000	0.300359
1850.000000	0.300718
1851.000000	0.300926
1852.000000	0.301363
1853.000000	0.301457
1854.000000	0.301461
1855.000000	0.301155
1856.000000	0.300339
1857.000000	0.299664
1858.000000	0.299268
1859.000000	0.298914
1860.000000	0.298835
1861.000000	0.298572
1862.000000	0.298232
1863.000000	0.297856
1864.000000	0.297355
1865.000000	0.297156
1866.000000	0.296443
1867.000000	0.295223
1868.000000	0.293900
1869.000000	0.293232
1870.000000	0.292186
1871.000000	0.291137
1872.000000	0.290297
1873.000000	0.289620
1874.000000	0.288738
1875.000000	0.287860
1876.000000	0.286998
1877.000000	0.286248
1878.000000	0.285304
1879.000000	0.283725
1880.000000	0.282830
1881.000000	0.282378
1882.000000	0.280723
1883.000000	0.279184
1884.000000	0.277962
1885.000000	0.276426
1886.000000	0.274856
1887.000000	0.273732
1888.000000	0.272225
1889.000000	0.269933
1890.000000	0.267724
1891.000000	0.264933
1892.000000	0.262184
1893.000000	0.260320
1894.000000	0.258571
1895.000000	0.256517
1896.000000	0.254829
1897.000000	0.253260
1898.000000	0.250692
1899.000000	0.248043
1900.000000	0.245354
1901.000000	0.242578
1902.000000	0.240151
1903.000000	0.237559
1904.000000	0.235560
1905.000000	0.233729
1906.000000	0.231772
1907.000000	0.229853
1908.000000	0.228120
1909.000000	0.226175
1910.000000	0.224441
1911.000000	0.222706
1912.000000	0.220752
1913.000000	0.219368
1914.000000	0.218410
1915.000000	0.216969
1916.000000	0.215919
1917.000000	0.214866
1918.000000	0.214095
1919.000000	0.212514
1920.000000	0.211179
1921.000000	0.209847
1922.000000	0.207883
1923.000000	0.206753
1924.000000	0.206455
1925.000000	0.206381
1926.000000	0.206557
1927.000000	0.206865
1928.000000	0.206890
1929.000000	0.206698
1930.000000	0.206315
1931.000000	0.206058
1932.000000	0.205497
1933.000000	0.205141
1934.000000	0.205439
1935.000000	0.206023
1936.000000	0.206744
1937.000000	0.207122
1938.000000	0.207067
1939.000000	0.207127
1940.000000	0.207090
1941.000000	0.206851
1942.000000	0.206574
1943.000000	0.206704
1944.000000	0.206308
1945.000000	0.206103
1946.000000	0.206669
1947.000000	0.206363
1948.000000	0.205982
1949.000000	0.206147
1950.000000	0.205557
1951.000000	0.205305
1952.000000	0.205526
1953.000000	0.205725
1954.000000	0.204828
1955.000000	0.204362
1956.000000	0.203351
1957.000000	0.202278
1958.000000	0.201854
1959.000000	0.201673
1960.000000	0.201934
1961.000000	0.202563
1962.000000	0.202635
1963.000000	0.202866
1964.000000	0.202295
1965.000000	0.201275
1966.000000	0.200013
1967.000000	0.199536
1968.000000	0.200049
1969.000000	0.200463
1970.000000	0.200608
1971.000000	0.200338
1972.000000	0.199779
1973.000000	0.199610
1974.000000	0.199844
1975.000000	0.200316
1976.000000	0.201173
1977.000000	0.201782
1978.000000	0.202632
1979.000000	0.202986
1980.000000	0.203148
1981.000000	0.203598
1982.000000	0.203609
1983.000000	0.203432
1984.000000	0.203466
1985.000000	0.203555
1986.000000	0.203526
1987.000000	0.203408
1988.000000	0.203927
1989.000000	0.204203
1990.000000	0.204239
1991.000000	0.205071
1992.000000	0.205734
1993.000000	0.206331
1994.000000	0.207084
1995.000000	0.207694
1996.000000	0.208086
1997.000000	0.208386
1998.000000	0.208320
1999.000000	0.208853
2000.000000	0.209574
2001.000000	0.210299
2002.000000	0.211077
2003.000000	0.212365
2004.000000	0.213165
2005.000000	0.213416
2006.000000	0.214322
2007.000000	0.215267
2008.000000	0.215763
2009.000000	0.215964
2010.000000	0.216528
2011.000000	0.216353
2012.000000	0.216799
2013.000000	0.217695
2014.000000	0.218848
2015.000000	0.219484
2016.000000	0.220959
2017.000000	0.221929
2018.000000	0.222008
2019.000000	0.222604
2020.000000	0.223150
2021.000000	0.223487
2022.000000	0.223632
2023.000000	0.224184
2024.000000	0.224595
2025.000000	0.225195
2026.000000	0.226124
2027.000000	0.226971
2028.000000	0.227492
2029.000000	0.227995
2030.000000	0.228147
2031.000000	0.228181
2032.000000	0.228693
2033.000000	0.229592
2034.000000	0.230168
2035.000000	0.231113
2036.000000	0.231795
2037.000000	0.232200
2038.000000	0.232587
2039.000000	0.233139
2040.000000	0.233568
2041.000000	0.233734
2042.000000	0.234094
2043.000000	0.234526
2044.000000	0.235246
2045.000000	0.236069
2046.000000	0.236814
2047.000000	0.237547
2048.000000	0.238326
2049.000000	0.238984
2050.000000	0.239218
2051.000000	0.239523
2052.000000	0.239826
2053.000000	0.240181
2054.000000	0.240568
2055.000000	0.241061
2056.000000	0.242273
2057.000000	0.242484
2058.000000	0.242704
2059.000000	0.243161
2060.000000	0.243436
2061.000000	0.243292
2062.000000	0.243681
2063.000000	0.244671
2064.000000	0.244961
2065.000000	0.245292
2066.000000	0.245507
2067.000000	0.245758
2068.000000	0.245322
2069.000000	0.245796
2070.000000	0.246393
2071.000000	0.246731
2072.000000	0.247756
2073.000000	0.247829
2074.000000	0.247234
2075.000000	0.247124
2076.000000	0.246468
2077.000000	0.246465
2078.000000	0.247222
2079.000000	0.247728
2080.000000	0.248130
2081.000000	0.248911
2082.000000	0.250102
2083.000000	0.251093
2084.000000	0.251592
2085.000000	0.252456
2086.000000	0.253274
2087.000000	0.252974
2088.000000	0.253526
2089.000000	0.254247
2090.000000	0.254573
2091.000000	0.254719
2092.000000	0.255095
2093.000000	0.255181
2094.000000	0.255573
2095.000000	0.256381
2096.000000	0.256942
2097.000000	0.257327
2098.000000	0.258068
2099.000000	0.258330
2100.000000	0.258781
2101.000000	0.259545
2102.000000	0.259535
2103.000000	0.259246
2104.000000	0.259106
2105.000000	0.259310
2106.000000	0.259442
2107.000000	0.260065
2108.000000	0.261504
2109.000000	0.262216
2110.000000	0.262669
2111.000000	0.263016
2112.000000	0.262842
2113.000000	0.262921
2114.000000	0.263429
2115.000000	0.263070
2116.000000	0.263085
2117.000000	0.263387
2118.000000	0.263201
2119.000000	0.263766
2120.000000	0.264083
2121.000000	0.264295
2122.000000	0.264540
2123.000000	0.264987
2124.000000	0.265208
2125.000000	0.265060
2126.000000	0.265546
2127.000000	0.266449
2128.000000	0.267057
2129.000000	0.267805
2130.000000	0.268609
2131.000000	0.269128
2132.000000	0.268957
2133.000000	0.268390
2134.000000	0.268221
2135.000000	0.266885
2136.000000	0.265375
2137.000000	0.264860
2138.000000	0.264801
2139.000000	0.264639
2140.000000	0.265208
2141.000000	0.265643
2142.000000	0.265998
2143.000000	0.266111
2144.000000	0.266718
2145.000000	0.266828
2146.000000	0.266380
2147.000000	0.266304
2148.000000	0.266295
2149.000000	0.266784
2150.000000	0.267148
2151.000000	0.267380
2152.000000	0.268372
2153.000000	0.268724
2154.000000	0.268798
2155.000000	0.268932
2156.000000	0.268928
2157.000000	0.268202
2158.000000	0.267979
2159.000000	0.268770
2160.000000	0.268383
2161.000000	0.266832
2162.000000	0.266236
2163.000000	0.264886
2164.000000	0.264460
2165.000000	0.265586
2166.000000	0.265923
2167.000000	0.265580
2168.000000	0.265764
2169.000000	0.265256
2170.000000	0.264938
2171.000000	0.264725
2172.000000	0.265031
2173.000000	0.264762
2174.000000	0.263777
2175.000000	0.263955
2176.000000	0.264712
2177.000000	0.265052
2178.000000	0.266009
2179.000000	0.266558
2180.000000	0.266658
2181.000000	0.266983
2182.000000	0.266653
2183.000000	0.267146
2184.000000	0.267206
2185.000000	0.265541
2186.000000	0.264400
2187.000000	0.263699
2188.000000	0.263370
2189.000000	0.264101
2190.000000	0.265163
2191.000000	0.265780
2192.000000	0.265289
2193.000000	0.262666
2194.000000	0.262440
2195.000000	0.262300
2196.000000	0.263002
2197.000000	0.266892
2198.000000	0.267916
2199.000000	0.267684
2200.000000	0.267760
2201.000000	0.265983
2202.000000	0.265382
2203.000000	0.265523
2204.000000	0.265070
2205.000000	0.265353
2206.000000	0.265141
2207.000000	0.264310
2208.000000	0.263991
2209.000000	0.262500
2210.000000	0.262117
2211.000000	0.262432
2212.000000	0.262469
2213.000000	0.262843
2214.000000	0.263176
2215.000000	0.263950
2216.000000	0.266273
2217.000000	0.266262
2218.000000	0.265273
2219.000000	0.264723
2220.000000	0.262458
2221.000000	0.261191
2222.000000	0.260353
2223.000000	0.260077
2224.000000	0.258824
2225.000000	0.261260
2226.000000	0.263102
2227.000000	0.265628
2228.000000	0.268077
2229.000000	0.265971
2230.000000	0.265525
2231.000000	0.264639
2232.000000	0.263344
2233.000000	0.264507
2234.000000	0.262124
2235.000000	0.261951
2236.000000	0.262730
2237.000000	0.264273
2238.000000	0.264880
2239.000000	0.267153
2240.000000	0.267523
2241.000000	0.266362
2242.000000	0.265939
2243.000000	0.265245
2244.000000	0.264628
2245.000000	0.263383
2246.000000	0.262823
2247.000000	0.262371
2248.000000	0.262930
2249.000000	0.264393
2250.000000	0.265961
2251.000000	0.268582
2252.000000	0.269450
2253.000000	0.268406
2254.000000	0.268458
2255.000000	0.267835
2256.000000	0.267589
2257.000000	0.269061
2258.000000	0.269232
2259.000000	0.266594
2260.000000	0.264869
2261.000000	0.264714
2262.000000	0.265070
2263.000000	0.264732
2264.000000	0.265938
2265.000000	0.265847
2266.000000	0.263494
2267.000000	0.263190
2268.000000	0.265314
2269.000000	0.265165
2270.000000	0.263648
2271.000000	0.262943
2272.000000	0.261399
2273.000000	0.260757
2274.000000	0.261519
2275.000000	0.261413
2276.000000	0.261496
2277.000000	0.260173
2278.000000	0.258364
2279.000000	0.257161
2280.000000	0.255839
2281.000000	0.253399
2282.000000	0.252293
2283.000000	0.252728
2284.000000	0.250988
2285.000000	0.251306
2286.000000	0.252056
2287.000000	0.250768
2288.000000	0.251115
2289.000000	0.249951
2290.000000	0.247737
2291.000000	0.248095
2292.000000	0.248249
2293.000000	0.249274
2294.000000	0.250952
2295.000000	0.253531
2296.000000	0.254702
2297.000000	0.257122
2298.000000	0.257439
2299.000000	0.255566
2300.000000	0.254895
2301.000000	0.253317
2302.000000	0.252716
2303.000000	0.252642
2304.000000	0.253276
2305.000000	0.254711
2306.000000	0.255536
2307.000000	0.256428
2308.000000	0.258268
2309.000000	0.259183
2310.000000	0.258636
2311.000000	0.257262
2312.000000	0.254263
2313.000000	0.250787
2314.000000	0.248162
2315.000000	0.246136
2316.000000	0.247219
2317.000000	0.246453
2318.000000	0.244982
2319.000000	0.245142
2320.000000	0.243520
2321.000000	0.243524
2322.000000	0.245781
2323.000000	0.247572
2324.000000	0.248287
2325.000000	0.249537
2326.000000	0.250426
2327.000000	0.250357
2328.000000	0.250405
2329.000000	0.250637
2330.000000	0.247556
2331.000000	0.242528
2332.000000	0.240081
2333.000000	0.237133
2334.000000	0.234953
2335.000000	0.234817
2336.000000	0.237298
2337.000000	0.237813
2338.000000	0.239179
2339.000000	0.239940
2340.000000	0.238963
2341.000000	0.239953
2342.000000	0.242379
2343.000000	0.242690
2344.000000	0.243637
2345.000000	0.243274
2346.000000	0.240864
2347.000000	0.239149
2348.000000	0.237416
2349.000000	0.235285
2350.000000	0.233394
2351.000000	0.229300
2352.000000	0.225527
2353.000000	0.225601
2354.000000	0.224413
2355.000000	0.223981
2356.000000	0.226273
2357.000000	0.224470
2358.000000	0.220992
2359.000000	0.219571
2360.000000	0.217673
2361.000000	0.217283
2362.000000	0.219135
2363.000000	0.221781
2364.000000	0.221904
2365.000000	0.218528
2366.000000	0.217270
2367.000000	0.216114
2368.000000	0.215151
2369.000000	0.216914
2370.000000	0.216836
2371.000000	0.216440
2372.000000	0.218471
2373.000000	0.222757
2374.000000	0.224885
2375.000000	0.222193
2376.000000	0.218950
2377.000000	0.215036
2378.000000	0.214351
2379.000000	0.216958
2380.000000	0.215175
2381.000000	0.212217
2382.000000	0.206505
2383.000000	0.199928
2384.000000	0.197236
2385.000000	0.193671
2386.000000	0.192428
2387.000000	0.191701
2388.000000	0.190959
2389.000000	0.194166
2390.000000	0.198595
2391.000000	0.199817
2392.000000	0.199583
2393.000000	0.199988
2394.000000	0.192983
2395.000000	0.190761
2396.000000	0.198459
2397.000000	0.201352
2398.000000	0.205390
2399.000000	0.206920
2400.000000	0.201994
2401.000000	0.199883
2402.000000	0.200637
2403.000000	0.200203
2404.000000	0.197193
2405.000000	0.193698
2406.000000	0.189199
2407.000000	0.186701
2408.000000	0.189841
2409.000000	0.192165
2410.000000	0.190892
2411.000000	0.191397
2412.000000	0.189476
2413.000000	0.186027
2414.000000	0.188458
2415.000000	0.190180
2416.000000	0.194863
2417.000000	0.197004
2418.000000	0.195776
2419.000000	0.202182
2420.000000	0.202042
2421.000000	0.197419
2422.000000	0.195841
2423.000000	0.186993
2424.000000	0.175947
2425.000000	0.178336
2426.000000	0.181366
2427.000000	0.185952
2428.000000	0.193147
2429.000000	0.183089
2430.000000	0.178467
2431.000000	0.178910
2432.000000	0.174277
2433.000000	0.179116
2434.000000	0.183088
2435.000000	0.178288
2436.000000	0.172205
2437.000000	0.175071
2438.000000	0.174161
2439.000000	0.171029
2440.000000	0.175351
2441.000000	0.165392
2442.000000	0.158007
2443.000000	0.162630
2444.000000	0.162150
2445.000000	0.170855
2446.000000	0.177494
2447.000000	0.182624
2448.000000	0.188435
2449.000000	0.188829
2450.000000	0.191657
2451.000000	0.183732
2452.000000	0.180812
2453.000000	0.174442
2454.000000	0.164019
2455.000000	0.158051
2456.000000	0.142829
2457.000000	0.140392
2458.000000	0.130468
2459.000000	0.117478
2460.000000	0.125916
2461.000000	0.126507
2462.000000	0.127181
2463.000000	0.130405
2464.000000	0.133433
2465.000000	0.145708
2466.000000	0.159539
2467.000000	0.180587
2468.000000	0.186309
2469.000000	0.187015
2470.000000	0.188637
2471.000000	0.179751
2472.000000	0.184734
2473.000000	0.166754
2474.000000	0.141947
2475.000000	0.132811
2476.000000	0.127800
2477.000000	0.142659
2478.000000	0.159154
2479.000000	0.186329
2480.000000	0.178494
2481.000000	0.141226
2482.000000	0.124255
2483.000000	0.092919
2484.000000	0.081658
2485.000000	0.104194
2486.000000	0.117431
2487.000000	0.129833
2488.000000	0.146570
2489.000000	0.197980
2490.000000	0.236432
2491.000000	0.242351
2492.000000	0.224493
2493.000000	0.125255
2494.000000	0.092417
2495.000000	0.089293
2496.000000	0.083068
2497.000000	0.116733
2498.000000	0.119843
2499.000000	0.110992
2500.000000	0.102645
