# Wavelength	NAu-2-30_HEX-40_FV7-30_00000.asd.rts.txt
350.000000	0.136543
351.000000	0.156093
352.000000	0.156178
353.000000	0.143619
354.000000	0.133066
355.000000	0.146388
356.000000	0.156600
357.000000	0.157042
358.000000	0.149751
359.000000	0.142709
360.000000	0.138632
361.000000	0.138521
362.000000	0.142951
363.000000	0.148383
364.000000	0.150773
365.000000	0.143522
366.000000	0.145208
367.000000	0.152647
368.000000	0.143868
369.000000	0.140999
370.000000	0.142181
371.000000	0.139851
372.000000	0.140481
373.000000	0.143247
374.000000	0.146418
375.000000	0.146961
376.000000	0.143885
377.000000	0.140834
378.000000	0.146600
379.000000	0.149701
380.000000	0.148844
381.000000	0.147038
382.000000	0.149122
383.000000	0.152425
384.000000	0.154119
385.000000	0.152622
386.000000	0.152803
387.000000	0.154995
388.000000	0.154514
389.000000	0.154607
390.000000	0.154764
391.000000	0.153435
392.000000	0.154119
393.000000	0.155323
394.000000	0.155560
395.000000	0.155877
396.000000	0.154772
397.000000	0.152539
398.000000	0.151822
399.000000	0.152700
400.000000	0.154676
401.000000	0.156618
402.000000	0.155059
403.000000	0.153870
404.000000	0.156240
405.000000	0.157068
406.000000	0.156753
407.000000	0.156102
408.000000	0.156101
409.000000	0.156378
410.000000	0.156857
411.000000	0.157544
412.000000	0.157066
413.000000	0.156791
414.000000	0.158137
415.000000	0.158999
416.000000	0.159504
417.000000	0.159888
418.000000	0.160252
419.000000	0.160093
420.000000	0.159651
421.000000	0.159806
422.000000	0.160361
423.000000	0.161033
424.000000	0.161529
425.000000	0.161506
426.000000	0.161605
427.000000	0.162155
428.000000	0.162209
429.000000	0.162291
430.000000	0.162742
431.000000	0.163802
432.000000	0.164254
433.000000	0.164261
434.000000	0.164683
435.000000	0.165065
436.000000	0.165253
437.000000	0.165255
438.000000	0.165681
439.000000	0.165964
440.000000	0.165957
441.000000	0.166210
442.000000	0.166382
443.000000	0.166425
444.000000	0.166579
445.000000	0.166812
446.000000	0.167133
447.000000	0.167451
448.000000	0.167975
449.000000	0.168543
450.000000	0.169038
451.000000	0.169529
452.000000	0.169936
453.000000	0.170241
454.000000	0.170668
455.000000	0.170889
456.000000	0.171098
457.000000	0.171555
458.000000	0.171971
459.000000	0.172272
460.000000	0.172491
461.000000	0.172731
462.000000	0.173087
463.000000	0.173484
464.000000	0.173940
465.000000	0.174296
466.000000	0.174545
467.000000	0.174876
468.000000	0.175269
469.000000	0.175616
470.000000	0.175920
471.000000	0.176201
472.000000	0.176426
473.000000	0.176621
474.000000	0.176918
475.000000	0.177014
476.000000	0.177100
477.000000	0.177710
478.000000	0.178128
479.000000	0.178363
480.000000	0.178473
481.000000	0.178669
482.000000	0.179142
483.000000	0.179760
484.000000	0.180055
485.000000	0.180071
486.000000	0.180109
487.000000	0.180552
488.000000	0.180827
489.000000	0.180964
490.000000	0.181376
491.000000	0.181423
492.000000	0.181401
493.000000	0.181678
494.000000	0.181942
495.000000	0.182186
496.000000	0.182406
497.000000	0.182663
498.000000	0.182801
499.000000	0.182877
500.000000	0.183078
501.000000	0.183224
502.000000	0.183394
503.000000	0.183693
504.000000	0.183799
505.000000	0.183903
506.000000	0.184198
507.000000	0.184372
508.000000	0.184651
509.000000	0.185054
510.000000	0.185213
511.000000	0.185503
512.000000	0.185937
513.000000	0.186203
514.000000	0.186548
515.000000	0.187000
516.000000	0.187463
517.000000	0.187853
518.000000	0.188225
519.000000	0.188595
520.000000	0.189059
521.000000	0.189508
522.000000	0.189929
523.000000	0.190458
524.000000	0.190969
525.000000	0.191476
526.000000	0.192096
527.000000	0.192748
528.000000	0.193446
529.000000	0.194250
530.000000	0.195077
531.000000	0.196068
532.000000	0.197186
533.000000	0.198173
534.000000	0.199131
535.000000	0.200122
536.000000	0.201232
537.000000	0.202278
538.000000	0.203248
539.000000	0.204185
540.000000	0.205105
541.000000	0.205928
542.000000	0.206647
543.000000	0.207459
544.000000	0.208327
545.000000	0.209154
546.000000	0.209918
547.000000	0.210749
548.000000	0.211671
549.000000	0.212565
550.000000	0.213455
551.000000	0.214402
552.000000	0.215431
553.000000	0.216500
554.000000	0.217649
555.000000	0.218887
556.000000	0.220102
557.000000	0.221355
558.000000	0.222750
559.000000	0.224167
560.000000	0.225527
561.000000	0.226870
562.000000	0.228170
563.000000	0.229439
564.000000	0.230668
565.000000	0.231788
566.000000	0.233017
567.000000	0.234171
568.000000	0.235127
569.000000	0.235991
570.000000	0.236840
571.000000	0.237674
572.000000	0.238440
573.000000	0.239104
574.000000	0.239707
575.000000	0.240349
576.000000	0.240860
577.000000	0.241266
578.000000	0.241673
579.000000	0.242116
580.000000	0.242456
581.000000	0.242659
582.000000	0.242861
583.000000	0.243036
584.000000	0.243168
585.000000	0.243246
586.000000	0.243248
587.000000	0.243197
588.000000	0.243131
589.000000	0.243097
590.000000	0.243011
591.000000	0.242842
592.000000	0.242707
593.000000	0.242606
594.000000	0.242476
595.000000	0.242178
596.000000	0.241926
597.000000	0.241709
598.000000	0.241353
599.000000	0.240982
600.000000	0.240618
601.000000	0.240219
602.000000	0.239923
603.000000	0.239568
604.000000	0.239130
605.000000	0.238827
606.000000	0.238451
607.000000	0.238038
608.000000	0.237775
609.000000	0.237487
610.000000	0.237131
611.000000	0.236728
612.000000	0.236461
613.000000	0.236218
614.000000	0.235933
615.000000	0.235583
616.000000	0.235325
617.000000	0.235105
618.000000	0.234719
619.000000	0.234393
620.000000	0.234121
621.000000	0.233856
622.000000	0.233565
623.000000	0.233268
624.000000	0.232994
625.000000	0.232781
626.000000	0.232589
627.000000	0.232388
628.000000	0.232153
629.000000	0.231926
630.000000	0.231683
631.000000	0.231587
632.000000	0.231343
633.000000	0.231173
634.000000	0.231276
635.000000	0.231179
636.000000	0.231077
637.000000	0.231073
638.000000	0.231043
639.000000	0.231012
640.000000	0.231018
641.000000	0.230984
642.000000	0.231022
643.000000	0.231112
644.000000	0.231195
645.000000	0.231240
646.000000	0.231337
647.000000	0.231511
648.000000	0.231662
649.000000	0.231783
650.000000	0.231911
651.000000	0.232196
652.000000	0.232446
653.000000	0.232668
654.000000	0.232891
655.000000	0.233148
656.000000	0.233462
657.000000	0.233790
658.000000	0.234083
659.000000	0.234380
660.000000	0.234703
661.000000	0.235080
662.000000	0.235439
663.000000	0.235857
664.000000	0.236412
665.000000	0.236870
666.000000	0.237321
667.000000	0.237875
668.000000	0.238466
669.000000	0.239031
670.000000	0.239564
671.000000	0.240161
672.000000	0.240846
673.000000	0.241548
674.000000	0.242133
675.000000	0.242781
676.000000	0.243494
677.000000	0.244236
678.000000	0.244975
679.000000	0.245724
680.000000	0.246501
681.000000	0.247302
682.000000	0.248122
683.000000	0.248938
684.000000	0.249890
685.000000	0.250844
686.000000	0.251793
687.000000	0.252728
688.000000	0.253704
689.000000	0.254720
690.000000	0.255790
691.000000	0.256857
692.000000	0.257964
693.000000	0.259130
694.000000	0.260190
695.000000	0.261268
696.000000	0.262387
697.000000	0.263535
698.000000	0.264732
699.000000	0.265931
700.000000	0.267121
701.000000	0.268416
702.000000	0.269777
703.000000	0.271130
704.000000	0.272400
705.000000	0.273692
706.000000	0.275007
707.000000	0.276377
708.000000	0.277697
709.000000	0.279009
710.000000	0.280376
711.000000	0.281744
712.000000	0.283129
713.000000	0.284541
714.000000	0.285915
715.000000	0.287257
716.000000	0.288621
717.000000	0.290059
718.000000	0.291475
719.000000	0.292847
720.000000	0.294203
721.000000	0.295608
722.000000	0.297002
723.000000	0.298407
724.000000	0.299786
725.000000	0.301115
726.000000	0.302475
727.000000	0.303839
728.000000	0.305270
729.000000	0.306658
730.000000	0.307888
731.000000	0.309186
732.000000	0.310465
733.000000	0.311739
734.000000	0.313040
735.000000	0.314235
736.000000	0.315459
737.000000	0.316671
738.000000	0.317765
739.000000	0.318879
740.000000	0.319956
741.000000	0.321058
742.000000	0.322216
743.000000	0.323353
744.000000	0.324361
745.000000	0.325331
746.000000	0.326315
747.000000	0.327250
748.000000	0.328184
749.000000	0.329104
750.000000	0.329968
751.000000	0.330799
752.000000	0.331659
753.000000	0.332556
754.000000	0.333424
755.000000	0.334271
756.000000	0.335073
757.000000	0.335766
758.000000	0.336448
759.000000	0.337133
760.000000	0.337774
761.000000	0.338527
762.000000	0.339198
763.000000	0.339760
764.000000	0.340366
765.000000	0.340899
766.000000	0.341379
767.000000	0.341834
768.000000	0.342252
769.000000	0.342671
770.000000	0.343121
771.000000	0.343618
772.000000	0.344103
773.000000	0.344519
774.000000	0.344963
775.000000	0.345376
776.000000	0.345751
777.000000	0.346082
778.000000	0.346432
779.000000	0.346752
780.000000	0.347032
781.000000	0.347275
782.000000	0.347445
783.000000	0.347652
784.000000	0.347833
785.000000	0.348076
786.000000	0.348312
787.000000	0.348499
788.000000	0.348693
789.000000	0.348844
790.000000	0.348946
791.000000	0.349074
792.000000	0.349235
793.000000	0.349379
794.000000	0.349471
795.000000	0.349557
796.000000	0.349607
797.000000	0.349634
798.000000	0.349708
799.000000	0.349773
800.000000	0.349794
801.000000	0.349764
802.000000	0.349778
803.000000	0.349837
804.000000	0.349964
805.000000	0.350105
806.000000	0.350157
807.000000	0.350210
808.000000	0.350266
809.000000	0.350173
810.000000	0.350084
811.000000	0.350078
812.000000	0.349923
813.000000	0.349870
814.000000	0.349909
815.000000	0.349828
816.000000	0.349741
817.000000	0.349703
818.000000	0.349655
819.000000	0.349670
820.000000	0.349705
821.000000	0.349702
822.000000	0.349764
823.000000	0.349793
824.000000	0.349742
825.000000	0.349710
826.000000	0.349569
827.000000	0.349387
828.000000	0.349288
829.000000	0.349324
830.000000	0.349272
831.000000	0.349174
832.000000	0.349031
833.000000	0.348886
834.000000	0.348737
835.000000	0.348606
836.000000	0.348467
837.000000	0.348301
838.000000	0.348126
839.000000	0.347943
840.000000	0.347828
841.000000	0.347772
842.000000	0.347682
843.000000	0.347468
844.000000	0.347366
845.000000	0.347371
846.000000	0.347305
847.000000	0.347215
848.000000	0.347067
849.000000	0.346858
850.000000	0.346586
851.000000	0.346374
852.000000	0.346257
853.000000	0.346008
854.000000	0.345783
855.000000	0.345694
856.000000	0.345604
857.000000	0.345436
858.000000	0.345354
859.000000	0.345294
860.000000	0.345058
861.000000	0.344926
862.000000	0.344841
863.000000	0.344564
864.000000	0.344323
865.000000	0.344140
866.000000	0.344022
867.000000	0.343885
868.000000	0.343731
869.000000	0.343511
870.000000	0.343288
871.000000	0.342965
872.000000	0.342739
873.000000	0.342633
874.000000	0.342540
875.000000	0.342337
876.000000	0.342061
877.000000	0.341754
878.000000	0.341470
879.000000	0.341312
880.000000	0.341127
881.000000	0.340825
882.000000	0.340523
883.000000	0.340258
884.000000	0.339959
885.000000	0.339722
886.000000	0.339507
887.000000	0.339292
888.000000	0.339007
889.000000	0.338814
890.000000	0.338564
891.000000	0.338275
892.000000	0.338110
893.000000	0.337954
894.000000	0.337832
895.000000	0.337588
896.000000	0.337292
897.000000	0.337012
898.000000	0.336795
899.000000	0.336518
900.000000	0.336233
901.000000	0.335954
902.000000	0.335775
903.000000	0.335527
904.000000	0.335223
905.000000	0.334843
906.000000	0.334672
907.000000	0.334430
908.000000	0.334124
909.000000	0.333894
910.000000	0.333749
911.000000	0.333657
912.000000	0.333545
913.000000	0.333145
914.000000	0.332764
915.000000	0.332526
916.000000	0.332220
917.000000	0.331783
918.000000	0.331437
919.000000	0.331280
920.000000	0.331068
921.000000	0.330833
922.000000	0.330575
923.000000	0.330279
924.000000	0.330166
925.000000	0.330003
926.000000	0.329686
927.000000	0.329260
928.000000	0.329001
929.000000	0.328833
930.000000	0.328571
931.000000	0.328164
932.000000	0.327921
933.000000	0.327903
934.000000	0.327767
935.000000	0.327428
936.000000	0.327066
937.000000	0.326730
938.000000	0.326327
939.000000	0.326012
940.000000	0.325782
941.000000	0.325691
942.000000	0.325463
943.000000	0.325237
944.000000	0.325011
945.000000	0.324899
946.000000	0.324692
947.000000	0.324571
948.000000	0.324593
949.000000	0.323969
950.000000	0.323530
951.000000	0.323375
952.000000	0.322990
953.000000	0.322794
954.000000	0.322601
955.000000	0.322170
956.000000	0.321691
957.000000	0.321495
958.000000	0.321377
959.000000	0.321115
960.000000	0.321126
961.000000	0.321070
962.000000	0.320865
963.000000	0.320838
964.000000	0.320516
965.000000	0.320215
966.000000	0.320043
967.000000	0.319501
968.000000	0.319214
969.000000	0.319176
970.000000	0.319188
971.000000	0.319085
972.000000	0.318837
973.000000	0.318472
974.000000	0.318267
975.000000	0.318090
976.000000	0.318043
977.000000	0.318061
978.000000	0.317468
979.000000	0.317226
980.000000	0.317098
981.000000	0.316887
982.000000	0.316812
983.000000	0.316682
984.000000	0.316423
985.000000	0.315983
986.000000	0.315995
987.000000	0.316067
988.000000	0.315785
989.000000	0.315632
990.000000	0.315211
991.000000	0.314850
992.000000	0.314999
993.000000	0.315180
994.000000	0.315020
995.000000	0.314902
996.000000	0.315200
997.000000	0.314836
998.000000	0.314521
999.000000	0.314663
1000.000000	0.314614
1001.000000	0.315487
1002.000000	0.314440
1003.000000	0.313872
1004.000000	0.313867
1005.000000	0.314112
1006.000000	0.313967
1007.000000	0.314495
1008.000000	0.314256
1009.000000	0.313480
1010.000000	0.312904
1011.000000	0.313142
1012.000000	0.313481
1013.000000	0.312919
1014.000000	0.312383
1015.000000	0.312187
1016.000000	0.312279
1017.000000	0.312524
1018.000000	0.313069
1019.000000	0.313540
1020.000000	0.313899
1021.000000	0.313948
1022.000000	0.314478
1023.000000	0.314767
1024.000000	0.314484
1025.000000	0.314446
1026.000000	0.314466
1027.000000	0.313969
1028.000000	0.313707
1029.000000	0.313711
1030.000000	0.313356
1031.000000	0.313276
1032.000000	0.313896
1033.000000	0.314088
1034.000000	0.314254
1035.000000	0.314887
1036.000000	0.315069
1037.000000	0.314748
1038.000000	0.314478
1039.000000	0.314210
1040.000000	0.314052
1041.000000	0.313974
1042.000000	0.313734
1043.000000	0.313840
1044.000000	0.314399
1045.000000	0.314785
1046.000000	0.315096
1047.000000	0.315447
1048.000000	0.315908
1049.000000	0.316009
1050.000000	0.315886
1051.000000	0.315917
1052.000000	0.315614
1053.000000	0.315652
1054.000000	0.316213
1055.000000	0.316628
1056.000000	0.317123
1057.000000	0.317638
1058.000000	0.318373
1059.000000	0.318747
1060.000000	0.318608
1061.000000	0.318651
1062.000000	0.318635
1063.000000	0.318189
1064.000000	0.318252
1065.000000	0.318876
1066.000000	0.319113
1067.000000	0.319200
1068.000000	0.319367
1069.000000	0.319387
1070.000000	0.319506
1071.000000	0.319639
1072.000000	0.319939
1073.000000	0.320476
1074.000000	0.321117
1075.000000	0.321172
1076.000000	0.321323
1077.000000	0.321474
1078.000000	0.321346
1079.000000	0.321543
1080.000000	0.322253
1081.000000	0.322549
1082.000000	0.322822
1083.000000	0.322981
1084.000000	0.322997
1085.000000	0.323133
1086.000000	0.323118
1087.000000	0.323240
1088.000000	0.323383
1089.000000	0.323599
1090.000000	0.323885
1091.000000	0.324210
1092.000000	0.324321
1093.000000	0.324280
1094.000000	0.324401
1095.000000	0.324126
1096.000000	0.324571
1097.000000	0.325774
1098.000000	0.326152
1099.000000	0.326308
1100.000000	0.326616
1101.000000	0.326567
1102.000000	0.326565
1103.000000	0.326639
1104.000000	0.326900
1105.000000	0.326933
1106.000000	0.327215
1107.000000	0.327964
1108.000000	0.328473
1109.000000	0.329043
1110.000000	0.329500
1111.000000	0.329678
1112.000000	0.329657
1113.000000	0.329746
1114.000000	0.329619
1115.000000	0.329641
1116.000000	0.329849
1117.000000	0.329907
1118.000000	0.329817
1119.000000	0.329776
1120.000000	0.329538
1121.000000	0.329705
1122.000000	0.330334
1123.000000	0.330830
1124.000000	0.331289
1125.000000	0.331710
1126.000000	0.331823
1127.000000	0.331970
1128.000000	0.332130
1129.000000	0.332516
1130.000000	0.332525
1131.000000	0.332273
1132.000000	0.332256
1133.000000	0.332178
1134.000000	0.332283
1135.000000	0.332513
1136.000000	0.332753
1137.000000	0.333231
1138.000000	0.333276
1139.000000	0.333182
1140.000000	0.333276
1141.000000	0.332982
1142.000000	0.333025
1143.000000	0.333503
1144.000000	0.333806
1145.000000	0.333833
1146.000000	0.333872
1147.000000	0.334048
1148.000000	0.334090
1149.000000	0.334181
1150.000000	0.334473
1151.000000	0.334629
1152.000000	0.334575
1153.000000	0.334645
1154.000000	0.334843
1155.000000	0.334822
1156.000000	0.334613
1157.000000	0.334549
1158.000000	0.334416
1159.000000	0.334304
1160.000000	0.334151
1161.000000	0.334168
1162.000000	0.334331
1163.000000	0.334581
1164.000000	0.334768
1165.000000	0.335106
1166.000000	0.335261
1167.000000	0.335204
1168.000000	0.335215
1169.000000	0.335244
1170.000000	0.335299
1171.000000	0.335382
1172.000000	0.335509
1173.000000	0.335604
1174.000000	0.335763
1175.000000	0.336027
1176.000000	0.336092
1177.000000	0.336138
1178.000000	0.336248
1179.000000	0.336237
1180.000000	0.336239
1181.000000	0.336411
1182.000000	0.336622
1183.000000	0.336673
1184.000000	0.336769
1185.000000	0.336766
1186.000000	0.336650
1187.000000	0.336627
1188.000000	0.336612
1189.000000	0.336562
1190.000000	0.336566
1191.000000	0.336585
1192.000000	0.336702
1193.000000	0.336837
1194.000000	0.336937
1195.000000	0.336964
1196.000000	0.336712
1197.000000	0.336750
1198.000000	0.337006
1199.000000	0.337136
1200.000000	0.337373
1201.000000	0.337560
1202.000000	0.337482
1203.000000	0.337502
1204.000000	0.337466
1205.000000	0.337364
1206.000000	0.337395
1207.000000	0.337584
1208.000000	0.337573
1209.000000	0.337683
1210.000000	0.337746
1211.000000	0.337608
1212.000000	0.337629
1213.000000	0.337820
1214.000000	0.337930
1215.000000	0.338037
1216.000000	0.338124
1217.000000	0.338153
1218.000000	0.338195
1219.000000	0.338262
1220.000000	0.338338
1221.000000	0.338338
1222.000000	0.338366
1223.000000	0.338346
1224.000000	0.338342
1225.000000	0.338419
1226.000000	0.338451
1227.000000	0.338457
1228.000000	0.338463
1229.000000	0.338480
1230.000000	0.338477
1231.000000	0.338458
1232.000000	0.338611
1233.000000	0.338748
1234.000000	0.338815
1235.000000	0.338875
1236.000000	0.338818
1237.000000	0.338885
1238.000000	0.338970
1239.000000	0.339010
1240.000000	0.339051
1241.000000	0.339165
1242.000000	0.339266
1243.000000	0.339211
1244.000000	0.339319
1245.000000	0.339520
1246.000000	0.339522
1247.000000	0.339664
1248.000000	0.339706
1249.000000	0.339745
1250.000000	0.339922
1251.000000	0.340001
1252.000000	0.340097
1253.000000	0.340334
1254.000000	0.340373
1255.000000	0.340215
1256.000000	0.340247
1257.000000	0.340300
1258.000000	0.340392
1259.000000	0.340616
1260.000000	0.340713
1261.000000	0.340572
1262.000000	0.340612
1263.000000	0.340728
1264.000000	0.340774
1265.000000	0.340934
1266.000000	0.340981
1267.000000	0.340994
1268.000000	0.341004
1269.000000	0.340931
1270.000000	0.341146
1271.000000	0.341251
1272.000000	0.341154
1273.000000	0.341200
1274.000000	0.341215
1275.000000	0.341266
1276.000000	0.341423
1277.000000	0.341556
1278.000000	0.341588
1279.000000	0.341613
1280.000000	0.341540
1281.000000	0.341452
1282.000000	0.341406
1283.000000	0.341488
1284.000000	0.341531
1285.000000	0.341571
1286.000000	0.341685
1287.000000	0.341660
1288.000000	0.341662
1289.000000	0.341668
1290.000000	0.341715
1291.000000	0.341699
1292.000000	0.341660
1293.000000	0.341734
1294.000000	0.341751
1295.000000	0.341905
1296.000000	0.342060
1297.000000	0.341992
1298.000000	0.342077
1299.000000	0.342185
1300.000000	0.342211
1301.000000	0.342275
1302.000000	0.342196
1303.000000	0.342025
1304.000000	0.341968
1305.000000	0.342011
1306.000000	0.342059
1307.000000	0.342256
1308.000000	0.342364
1309.000000	0.342465
1310.000000	0.342533
1311.000000	0.342601
1312.000000	0.342614
1313.000000	0.342553
1314.000000	0.342420
1315.000000	0.342290
1316.000000	0.342191
1317.000000	0.342177
1318.000000	0.342243
1319.000000	0.342198
1320.000000	0.342192
1321.000000	0.342182
1322.000000	0.342107
1323.000000	0.342034
1324.000000	0.341939
1325.000000	0.341782
1326.000000	0.341628
1327.000000	0.341572
1328.000000	0.341724
1329.000000	0.341683
1330.000000	0.341598
1331.000000	0.341558
1332.000000	0.341597
1333.000000	0.341450
1334.000000	0.341292
1335.000000	0.341251
1336.000000	0.341016
1337.000000	0.340906
1338.000000	0.340917
1339.000000	0.340977
1340.000000	0.340802
1341.000000	0.340677
1342.000000	0.340604
1343.000000	0.340537
1344.000000	0.340523
1345.000000	0.340540
1346.000000	0.340596
1347.000000	0.340439
1348.000000	0.340275
1349.000000	0.340119
1350.000000	0.340017
1351.000000	0.339969
1352.000000	0.339896
1353.000000	0.339712
1354.000000	0.339501
1355.000000	0.339279
1356.000000	0.339096
1357.000000	0.339070
1358.000000	0.339207
1359.000000	0.339184
1360.000000	0.339044
1361.000000	0.338872
1362.000000	0.338721
1363.000000	0.338315
1364.000000	0.338177
1365.000000	0.338250
1366.000000	0.338200
1367.000000	0.338147
1368.000000	0.338098
1369.000000	0.338054
1370.000000	0.337832
1371.000000	0.337592
1372.000000	0.337432
1373.000000	0.337238
1374.000000	0.336911
1375.000000	0.336465
1376.000000	0.336157
1377.000000	0.335846
1378.000000	0.335613
1379.000000	0.335352
1380.000000	0.334924
1381.000000	0.334483
1382.000000	0.334010
1383.000000	0.333623
1384.000000	0.333092
1385.000000	0.332437
1386.000000	0.331910
1387.000000	0.331333
1388.000000	0.330584
1389.000000	0.329844
1390.000000	0.329053
1391.000000	0.328012
1392.000000	0.327093
1393.000000	0.326176
1394.000000	0.325265
1395.000000	0.324351
1396.000000	0.323574
1397.000000	0.322507
1398.000000	0.321201
1399.000000	0.320035
1400.000000	0.318781
1401.000000	0.317502
1402.000000	0.316292
1403.000000	0.315127
1404.000000	0.313962
1405.000000	0.312875
1406.000000	0.311979
1407.000000	0.311058
1408.000000	0.310018
1409.000000	0.309202
1410.000000	0.308452
1411.000000	0.307597
1412.000000	0.306773
1413.000000	0.306007
1414.000000	0.305302
1415.000000	0.304694
1416.000000	0.304109
1417.000000	0.303449
1418.000000	0.302691
1419.000000	0.302098
1420.000000	0.301496
1421.000000	0.300907
1422.000000	0.300425
1423.000000	0.299985
1424.000000	0.299492
1425.000000	0.299047
1426.000000	0.298516
1427.000000	0.298026
1428.000000	0.297518
1429.000000	0.296984
1430.000000	0.296570
1431.000000	0.296049
1432.000000	0.295533
1433.000000	0.295038
1434.000000	0.294555
1435.000000	0.294105
1436.000000	0.293776
1437.000000	0.293530
1438.000000	0.293203
1439.000000	0.292844
1440.000000	0.292654
1441.000000	0.292543
1442.000000	0.292471
1443.000000	0.292456
1444.000000	0.292622
1445.000000	0.292568
1446.000000	0.292494
1447.000000	0.292597
1448.000000	0.292667
1449.000000	0.292768
1450.000000	0.292981
1451.000000	0.293225
1452.000000	0.293319
1453.000000	0.293434
1454.000000	0.293537
1455.000000	0.293527
1456.000000	0.293611
1457.000000	0.293769
1458.000000	0.293885
1459.000000	0.294014
1460.000000	0.294169
1461.000000	0.294167
1462.000000	0.294114
1463.000000	0.294104
1464.000000	0.294120
1465.000000	0.294248
1466.000000	0.294374
1467.000000	0.294434
1468.000000	0.294497
1469.000000	0.294723
1470.000000	0.294944
1471.000000	0.295213
1472.000000	0.295444
1473.000000	0.295585
1474.000000	0.295691
1475.000000	0.295845
1476.000000	0.296168
1477.000000	0.296611
1478.000000	0.297031
1479.000000	0.297425
1480.000000	0.297796
1481.000000	0.298122
1482.000000	0.298361
1483.000000	0.298770
1484.000000	0.299286
1485.000000	0.299684
1486.000000	0.300101
1487.000000	0.300509
1488.000000	0.300866
1489.000000	0.301268
1490.000000	0.301617
1491.000000	0.301950
1492.000000	0.302176
1493.000000	0.302435
1494.000000	0.302683
1495.000000	0.302946
1496.000000	0.303182
1497.000000	0.303492
1498.000000	0.303903
1499.000000	0.304184
1500.000000	0.304452
1501.000000	0.304769
1502.000000	0.305047
1503.000000	0.305301
1504.000000	0.305598
1505.000000	0.305917
1506.000000	0.306146
1507.000000	0.306326
1508.000000	0.306591
1509.000000	0.306869
1510.000000	0.307110
1511.000000	0.307339
1512.000000	0.307495
1513.000000	0.307651
1514.000000	0.307839
1515.000000	0.308023
1516.000000	0.308301
1517.000000	0.308493
1518.000000	0.308660
1519.000000	0.308780
1520.000000	0.308828
1521.000000	0.308885
1522.000000	0.308998
1523.000000	0.309147
1524.000000	0.309256
1525.000000	0.309397
1526.000000	0.309576
1527.000000	0.309739
1528.000000	0.309897
1529.000000	0.310004
1530.000000	0.309920
1531.000000	0.309937
1532.000000	0.310105
1533.000000	0.310211
1534.000000	0.310322
1535.000000	0.310432
1536.000000	0.310458
1537.000000	0.310506
1538.000000	0.310584
1539.000000	0.310668
1540.000000	0.310756
1541.000000	0.310890
1542.000000	0.311048
1543.000000	0.311129
1544.000000	0.311183
1545.000000	0.311325
1546.000000	0.311488
1547.000000	0.311590
1548.000000	0.311694
1549.000000	0.311792
1550.000000	0.311737
1551.000000	0.311697
1552.000000	0.311785
1553.000000	0.311769
1554.000000	0.311670
1555.000000	0.311680
1556.000000	0.311812
1557.000000	0.311877
1558.000000	0.311993
1559.000000	0.312250
1560.000000	0.312351
1561.000000	0.312351
1562.000000	0.312398
1563.000000	0.312506
1564.000000	0.312543
1565.000000	0.312541
1566.000000	0.312466
1567.000000	0.312414
1568.000000	0.312342
1569.000000	0.312277
1570.000000	0.312285
1571.000000	0.312305
1572.000000	0.312315
1573.000000	0.312396
1574.000000	0.312385
1575.000000	0.312332
1576.000000	0.312345
1577.000000	0.312332
1578.000000	0.312339
1579.000000	0.312457
1580.000000	0.312471
1581.000000	0.312510
1582.000000	0.312508
1583.000000	0.312462
1584.000000	0.312371
1585.000000	0.312287
1586.000000	0.312273
1587.000000	0.312272
1588.000000	0.312237
1589.000000	0.312251
1590.000000	0.312253
1591.000000	0.312205
1592.000000	0.312238
1593.000000	0.312417
1594.000000	0.312468
1595.000000	0.312496
1596.000000	0.312529
1597.000000	0.312518
1598.000000	0.312541
1599.000000	0.312723
1600.000000	0.312722
1601.000000	0.312662
1602.000000	0.312644
1603.000000	0.312535
1604.000000	0.312551
1605.000000	0.312779
1606.000000	0.312832
1607.000000	0.312870
1608.000000	0.312919
1609.000000	0.312938
1610.000000	0.312917
1611.000000	0.312955
1612.000000	0.312953
1613.000000	0.312938
1614.000000	0.312988
1615.000000	0.313154
1616.000000	0.313285
1617.000000	0.313384
1618.000000	0.313455
1619.000000	0.313480
1620.000000	0.313540
1621.000000	0.313652
1622.000000	0.313761
1623.000000	0.313819
1624.000000	0.313904
1625.000000	0.313835
1626.000000	0.313859
1627.000000	0.314000
1628.000000	0.314111
1629.000000	0.314188
1630.000000	0.314346
1631.000000	0.314479
1632.000000	0.314588
1633.000000	0.314752
1634.000000	0.314897
1635.000000	0.315047
1636.000000	0.315179
1637.000000	0.315323
1638.000000	0.315457
1639.000000	0.315676
1640.000000	0.315743
1641.000000	0.315833
1642.000000	0.315899
1643.000000	0.315820
1644.000000	0.315885
1645.000000	0.316051
1646.000000	0.316104
1647.000000	0.316230
1648.000000	0.316214
1649.000000	0.316131
1650.000000	0.316187
1651.000000	0.316219
1652.000000	0.316441
1653.000000	0.316845
1654.000000	0.317109
1655.000000	0.317374
1656.000000	0.317519
1657.000000	0.317593
1658.000000	0.317677
1659.000000	0.317848
1660.000000	0.317991
1661.000000	0.318005
1662.000000	0.318134
1663.000000	0.318311
1664.000000	0.318432
1665.000000	0.318549
1666.000000	0.318739
1667.000000	0.318802
1668.000000	0.318970
1669.000000	0.319227
1670.000000	0.319340
1671.000000	0.319562
1672.000000	0.319736
1673.000000	0.319776
1674.000000	0.320052
1675.000000	0.320229
1676.000000	0.320388
1677.000000	0.320455
1678.000000	0.320358
1679.000000	0.320277
1680.000000	0.320188
1681.000000	0.320150
1682.000000	0.320133
1683.000000	0.320198
1684.000000	0.320403
1685.000000	0.320623
1686.000000	0.320619
1687.000000	0.320608
1688.000000	0.320569
1689.000000	0.320444
1690.000000	0.320413
1691.000000	0.320566
1692.000000	0.320678
1693.000000	0.320697
1694.000000	0.320831
1695.000000	0.320985
1696.000000	0.321105
1697.000000	0.321096
1698.000000	0.321121
1699.000000	0.321079
1700.000000	0.320732
1701.000000	0.320737
1702.000000	0.320835
1703.000000	0.320768
1704.000000	0.320783
1705.000000	0.320874
1706.000000	0.320971
1707.000000	0.321029
1708.000000	0.321182
1709.000000	0.321227
1710.000000	0.321202
1711.000000	0.321227
1712.000000	0.321310
1713.000000	0.321403
1714.000000	0.321508
1715.000000	0.321638
1716.000000	0.321905
1717.000000	0.322013
1718.000000	0.321988
1719.000000	0.322007
1720.000000	0.321987
1721.000000	0.322044
1722.000000	0.322171
1723.000000	0.322288
1724.000000	0.322520
1725.000000	0.322603
1726.000000	0.322534
1727.000000	0.322509
1728.000000	0.322259
1729.000000	0.322213
1730.000000	0.322497
1731.000000	0.322528
1732.000000	0.322515
1733.000000	0.322650
1734.000000	0.322597
1735.000000	0.322627
1736.000000	0.322802
1737.000000	0.322844
1738.000000	0.322779
1739.000000	0.322774
1740.000000	0.322760
1741.000000	0.322810
1742.000000	0.322903
1743.000000	0.322945
1744.000000	0.323026
1745.000000	0.322989
1746.000000	0.322790
1747.000000	0.322809
1748.000000	0.322818
1749.000000	0.322964
1750.000000	0.323009
1751.000000	0.323191
1752.000000	0.323341
1753.000000	0.323175
1754.000000	0.323194
1755.000000	0.323141
1756.000000	0.323245
1757.000000	0.323656
1758.000000	0.323902
1759.000000	0.324218
1760.000000	0.324328
1761.000000	0.324127
1762.000000	0.324067
1763.000000	0.323962
1764.000000	0.323930
1765.000000	0.324064
1766.000000	0.324002
1767.000000	0.323644
1768.000000	0.323529
1769.000000	0.323481
1770.000000	0.323580
1771.000000	0.323969
1772.000000	0.324095
1773.000000	0.324032
1774.000000	0.324129
1775.000000	0.324331
1776.000000	0.324387
1777.000000	0.324389
1778.000000	0.324444
1779.000000	0.324302
1780.000000	0.324462
1781.000000	0.324917
1782.000000	0.325027
1783.000000	0.325091
1784.000000	0.325247
1785.000000	0.325231
1786.000000	0.325447
1787.000000	0.325792
1788.000000	0.325799
1789.000000	0.325664
1790.000000	0.325383
1791.000000	0.325254
1792.000000	0.325414
1793.000000	0.325466
1794.000000	0.325561
1795.000000	0.325707
1796.000000	0.325862
1797.000000	0.325856
1798.000000	0.325763
1799.000000	0.325753
1800.000000	0.325713
1801.000000	0.326517
1802.000000	0.326162
1803.000000	0.324549
1804.000000	0.324447
1805.000000	0.324903
1806.000000	0.325044
1807.000000	0.326463
1808.000000	0.326374
1809.000000	0.325419
1810.000000	0.323667
1811.000000	0.322956
1812.000000	0.321598
1813.000000	0.321603
1814.000000	0.323112
1815.000000	0.323841
1816.000000	0.324756
1817.000000	0.325385
1818.000000	0.326228
1819.000000	0.326480
1820.000000	0.326241
1821.000000	0.326786
1822.000000	0.326367
1823.000000	0.324775
1824.000000	0.324156
1825.000000	0.323362
1826.000000	0.322981
1827.000000	0.322915
1828.000000	0.323300
1829.000000	0.323089
1830.000000	0.322808
1831.000000	0.322877
1832.000000	0.323091
1833.000000	0.322900
1834.000000	0.322709
1835.000000	0.322787
1836.000000	0.322708
1837.000000	0.322597
1838.000000	0.322700
1839.000000	0.322585
1840.000000	0.322266
1841.000000	0.321775
1842.000000	0.321548
1843.000000	0.321597
1844.000000	0.321499
1845.000000	0.321245
1846.000000	0.321130
1847.000000	0.321030
1848.000000	0.320738
1849.000000	0.320366
1850.000000	0.319887
1851.000000	0.319624
1852.000000	0.319234
1853.000000	0.319065
1854.000000	0.319246
1855.000000	0.318770
1856.000000	0.317782
1857.000000	0.317182
1858.000000	0.316017
1859.000000	0.315291
1860.000000	0.315222
1861.000000	0.314377
1862.000000	0.313503
1863.000000	0.312688
1864.000000	0.311579
1865.000000	0.309795
1866.000000	0.308744
1867.000000	0.307893
1868.000000	0.307197
1869.000000	0.306370
1870.000000	0.305291
1871.000000	0.304015
1872.000000	0.302554
1873.000000	0.301074
1874.000000	0.299632
1875.000000	0.298263
1876.000000	0.296886
1877.000000	0.294535
1878.000000	0.292495
1879.000000	0.289630
1880.000000	0.286422
1881.000000	0.283636
1882.000000	0.280449
1883.000000	0.277458
1884.000000	0.274803
1885.000000	0.272570
1886.000000	0.269597
1887.000000	0.266601
1888.000000	0.263218
1889.000000	0.259337
1890.000000	0.254633
1891.000000	0.250703
1892.000000	0.246992
1893.000000	0.243321
1894.000000	0.239848
1895.000000	0.235737
1896.000000	0.231107
1897.000000	0.227183
1898.000000	0.223383
1899.000000	0.219431
1900.000000	0.216643
1901.000000	0.213564
1902.000000	0.210370
1903.000000	0.207456
1904.000000	0.204656
1905.000000	0.202624
1906.000000	0.200700
1907.000000	0.198882
1908.000000	0.197924
1909.000000	0.197461
1910.000000	0.196626
1911.000000	0.196068
1912.000000	0.194816
1913.000000	0.193561
1914.000000	0.193028
1915.000000	0.192369
1916.000000	0.191810
1917.000000	0.191310
1918.000000	0.191052
1919.000000	0.190434
1920.000000	0.190228
1921.000000	0.190609
1922.000000	0.190531
1923.000000	0.190469
1924.000000	0.190052
1925.000000	0.189401
1926.000000	0.189903
1927.000000	0.190524
1928.000000	0.191067
1929.000000	0.191978
1930.000000	0.192932
1931.000000	0.193127
1932.000000	0.193310
1933.000000	0.192530
1934.000000	0.191702
1935.000000	0.191269
1936.000000	0.190495
1937.000000	0.190656
1938.000000	0.191177
1939.000000	0.191616
1940.000000	0.192222
1941.000000	0.192792
1942.000000	0.193232
1943.000000	0.193602
1944.000000	0.193327
1945.000000	0.193148
1946.000000	0.193003
1947.000000	0.192530
1948.000000	0.192195
1949.000000	0.192382
1950.000000	0.192296
1951.000000	0.192023
1952.000000	0.191556
1953.000000	0.191673
1954.000000	0.191584
1955.000000	0.191827
1956.000000	0.192239
1957.000000	0.191255
1958.000000	0.190289
1959.000000	0.189853
1960.000000	0.189015
1961.000000	0.188751
1962.000000	0.188735
1963.000000	0.189147
1964.000000	0.188950
1965.000000	0.189208
1966.000000	0.189993
1967.000000	0.190438
1968.000000	0.190702
1969.000000	0.191163
1970.000000	0.191312
1971.000000	0.190962
1972.000000	0.190907
1973.000000	0.190980
1974.000000	0.191117
1975.000000	0.191320
1976.000000	0.191910
1977.000000	0.192256
1978.000000	0.192319
1979.000000	0.192678
1980.000000	0.193264
1981.000000	0.193961
1982.000000	0.194731
1983.000000	0.194961
1984.000000	0.195151
1985.000000	0.195088
1986.000000	0.195303
1987.000000	0.195357
1988.000000	0.195969
1989.000000	0.196806
1990.000000	0.197156
1991.000000	0.198108
1992.000000	0.198970
1993.000000	0.199996
1994.000000	0.201201
1995.000000	0.201042
1996.000000	0.201178
1997.000000	0.201458
1998.000000	0.201067
1999.000000	0.201626
2000.000000	0.203107
2001.000000	0.204316
2002.000000	0.205128
2003.000000	0.206245
2004.000000	0.206911
2005.000000	0.206588
2006.000000	0.207118
2007.000000	0.208312
2008.000000	0.209421
2009.000000	0.211220
2010.000000	0.212383
2011.000000	0.213174
2012.000000	0.213847
2013.000000	0.213998
2014.000000	0.214480
2015.000000	0.215186
2016.000000	0.215647
2017.000000	0.216086
2018.000000	0.216999
2019.000000	0.218437
2020.000000	0.219827
2021.000000	0.220895
2022.000000	0.222008
2023.000000	0.222861
2024.000000	0.223315
2025.000000	0.223851
2026.000000	0.224220
2027.000000	0.224860
2028.000000	0.225075
2029.000000	0.225782
2030.000000	0.227053
2031.000000	0.228000
2032.000000	0.228897
2033.000000	0.229601
2034.000000	0.229973
2035.000000	0.229643
2036.000000	0.229906
2037.000000	0.230248
2038.000000	0.230857
2039.000000	0.231788
2040.000000	0.233213
2041.000000	0.233901
2042.000000	0.234282
2043.000000	0.234476
2044.000000	0.234805
2045.000000	0.235603
2046.000000	0.236330
2047.000000	0.236951
2048.000000	0.237423
2049.000000	0.238082
2050.000000	0.238375
2051.000000	0.238962
2052.000000	0.239594
2053.000000	0.240330
2054.000000	0.241314
2055.000000	0.242701
2056.000000	0.243774
2057.000000	0.244805
2058.000000	0.245503
2059.000000	0.245508
2060.000000	0.245666
2061.000000	0.245440
2062.000000	0.245620
2063.000000	0.246070
2064.000000	0.246325
2065.000000	0.246943
2066.000000	0.247281
2067.000000	0.247611
2068.000000	0.247862
2069.000000	0.248266
2070.000000	0.248712
2071.000000	0.249352
2072.000000	0.249896
2073.000000	0.250212
2074.000000	0.250977
2075.000000	0.251816
2076.000000	0.252859
2077.000000	0.253517
2078.000000	0.254521
2079.000000	0.254864
2080.000000	0.254331
2081.000000	0.254523
2082.000000	0.254782
2083.000000	0.254871
2084.000000	0.256025
2085.000000	0.257366
2086.000000	0.258620
2087.000000	0.259991
2088.000000	0.260575
2089.000000	0.260905
2090.000000	0.261269
2091.000000	0.261287
2092.000000	0.261563
2093.000000	0.262030
2094.000000	0.262419
2095.000000	0.262878
2096.000000	0.263260
2097.000000	0.263625
2098.000000	0.263672
2099.000000	0.263552
2100.000000	0.264109
2101.000000	0.265280
2102.000000	0.265946
2103.000000	0.266616
2104.000000	0.267096
2105.000000	0.267318
2106.000000	0.266727
2107.000000	0.267039
2108.000000	0.267859
2109.000000	0.268295
2110.000000	0.268340
2111.000000	0.268706
2112.000000	0.269004
2113.000000	0.269313
2114.000000	0.269777
2115.000000	0.270854
2116.000000	0.271252
2117.000000	0.270851
2118.000000	0.270781
2119.000000	0.271011
2120.000000	0.271413
2121.000000	0.272437
2122.000000	0.272843
2123.000000	0.273042
2124.000000	0.273281
2125.000000	0.272977
2126.000000	0.273131
2127.000000	0.273799
2128.000000	0.274235
2129.000000	0.274722
2130.000000	0.275163
2131.000000	0.274871
2132.000000	0.274994
2133.000000	0.274675
2134.000000	0.275013
2135.000000	0.275566
2136.000000	0.275563
2137.000000	0.275764
2138.000000	0.276088
2139.000000	0.276089
2140.000000	0.275795
2141.000000	0.275708
2142.000000	0.275517
2143.000000	0.275299
2144.000000	0.275464
2145.000000	0.275662
2146.000000	0.275788
2147.000000	0.276244
2148.000000	0.277002
2149.000000	0.277307
2150.000000	0.277733
2151.000000	0.277985
2152.000000	0.277985
2153.000000	0.277940
2154.000000	0.277506
2155.000000	0.276661
2156.000000	0.275987
2157.000000	0.274682
2158.000000	0.274333
2159.000000	0.274673
2160.000000	0.275118
2161.000000	0.276323
2162.000000	0.276992
2163.000000	0.277426
2164.000000	0.277783
2165.000000	0.277756
2166.000000	0.277978
2167.000000	0.278765
2168.000000	0.279040
2169.000000	0.278920
2170.000000	0.278738
2171.000000	0.278739
2172.000000	0.278422
2173.000000	0.278620
2174.000000	0.279491
2175.000000	0.279753
2176.000000	0.279970
2177.000000	0.279871
2178.000000	0.279195
2179.000000	0.278869
2180.000000	0.278575
2181.000000	0.278360
2182.000000	0.277015
2183.000000	0.277572
2184.000000	0.277733
2185.000000	0.277291
2186.000000	0.276694
2187.000000	0.274893
2188.000000	0.273837
2189.000000	0.272481
2190.000000	0.273105
2191.000000	0.275386
2192.000000	0.276116
2193.000000	0.276972
2194.000000	0.277432
2195.000000	0.276859
2196.000000	0.276846
2197.000000	0.276861
2198.000000	0.276995
2199.000000	0.277021
2200.000000	0.277031
2201.000000	0.277976
2202.000000	0.278245
2203.000000	0.277541
2204.000000	0.277492
2205.000000	0.276256
2206.000000	0.273939
2207.000000	0.271987
2208.000000	0.271381
2209.000000	0.272748
2210.000000	0.273362
2211.000000	0.276499
2212.000000	0.278938
2213.000000	0.279016
2214.000000	0.278234
2215.000000	0.276442
2216.000000	0.270288
2217.000000	0.268867
2218.000000	0.268761
2219.000000	0.269419
2220.000000	0.274031
2221.000000	0.275608
2222.000000	0.275786
2223.000000	0.276117
2224.000000	0.276101
2225.000000	0.274508
2226.000000	0.274829
2227.000000	0.275147
2228.000000	0.274320
2229.000000	0.275844
2230.000000	0.276941
2231.000000	0.277829
2232.000000	0.279971
2233.000000	0.281287
2234.000000	0.280906
2235.000000	0.280031
2236.000000	0.278289
2237.000000	0.274166
2238.000000	0.272356
2239.000000	0.270691
2240.000000	0.270226
2241.000000	0.271128
2242.000000	0.272087
2243.000000	0.274940
2244.000000	0.275167
2245.000000	0.274244
2246.000000	0.274254
2247.000000	0.271654
2248.000000	0.271587
2249.000000	0.274359
2250.000000	0.276150
2251.000000	0.276905
2252.000000	0.276564
2253.000000	0.274017
2254.000000	0.270987
2255.000000	0.268860
2256.000000	0.268209
2257.000000	0.269040
2258.000000	0.270727
2259.000000	0.270364
2260.000000	0.270477
2261.000000	0.271245
2262.000000	0.271839
2263.000000	0.272138
2264.000000	0.273737
2265.000000	0.273231
2266.000000	0.270170
2267.000000	0.269346
2268.000000	0.269596
2269.000000	0.269396
2270.000000	0.270746
2271.000000	0.269283
2272.000000	0.264913
2273.000000	0.262892
2274.000000	0.259747
2275.000000	0.258622
2276.000000	0.259789
2277.000000	0.260770
2278.000000	0.262081
2279.000000	0.264430
2280.000000	0.264084
2281.000000	0.262248
2282.000000	0.260474
2283.000000	0.258083
2284.000000	0.255401
2285.000000	0.253742
2286.000000	0.252209
2287.000000	0.250084
2288.000000	0.249618
2289.000000	0.249200
2290.000000	0.247837
2291.000000	0.247291
2292.000000	0.245811
2293.000000	0.243163
2294.000000	0.241786
2295.000000	0.239880
2296.000000	0.238915
2297.000000	0.239283
2298.000000	0.240517
2299.000000	0.243606
2300.000000	0.244100
2301.000000	0.243847
2302.000000	0.243728
2303.000000	0.241301
2304.000000	0.240603
2305.000000	0.242111
2306.000000	0.241230
2307.000000	0.238769
2308.000000	0.237863
2309.000000	0.237311
2310.000000	0.238651
2311.000000	0.241360
2312.000000	0.243657
2313.000000	0.243542
2314.000000	0.244497
2315.000000	0.245083
2316.000000	0.245045
2317.000000	0.244621
2318.000000	0.242362
2319.000000	0.242666
2320.000000	0.242256
2321.000000	0.242586
2322.000000	0.245611
2323.000000	0.248193
2324.000000	0.248734
2325.000000	0.247576
2326.000000	0.247063
2327.000000	0.244233
2328.000000	0.243730
2329.000000	0.245188
2330.000000	0.245312
2331.000000	0.245618
2332.000000	0.243636
2333.000000	0.241187
2334.000000	0.238503
2335.000000	0.238353
2336.000000	0.241033
2337.000000	0.239805
2338.000000	0.239135
2339.000000	0.237571
2340.000000	0.231637
2341.000000	0.228076
2342.000000	0.225522
2343.000000	0.223431
2344.000000	0.221226
2345.000000	0.221335
2346.000000	0.224176
2347.000000	0.225128
2348.000000	0.226835
2349.000000	0.226567
2350.000000	0.226090
2351.000000	0.226995
2352.000000	0.226241
2353.000000	0.225315
2354.000000	0.221883
2355.000000	0.217211
2356.000000	0.215111
2357.000000	0.215840
2358.000000	0.215755
2359.000000	0.215396
2360.000000	0.212868
2361.000000	0.206166
2362.000000	0.201252
2363.000000	0.201526
2364.000000	0.201122
2365.000000	0.201333
2366.000000	0.203032
2367.000000	0.201936
2368.000000	0.205517
2369.000000	0.210979
2370.000000	0.213359
2371.000000	0.214953
2372.000000	0.217020
2373.000000	0.218612
2374.000000	0.217132
2375.000000	0.217931
2376.000000	0.214825
2377.000000	0.209542
2378.000000	0.209658
2379.000000	0.209017
2380.000000	0.212253
2381.000000	0.213520
2382.000000	0.207915
2383.000000	0.202862
2384.000000	0.195678
2385.000000	0.191969
2386.000000	0.192937
2387.000000	0.195042
2388.000000	0.192982
2389.000000	0.188302
2390.000000	0.186799
2391.000000	0.184123
2392.000000	0.186198
2393.000000	0.186469
2394.000000	0.183405
2395.000000	0.182306
2396.000000	0.179442
2397.000000	0.179564
2398.000000	0.177386
2399.000000	0.174514
2400.000000	0.174713
2401.000000	0.173493
2402.000000	0.179492
2403.000000	0.187901
2404.000000	0.191332
2405.000000	0.191527
2406.000000	0.183127
2407.000000	0.173737
2408.000000	0.169427
2409.000000	0.168056
2410.000000	0.170325
2411.000000	0.170063
2412.000000	0.170662
2413.000000	0.175791
2414.000000	0.177645
2415.000000	0.184191
2416.000000	0.188043
2417.000000	0.180750
2418.000000	0.183056
2419.000000	0.185626
2420.000000	0.181882
2421.000000	0.188637
2422.000000	0.191694
2423.000000	0.184414
2424.000000	0.189703
2425.000000	0.198371
2426.000000	0.196363
2427.000000	0.197303
2428.000000	0.188287
2429.000000	0.171233
2430.000000	0.168001
2431.000000	0.173939
2432.000000	0.188736
2433.000000	0.202115
2434.000000	0.207991
2435.000000	0.207685
2436.000000	0.200349
2437.000000	0.192150
2438.000000	0.181095
2439.000000	0.164799
2440.000000	0.145358
2441.000000	0.133634
2442.000000	0.129725
2443.000000	0.138461
2444.000000	0.147737
2445.000000	0.146559
2446.000000	0.156523
2447.000000	0.154428
2448.000000	0.153868
2449.000000	0.169224
2450.000000	0.165716
2451.000000	0.169942
2452.000000	0.181201
2453.000000	0.170039
2454.000000	0.157179
2455.000000	0.142896
2456.000000	0.126262
2457.000000	0.116522
2458.000000	0.118912
2459.000000	0.125640
2460.000000	0.119563
2461.000000	0.129922
2462.000000	0.139680
2463.000000	0.141402
2464.000000	0.166867
2465.000000	0.168713
2466.000000	0.169680
2467.000000	0.172115
2468.000000	0.153403
2469.000000	0.160402
2470.000000	0.144181
2471.000000	0.116356
2472.000000	0.120835
2473.000000	0.104257
2474.000000	0.108194
2475.000000	0.138799
2476.000000	0.138418
2477.000000	0.136375
2478.000000	0.142790
2479.000000	0.122666
2480.000000	0.107297
2481.000000	0.108061
2482.000000	0.117735
2483.000000	0.146731
2484.000000	0.165572
2485.000000	0.195679
2486.000000	0.188553
2487.000000	0.172978
2488.000000	0.203096
2489.000000	0.187242
2490.000000	0.179106
2491.000000	0.229798
2492.000000	0.225667
2493.000000	0.226136
2494.000000	0.225554
2495.000000	0.159347
2496.000000	0.119932
2497.000000	0.115602
2498.000000	0.096593
2499.000000	0.081570
2500.000000	0.062325
