# Wavelength	NAu-1-40_HEX-30_FV7-30_00000.asd.rts.txt
350.000000	0.208226
351.000000	0.193246
352.000000	0.175996
353.000000	0.160815
354.000000	0.152443
355.000000	0.160529
356.000000	0.162772
357.000000	0.157579
358.000000	0.153814
359.000000	0.152214
360.000000	0.151059
361.000000	0.148262
362.000000	0.145922
363.000000	0.150436
364.000000	0.159825
365.000000	0.152125
366.000000	0.149201
367.000000	0.155189
368.000000	0.160419
369.000000	0.159987
370.000000	0.156176
371.000000	0.153696
372.000000	0.152378
373.000000	0.152216
374.000000	0.152669
375.000000	0.150234
376.000000	0.149529
377.000000	0.151053
378.000000	0.151667
379.000000	0.154036
380.000000	0.156745
381.000000	0.158155
382.000000	0.160734
383.000000	0.162079
384.000000	0.161204
385.000000	0.161059
386.000000	0.162238
387.000000	0.164080
388.000000	0.164157
389.000000	0.165510
390.000000	0.167791
391.000000	0.169396
392.000000	0.171096
393.000000	0.172453
394.000000	0.173104
395.000000	0.173224
396.000000	0.173920
397.000000	0.174999
398.000000	0.174401
399.000000	0.174944
400.000000	0.177144
401.000000	0.180294
402.000000	0.181643
403.000000	0.182200
404.000000	0.183329
405.000000	0.184184
406.000000	0.185535
407.000000	0.187353
408.000000	0.187931
409.000000	0.189267
410.000000	0.191121
411.000000	0.191976
412.000000	0.191601
413.000000	0.191549
414.000000	0.193227
415.000000	0.194771
416.000000	0.195420
417.000000	0.195217
418.000000	0.195559
419.000000	0.196342
420.000000	0.197060
421.000000	0.196706
422.000000	0.197561
423.000000	0.198883
424.000000	0.199192
425.000000	0.199312
426.000000	0.198931
427.000000	0.198057
428.000000	0.198113
429.000000	0.198448
430.000000	0.198661
431.000000	0.198595
432.000000	0.198629
433.000000	0.198794
434.000000	0.199035
435.000000	0.199037
436.000000	0.198845
437.000000	0.198563
438.000000	0.198211
439.000000	0.198157
440.000000	0.198396
441.000000	0.197833
442.000000	0.197721
443.000000	0.197832
444.000000	0.197042
445.000000	0.196634
446.000000	0.196831
447.000000	0.197342
448.000000	0.197665
449.000000	0.198230
450.000000	0.199384
451.000000	0.201026
452.000000	0.202570
453.000000	0.203978
454.000000	0.206060
455.000000	0.207884
456.000000	0.209828
457.000000	0.212562
458.000000	0.215029
459.000000	0.217262
460.000000	0.219383
461.000000	0.220699
462.000000	0.222062
463.000000	0.223675
464.000000	0.225018
465.000000	0.226259
466.000000	0.227355
467.000000	0.228278
468.000000	0.229001
469.000000	0.229758
470.000000	0.230850
471.000000	0.231293
472.000000	0.231638
473.000000	0.232350
474.000000	0.233265
475.000000	0.233849
476.000000	0.234175
477.000000	0.234648
478.000000	0.235226
479.000000	0.235799
480.000000	0.235953
481.000000	0.236722
482.000000	0.237558
483.000000	0.237749
484.000000	0.238203
485.000000	0.238741
486.000000	0.239339
487.000000	0.239758
488.000000	0.240192
489.000000	0.240746
490.000000	0.241460
491.000000	0.241971
492.000000	0.242480
493.000000	0.243146
494.000000	0.243613
495.000000	0.244169
496.000000	0.244914
497.000000	0.245396
498.000000	0.245948
499.000000	0.246689
500.000000	0.247305
501.000000	0.247944
502.000000	0.248601
503.000000	0.249137
504.000000	0.249800
505.000000	0.250536
506.000000	0.251246
507.000000	0.251881
508.000000	0.252489
509.000000	0.253121
510.000000	0.254007
511.000000	0.254677
512.000000	0.255199
513.000000	0.256028
514.000000	0.256877
515.000000	0.257730
516.000000	0.258569
517.000000	0.259301
518.000000	0.260078
519.000000	0.260910
520.000000	0.261595
521.000000	0.262419
522.000000	0.263396
523.000000	0.264083
524.000000	0.264837
525.000000	0.265728
526.000000	0.266737
527.000000	0.267696
528.000000	0.268571
529.000000	0.269436
530.000000	0.270370
531.000000	0.271326
532.000000	0.272210
533.000000	0.273205
534.000000	0.274204
535.000000	0.275176
536.000000	0.276195
537.000000	0.277201
538.000000	0.278195
539.000000	0.279183
540.000000	0.280152
541.000000	0.281082
542.000000	0.282010
543.000000	0.282997
544.000000	0.283976
545.000000	0.284862
546.000000	0.285771
547.000000	0.286778
548.000000	0.287841
549.000000	0.288724
550.000000	0.289651
551.000000	0.290640
552.000000	0.291593
553.000000	0.292517
554.000000	0.293413
555.000000	0.294301
556.000000	0.295247
557.000000	0.296078
558.000000	0.296908
559.000000	0.297849
560.000000	0.298679
561.000000	0.299496
562.000000	0.300383
563.000000	0.301218
564.000000	0.302063
565.000000	0.302873
566.000000	0.303605
567.000000	0.304261
568.000000	0.304881
569.000000	0.305696
570.000000	0.306466
571.000000	0.307103
572.000000	0.307670
573.000000	0.308191
574.000000	0.308701
575.000000	0.309283
576.000000	0.309849
577.000000	0.310367
578.000000	0.310891
579.000000	0.311396
580.000000	0.311883
581.000000	0.312339
582.000000	0.312745
583.000000	0.313070
584.000000	0.313365
585.000000	0.313737
586.000000	0.314073
587.000000	0.314388
588.000000	0.314725
589.000000	0.315072
590.000000	0.315366
591.000000	0.315600
592.000000	0.315915
593.000000	0.316218
594.000000	0.316447
595.000000	0.316563
596.000000	0.316727
597.000000	0.316964
598.000000	0.317135
599.000000	0.317233
600.000000	0.317327
601.000000	0.317410
602.000000	0.317598
603.000000	0.317803
604.000000	0.317951
605.000000	0.317907
606.000000	0.318036
607.000000	0.318273
608.000000	0.318274
609.000000	0.318366
610.000000	0.318474
611.000000	0.318470
612.000000	0.318585
613.000000	0.318727
614.000000	0.318842
615.000000	0.318859
616.000000	0.318908
617.000000	0.318975
618.000000	0.319003
619.000000	0.319095
620.000000	0.319166
621.000000	0.319143
622.000000	0.319223
623.000000	0.319323
624.000000	0.319351
625.000000	0.319387
626.000000	0.319408
627.000000	0.319437
628.000000	0.319589
629.000000	0.319722
630.000000	0.319754
631.000000	0.319933
632.000000	0.320052
633.000000	0.320155
634.000000	0.320304
635.000000	0.320442
636.000000	0.320591
637.000000	0.320751
638.000000	0.320952
639.000000	0.321165
640.000000	0.321401
641.000000	0.321524
642.000000	0.321671
643.000000	0.321817
644.000000	0.321907
645.000000	0.322091
646.000000	0.322307
647.000000	0.322453
648.000000	0.322526
649.000000	0.322658
650.000000	0.322860
651.000000	0.323059
652.000000	0.323217
653.000000	0.323372
654.000000	0.323513
655.000000	0.323681
656.000000	0.323897
657.000000	0.324107
658.000000	0.324277
659.000000	0.324508
660.000000	0.324807
661.000000	0.325081
662.000000	0.325267
663.000000	0.325452
664.000000	0.325708
665.000000	0.326017
666.000000	0.326312
667.000000	0.326511
668.000000	0.326800
669.000000	0.327120
670.000000	0.327420
671.000000	0.327679
672.000000	0.327932
673.000000	0.328187
674.000000	0.328454
675.000000	0.328742
676.000000	0.329033
677.000000	0.329321
678.000000	0.329630
679.000000	0.329954
680.000000	0.330279
681.000000	0.330527
682.000000	0.330852
683.000000	0.331215
684.000000	0.331636
685.000000	0.331893
686.000000	0.332124
687.000000	0.332507
688.000000	0.332825
689.000000	0.333156
690.000000	0.333597
691.000000	0.334020
692.000000	0.334403
693.000000	0.334814
694.000000	0.335228
695.000000	0.335612
696.000000	0.335969
697.000000	0.336323
698.000000	0.336690
699.000000	0.337062
700.000000	0.337438
701.000000	0.337811
702.000000	0.338238
703.000000	0.338676
704.000000	0.338988
705.000000	0.339367
706.000000	0.339782
707.000000	0.340210
708.000000	0.340591
709.000000	0.340964
710.000000	0.341387
711.000000	0.341805
712.000000	0.342211
713.000000	0.342620
714.000000	0.343015
715.000000	0.343402
716.000000	0.343820
717.000000	0.344280
718.000000	0.344716
719.000000	0.345128
720.000000	0.345539
721.000000	0.345929
722.000000	0.346280
723.000000	0.346654
724.000000	0.347023
725.000000	0.347368
726.000000	0.347768
727.000000	0.348152
728.000000	0.348521
729.000000	0.348931
730.000000	0.349341
731.000000	0.349649
732.000000	0.349918
733.000000	0.350219
734.000000	0.350496
735.000000	0.350729
736.000000	0.351035
737.000000	0.351296
738.000000	0.351542
739.000000	0.351877
740.000000	0.352166
741.000000	0.352431
742.000000	0.352672
743.000000	0.352874
744.000000	0.353107
745.000000	0.353271
746.000000	0.353433
747.000000	0.353605
748.000000	0.353890
749.000000	0.354217
750.000000	0.354485
751.000000	0.354711
752.000000	0.354941
753.000000	0.355193
754.000000	0.355431
755.000000	0.355616
756.000000	0.355792
757.000000	0.355954
758.000000	0.356068
759.000000	0.356197
760.000000	0.356297
761.000000	0.356416
762.000000	0.356511
763.000000	0.356565
764.000000	0.356666
765.000000	0.356695
766.000000	0.356685
767.000000	0.356675
768.000000	0.356640
769.000000	0.356644
770.000000	0.356684
771.000000	0.356635
772.000000	0.356638
773.000000	0.356637
774.000000	0.356652
775.000000	0.356609
776.000000	0.356583
777.000000	0.356593
778.000000	0.356526
779.000000	0.356477
780.000000	0.356470
781.000000	0.356444
782.000000	0.356375
783.000000	0.356368
784.000000	0.356329
785.000000	0.356226
786.000000	0.356141
787.000000	0.356096
788.000000	0.355997
789.000000	0.355949
790.000000	0.355887
791.000000	0.355729
792.000000	0.355634
793.000000	0.355555
794.000000	0.355429
795.000000	0.355240
796.000000	0.355054
797.000000	0.354881
798.000000	0.354682
799.000000	0.354446
800.000000	0.354221
801.000000	0.354069
802.000000	0.353969
803.000000	0.353830
804.000000	0.353645
805.000000	0.353414
806.000000	0.353138
807.000000	0.352893
808.000000	0.352620
809.000000	0.352394
810.000000	0.352237
811.000000	0.352106
812.000000	0.351866
813.000000	0.351584
814.000000	0.351298
815.000000	0.351050
816.000000	0.350848
817.000000	0.350652
818.000000	0.350355
819.000000	0.350202
820.000000	0.350068
821.000000	0.349835
822.000000	0.349580
823.000000	0.349308
824.000000	0.348999
825.000000	0.348758
826.000000	0.348490
827.000000	0.348212
828.000000	0.347994
829.000000	0.347810
830.000000	0.347632
831.000000	0.347468
832.000000	0.347164
833.000000	0.346881
834.000000	0.346640
835.000000	0.346451
836.000000	0.346206
837.000000	0.345972
838.000000	0.345741
839.000000	0.345398
840.000000	0.345075
841.000000	0.344812
842.000000	0.344575
843.000000	0.344361
844.000000	0.344191
845.000000	0.344004
846.000000	0.343740
847.000000	0.343380
848.000000	0.343049
849.000000	0.342887
850.000000	0.342670
851.000000	0.342429
852.000000	0.342230
853.000000	0.342044
854.000000	0.341790
855.000000	0.341581
856.000000	0.341362
857.000000	0.341113
858.000000	0.340912
859.000000	0.340693
860.000000	0.340416
861.000000	0.340170
862.000000	0.339964
863.000000	0.339695
864.000000	0.339439
865.000000	0.339218
866.000000	0.339037
867.000000	0.338785
868.000000	0.338558
869.000000	0.338335
870.000000	0.338164
871.000000	0.337931
872.000000	0.337720
873.000000	0.337500
874.000000	0.337199
875.000000	0.336903
876.000000	0.336644
877.000000	0.336358
878.000000	0.336105
879.000000	0.335862
880.000000	0.335519
881.000000	0.335394
882.000000	0.335177
883.000000	0.334930
884.000000	0.334767
885.000000	0.334576
886.000000	0.334289
887.000000	0.333965
888.000000	0.333803
889.000000	0.333631
890.000000	0.333344
891.000000	0.333116
892.000000	0.332916
893.000000	0.332776
894.000000	0.332768
895.000000	0.332582
896.000000	0.332345
897.000000	0.332117
898.000000	0.331918
899.000000	0.331616
900.000000	0.331469
901.000000	0.331451
902.000000	0.331261
903.000000	0.331032
904.000000	0.330885
905.000000	0.330753
906.000000	0.330414
907.000000	0.330154
908.000000	0.330114
909.000000	0.330060
910.000000	0.329796
911.000000	0.329509
912.000000	0.329378
913.000000	0.329069
914.000000	0.328939
915.000000	0.329021
916.000000	0.328911
917.000000	0.328792
918.000000	0.328575
919.000000	0.328243
920.000000	0.328167
921.000000	0.328090
922.000000	0.327960
923.000000	0.327798
924.000000	0.327606
925.000000	0.327416
926.000000	0.327260
927.000000	0.327035
928.000000	0.326921
929.000000	0.326803
930.000000	0.326519
931.000000	0.326229
932.000000	0.326031
933.000000	0.325954
934.000000	0.325832
935.000000	0.325639
936.000000	0.325537
937.000000	0.325511
938.000000	0.325374
939.000000	0.325277
940.000000	0.325151
941.000000	0.324983
942.000000	0.324790
943.000000	0.324656
944.000000	0.324507
945.000000	0.324450
946.000000	0.324196
947.000000	0.323975
948.000000	0.323996
949.000000	0.323873
950.000000	0.323773
951.000000	0.323715
952.000000	0.323677
953.000000	0.323481
954.000000	0.323300
955.000000	0.323193
956.000000	0.323060
957.000000	0.322902
958.000000	0.322743
959.000000	0.322741
960.000000	0.322819
961.000000	0.322847
962.000000	0.322708
963.000000	0.322391
964.000000	0.322459
965.000000	0.322556
966.000000	0.322294
967.000000	0.322419
968.000000	0.322285
969.000000	0.321967
970.000000	0.321956
971.000000	0.321827
972.000000	0.321578
973.000000	0.321292
974.000000	0.321303
975.000000	0.321483
976.000000	0.321417
977.000000	0.320970
978.000000	0.320981
979.000000	0.321159
980.000000	0.321133
981.000000	0.321084
982.000000	0.321229
983.000000	0.321271
984.000000	0.321241
985.000000	0.321359
986.000000	0.321181
987.000000	0.321155
988.000000	0.321382
989.000000	0.321256
990.000000	0.321294
991.000000	0.321226
992.000000	0.320833
993.000000	0.321173
994.000000	0.321499
995.000000	0.321607
996.000000	0.321381
997.000000	0.321411
998.000000	0.321455
999.000000	0.321498
1000.000000	0.321736
1001.000000	0.322237
1002.000000	0.321459
1003.000000	0.320992
1004.000000	0.321075
1005.000000	0.321344
1006.000000	0.321554
1007.000000	0.322288
1008.000000	0.323176
1009.000000	0.323549
1010.000000	0.323286
1011.000000	0.323281
1012.000000	0.323135
1013.000000	0.322662
1014.000000	0.322581
1015.000000	0.322905
1016.000000	0.323388
1017.000000	0.323141
1018.000000	0.323023
1019.000000	0.323046
1020.000000	0.323003
1021.000000	0.322817
1022.000000	0.323113
1023.000000	0.323405
1024.000000	0.323347
1025.000000	0.323755
1026.000000	0.324354
1027.000000	0.324370
1028.000000	0.325149
1029.000000	0.325959
1030.000000	0.325714
1031.000000	0.325792
1032.000000	0.325848
1033.000000	0.325263
1034.000000	0.325334
1035.000000	0.326239
1036.000000	0.326605
1037.000000	0.326818
1038.000000	0.327033
1039.000000	0.327372
1040.000000	0.327447
1041.000000	0.327375
1042.000000	0.327452
1043.000000	0.327670
1044.000000	0.328124
1045.000000	0.328276
1046.000000	0.328424
1047.000000	0.328889
1048.000000	0.329190
1049.000000	0.329613
1050.000000	0.330760
1051.000000	0.331108
1052.000000	0.330753
1053.000000	0.330854
1054.000000	0.331119
1055.000000	0.331321
1056.000000	0.331660
1057.000000	0.332140
1058.000000	0.332305
1059.000000	0.332314
1060.000000	0.332691
1061.000000	0.333237
1062.000000	0.333855
1063.000000	0.334441
1064.000000	0.334781
1065.000000	0.334812
1066.000000	0.335240
1067.000000	0.335540
1068.000000	0.335908
1069.000000	0.336652
1070.000000	0.337106
1071.000000	0.337447
1072.000000	0.337796
1073.000000	0.338285
1074.000000	0.338491
1075.000000	0.338657
1076.000000	0.338752
1077.000000	0.338666
1078.000000	0.338552
1079.000000	0.338957
1080.000000	0.339757
1081.000000	0.340285
1082.000000	0.341367
1083.000000	0.341899
1084.000000	0.341769
1085.000000	0.342152
1086.000000	0.342759
1087.000000	0.343205
1088.000000	0.343614
1089.000000	0.344099
1090.000000	0.344653
1091.000000	0.344824
1092.000000	0.345140
1093.000000	0.345596
1094.000000	0.345895
1095.000000	0.345857
1096.000000	0.346166
1097.000000	0.346744
1098.000000	0.347068
1099.000000	0.347148
1100.000000	0.347614
1101.000000	0.348161
1102.000000	0.348567
1103.000000	0.349115
1104.000000	0.349667
1105.000000	0.350091
1106.000000	0.350479
1107.000000	0.350935
1108.000000	0.351312
1109.000000	0.351539
1110.000000	0.351875
1111.000000	0.352127
1112.000000	0.352337
1113.000000	0.352707
1114.000000	0.353040
1115.000000	0.353543
1116.000000	0.354408
1117.000000	0.354869
1118.000000	0.355194
1119.000000	0.355468
1120.000000	0.355465
1121.000000	0.355665
1122.000000	0.355909
1123.000000	0.356550
1124.000000	0.357380
1125.000000	0.357946
1126.000000	0.358646
1127.000000	0.359008
1128.000000	0.359124
1129.000000	0.358754
1130.000000	0.358964
1131.000000	0.359243
1132.000000	0.359493
1133.000000	0.360070
1134.000000	0.360446
1135.000000	0.360619
1136.000000	0.360822
1137.000000	0.360986
1138.000000	0.361192
1139.000000	0.361461
1140.000000	0.361793
1141.000000	0.362221
1142.000000	0.362541
1143.000000	0.362662
1144.000000	0.362988
1145.000000	0.363227
1146.000000	0.363287
1147.000000	0.363518
1148.000000	0.363746
1149.000000	0.363965
1150.000000	0.364173
1151.000000	0.364522
1152.000000	0.364974
1153.000000	0.365193
1154.000000	0.365337
1155.000000	0.365482
1156.000000	0.365445
1157.000000	0.365496
1158.000000	0.365556
1159.000000	0.365680
1160.000000	0.365789
1161.000000	0.365894
1162.000000	0.366178
1163.000000	0.366480
1164.000000	0.366585
1165.000000	0.366702
1166.000000	0.366950
1167.000000	0.367218
1168.000000	0.367382
1169.000000	0.367594
1170.000000	0.367860
1171.000000	0.368154
1172.000000	0.368432
1173.000000	0.368764
1174.000000	0.368998
1175.000000	0.369110
1176.000000	0.369185
1177.000000	0.369272
1178.000000	0.369423
1179.000000	0.369548
1180.000000	0.369613
1181.000000	0.369771
1182.000000	0.369980
1183.000000	0.370184
1184.000000	0.370526
1185.000000	0.370771
1186.000000	0.371096
1187.000000	0.371230
1188.000000	0.371206
1189.000000	0.371252
1190.000000	0.371281
1191.000000	0.371411
1192.000000	0.371770
1193.000000	0.372064
1194.000000	0.372247
1195.000000	0.372401
1196.000000	0.372356
1197.000000	0.372456
1198.000000	0.372695
1199.000000	0.372839
1200.000000	0.372984
1201.000000	0.373116
1202.000000	0.373137
1203.000000	0.373255
1204.000000	0.373349
1205.000000	0.373485
1206.000000	0.373561
1207.000000	0.373714
1208.000000	0.373759
1209.000000	0.373856
1210.000000	0.373896
1211.000000	0.373826
1212.000000	0.373821
1213.000000	0.373821
1214.000000	0.373972
1215.000000	0.374336
1216.000000	0.374432
1217.000000	0.374392
1218.000000	0.374414
1219.000000	0.374320
1220.000000	0.374272
1221.000000	0.374503
1222.000000	0.374712
1223.000000	0.374784
1224.000000	0.374954
1225.000000	0.375029
1226.000000	0.375083
1227.000000	0.375142
1228.000000	0.375175
1229.000000	0.375191
1230.000000	0.375181
1231.000000	0.375112
1232.000000	0.375083
1233.000000	0.375249
1234.000000	0.375506
1235.000000	0.375671
1236.000000	0.375880
1237.000000	0.375967
1238.000000	0.375752
1239.000000	0.375727
1240.000000	0.375746
1241.000000	0.375753
1242.000000	0.375863
1243.000000	0.375968
1244.000000	0.375938
1245.000000	0.376115
1246.000000	0.376292
1247.000000	0.376424
1248.000000	0.376585
1249.000000	0.376697
1250.000000	0.376716
1251.000000	0.376797
1252.000000	0.376799
1253.000000	0.376707
1254.000000	0.376710
1255.000000	0.376705
1256.000000	0.376744
1257.000000	0.376941
1258.000000	0.377094
1259.000000	0.377159
1260.000000	0.377279
1261.000000	0.377303
1262.000000	0.377382
1263.000000	0.377516
1264.000000	0.377639
1265.000000	0.377849
1266.000000	0.377909
1267.000000	0.377989
1268.000000	0.378084
1269.000000	0.377909
1270.000000	0.377833
1271.000000	0.377750
1272.000000	0.377704
1273.000000	0.377955
1274.000000	0.378070
1275.000000	0.378046
1276.000000	0.377928
1277.000000	0.377972
1278.000000	0.377874
1279.000000	0.377839
1280.000000	0.377811
1281.000000	0.377761
1282.000000	0.377730
1283.000000	0.377769
1284.000000	0.377818
1285.000000	0.377814
1286.000000	0.377707
1287.000000	0.377701
1288.000000	0.377760
1289.000000	0.377819
1290.000000	0.377850
1291.000000	0.377859
1292.000000	0.377758
1293.000000	0.377661
1294.000000	0.377695
1295.000000	0.377604
1296.000000	0.377463
1297.000000	0.377513
1298.000000	0.377535
1299.000000	0.377568
1300.000000	0.377738
1301.000000	0.377830
1302.000000	0.377758
1303.000000	0.377717
1304.000000	0.377633
1305.000000	0.377454
1306.000000	0.377355
1307.000000	0.377457
1308.000000	0.377470
1309.000000	0.377388
1310.000000	0.377438
1311.000000	0.377683
1312.000000	0.377545
1313.000000	0.377456
1314.000000	0.377392
1315.000000	0.377101
1316.000000	0.376982
1317.000000	0.377040
1318.000000	0.377063
1319.000000	0.377016
1320.000000	0.377106
1321.000000	0.377053
1322.000000	0.376925
1323.000000	0.376866
1324.000000	0.376632
1325.000000	0.376442
1326.000000	0.376258
1327.000000	0.375908
1328.000000	0.375752
1329.000000	0.375634
1330.000000	0.375622
1331.000000	0.375506
1332.000000	0.375548
1333.000000	0.375439
1334.000000	0.375206
1335.000000	0.375128
1336.000000	0.375064
1337.000000	0.375021
1338.000000	0.374990
1339.000000	0.374936
1340.000000	0.374848
1341.000000	0.374625
1342.000000	0.374326
1343.000000	0.374032
1344.000000	0.373819
1345.000000	0.373786
1346.000000	0.373855
1347.000000	0.373776
1348.000000	0.373669
1349.000000	0.373540
1350.000000	0.373491
1351.000000	0.373323
1352.000000	0.373125
1353.000000	0.373010
1354.000000	0.372805
1355.000000	0.372521
1356.000000	0.372374
1357.000000	0.372182
1358.000000	0.372047
1359.000000	0.371927
1360.000000	0.371797
1361.000000	0.371750
1362.000000	0.371528
1363.000000	0.371157
1364.000000	0.371024
1365.000000	0.370751
1366.000000	0.370627
1367.000000	0.370771
1368.000000	0.370713
1369.000000	0.370579
1370.000000	0.370581
1371.000000	0.370183
1372.000000	0.369726
1373.000000	0.369473
1374.000000	0.368976
1375.000000	0.368441
1376.000000	0.368284
1377.000000	0.367973
1378.000000	0.367504
1379.000000	0.367097
1380.000000	0.366567
1381.000000	0.365997
1382.000000	0.365592
1383.000000	0.365234
1384.000000	0.364648
1385.000000	0.363891
1386.000000	0.362942
1387.000000	0.362031
1388.000000	0.361132
1389.000000	0.360162
1390.000000	0.359421
1391.000000	0.358491
1392.000000	0.357527
1393.000000	0.356576
1394.000000	0.355613
1395.000000	0.354593
1396.000000	0.353687
1397.000000	0.352556
1398.000000	0.351159
1399.000000	0.350022
1400.000000	0.348839
1401.000000	0.347606
1402.000000	0.346536
1403.000000	0.345423
1404.000000	0.344138
1405.000000	0.342936
1406.000000	0.341708
1407.000000	0.340516
1408.000000	0.339343
1409.000000	0.338143
1410.000000	0.337075
1411.000000	0.335962
1412.000000	0.334791
1413.000000	0.333879
1414.000000	0.332963
1415.000000	0.332077
1416.000000	0.331376
1417.000000	0.330734
1418.000000	0.330156
1419.000000	0.329699
1420.000000	0.329126
1421.000000	0.328528
1422.000000	0.327942
1423.000000	0.327350
1424.000000	0.326755
1425.000000	0.326301
1426.000000	0.325724
1427.000000	0.325141
1428.000000	0.324574
1429.000000	0.323855
1430.000000	0.323157
1431.000000	0.322649
1432.000000	0.322210
1433.000000	0.321886
1434.000000	0.321605
1435.000000	0.321442
1436.000000	0.321440
1437.000000	0.321530
1438.000000	0.321743
1439.000000	0.322230
1440.000000	0.322686
1441.000000	0.323216
1442.000000	0.323805
1443.000000	0.324406
1444.000000	0.325010
1445.000000	0.325654
1446.000000	0.326201
1447.000000	0.326665
1448.000000	0.327013
1449.000000	0.327197
1450.000000	0.327313
1451.000000	0.327464
1452.000000	0.327576
1453.000000	0.327656
1454.000000	0.327707
1455.000000	0.327673
1456.000000	0.327733
1457.000000	0.327843
1458.000000	0.327922
1459.000000	0.327952
1460.000000	0.327842
1461.000000	0.327753
1462.000000	0.327690
1463.000000	0.327600
1464.000000	0.327639
1465.000000	0.327798
1466.000000	0.327886
1467.000000	0.328013
1468.000000	0.328202
1469.000000	0.328251
1470.000000	0.328321
1471.000000	0.328536
1472.000000	0.328590
1473.000000	0.328720
1474.000000	0.328884
1475.000000	0.329113
1476.000000	0.329441
1477.000000	0.329768
1478.000000	0.330057
1479.000000	0.330325
1480.000000	0.330585
1481.000000	0.330867
1482.000000	0.331271
1483.000000	0.331720
1484.000000	0.332231
1485.000000	0.332616
1486.000000	0.332950
1487.000000	0.333353
1488.000000	0.333692
1489.000000	0.334131
1490.000000	0.334608
1491.000000	0.335045
1492.000000	0.335395
1493.000000	0.335758
1494.000000	0.336125
1495.000000	0.336441
1496.000000	0.336690
1497.000000	0.336989
1498.000000	0.337332
1499.000000	0.337546
1500.000000	0.337790
1501.000000	0.338109
1502.000000	0.338380
1503.000000	0.338688
1504.000000	0.339126
1505.000000	0.339488
1506.000000	0.339804
1507.000000	0.340108
1508.000000	0.340386
1509.000000	0.340579
1510.000000	0.340743
1511.000000	0.341038
1512.000000	0.341273
1513.000000	0.341528
1514.000000	0.341836
1515.000000	0.342039
1516.000000	0.342289
1517.000000	0.342380
1518.000000	0.342407
1519.000000	0.342539
1520.000000	0.342645
1521.000000	0.342703
1522.000000	0.342882
1523.000000	0.343041
1524.000000	0.343088
1525.000000	0.343308
1526.000000	0.343609
1527.000000	0.343791
1528.000000	0.344030
1529.000000	0.344256
1530.000000	0.344196
1531.000000	0.344209
1532.000000	0.344327
1533.000000	0.344369
1534.000000	0.344522
1535.000000	0.344754
1536.000000	0.344842
1537.000000	0.344997
1538.000000	0.345156
1539.000000	0.345156
1540.000000	0.345233
1541.000000	0.345412
1542.000000	0.345569
1543.000000	0.345705
1544.000000	0.345732
1545.000000	0.345729
1546.000000	0.345778
1547.000000	0.345881
1548.000000	0.346075
1549.000000	0.346186
1550.000000	0.346204
1551.000000	0.346221
1552.000000	0.346218
1553.000000	0.346205
1554.000000	0.346204
1555.000000	0.346296
1556.000000	0.346388
1557.000000	0.346470
1558.000000	0.346504
1559.000000	0.346380
1560.000000	0.346340
1561.000000	0.346304
1562.000000	0.346343
1563.000000	0.346620
1564.000000	0.346703
1565.000000	0.346646
1566.000000	0.346623
1567.000000	0.346637
1568.000000	0.346647
1569.000000	0.346804
1570.000000	0.346887
1571.000000	0.346924
1572.000000	0.346877
1573.000000	0.346783
1574.000000	0.346730
1575.000000	0.346571
1576.000000	0.346591
1577.000000	0.346760
1578.000000	0.346848
1579.000000	0.347109
1580.000000	0.347159
1581.000000	0.347150
1582.000000	0.347100
1583.000000	0.346844
1584.000000	0.346761
1585.000000	0.346835
1586.000000	0.346890
1587.000000	0.347076
1588.000000	0.347146
1589.000000	0.347139
1590.000000	0.347149
1591.000000	0.347202
1592.000000	0.347146
1593.000000	0.347003
1594.000000	0.346981
1595.000000	0.346962
1596.000000	0.347054
1597.000000	0.347407
1598.000000	0.347564
1599.000000	0.347706
1600.000000	0.347727
1601.000000	0.347682
1602.000000	0.347688
1603.000000	0.347700
1604.000000	0.347736
1605.000000	0.347832
1606.000000	0.347878
1607.000000	0.348005
1608.000000	0.348003
1609.000000	0.347961
1610.000000	0.347944
1611.000000	0.347888
1612.000000	0.347831
1613.000000	0.347906
1614.000000	0.347923
1615.000000	0.347980
1616.000000	0.348041
1617.000000	0.348064
1618.000000	0.348073
1619.000000	0.347988
1620.000000	0.347972
1621.000000	0.348066
1622.000000	0.348120
1623.000000	0.348015
1624.000000	0.348178
1625.000000	0.348386
1626.000000	0.348457
1627.000000	0.348662
1628.000000	0.348828
1629.000000	0.348818
1630.000000	0.348902
1631.000000	0.349027
1632.000000	0.349135
1633.000000	0.349183
1634.000000	0.349297
1635.000000	0.349563
1636.000000	0.349669
1637.000000	0.349720
1638.000000	0.349787
1639.000000	0.349868
1640.000000	0.349909
1641.000000	0.349989
1642.000000	0.350128
1643.000000	0.350339
1644.000000	0.350428
1645.000000	0.350514
1646.000000	0.350509
1647.000000	0.350348
1648.000000	0.350372
1649.000000	0.350650
1650.000000	0.350786
1651.000000	0.350953
1652.000000	0.351117
1653.000000	0.351104
1654.000000	0.351277
1655.000000	0.351542
1656.000000	0.351565
1657.000000	0.351653
1658.000000	0.351706
1659.000000	0.351739
1660.000000	0.351806
1661.000000	0.351764
1662.000000	0.351866
1663.000000	0.351961
1664.000000	0.352076
1665.000000	0.352335
1666.000000	0.352512
1667.000000	0.352505
1668.000000	0.352615
1669.000000	0.352764
1670.000000	0.352846
1671.000000	0.353086
1672.000000	0.353152
1673.000000	0.353040
1674.000000	0.353114
1675.000000	0.353166
1676.000000	0.353384
1677.000000	0.353626
1678.000000	0.353733
1679.000000	0.353902
1680.000000	0.353968
1681.000000	0.353987
1682.000000	0.354077
1683.000000	0.354139
1684.000000	0.354122
1685.000000	0.354169
1686.000000	0.354123
1687.000000	0.354099
1688.000000	0.354110
1689.000000	0.354071
1690.000000	0.354136
1691.000000	0.354167
1692.000000	0.354007
1693.000000	0.354076
1694.000000	0.354213
1695.000000	0.354334
1696.000000	0.354567
1697.000000	0.354594
1698.000000	0.354359
1699.000000	0.354296
1700.000000	0.354227
1701.000000	0.354329
1702.000000	0.354414
1703.000000	0.354452
1704.000000	0.354675
1705.000000	0.354784
1706.000000	0.354879
1707.000000	0.354933
1708.000000	0.354865
1709.000000	0.354780
1710.000000	0.354781
1711.000000	0.354746
1712.000000	0.354652
1713.000000	0.354654
1714.000000	0.354746
1715.000000	0.354815
1716.000000	0.355027
1717.000000	0.355053
1718.000000	0.354868
1719.000000	0.354810
1720.000000	0.354805
1721.000000	0.354794
1722.000000	0.354886
1723.000000	0.354871
1724.000000	0.354733
1725.000000	0.354775
1726.000000	0.354791
1727.000000	0.354839
1728.000000	0.354873
1729.000000	0.354956
1730.000000	0.355269
1731.000000	0.355385
1732.000000	0.355586
1733.000000	0.355640
1734.000000	0.355297
1735.000000	0.355175
1736.000000	0.355031
1737.000000	0.354957
1738.000000	0.354974
1739.000000	0.354946
1740.000000	0.354913
1741.000000	0.354879
1742.000000	0.354817
1743.000000	0.354916
1744.000000	0.355111
1745.000000	0.355112
1746.000000	0.355075
1747.000000	0.355164
1748.000000	0.355139
1749.000000	0.355179
1750.000000	0.355231
1751.000000	0.355327
1752.000000	0.355505
1753.000000	0.355681
1754.000000	0.355822
1755.000000	0.355830
1756.000000	0.355878
1757.000000	0.356022
1758.000000	0.356069
1759.000000	0.356027
1760.000000	0.356003
1761.000000	0.355895
1762.000000	0.355768
1763.000000	0.355643
1764.000000	0.355554
1765.000000	0.355301
1766.000000	0.355304
1767.000000	0.355473
1768.000000	0.355459
1769.000000	0.355603
1770.000000	0.355692
1771.000000	0.355608
1772.000000	0.355551
1773.000000	0.355470
1774.000000	0.355410
1775.000000	0.355348
1776.000000	0.355313
1777.000000	0.355288
1778.000000	0.355271
1779.000000	0.355264
1780.000000	0.355215
1781.000000	0.355088
1782.000000	0.355086
1783.000000	0.355133
1784.000000	0.355252
1785.000000	0.355445
1786.000000	0.355599
1787.000000	0.355588
1788.000000	0.355737
1789.000000	0.355990
1790.000000	0.356293
1791.000000	0.356442
1792.000000	0.356520
1793.000000	0.356641
1794.000000	0.356867
1795.000000	0.356920
1796.000000	0.356891
1797.000000	0.356777
1798.000000	0.356352
1799.000000	0.356170
1800.000000	0.356165
1801.000000	0.356222
1802.000000	0.356384
1803.000000	0.356080
1804.000000	0.356335
1805.000000	0.356827
1806.000000	0.357262
1807.000000	0.358293
1808.000000	0.358470
1809.000000	0.357941
1810.000000	0.357865
1811.000000	0.357527
1812.000000	0.356533
1813.000000	0.356380
1814.000000	0.356779
1815.000000	0.356879
1816.000000	0.357089
1817.000000	0.357243
1818.000000	0.357630
1819.000000	0.357695
1820.000000	0.357766
1821.000000	0.357748
1822.000000	0.357335
1823.000000	0.355927
1824.000000	0.355579
1825.000000	0.355155
1826.000000	0.355382
1827.000000	0.356594
1828.000000	0.357230
1829.000000	0.357408
1830.000000	0.357907
1831.000000	0.357878
1832.000000	0.357132
1833.000000	0.356809
1834.000000	0.356366
1835.000000	0.356168
1836.000000	0.355887
1837.000000	0.355889
1838.000000	0.356193
1839.000000	0.356359
1840.000000	0.356509
1841.000000	0.356814
1842.000000	0.356593
1843.000000	0.355825
1844.000000	0.355561
1845.000000	0.354831
1846.000000	0.354660
1847.000000	0.354915
1848.000000	0.355201
1849.000000	0.355355
1850.000000	0.354882
1851.000000	0.354275
1852.000000	0.352958
1853.000000	0.352517
1854.000000	0.351774
1855.000000	0.351441
1856.000000	0.351833
1857.000000	0.351927
1858.000000	0.350586
1859.000000	0.350261
1860.000000	0.349606
1861.000000	0.347585
1862.000000	0.346523
1863.000000	0.346248
1864.000000	0.345269
1865.000000	0.344108
1866.000000	0.343213
1867.000000	0.342093
1868.000000	0.340941
1869.000000	0.340551
1870.000000	0.339654
1871.000000	0.338499
1872.000000	0.337013
1873.000000	0.335423
1874.000000	0.333336
1875.000000	0.331490
1876.000000	0.329546
1877.000000	0.327195
1878.000000	0.324642
1879.000000	0.321688
1880.000000	0.319033
1881.000000	0.315947
1882.000000	0.313093
1883.000000	0.310980
1884.000000	0.308558
1885.000000	0.306415
1886.000000	0.303733
1887.000000	0.300977
1888.000000	0.297003
1889.000000	0.293466
1890.000000	0.289240
1891.000000	0.284780
1892.000000	0.280912
1893.000000	0.276972
1894.000000	0.273041
1895.000000	0.269137
1896.000000	0.265668
1897.000000	0.262054
1898.000000	0.258385
1899.000000	0.254849
1900.000000	0.251021
1901.000000	0.247401
1902.000000	0.243665
1903.000000	0.240197
1904.000000	0.237366
1905.000000	0.234996
1906.000000	0.232627
1907.000000	0.230598
1908.000000	0.228339
1909.000000	0.226663
1910.000000	0.225002
1911.000000	0.223259
1912.000000	0.221914
1913.000000	0.220711
1914.000000	0.219507
1915.000000	0.218355
1916.000000	0.217863
1917.000000	0.217218
1918.000000	0.216593
1919.000000	0.216388
1920.000000	0.216202
1921.000000	0.215533
1922.000000	0.215749
1923.000000	0.215710
1924.000000	0.216112
1925.000000	0.217345
1926.000000	0.217580
1927.000000	0.217574
1928.000000	0.217670
1929.000000	0.217587
1930.000000	0.217160
1931.000000	0.217231
1932.000000	0.218173
1933.000000	0.218753
1934.000000	0.218961
1935.000000	0.219707
1936.000000	0.219767
1937.000000	0.219764
1938.000000	0.220211
1939.000000	0.220588
1940.000000	0.220837
1941.000000	0.221554
1942.000000	0.222279
1943.000000	0.222201
1944.000000	0.222220
1945.000000	0.222342
1946.000000	0.221933
1947.000000	0.221993
1948.000000	0.222235
1949.000000	0.221862
1950.000000	0.221713
1951.000000	0.221542
1952.000000	0.221469
1953.000000	0.221357
1954.000000	0.221226
1955.000000	0.221275
1956.000000	0.221609
1957.000000	0.221238
1958.000000	0.221434
1959.000000	0.221784
1960.000000	0.221585
1961.000000	0.221747
1962.000000	0.221913
1963.000000	0.222138
1964.000000	0.222243
1965.000000	0.222140
1966.000000	0.222282
1967.000000	0.222255
1968.000000	0.221696
1969.000000	0.221992
1970.000000	0.222460
1971.000000	0.222270
1972.000000	0.222531
1973.000000	0.222521
1974.000000	0.221696
1975.000000	0.221869
1976.000000	0.222728
1977.000000	0.223502
1978.000000	0.224106
1979.000000	0.224865
1980.000000	0.224874
1981.000000	0.225218
1982.000000	0.226419
1983.000000	0.227932
1984.000000	0.228932
1985.000000	0.230262
1986.000000	0.231067
1987.000000	0.231365
1988.000000	0.231467
1989.000000	0.232137
1990.000000	0.232204
1991.000000	0.232713
1992.000000	0.233416
1993.000000	0.233687
1994.000000	0.234604
1995.000000	0.235149
1996.000000	0.235419
1997.000000	0.236069
1998.000000	0.237159
1999.000000	0.238043
2000.000000	0.239102
2001.000000	0.239945
2002.000000	0.240301
2003.000000	0.240472
2004.000000	0.240781
2005.000000	0.240920
2006.000000	0.242000
2007.000000	0.243507
2008.000000	0.244596
2009.000000	0.245931
2010.000000	0.247039
2011.000000	0.247561
2012.000000	0.248152
2013.000000	0.248593
2014.000000	0.249084
2015.000000	0.249699
2016.000000	0.250724
2017.000000	0.251868
2018.000000	0.252199
2019.000000	0.252523
2020.000000	0.253128
2021.000000	0.253995
2022.000000	0.255364
2023.000000	0.256366
2024.000000	0.257377
2025.000000	0.258459
2026.000000	0.259511
2027.000000	0.260041
2028.000000	0.260367
2029.000000	0.261184
2030.000000	0.261782
2031.000000	0.262355
2032.000000	0.263572
2033.000000	0.264553
2034.000000	0.265194
2035.000000	0.265471
2036.000000	0.265919
2037.000000	0.266299
2038.000000	0.266871
2039.000000	0.267741
2040.000000	0.268259
2041.000000	0.268893
2042.000000	0.269617
2043.000000	0.269807
2044.000000	0.270792
2045.000000	0.271860
2046.000000	0.271918
2047.000000	0.272506
2048.000000	0.273085
2049.000000	0.273857
2050.000000	0.274699
2051.000000	0.275511
2052.000000	0.276223
2053.000000	0.276848
2054.000000	0.277623
2055.000000	0.278173
2056.000000	0.279112
2057.000000	0.280208
2058.000000	0.281115
2059.000000	0.281940
2060.000000	0.282552
2061.000000	0.282806
2062.000000	0.283232
2063.000000	0.283706
2064.000000	0.284052
2065.000000	0.284772
2066.000000	0.284999
2067.000000	0.285325
2068.000000	0.285202
2069.000000	0.285231
2070.000000	0.285027
2071.000000	0.284928
2072.000000	0.285673
2073.000000	0.286289
2074.000000	0.286864
2075.000000	0.287258
2076.000000	0.287402
2077.000000	0.287794
2078.000000	0.288050
2079.000000	0.288581
2080.000000	0.289432
2081.000000	0.290426
2082.000000	0.291714
2083.000000	0.292978
2084.000000	0.293577
2085.000000	0.293916
2086.000000	0.294224
2087.000000	0.294203
2088.000000	0.294885
2089.000000	0.296108
2090.000000	0.296855
2091.000000	0.297518
2092.000000	0.298144
2093.000000	0.298776
2094.000000	0.299059
2095.000000	0.298932
2096.000000	0.299244
2097.000000	0.299430
2098.000000	0.299692
2099.000000	0.300402
2100.000000	0.300797
2101.000000	0.300748
2102.000000	0.301280
2103.000000	0.302155
2104.000000	0.302713
2105.000000	0.302875
2106.000000	0.302666
2107.000000	0.302818
2108.000000	0.302220
2109.000000	0.302679
2110.000000	0.304108
2111.000000	0.305024
2112.000000	0.306056
2113.000000	0.306806
2114.000000	0.307331
2115.000000	0.307730
2116.000000	0.307481
2117.000000	0.306872
2118.000000	0.305682
2119.000000	0.304736
2120.000000	0.304830
2121.000000	0.305795
2122.000000	0.306280
2123.000000	0.307599
2124.000000	0.307978
2125.000000	0.307377
2126.000000	0.307419
2127.000000	0.307508
2128.000000	0.308076
2129.000000	0.309236
2130.000000	0.309798
2131.000000	0.310090
2132.000000	0.310611
2133.000000	0.310719
2134.000000	0.310844
2135.000000	0.310617
2136.000000	0.309901
2137.000000	0.309707
2138.000000	0.309388
2139.000000	0.309154
2140.000000	0.309217
2141.000000	0.309475
2142.000000	0.309761
2143.000000	0.309549
2144.000000	0.309917
2145.000000	0.309954
2146.000000	0.309303
2147.000000	0.309092
2148.000000	0.309356
2149.000000	0.309999
2150.000000	0.310562
2151.000000	0.310395
2152.000000	0.309721
2153.000000	0.308756
2154.000000	0.308586
2155.000000	0.308713
2156.000000	0.308971
2157.000000	0.310317
2158.000000	0.310416
2159.000000	0.309866
2160.000000	0.309716
2161.000000	0.309033
2162.000000	0.308848
2163.000000	0.309277
2164.000000	0.309058
2165.000000	0.308706
2166.000000	0.307861
2167.000000	0.307239
2168.000000	0.306488
2169.000000	0.306356
2170.000000	0.306809
2171.000000	0.307459
2172.000000	0.308905
2173.000000	0.309551
2174.000000	0.310535
2175.000000	0.310800
2176.000000	0.309807
2177.000000	0.309876
2178.000000	0.310531
2179.000000	0.310506
2180.000000	0.310595
2181.000000	0.310832
2182.000000	0.310028
2183.000000	0.309030
2184.000000	0.309785
2185.000000	0.309838
2186.000000	0.308829
2187.000000	0.308179
2188.000000	0.306587
2189.000000	0.305568
2190.000000	0.306266
2191.000000	0.307982
2192.000000	0.308580
2193.000000	0.309647
2194.000000	0.309183
2195.000000	0.306493
2196.000000	0.305582
2197.000000	0.304361
2198.000000	0.304366
2199.000000	0.306645
2200.000000	0.307940
2201.000000	0.309341
2202.000000	0.310483
2203.000000	0.311356
2204.000000	0.311568
2205.000000	0.312321
2206.000000	0.313290
2207.000000	0.312399
2208.000000	0.311507
2209.000000	0.308784
2210.000000	0.305810
2211.000000	0.303399
2212.000000	0.302379
2213.000000	0.302954
2214.000000	0.306029
2215.000000	0.306786
2216.000000	0.308508
2217.000000	0.309018
2218.000000	0.306624
2219.000000	0.306802
2220.000000	0.309235
2221.000000	0.309854
2222.000000	0.310369
2223.000000	0.310937
2224.000000	0.311828
2225.000000	0.310021
2226.000000	0.307577
2227.000000	0.305795
2228.000000	0.304409
2229.000000	0.302534
2230.000000	0.302288
2231.000000	0.302338
2232.000000	0.301062
2233.000000	0.302145
2234.000000	0.303997
2235.000000	0.306425
2236.000000	0.308003
2237.000000	0.309161
2238.000000	0.310256
2239.000000	0.311396
2240.000000	0.311692
2241.000000	0.312214
2242.000000	0.311874
2243.000000	0.309034
2244.000000	0.308347
2245.000000	0.309254
2246.000000	0.308407
2247.000000	0.307440
2248.000000	0.306440
2249.000000	0.303499
2250.000000	0.302881
2251.000000	0.301968
2252.000000	0.301788
2253.000000	0.303188
2254.000000	0.301439
2255.000000	0.301889
2256.000000	0.303127
2257.000000	0.302896
2258.000000	0.302677
2259.000000	0.299781
2260.000000	0.299497
2261.000000	0.299232
2262.000000	0.299681
2263.000000	0.299223
2264.000000	0.298485
2265.000000	0.298034
2266.000000	0.297053
2267.000000	0.297108
2268.000000	0.299831
2269.000000	0.298979
2270.000000	0.295539
2271.000000	0.293937
2272.000000	0.292121
2273.000000	0.290285
2274.000000	0.289437
2275.000000	0.287428
2276.000000	0.285075
2277.000000	0.279498
2278.000000	0.275706
2279.000000	0.275490
2280.000000	0.275870
2281.000000	0.278685
2282.000000	0.279552
2283.000000	0.279355
2284.000000	0.279410
2285.000000	0.275495
2286.000000	0.273651
2287.000000	0.272981
2288.000000	0.271664
2289.000000	0.273279
2290.000000	0.272828
2291.000000	0.273830
2292.000000	0.273796
2293.000000	0.271875
2294.000000	0.272454
2295.000000	0.274570
2296.000000	0.275640
2297.000000	0.277716
2298.000000	0.279189
2299.000000	0.280770
2300.000000	0.281057
2301.000000	0.280225
2302.000000	0.280428
2303.000000	0.279448
2304.000000	0.279781
2305.000000	0.282088
2306.000000	0.283060
2307.000000	0.283612
2308.000000	0.284365
2309.000000	0.283832
2310.000000	0.282978
2311.000000	0.282683
2312.000000	0.281914
2313.000000	0.280629
2314.000000	0.278788
2315.000000	0.277220
2316.000000	0.274106
2317.000000	0.271140
2318.000000	0.271449
2319.000000	0.271798
2320.000000	0.273997
2321.000000	0.277444
2322.000000	0.278858
2323.000000	0.280475
2324.000000	0.281221
2325.000000	0.280923
2326.000000	0.280999
2327.000000	0.280443
2328.000000	0.278958
2329.000000	0.275781
2330.000000	0.272138
2331.000000	0.271025
2332.000000	0.269725
2333.000000	0.270372
2334.000000	0.273792
2335.000000	0.274650
2336.000000	0.272675
2337.000000	0.272304
2338.000000	0.271377
2339.000000	0.271523
2340.000000	0.273956
2341.000000	0.273381
2342.000000	0.271118
2343.000000	0.270066
2344.000000	0.267588
2345.000000	0.266442
2346.000000	0.268078
2347.000000	0.267216
2348.000000	0.265365
2349.000000	0.261785
2350.000000	0.259613
2351.000000	0.254986
2352.000000	0.249106
2353.000000	0.246932
2354.000000	0.243550
2355.000000	0.241580
2356.000000	0.243518
2357.000000	0.246534
2358.000000	0.250270
2359.000000	0.254040
2360.000000	0.256051
2361.000000	0.257169
2362.000000	0.256686
2363.000000	0.253555
2364.000000	0.248185
2365.000000	0.243769
2366.000000	0.241084
2367.000000	0.240723
2368.000000	0.243329
2369.000000	0.242427
2370.000000	0.238188
2371.000000	0.230473
2372.000000	0.226015
2373.000000	0.227928
2374.000000	0.228847
2375.000000	0.232951
2376.000000	0.237385
2377.000000	0.238379
2378.000000	0.238526
2379.000000	0.239943
2380.000000	0.240493
2381.000000	0.239011
2382.000000	0.236838
2383.000000	0.234390
2384.000000	0.232773
2385.000000	0.230150
2386.000000	0.226458
2387.000000	0.221942
2388.000000	0.219466
2389.000000	0.217562
2390.000000	0.218597
2391.000000	0.223851
2392.000000	0.223315
2393.000000	0.225061
2394.000000	0.227260
2395.000000	0.223593
2396.000000	0.226397
2397.000000	0.226944
2398.000000	0.221501
2399.000000	0.222090
2400.000000	0.217060
2401.000000	0.207247
2402.000000	0.204150
2403.000000	0.200221
2404.000000	0.201756
2405.000000	0.209754
2406.000000	0.213349
2407.000000	0.215745
2408.000000	0.221609
2409.000000	0.222067
2410.000000	0.219315
2411.000000	0.222386
2412.000000	0.219685
2413.000000	0.214342
2414.000000	0.216541
2415.000000	0.215411
2416.000000	0.209842
2417.000000	0.213548
2418.000000	0.214907
2419.000000	0.216652
2420.000000	0.225747
2421.000000	0.229158
2422.000000	0.234507
2423.000000	0.240293
2424.000000	0.239919
2425.000000	0.232926
2426.000000	0.226611
2427.000000	0.225392
2428.000000	0.221623
2429.000000	0.228843
2430.000000	0.235123
2431.000000	0.224034
2432.000000	0.226864
2433.000000	0.232554
2434.000000	0.227565
2435.000000	0.236292
2436.000000	0.235742
2437.000000	0.215819
2438.000000	0.206258
2439.000000	0.196355
2440.000000	0.178097
2441.000000	0.181156
2442.000000	0.188949
2443.000000	0.186499
2444.000000	0.199086
2445.000000	0.205439
2446.000000	0.202574
2447.000000	0.219965
2448.000000	0.236654
2449.000000	0.237277
2450.000000	0.239553
2451.000000	0.236850
2452.000000	0.220110
2453.000000	0.203165
2454.000000	0.205887
2455.000000	0.214281
2456.000000	0.216069
2457.000000	0.242039
2458.000000	0.261085
2459.000000	0.258404
2460.000000	0.267054
2461.000000	0.267257
2462.000000	0.245659
2463.000000	0.229356
2464.000000	0.208254
2465.000000	0.179817
2466.000000	0.173846
2467.000000	0.175237
2468.000000	0.181101
2469.000000	0.179770
2470.000000	0.168746
2471.000000	0.156021
2472.000000	0.135909
2473.000000	0.146174
2474.000000	0.170137
2475.000000	0.186323
2476.000000	0.209327
2477.000000	0.236471
2478.000000	0.255218
2479.000000	0.262487
2480.000000	0.261318
2481.000000	0.224031
2482.000000	0.181016
2483.000000	0.156390
2484.000000	0.138253
2485.000000	0.160167
2486.000000	0.173125
2487.000000	0.181297
2488.000000	0.181690
2489.000000	0.173762
2490.000000	0.192748
2491.000000	0.210836
2492.000000	0.202396
2493.000000	0.173986
2494.000000	0.174499
2495.000000	0.174862
2496.000000	0.172088
2497.000000	0.191877
2498.000000	0.193068
2499.000000	0.147715
2500.000000	0.170745
