# Wavelength	Nau-1_70_FV7_30_00002.asd.rts.txt
350.000000	0.118730
351.000000	0.110441
352.000000	0.116739
353.000000	0.116663
354.000000	0.105504
355.000000	0.106823
356.000000	0.112259
357.000000	0.113707
358.000000	0.099645
359.000000	0.106954
360.000000	0.118440
361.000000	0.109547
362.000000	0.100807
363.000000	0.096707
364.000000	0.098222
365.000000	0.106233
366.000000	0.106121
367.000000	0.098991
368.000000	0.099731
369.000000	0.104365
370.000000	0.108409
371.000000	0.108254
372.000000	0.111356
373.000000	0.112485
374.000000	0.109155
375.000000	0.107847
376.000000	0.109468
377.000000	0.111989
378.000000	0.110399
379.000000	0.108150
380.000000	0.108801
381.000000	0.114796
382.000000	0.114541
383.000000	0.112844
384.000000	0.114177
385.000000	0.116671
386.000000	0.118275
387.000000	0.119100
388.000000	0.121429
389.000000	0.122894
390.000000	0.124061
391.000000	0.126123
392.000000	0.126990
393.000000	0.128633
394.000000	0.132056
395.000000	0.133552
396.000000	0.135138
397.000000	0.136873
398.000000	0.135794
399.000000	0.136313
400.000000	0.138516
401.000000	0.140558
402.000000	0.140872
403.000000	0.141943
404.000000	0.145545
405.000000	0.147301
406.000000	0.148607
407.000000	0.150182
408.000000	0.151010
409.000000	0.152707
410.000000	0.154879
411.000000	0.155990
412.000000	0.157079
413.000000	0.158114
414.000000	0.158947
415.000000	0.160137
416.000000	0.160539
417.000000	0.159997
418.000000	0.160688
419.000000	0.161723
420.000000	0.162561
421.000000	0.162819
422.000000	0.163402
423.000000	0.163810
424.000000	0.163367
425.000000	0.163608
426.000000	0.164120
427.000000	0.164267
428.000000	0.163377
429.000000	0.163289
430.000000	0.164165
431.000000	0.163915
432.000000	0.163825
433.000000	0.163984
434.000000	0.164080
435.000000	0.164113
436.000000	0.163801
437.000000	0.163062
438.000000	0.162980
439.000000	0.162861
440.000000	0.162371
441.000000	0.161711
442.000000	0.161217
443.000000	0.160856
444.000000	0.160422
445.000000	0.159906
446.000000	0.159841
447.000000	0.160634
448.000000	0.161558
449.000000	0.162447
450.000000	0.163379
451.000000	0.164829
452.000000	0.166857
453.000000	0.169222
454.000000	0.171426
455.000000	0.174205
456.000000	0.177311
457.000000	0.180035
458.000000	0.183255
459.000000	0.186090
460.000000	0.187934
461.000000	0.190216
462.000000	0.192588
463.000000	0.194624
464.000000	0.196225
465.000000	0.197709
466.000000	0.199037
467.000000	0.200057
468.000000	0.201253
469.000000	0.202439
470.000000	0.203424
471.000000	0.204240
472.000000	0.204893
473.000000	0.205537
474.000000	0.206719
475.000000	0.207435
476.000000	0.207639
477.000000	0.208002
478.000000	0.208537
479.000000	0.209250
480.000000	0.209832
481.000000	0.210528
482.000000	0.211245
483.000000	0.211777
484.000000	0.212774
485.000000	0.213458
486.000000	0.213727
487.000000	0.214232
488.000000	0.214818
489.000000	0.215472
490.000000	0.216216
491.000000	0.216948
492.000000	0.217670
493.000000	0.218317
494.000000	0.219107
495.000000	0.219773
496.000000	0.220206
497.000000	0.221043
498.000000	0.221821
499.000000	0.222489
500.000000	0.223323
501.000000	0.224105
502.000000	0.224839
503.000000	0.225545
504.000000	0.226262
505.000000	0.227031
506.000000	0.227883
507.000000	0.228794
508.000000	0.229705
509.000000	0.230555
510.000000	0.231402
511.000000	0.232190
512.000000	0.233009
513.000000	0.234025
514.000000	0.235035
515.000000	0.236025
516.000000	0.236976
517.000000	0.237807
518.000000	0.238701
519.000000	0.239686
520.000000	0.240542
521.000000	0.241528
522.000000	0.242699
523.000000	0.243797
524.000000	0.244885
525.000000	0.245947
526.000000	0.246984
527.000000	0.248181
528.000000	0.249391
529.000000	0.250496
530.000000	0.251715
531.000000	0.252984
532.000000	0.254171
533.000000	0.255356
534.000000	0.256587
535.000000	0.257854
536.000000	0.259133
537.000000	0.260375
538.000000	0.261615
539.000000	0.262906
540.000000	0.264170
541.000000	0.265416
542.000000	0.266681
543.000000	0.267886
544.000000	0.269117
545.000000	0.270365
546.000000	0.271701
547.000000	0.273001
548.000000	0.274262
549.000000	0.275463
550.000000	0.276661
551.000000	0.277916
552.000000	0.279215
553.000000	0.280494
554.000000	0.281738
555.000000	0.282970
556.000000	0.284311
557.000000	0.285517
558.000000	0.286647
559.000000	0.287766
560.000000	0.288864
561.000000	0.290008
562.000000	0.291129
563.000000	0.292096
564.000000	0.293050
565.000000	0.294028
566.000000	0.294937
567.000000	0.295835
568.000000	0.296730
569.000000	0.297590
570.000000	0.298373
571.000000	0.299095
572.000000	0.299855
573.000000	0.300534
574.000000	0.301176
575.000000	0.301924
576.000000	0.302610
577.000000	0.303174
578.000000	0.303682
579.000000	0.304249
580.000000	0.304784
581.000000	0.305260
582.000000	0.305776
583.000000	0.306221
584.000000	0.306616
585.000000	0.307060
586.000000	0.307388
587.000000	0.307642
588.000000	0.307918
589.000000	0.308263
590.000000	0.308588
591.000000	0.308844
592.000000	0.309105
593.000000	0.309315
594.000000	0.309476
595.000000	0.309654
596.000000	0.309700
597.000000	0.309782
598.000000	0.310051
599.000000	0.310184
600.000000	0.310294
601.000000	0.310435
602.000000	0.310619
603.000000	0.310698
604.000000	0.310668
605.000000	0.310762
606.000000	0.310776
607.000000	0.310716
608.000000	0.310702
609.000000	0.310705
610.000000	0.310740
611.000000	0.310813
612.000000	0.310808
613.000000	0.310806
614.000000	0.310886
615.000000	0.310922
616.000000	0.310894
617.000000	0.310837
618.000000	0.310976
619.000000	0.311075
620.000000	0.311076
621.000000	0.311063
622.000000	0.311142
623.000000	0.311222
624.000000	0.311237
625.000000	0.311354
626.000000	0.311476
627.000000	0.311544
628.000000	0.311548
629.000000	0.311624
630.000000	0.311646
631.000000	0.311644
632.000000	0.311743
633.000000	0.311881
634.000000	0.311958
635.000000	0.312045
636.000000	0.312092
637.000000	0.312097
638.000000	0.312277
639.000000	0.312329
640.000000	0.312323
641.000000	0.312476
642.000000	0.312675
643.000000	0.312856
644.000000	0.312979
645.000000	0.313135
646.000000	0.313333
647.000000	0.313524
648.000000	0.313636
649.000000	0.313803
650.000000	0.314033
651.000000	0.314235
652.000000	0.314377
653.000000	0.314525
654.000000	0.314709
655.000000	0.314929
656.000000	0.315162
657.000000	0.315341
658.000000	0.315573
659.000000	0.315777
660.000000	0.315931
661.000000	0.316188
662.000000	0.316429
663.000000	0.316659
664.000000	0.316844
665.000000	0.317196
666.000000	0.317614
667.000000	0.317923
668.000000	0.318228
669.000000	0.318547
670.000000	0.318890
671.000000	0.319249
672.000000	0.319597
673.000000	0.319931
674.000000	0.320289
675.000000	0.320590
676.000000	0.320890
677.000000	0.321273
678.000000	0.321558
679.000000	0.321873
680.000000	0.322296
681.000000	0.322671
682.000000	0.323064
683.000000	0.323445
684.000000	0.323928
685.000000	0.324476
686.000000	0.325023
687.000000	0.325449
688.000000	0.325874
689.000000	0.326252
690.000000	0.326613
691.000000	0.327117
692.000000	0.327589
693.000000	0.328033
694.000000	0.328468
695.000000	0.328900
696.000000	0.329358
697.000000	0.329865
698.000000	0.330306
699.000000	0.330780
700.000000	0.331359
701.000000	0.331860
702.000000	0.332386
703.000000	0.332948
704.000000	0.333481
705.000000	0.334080
706.000000	0.334677
707.000000	0.335240
708.000000	0.335778
709.000000	0.336324
710.000000	0.336906
711.000000	0.337406
712.000000	0.337911
713.000000	0.338467
714.000000	0.338989
715.000000	0.339444
716.000000	0.339905
717.000000	0.340463
718.000000	0.341003
719.000000	0.341540
720.000000	0.342111
721.000000	0.342680
722.000000	0.343168
723.000000	0.343627
724.000000	0.344075
725.000000	0.344553
726.000000	0.345111
727.000000	0.345603
728.000000	0.346041
729.000000	0.346484
730.000000	0.346925
731.000000	0.347400
732.000000	0.347923
733.000000	0.348494
734.000000	0.348963
735.000000	0.349380
736.000000	0.349828
737.000000	0.350133
738.000000	0.350476
739.000000	0.350909
740.000000	0.351263
741.000000	0.351671
742.000000	0.352059
743.000000	0.352348
744.000000	0.352554
745.000000	0.352735
746.000000	0.353014
747.000000	0.353389
748.000000	0.353722
749.000000	0.354039
750.000000	0.354331
751.000000	0.354592
752.000000	0.354860
753.000000	0.355145
754.000000	0.355404
755.000000	0.355643
756.000000	0.355844
757.000000	0.355943
758.000000	0.356012
759.000000	0.356109
760.000000	0.356180
761.000000	0.356263
762.000000	0.356391
763.000000	0.356539
764.000000	0.356729
765.000000	0.356813
766.000000	0.356769
767.000000	0.356651
768.000000	0.356724
769.000000	0.356779
770.000000	0.356738
771.000000	0.356708
772.000000	0.356725
773.000000	0.356714
774.000000	0.356707
775.000000	0.356639
776.000000	0.356580
777.000000	0.356536
778.000000	0.356363
779.000000	0.356211
780.000000	0.356092
781.000000	0.355867
782.000000	0.355634
783.000000	0.355492
784.000000	0.355323
785.000000	0.355164
786.000000	0.355019
787.000000	0.354880
788.000000	0.354748
789.000000	0.354579
790.000000	0.354337
791.000000	0.354059
792.000000	0.353878
793.000000	0.353694
794.000000	0.353439
795.000000	0.353283
796.000000	0.353054
797.000000	0.352725
798.000000	0.352430
799.000000	0.352161
800.000000	0.351863
801.000000	0.351500
802.000000	0.351248
803.000000	0.350972
804.000000	0.350628
805.000000	0.350224
806.000000	0.349744
807.000000	0.349350
808.000000	0.349099
809.000000	0.348850
810.000000	0.348609
811.000000	0.348363
812.000000	0.348014
813.000000	0.347621
814.000000	0.347238
815.000000	0.346936
816.000000	0.346511
817.000000	0.346082
818.000000	0.345719
819.000000	0.345436
820.000000	0.345164
821.000000	0.344816
822.000000	0.344457
823.000000	0.344140
824.000000	0.343771
825.000000	0.343368
826.000000	0.343070
827.000000	0.342752
828.000000	0.342383
829.000000	0.342007
830.000000	0.341639
831.000000	0.341291
832.000000	0.340801
833.000000	0.340401
834.000000	0.340089
835.000000	0.339823
836.000000	0.339425
837.000000	0.339014
838.000000	0.338654
839.000000	0.338315
840.000000	0.337918
841.000000	0.337544
842.000000	0.337219
843.000000	0.336860
844.000000	0.336543
845.000000	0.336230
846.000000	0.335834
847.000000	0.335441
848.000000	0.335065
849.000000	0.334732
850.000000	0.334380
851.000000	0.333995
852.000000	0.333652
853.000000	0.333421
854.000000	0.333085
855.000000	0.332782
856.000000	0.332508
857.000000	0.332073
858.000000	0.331653
859.000000	0.331284
860.000000	0.331013
861.000000	0.330711
862.000000	0.330444
863.000000	0.330227
864.000000	0.329861
865.000000	0.329432
866.000000	0.329023
867.000000	0.328554
868.000000	0.328242
869.000000	0.328004
870.000000	0.327755
871.000000	0.327442
872.000000	0.327112
873.000000	0.326764
874.000000	0.326516
875.000000	0.326218
876.000000	0.325875
877.000000	0.325485
878.000000	0.325113
879.000000	0.324897
880.000000	0.324739
881.000000	0.324626
882.000000	0.324436
883.000000	0.324142
884.000000	0.323721
885.000000	0.323394
886.000000	0.323047
887.000000	0.322697
888.000000	0.322593
889.000000	0.322362
890.000000	0.321977
891.000000	0.321762
892.000000	0.321485
893.000000	0.321213
894.000000	0.321066
895.000000	0.320784
896.000000	0.320557
897.000000	0.320431
898.000000	0.320362
899.000000	0.320133
900.000000	0.319791
901.000000	0.319454
902.000000	0.319445
903.000000	0.319424
904.000000	0.319306
905.000000	0.319026
906.000000	0.318908
907.000000	0.318789
908.000000	0.318634
909.000000	0.318386
910.000000	0.318244
911.000000	0.318097
912.000000	0.317849
913.000000	0.317644
914.000000	0.317428
915.000000	0.317309
916.000000	0.317313
917.000000	0.317103
918.000000	0.316885
919.000000	0.316797
920.000000	0.316645
921.000000	0.316519
922.000000	0.316398
923.000000	0.316176
924.000000	0.315870
925.000000	0.315619
926.000000	0.315535
927.000000	0.315561
928.000000	0.315407
929.000000	0.315167
930.000000	0.315060
931.000000	0.315110
932.000000	0.315031
933.000000	0.314802
934.000000	0.314602
935.000000	0.314546
936.000000	0.314514
937.000000	0.314306
938.000000	0.314140
939.000000	0.313985
940.000000	0.313890
941.000000	0.314055
942.000000	0.313805
943.000000	0.313590
944.000000	0.313535
945.000000	0.313363
946.000000	0.313289
947.000000	0.313314
948.000000	0.313295
949.000000	0.313232
950.000000	0.313045
951.000000	0.312812
952.000000	0.312868
953.000000	0.312814
954.000000	0.312735
955.000000	0.312700
956.000000	0.312817
957.000000	0.312916
958.000000	0.312867
959.000000	0.312745
960.000000	0.312785
961.000000	0.312803
962.000000	0.312766
963.000000	0.312902
964.000000	0.312852
965.000000	0.312884
966.000000	0.312993
967.000000	0.312462
968.000000	0.312405
969.000000	0.312560
970.000000	0.312244
971.000000	0.312064
972.000000	0.312158
973.000000	0.312320
974.000000	0.312206
975.000000	0.312367
976.000000	0.312490
977.000000	0.312325
978.000000	0.312398
979.000000	0.312519
980.000000	0.312304
981.000000	0.311934
982.000000	0.311998
983.000000	0.312303
984.000000	0.312628
985.000000	0.312662
986.000000	0.312746
987.000000	0.312764
988.000000	0.312623
989.000000	0.312936
990.000000	0.313206
991.000000	0.313313
992.000000	0.313384
993.000000	0.313773
994.000000	0.313909
995.000000	0.313916
996.000000	0.314041
997.000000	0.314587
998.000000	0.314856
999.000000	0.314681
1000.000000	0.314577
1001.000000	0.314161
1002.000000	0.314839
1003.000000	0.315114
1004.000000	0.315209
1005.000000	0.315346
1006.000000	0.315099
1007.000000	0.313824
1008.000000	0.314402
1009.000000	0.315811
1010.000000	0.316570
1011.000000	0.317637
1012.000000	0.318288
1013.000000	0.317486
1014.000000	0.316459
1015.000000	0.316362
1016.000000	0.316912
1017.000000	0.317156
1018.000000	0.317165
1019.000000	0.317550
1020.000000	0.318083
1021.000000	0.317913
1022.000000	0.318017
1023.000000	0.318498
1024.000000	0.318680
1025.000000	0.318693
1026.000000	0.318910
1027.000000	0.318775
1028.000000	0.319109
1029.000000	0.319931
1030.000000	0.320838
1031.000000	0.321499
1032.000000	0.321753
1033.000000	0.321880
1034.000000	0.321956
1035.000000	0.321877
1036.000000	0.322109
1037.000000	0.322319
1038.000000	0.322475
1039.000000	0.322700
1040.000000	0.323529
1041.000000	0.323965
1042.000000	0.324267
1043.000000	0.324554
1044.000000	0.324786
1045.000000	0.325057
1046.000000	0.325319
1047.000000	0.325768
1048.000000	0.326336
1049.000000	0.326743
1050.000000	0.327310
1051.000000	0.327525
1052.000000	0.327349
1053.000000	0.327413
1054.000000	0.327546
1055.000000	0.328007
1056.000000	0.328892
1057.000000	0.329435
1058.000000	0.330109
1059.000000	0.330008
1060.000000	0.330078
1061.000000	0.330795
1062.000000	0.331076
1063.000000	0.331649
1064.000000	0.332419
1065.000000	0.333217
1066.000000	0.333902
1067.000000	0.335115
1068.000000	0.335591
1069.000000	0.335164
1070.000000	0.335328
1071.000000	0.335604
1072.000000	0.335957
1073.000000	0.336480
1074.000000	0.337353
1075.000000	0.338202
1076.000000	0.338548
1077.000000	0.338578
1078.000000	0.338827
1079.000000	0.339363
1080.000000	0.340054
1081.000000	0.340474
1082.000000	0.341166
1083.000000	0.341810
1084.000000	0.342051
1085.000000	0.342704
1086.000000	0.344018
1087.000000	0.344813
1088.000000	0.345356
1089.000000	0.345751
1090.000000	0.345710
1091.000000	0.345867
1092.000000	0.346132
1093.000000	0.346486
1094.000000	0.346924
1095.000000	0.347393
1096.000000	0.348100
1097.000000	0.349113
1098.000000	0.349736
1099.000000	0.350431
1100.000000	0.350976
1101.000000	0.350959
1102.000000	0.351303
1103.000000	0.351803
1104.000000	0.352281
1105.000000	0.352764
1106.000000	0.353355
1107.000000	0.354142
1108.000000	0.354628
1109.000000	0.354890
1110.000000	0.355380
1111.000000	0.356024
1112.000000	0.356673
1113.000000	0.357270
1114.000000	0.358205
1115.000000	0.358774
1116.000000	0.358856
1117.000000	0.359400
1118.000000	0.360242
1119.000000	0.360732
1120.000000	0.361238
1121.000000	0.361664
1122.000000	0.361914
1123.000000	0.362436
1124.000000	0.362746
1125.000000	0.363237
1126.000000	0.363791
1127.000000	0.364252
1128.000000	0.364712
1129.000000	0.365288
1130.000000	0.365814
1131.000000	0.366300
1132.000000	0.366721
1133.000000	0.367224
1134.000000	0.367677
1135.000000	0.367952
1136.000000	0.368303
1137.000000	0.368772
1138.000000	0.369021
1139.000000	0.369072
1140.000000	0.369494
1141.000000	0.369967
1142.000000	0.370435
1143.000000	0.371211
1144.000000	0.371820
1145.000000	0.371988
1146.000000	0.372121
1147.000000	0.372489
1148.000000	0.372767
1149.000000	0.373117
1150.000000	0.373760
1151.000000	0.374098
1152.000000	0.374108
1153.000000	0.374383
1154.000000	0.374619
1155.000000	0.374918
1156.000000	0.375384
1157.000000	0.375767
1158.000000	0.376041
1159.000000	0.376386
1160.000000	0.376776
1161.000000	0.377095
1162.000000	0.377492
1163.000000	0.377941
1164.000000	0.378297
1165.000000	0.378649
1166.000000	0.379049
1167.000000	0.379479
1168.000000	0.379783
1169.000000	0.380053
1170.000000	0.380405
1171.000000	0.380837
1172.000000	0.381145
1173.000000	0.381349
1174.000000	0.381625
1175.000000	0.381825
1176.000000	0.382001
1177.000000	0.382292
1178.000000	0.382621
1179.000000	0.382920
1180.000000	0.383127
1181.000000	0.383438
1182.000000	0.383812
1183.000000	0.384074
1184.000000	0.384438
1185.000000	0.384710
1186.000000	0.384995
1187.000000	0.385212
1188.000000	0.385344
1189.000000	0.385474
1190.000000	0.385654
1191.000000	0.385839
1192.000000	0.386052
1193.000000	0.386443
1194.000000	0.386884
1195.000000	0.387171
1196.000000	0.387348
1197.000000	0.387596
1198.000000	0.387793
1199.000000	0.388013
1200.000000	0.388274
1201.000000	0.388577
1202.000000	0.388876
1203.000000	0.389067
1204.000000	0.389281
1205.000000	0.389574
1206.000000	0.389651
1207.000000	0.389623
1208.000000	0.389754
1209.000000	0.389907
1210.000000	0.390151
1211.000000	0.390634
1212.000000	0.390879
1213.000000	0.391107
1214.000000	0.391296
1215.000000	0.391275
1216.000000	0.391400
1217.000000	0.391607
1218.000000	0.391690
1219.000000	0.391712
1220.000000	0.391943
1221.000000	0.392042
1222.000000	0.392052
1223.000000	0.392280
1224.000000	0.392481
1225.000000	0.392663
1226.000000	0.392925
1227.000000	0.393057
1228.000000	0.393247
1229.000000	0.393311
1230.000000	0.393221
1231.000000	0.393181
1232.000000	0.393201
1233.000000	0.393430
1234.000000	0.393811
1235.000000	0.394049
1236.000000	0.394236
1237.000000	0.394439
1238.000000	0.394485
1239.000000	0.394576
1240.000000	0.394752
1241.000000	0.394835
1242.000000	0.394780
1243.000000	0.394965
1244.000000	0.395129
1245.000000	0.395250
1246.000000	0.395544
1247.000000	0.395760
1248.000000	0.395879
1249.000000	0.396055
1250.000000	0.396121
1251.000000	0.396181
1252.000000	0.396248
1253.000000	0.396386
1254.000000	0.396454
1255.000000	0.396426
1256.000000	0.396463
1257.000000	0.396561
1258.000000	0.396695
1259.000000	0.396785
1260.000000	0.396995
1261.000000	0.397150
1262.000000	0.397283
1263.000000	0.397498
1264.000000	0.397722
1265.000000	0.397817
1266.000000	0.397951
1267.000000	0.398054
1268.000000	0.397962
1269.000000	0.397795
1270.000000	0.397842
1271.000000	0.397749
1272.000000	0.397728
1273.000000	0.397973
1274.000000	0.398030
1275.000000	0.398060
1276.000000	0.398209
1277.000000	0.398278
1278.000000	0.398037
1279.000000	0.397997
1280.000000	0.397936
1281.000000	0.397864
1282.000000	0.397934
1283.000000	0.398060
1284.000000	0.398131
1285.000000	0.398188
1286.000000	0.398278
1287.000000	0.398228
1288.000000	0.398243
1289.000000	0.398352
1290.000000	0.398364
1291.000000	0.398323
1292.000000	0.398159
1293.000000	0.397999
1294.000000	0.397952
1295.000000	0.398022
1296.000000	0.398162
1297.000000	0.398336
1298.000000	0.398551
1299.000000	0.398548
1300.000000	0.398542
1301.000000	0.398545
1302.000000	0.398444
1303.000000	0.398382
1304.000000	0.398339
1305.000000	0.398392
1306.000000	0.398321
1307.000000	0.398305
1308.000000	0.398276
1309.000000	0.398166
1310.000000	0.398095
1311.000000	0.398155
1312.000000	0.397899
1313.000000	0.397739
1314.000000	0.397723
1315.000000	0.397581
1316.000000	0.397732
1317.000000	0.397836
1318.000000	0.397773
1319.000000	0.397764
1320.000000	0.397730
1321.000000	0.397712
1322.000000	0.397689
1323.000000	0.397694
1324.000000	0.397773
1325.000000	0.397545
1326.000000	0.397309
1327.000000	0.397350
1328.000000	0.397352
1329.000000	0.397300
1330.000000	0.397473
1331.000000	0.397473
1332.000000	0.397336
1333.000000	0.397251
1334.000000	0.397258
1335.000000	0.397231
1336.000000	0.397076
1337.000000	0.397070
1338.000000	0.397075
1339.000000	0.397111
1340.000000	0.397183
1341.000000	0.397155
1342.000000	0.396976
1343.000000	0.396803
1344.000000	0.396523
1345.000000	0.396345
1346.000000	0.396448
1347.000000	0.396402
1348.000000	0.396446
1349.000000	0.396355
1350.000000	0.396151
1351.000000	0.395977
1352.000000	0.395898
1353.000000	0.395833
1354.000000	0.395779
1355.000000	0.395708
1356.000000	0.395502
1357.000000	0.395261
1358.000000	0.395025
1359.000000	0.394660
1360.000000	0.394482
1361.000000	0.394547
1362.000000	0.394405
1363.000000	0.394272
1364.000000	0.394171
1365.000000	0.393868
1366.000000	0.393722
1367.000000	0.393734
1368.000000	0.393550
1369.000000	0.393462
1370.000000	0.393396
1371.000000	0.393125
1372.000000	0.392824
1373.000000	0.392436
1374.000000	0.391877
1375.000000	0.391302
1376.000000	0.390922
1377.000000	0.390607
1378.000000	0.390108
1379.000000	0.389419
1380.000000	0.388659
1381.000000	0.387768
1382.000000	0.386927
1383.000000	0.386228
1384.000000	0.385333
1385.000000	0.384275
1386.000000	0.383240
1387.000000	0.382171
1388.000000	0.380984
1389.000000	0.379798
1390.000000	0.378770
1391.000000	0.377662
1392.000000	0.376511
1393.000000	0.375291
1394.000000	0.374059
1395.000000	0.372753
1396.000000	0.371310
1397.000000	0.370016
1398.000000	0.368764
1399.000000	0.367465
1400.000000	0.366157
1401.000000	0.364839
1402.000000	0.363550
1403.000000	0.362176
1404.000000	0.360952
1405.000000	0.359685
1406.000000	0.358229
1407.000000	0.356916
1408.000000	0.355620
1409.000000	0.354361
1410.000000	0.353334
1411.000000	0.352345
1412.000000	0.351331
1413.000000	0.350483
1414.000000	0.349876
1415.000000	0.349443
1416.000000	0.349067
1417.000000	0.348895
1418.000000	0.348752
1419.000000	0.348685
1420.000000	0.348719
1421.000000	0.348868
1422.000000	0.348995
1423.000000	0.349067
1424.000000	0.348993
1425.000000	0.348884
1426.000000	0.348625
1427.000000	0.348370
1428.000000	0.348211
1429.000000	0.347879
1430.000000	0.347520
1431.000000	0.347248
1432.000000	0.347106
1433.000000	0.346967
1434.000000	0.347150
1435.000000	0.347665
1436.000000	0.348288
1437.000000	0.349067
1438.000000	0.349943
1439.000000	0.350969
1440.000000	0.352234
1441.000000	0.353820
1442.000000	0.355409
1443.000000	0.357130
1444.000000	0.358811
1445.000000	0.360395
1446.000000	0.361734
1447.000000	0.363060
1448.000000	0.364356
1449.000000	0.365568
1450.000000	0.366674
1451.000000	0.367570
1452.000000	0.368213
1453.000000	0.368621
1454.000000	0.368867
1455.000000	0.369078
1456.000000	0.369283
1457.000000	0.369574
1458.000000	0.369845
1459.000000	0.370034
1460.000000	0.370340
1461.000000	0.370524
1462.000000	0.370662
1463.000000	0.370811
1464.000000	0.370874
1465.000000	0.371120
1466.000000	0.371371
1467.000000	0.371578
1468.000000	0.371931
1469.000000	0.372286
1470.000000	0.372508
1471.000000	0.372933
1472.000000	0.373362
1473.000000	0.373683
1474.000000	0.374012
1475.000000	0.374377
1476.000000	0.374734
1477.000000	0.375195
1478.000000	0.375703
1479.000000	0.376020
1480.000000	0.376312
1481.000000	0.376677
1482.000000	0.377115
1483.000000	0.377522
1484.000000	0.378018
1485.000000	0.378405
1486.000000	0.378679
1487.000000	0.378970
1488.000000	0.379244
1489.000000	0.379584
1490.000000	0.379753
1491.000000	0.380104
1492.000000	0.380554
1493.000000	0.380940
1494.000000	0.381373
1495.000000	0.381665
1496.000000	0.381815
1497.000000	0.382003
1498.000000	0.382173
1499.000000	0.382304
1500.000000	0.382526
1501.000000	0.382795
1502.000000	0.383080
1503.000000	0.383300
1504.000000	0.383515
1505.000000	0.383763
1506.000000	0.383890
1507.000000	0.384019
1508.000000	0.384218
1509.000000	0.384409
1510.000000	0.384736
1511.000000	0.385184
1512.000000	0.385453
1513.000000	0.385703
1514.000000	0.386019
1515.000000	0.386123
1516.000000	0.386294
1517.000000	0.386453
1518.000000	0.386534
1519.000000	0.386671
1520.000000	0.386882
1521.000000	0.387086
1522.000000	0.387325
1523.000000	0.387532
1524.000000	0.387658
1525.000000	0.387830
1526.000000	0.387953
1527.000000	0.388192
1528.000000	0.388437
1529.000000	0.388501
1530.000000	0.388544
1531.000000	0.388672
1532.000000	0.388966
1533.000000	0.389291
1534.000000	0.389543
1535.000000	0.389791
1536.000000	0.389808
1537.000000	0.389886
1538.000000	0.390107
1539.000000	0.390172
1540.000000	0.390259
1541.000000	0.390456
1542.000000	0.390559
1543.000000	0.390609
1544.000000	0.390740
1545.000000	0.390922
1546.000000	0.390980
1547.000000	0.391087
1548.000000	0.391165
1549.000000	0.391074
1550.000000	0.391092
1551.000000	0.391131
1552.000000	0.391172
1553.000000	0.391276
1554.000000	0.391327
1555.000000	0.391353
1556.000000	0.391391
1557.000000	0.391387
1558.000000	0.391481
1559.000000	0.391567
1560.000000	0.391670
1561.000000	0.391902
1562.000000	0.392043
1563.000000	0.392234
1564.000000	0.392351
1565.000000	0.392367
1566.000000	0.392349
1567.000000	0.392371
1568.000000	0.392439
1569.000000	0.392650
1570.000000	0.392768
1571.000000	0.392896
1572.000000	0.392896
1573.000000	0.392784
1574.000000	0.392765
1575.000000	0.392666
1576.000000	0.392766
1577.000000	0.393050
1578.000000	0.393142
1579.000000	0.393341
1580.000000	0.393416
1581.000000	0.393357
1582.000000	0.393437
1583.000000	0.393585
1584.000000	0.393652
1585.000000	0.393907
1586.000000	0.393989
1587.000000	0.393865
1588.000000	0.393883
1589.000000	0.393934
1590.000000	0.393951
1591.000000	0.394086
1592.000000	0.394115
1593.000000	0.394039
1594.000000	0.393992
1595.000000	0.394033
1596.000000	0.394045
1597.000000	0.394073
1598.000000	0.394123
1599.000000	0.394157
1600.000000	0.394107
1601.000000	0.394193
1602.000000	0.394205
1603.000000	0.394202
1604.000000	0.394222
1605.000000	0.394262
1606.000000	0.394222
1607.000000	0.394164
1608.000000	0.394113
1609.000000	0.394137
1610.000000	0.394097
1611.000000	0.394081
1612.000000	0.394035
1613.000000	0.394029
1614.000000	0.393988
1615.000000	0.394015
1616.000000	0.394062
1617.000000	0.394040
1618.000000	0.394071
1619.000000	0.394105
1620.000000	0.394107
1621.000000	0.394170
1622.000000	0.394287
1623.000000	0.394311
1624.000000	0.394456
1625.000000	0.394564
1626.000000	0.394588
1627.000000	0.394726
1628.000000	0.394727
1629.000000	0.394495
1630.000000	0.394519
1631.000000	0.394482
1632.000000	0.394534
1633.000000	0.394906
1634.000000	0.394955
1635.000000	0.394890
1636.000000	0.394806
1637.000000	0.394566
1638.000000	0.394408
1639.000000	0.394378
1640.000000	0.394271
1641.000000	0.394178
1642.000000	0.394151
1643.000000	0.394143
1644.000000	0.394191
1645.000000	0.394399
1646.000000	0.394369
1647.000000	0.394282
1648.000000	0.394242
1649.000000	0.394220
1650.000000	0.394172
1651.000000	0.394197
1652.000000	0.394263
1653.000000	0.394200
1654.000000	0.394277
1655.000000	0.394487
1656.000000	0.394444
1657.000000	0.394384
1658.000000	0.394347
1659.000000	0.394335
1660.000000	0.394373
1661.000000	0.394362
1662.000000	0.394374
1663.000000	0.394350
1664.000000	0.394380
1665.000000	0.394502
1666.000000	0.394524
1667.000000	0.394396
1668.000000	0.394357
1669.000000	0.394245
1670.000000	0.394140
1671.000000	0.394213
1672.000000	0.394257
1673.000000	0.394219
1674.000000	0.394134
1675.000000	0.394318
1676.000000	0.394486
1677.000000	0.394404
1678.000000	0.394313
1679.000000	0.394289
1680.000000	0.394085
1681.000000	0.393909
1682.000000	0.393951
1683.000000	0.393868
1684.000000	0.393784
1685.000000	0.393928
1686.000000	0.393987
1687.000000	0.394020
1688.000000	0.393917
1689.000000	0.393816
1690.000000	0.393708
1691.000000	0.393673
1692.000000	0.393721
1693.000000	0.393704
1694.000000	0.393597
1695.000000	0.393590
1696.000000	0.393611
1697.000000	0.393504
1698.000000	0.393386
1699.000000	0.393311
1700.000000	0.393116
1701.000000	0.393190
1702.000000	0.393360
1703.000000	0.393277
1704.000000	0.393157
1705.000000	0.393149
1706.000000	0.393146
1707.000000	0.393090
1708.000000	0.393194
1709.000000	0.393049
1710.000000	0.392620
1711.000000	0.392515
1712.000000	0.392598
1713.000000	0.392581
1714.000000	0.392770
1715.000000	0.392813
1716.000000	0.392688
1717.000000	0.392644
1718.000000	0.392586
1719.000000	0.392524
1720.000000	0.392576
1721.000000	0.392519
1722.000000	0.392392
1723.000000	0.392314
1724.000000	0.392150
1725.000000	0.392209
1726.000000	0.392389
1727.000000	0.392401
1728.000000	0.392455
1729.000000	0.392214
1730.000000	0.391813
1731.000000	0.391575
1732.000000	0.391274
1733.000000	0.391160
1734.000000	0.391007
1735.000000	0.390958
1736.000000	0.391001
1737.000000	0.390930
1738.000000	0.390902
1739.000000	0.390863
1740.000000	0.390715
1741.000000	0.390633
1742.000000	0.390660
1743.000000	0.390610
1744.000000	0.390471
1745.000000	0.390384
1746.000000	0.390309
1747.000000	0.390069
1748.000000	0.389898
1749.000000	0.389765
1750.000000	0.389561
1751.000000	0.389599
1752.000000	0.389645
1753.000000	0.389381
1754.000000	0.389251
1755.000000	0.389154
1756.000000	0.389041
1757.000000	0.388957
1758.000000	0.388919
1759.000000	0.388821
1760.000000	0.388838
1761.000000	0.388990
1762.000000	0.388990
1763.000000	0.389030
1764.000000	0.388990
1765.000000	0.388676
1766.000000	0.388608
1767.000000	0.388616
1768.000000	0.388468
1769.000000	0.388462
1770.000000	0.388435
1771.000000	0.388252
1772.000000	0.388058
1773.000000	0.387782
1774.000000	0.387648
1775.000000	0.387628
1776.000000	0.387483
1777.000000	0.387322
1778.000000	0.387211
1779.000000	0.386960
1780.000000	0.386847
1781.000000	0.386896
1782.000000	0.386822
1783.000000	0.386704
1784.000000	0.386622
1785.000000	0.386556
1786.000000	0.386567
1787.000000	0.386806
1788.000000	0.386910
1789.000000	0.386918
1790.000000	0.386750
1791.000000	0.386587
1792.000000	0.386543
1793.000000	0.386524
1794.000000	0.386449
1795.000000	0.386573
1796.000000	0.386998
1797.000000	0.387123
1798.000000	0.387206
1799.000000	0.387197
1800.000000	0.386883
1801.000000	0.386057
1802.000000	0.386750
1803.000000	0.388478
1804.000000	0.388955
1805.000000	0.388599
1806.000000	0.388615
1807.000000	0.388537
1808.000000	0.388196
1809.000000	0.387456
1810.000000	0.387101
1811.000000	0.386985
1812.000000	0.386600
1813.000000	0.387036
1814.000000	0.388734
1815.000000	0.389282
1816.000000	0.389875
1817.000000	0.389680
1818.000000	0.388496
1819.000000	0.387951
1820.000000	0.386948
1821.000000	0.386626
1822.000000	0.386219
1823.000000	0.385661
1824.000000	0.385589
1825.000000	0.386016
1826.000000	0.386124
1827.000000	0.386439
1828.000000	0.386634
1829.000000	0.385655
1830.000000	0.385233
1831.000000	0.385292
1832.000000	0.385347
1833.000000	0.385867
1834.000000	0.387566
1835.000000	0.388131
1836.000000	0.388603
1837.000000	0.388718
1838.000000	0.388200
1839.000000	0.387226
1840.000000	0.386591
1841.000000	0.385694
1842.000000	0.385041
1843.000000	0.384067
1844.000000	0.383995
1845.000000	0.384636
1846.000000	0.384799
1847.000000	0.384813
1848.000000	0.385433
1849.000000	0.385868
1850.000000	0.385373
1851.000000	0.385564
1852.000000	0.386526
1853.000000	0.386530
1854.000000	0.386021
1855.000000	0.385392
1856.000000	0.384051
1857.000000	0.382872
1858.000000	0.382149
1859.000000	0.381771
1860.000000	0.382032
1861.000000	0.382104
1862.000000	0.381526
1863.000000	0.380409
1864.000000	0.379695
1865.000000	0.378438
1866.000000	0.377728
1867.000000	0.377633
1868.000000	0.377466
1869.000000	0.376572
1870.000000	0.375816
1871.000000	0.373789
1872.000000	0.371973
1873.000000	0.370467
1874.000000	0.368744
1875.000000	0.367245
1876.000000	0.366065
1877.000000	0.364308
1878.000000	0.361826
1879.000000	0.360095
1880.000000	0.358503
1881.000000	0.356129
1882.000000	0.353500
1883.000000	0.350677
1884.000000	0.347627
1885.000000	0.343617
1886.000000	0.339740
1887.000000	0.335952
1888.000000	0.331608
1889.000000	0.326892
1890.000000	0.322786
1891.000000	0.318762
1892.000000	0.314814
1893.000000	0.310366
1894.000000	0.305791
1895.000000	0.301204
1896.000000	0.296710
1897.000000	0.291747
1898.000000	0.287292
1899.000000	0.283491
1900.000000	0.279889
1901.000000	0.276798
1902.000000	0.273410
1903.000000	0.270061
1904.000000	0.267450
1905.000000	0.265084
1906.000000	0.263298
1907.000000	0.262290
1908.000000	0.261834
1909.000000	0.261784
1910.000000	0.261926
1911.000000	0.261965
1912.000000	0.262544
1913.000000	0.263232
1914.000000	0.264333
1915.000000	0.265882
1916.000000	0.267410
1917.000000	0.268845
1918.000000	0.270505
1919.000000	0.271560
1920.000000	0.272337
1921.000000	0.273473
1922.000000	0.273918
1923.000000	0.274215
1924.000000	0.275032
1925.000000	0.276128
1926.000000	0.277000
1927.000000	0.277997
1928.000000	0.278905
1929.000000	0.279888
1930.000000	0.280116
1931.000000	0.281055
1932.000000	0.282612
1933.000000	0.283755
1934.000000	0.285361
1935.000000	0.286684
1936.000000	0.287399
1937.000000	0.288097
1938.000000	0.287962
1939.000000	0.288260
1940.000000	0.288330
1941.000000	0.289047
1942.000000	0.290261
1943.000000	0.291920
1944.000000	0.293375
1945.000000	0.294630
1946.000000	0.295394
1947.000000	0.295756
1948.000000	0.296089
1949.000000	0.296183
1950.000000	0.296411
1951.000000	0.296681
1952.000000	0.297220
1953.000000	0.297758
1954.000000	0.298500
1955.000000	0.298851
1956.000000	0.299196
1957.000000	0.300003
1958.000000	0.300548
1959.000000	0.301293
1960.000000	0.301871
1961.000000	0.302399
1962.000000	0.302869
1963.000000	0.303317
1964.000000	0.303566
1965.000000	0.304114
1966.000000	0.304250
1967.000000	0.304767
1968.000000	0.305456
1969.000000	0.306019
1970.000000	0.307313
1971.000000	0.307816
1972.000000	0.308468
1973.000000	0.308955
1974.000000	0.309054
1975.000000	0.309519
1976.000000	0.310421
1977.000000	0.310833
1978.000000	0.311348
1979.000000	0.312252
1980.000000	0.312165
1981.000000	0.312922
1982.000000	0.313913
1983.000000	0.314893
1984.000000	0.315835
1985.000000	0.317338
1986.000000	0.317858
1987.000000	0.317885
1988.000000	0.318026
1989.000000	0.317999
1990.000000	0.318675
1991.000000	0.319809
1992.000000	0.320841
1993.000000	0.322192
1994.000000	0.323210
1995.000000	0.323471
1996.000000	0.324214
1997.000000	0.324887
1998.000000	0.325186
1999.000000	0.325957
2000.000000	0.327338
2001.000000	0.328288
2002.000000	0.328801
2003.000000	0.329265
2004.000000	0.329735
2005.000000	0.329885
2006.000000	0.330374
2007.000000	0.331452
2008.000000	0.332159
2009.000000	0.332702
2010.000000	0.333376
2011.000000	0.333990
2012.000000	0.334381
2013.000000	0.334399
2014.000000	0.334823
2015.000000	0.335860
2016.000000	0.336207
2017.000000	0.336744
2018.000000	0.337671
2019.000000	0.337809
2020.000000	0.337959
2021.000000	0.338446
2022.000000	0.339201
2023.000000	0.339772
2024.000000	0.340330
2025.000000	0.341182
2026.000000	0.342211
2027.000000	0.342986
2028.000000	0.343550
2029.000000	0.343771
2030.000000	0.343462
2031.000000	0.343606
2032.000000	0.344285
2033.000000	0.345339
2034.000000	0.345513
2035.000000	0.345532
2036.000000	0.345361
2037.000000	0.344195
2038.000000	0.344115
2039.000000	0.344911
2040.000000	0.345161
2041.000000	0.345903
2042.000000	0.346616
2043.000000	0.347078
2044.000000	0.348109
2045.000000	0.348367
2046.000000	0.348338
2047.000000	0.348550
2048.000000	0.348320
2049.000000	0.348667
2050.000000	0.349212
2051.000000	0.349521
2052.000000	0.349505
2053.000000	0.349758
2054.000000	0.350422
2055.000000	0.350876
2056.000000	0.352023
2057.000000	0.352796
2058.000000	0.353298
2059.000000	0.354089
2060.000000	0.353977
2061.000000	0.353012
2062.000000	0.352829
2063.000000	0.352276
2064.000000	0.351887
2065.000000	0.352308
2066.000000	0.352435
2067.000000	0.352493
2068.000000	0.353175
2069.000000	0.353975
2070.000000	0.354698
2071.000000	0.354259
2072.000000	0.353942
2073.000000	0.354085
2074.000000	0.353701
2075.000000	0.353699
2076.000000	0.354421
2077.000000	0.354552
2078.000000	0.353938
2079.000000	0.354077
2080.000000	0.354700
2081.000000	0.355097
2082.000000	0.355602
2083.000000	0.356638
2084.000000	0.356648
2085.000000	0.356574
2086.000000	0.357140
2087.000000	0.357542
2088.000000	0.358221
2089.000000	0.358768
2090.000000	0.358603
2091.000000	0.357532
2092.000000	0.357041
2093.000000	0.356218
2094.000000	0.355808
2095.000000	0.355882
2096.000000	0.355815
2097.000000	0.355640
2098.000000	0.355612
2099.000000	0.355597
2100.000000	0.355910
2101.000000	0.355963
2102.000000	0.356089
2103.000000	0.356875
2104.000000	0.357068
2105.000000	0.357323
2106.000000	0.357803
2107.000000	0.358184
2108.000000	0.358169
2109.000000	0.358354
2110.000000	0.358655
2111.000000	0.358689
2112.000000	0.358046
2113.000000	0.358010
2114.000000	0.358571
2115.000000	0.358625
2116.000000	0.359143
2117.000000	0.359728
2118.000000	0.359594
2119.000000	0.359319
2120.000000	0.359122
2121.000000	0.358729
2122.000000	0.358611
2123.000000	0.358412
2124.000000	0.358636
2125.000000	0.359246
2126.000000	0.359419
2127.000000	0.360266
2128.000000	0.360392
2129.000000	0.359476
2130.000000	0.359173
2131.000000	0.359025
2132.000000	0.357920
2133.000000	0.358439
2134.000000	0.359544
2135.000000	0.359932
2136.000000	0.360727
2137.000000	0.360858
2138.000000	0.360341
2139.000000	0.359946
2140.000000	0.359189
2141.000000	0.358765
2142.000000	0.358034
2143.000000	0.357780
2144.000000	0.358444
2145.000000	0.358671
2146.000000	0.359212
2147.000000	0.359961
2148.000000	0.359096
2149.000000	0.358913
2150.000000	0.359103
2151.000000	0.358452
2152.000000	0.358714
2153.000000	0.359135
2154.000000	0.359029
2155.000000	0.358508
2156.000000	0.358317
2157.000000	0.358555
2158.000000	0.357786
2159.000000	0.356454
2160.000000	0.355583
2161.000000	0.353132
2162.000000	0.352714
2163.000000	0.354177
2164.000000	0.354801
2165.000000	0.355704
2166.000000	0.357587
2167.000000	0.357903
2168.000000	0.357554
2169.000000	0.357131
2170.000000	0.355599
2171.000000	0.354934
2172.000000	0.354174
2173.000000	0.353433
2174.000000	0.353199
2175.000000	0.352585
2176.000000	0.351364
2177.000000	0.351135
2178.000000	0.351432
2179.000000	0.351814
2180.000000	0.352889
2181.000000	0.353497
2182.000000	0.353486
2183.000000	0.353219
2184.000000	0.352284
2185.000000	0.351375
2186.000000	0.350979
2187.000000	0.351232
2188.000000	0.351040
2189.000000	0.349876
2190.000000	0.348127
2191.000000	0.346950
2192.000000	0.346259
2193.000000	0.346802
2194.000000	0.346454
2195.000000	0.346156
2196.000000	0.345505
2197.000000	0.343208
2198.000000	0.343092
2199.000000	0.344973
2200.000000	0.345834
2201.000000	0.348570
2202.000000	0.349621
2203.000000	0.349764
2204.000000	0.346855
2205.000000	0.344011
2206.000000	0.341972
2207.000000	0.338758
2208.000000	0.338058
2209.000000	0.339346
2210.000000	0.341449
2211.000000	0.346575
2212.000000	0.350893
2213.000000	0.353267
2214.000000	0.355612
2215.000000	0.355320
2216.000000	0.351419
2217.000000	0.349597
2218.000000	0.346058
2219.000000	0.345051
2220.000000	0.345401
2221.000000	0.346725
2222.000000	0.350743
2223.000000	0.352343
2224.000000	0.354343
2225.000000	0.355059
2226.000000	0.350809
2227.000000	0.348548
2228.000000	0.347690
2229.000000	0.343874
2230.000000	0.342134
2231.000000	0.343154
2232.000000	0.341973
2233.000000	0.341163
2234.000000	0.342831
2235.000000	0.343808
2236.000000	0.343701
2237.000000	0.343500
2238.000000	0.342812
2239.000000	0.339804
2240.000000	0.338905
2241.000000	0.339291
2242.000000	0.339583
2243.000000	0.339838
2244.000000	0.341307
2245.000000	0.343878
2246.000000	0.345561
2247.000000	0.349494
2248.000000	0.350604
2249.000000	0.349502
2250.000000	0.347974
2251.000000	0.347351
2252.000000	0.344228
2253.000000	0.343674
2254.000000	0.344998
2255.000000	0.345181
2256.000000	0.345758
2257.000000	0.346435
2258.000000	0.345688
2259.000000	0.343004
2260.000000	0.340320
2261.000000	0.337929
2262.000000	0.334918
2263.000000	0.332725
2264.000000	0.331493
2265.000000	0.329610
2266.000000	0.327164
2267.000000	0.324469
2268.000000	0.321359
2269.000000	0.319104
2270.000000	0.318131
2271.000000	0.314941
2272.000000	0.310961
2273.000000	0.307639
2274.000000	0.302012
2275.000000	0.298959
2276.000000	0.297906
2277.000000	0.296423
2278.000000	0.296021
2279.000000	0.294382
2280.000000	0.292524
2281.000000	0.290191
2282.000000	0.285942
2283.000000	0.283936
2284.000000	0.284040
2285.000000	0.283824
2286.000000	0.285814
2287.000000	0.287004
2288.000000	0.286102
2289.000000	0.287039
2290.000000	0.288925
2291.000000	0.291509
2292.000000	0.296081
2293.000000	0.300062
2294.000000	0.303461
2295.000000	0.307436
2296.000000	0.308900
2297.000000	0.308379
2298.000000	0.308159
2299.000000	0.305894
2300.000000	0.305575
2301.000000	0.306263
2302.000000	0.306915
2303.000000	0.307857
2304.000000	0.308391
2305.000000	0.308543
2306.000000	0.309895
2307.000000	0.311700
2308.000000	0.313913
2309.000000	0.318143
2310.000000	0.319716
2311.000000	0.320643
2312.000000	0.321947
2313.000000	0.318965
2314.000000	0.318223
2315.000000	0.318261
2316.000000	0.318687
2317.000000	0.320523
2318.000000	0.321047
2319.000000	0.322489
2320.000000	0.322151
2321.000000	0.322443
2322.000000	0.324492
2323.000000	0.325598
2324.000000	0.326390
2325.000000	0.327620
2326.000000	0.329125
2327.000000	0.327699
2328.000000	0.326137
2329.000000	0.325962
2330.000000	0.324077
2331.000000	0.322763
2332.000000	0.322830
2333.000000	0.320081
2334.000000	0.314447
2335.000000	0.312810
2336.000000	0.311995
2337.000000	0.312766
2338.000000	0.318606
2339.000000	0.320030
2340.000000	0.319689
2341.000000	0.319489
2342.000000	0.316566
2343.000000	0.315956
2344.000000	0.317513
2345.000000	0.317363
2346.000000	0.316277
2347.000000	0.315689
2348.000000	0.315784
2349.000000	0.313512
2350.000000	0.310662
2351.000000	0.308580
2352.000000	0.305702
2353.000000	0.303910
2354.000000	0.302291
2355.000000	0.302646
2356.000000	0.302264
2357.000000	0.301010
2358.000000	0.300812
2359.000000	0.301514
2360.000000	0.301629
2361.000000	0.303528
2362.000000	0.305170
2363.000000	0.303604
2364.000000	0.300862
2365.000000	0.295742
2366.000000	0.293516
2367.000000	0.295522
2368.000000	0.296646
2369.000000	0.299928
2370.000000	0.303340
2371.000000	0.302914
2372.000000	0.301311
2373.000000	0.300648
2374.000000	0.298089
2375.000000	0.295890
2376.000000	0.297766
2377.000000	0.294939
2378.000000	0.289820
2379.000000	0.286961
2380.000000	0.285579
2381.000000	0.288065
2382.000000	0.290202
2383.000000	0.292351
2384.000000	0.288094
2385.000000	0.281396
2386.000000	0.280945
2387.000000	0.276862
2388.000000	0.279220
2389.000000	0.286116
2390.000000	0.289300
2391.000000	0.294426
2392.000000	0.291844
2393.000000	0.282850
2394.000000	0.275185
2395.000000	0.270600
2396.000000	0.265039
2397.000000	0.263711
2398.000000	0.268035
2399.000000	0.263986
2400.000000	0.262899
2401.000000	0.265547
2402.000000	0.261514
2403.000000	0.259509
2404.000000	0.258217
2405.000000	0.256183
2406.000000	0.255082
2407.000000	0.259629
2408.000000	0.266675
2409.000000	0.269848
2410.000000	0.278617
2411.000000	0.281625
2412.000000	0.281258
2413.000000	0.285037
2414.000000	0.278763
2415.000000	0.268779
2416.000000	0.260283
2417.000000	0.253098
2418.000000	0.254518
2419.000000	0.260457
2420.000000	0.263349
2421.000000	0.267932
2422.000000	0.272772
2423.000000	0.271514
2424.000000	0.266114
2425.000000	0.264619
2426.000000	0.265529
2427.000000	0.255893
2428.000000	0.253989
2429.000000	0.255173
2430.000000	0.247604
2431.000000	0.253123
2432.000000	0.249605
2433.000000	0.242595
2434.000000	0.243293
2435.000000	0.241014
2436.000000	0.256192
2437.000000	0.266441
2438.000000	0.268909
2439.000000	0.269800
2440.000000	0.252750
2441.000000	0.241248
2442.000000	0.234237
2443.000000	0.228733
2444.000000	0.234690
2445.000000	0.241512
2446.000000	0.238822
2447.000000	0.231942
2448.000000	0.234638
2449.000000	0.234224
2450.000000	0.235703
2451.000000	0.242790
2452.000000	0.243184
2453.000000	0.247069
2454.000000	0.247915
2455.000000	0.252076
2456.000000	0.261076
2457.000000	0.263071
2458.000000	0.266785
2459.000000	0.266875
2460.000000	0.266689
2461.000000	0.265103
2462.000000	0.260800
2463.000000	0.254516
2464.000000	0.242432
2465.000000	0.239123
2466.000000	0.234837
2467.000000	0.235085
2468.000000	0.231693
2469.000000	0.219425
2470.000000	0.223233
2471.000000	0.216402
2472.000000	0.215688
2473.000000	0.214784
2474.000000	0.183325
2475.000000	0.173007
2476.000000	0.176739
2477.000000	0.149935
2478.000000	0.143125
2479.000000	0.162895
2480.000000	0.162173
2481.000000	0.163700
2482.000000	0.196342
2483.000000	0.223105
2484.000000	0.234376
2485.000000	0.311008
2486.000000	0.337414
2487.000000	0.296649
2488.000000	0.290402
2489.000000	0.202713
2490.000000	0.145118
2491.000000	0.139406
2492.000000	0.130557
2493.000000	0.197116
2494.000000	0.218184
2495.000000	0.220202
2496.000000	0.214419
2497.000000	0.139450
2498.000000	0.115153
2499.000000	0.122194
2500.000000	0.135563
