# Wavelength	NAu-1-50_HEX-30_FV7-20_00002.asd.rts.txt
350.000000	0.129456
351.000000	0.122897
352.000000	0.132259
353.000000	0.138846
354.000000	0.136823
355.000000	0.140003
356.000000	0.136879
357.000000	0.131650
358.000000	0.137932
359.000000	0.139760
360.000000	0.140639
361.000000	0.145277
362.000000	0.132753
363.000000	0.126522
364.000000	0.137339
365.000000	0.139578
366.000000	0.133196
367.000000	0.126965
368.000000	0.139391
369.000000	0.137407
370.000000	0.130385
371.000000	0.136636
372.000000	0.135468
373.000000	0.133884
374.000000	0.136657
375.000000	0.133426
376.000000	0.134550
377.000000	0.140153
378.000000	0.140986
379.000000	0.138526
380.000000	0.137243
381.000000	0.141735
382.000000	0.141025
383.000000	0.140372
384.000000	0.143450
385.000000	0.143990
386.000000	0.144023
387.000000	0.145340
388.000000	0.149803
389.000000	0.151131
390.000000	0.151296
391.000000	0.154492
392.000000	0.156364
393.000000	0.157049
394.000000	0.157382
395.000000	0.158000
396.000000	0.160254
397.000000	0.163530
398.000000	0.164722
399.000000	0.165221
400.000000	0.165994
401.000000	0.167808
402.000000	0.170240
403.000000	0.171614
404.000000	0.171231
405.000000	0.172250
406.000000	0.174224
407.000000	0.176624
408.000000	0.179125
409.000000	0.180550
410.000000	0.181074
411.000000	0.181686
412.000000	0.182869
413.000000	0.184319
414.000000	0.185590
415.000000	0.186880
416.000000	0.187160
417.000000	0.186606
418.000000	0.188380
419.000000	0.189506
420.000000	0.189352
421.000000	0.189086
422.000000	0.189484
423.000000	0.190170
424.000000	0.190408
425.000000	0.189783
426.000000	0.189366
427.000000	0.189826
428.000000	0.190203
429.000000	0.190403
430.000000	0.190379
431.000000	0.190049
432.000000	0.190012
433.000000	0.190249
434.000000	0.190514
435.000000	0.190538
436.000000	0.190317
437.000000	0.189950
438.000000	0.189770
439.000000	0.189591
440.000000	0.189354
441.000000	0.189021
442.000000	0.188598
443.000000	0.188153
444.000000	0.187940
445.000000	0.187647
446.000000	0.187630
447.000000	0.188172
448.000000	0.188689
449.000000	0.189642
450.000000	0.191240
451.000000	0.192691
452.000000	0.194402
453.000000	0.196517
454.000000	0.199110
455.000000	0.201840
456.000000	0.204615
457.000000	0.207325
458.000000	0.209978
459.000000	0.212501
460.000000	0.214833
461.000000	0.216729
462.000000	0.218729
463.000000	0.220760
464.000000	0.221969
465.000000	0.223340
466.000000	0.224934
467.000000	0.226362
468.000000	0.227245
469.000000	0.227766
470.000000	0.228447
471.000000	0.229660
472.000000	0.230695
473.000000	0.231183
474.000000	0.231768
475.000000	0.232313
476.000000	0.232954
477.000000	0.233816
478.000000	0.234421
479.000000	0.234995
480.000000	0.235698
481.000000	0.236053
482.000000	0.236700
483.000000	0.237849
484.000000	0.238286
485.000000	0.238743
486.000000	0.239632
487.000000	0.240160
488.000000	0.240512
489.000000	0.240953
490.000000	0.241835
491.000000	0.242646
492.000000	0.243281
493.000000	0.243698
494.000000	0.244530
495.000000	0.245281
496.000000	0.245663
497.000000	0.246476
498.000000	0.247308
499.000000	0.248065
500.000000	0.248852
501.000000	0.249447
502.000000	0.250045
503.000000	0.250925
504.000000	0.251720
505.000000	0.252421
506.000000	0.253117
507.000000	0.253950
508.000000	0.254852
509.000000	0.255751
510.000000	0.256729
511.000000	0.257650
512.000000	0.258489
513.000000	0.259248
514.000000	0.260155
515.000000	0.261144
516.000000	0.262018
517.000000	0.263021
518.000000	0.264069
519.000000	0.265018
520.000000	0.266072
521.000000	0.267081
522.000000	0.268016
523.000000	0.268998
524.000000	0.270117
525.000000	0.271290
526.000000	0.272377
527.000000	0.273544
528.000000	0.274681
529.000000	0.275717
530.000000	0.276813
531.000000	0.278038
532.000000	0.279288
533.000000	0.280400
534.000000	0.281556
535.000000	0.282792
536.000000	0.284055
537.000000	0.285275
538.000000	0.286495
539.000000	0.287783
540.000000	0.289017
541.000000	0.290223
542.000000	0.291469
543.000000	0.292683
544.000000	0.293892
545.000000	0.295060
546.000000	0.296282
547.000000	0.297544
548.000000	0.298815
549.000000	0.299933
550.000000	0.301115
551.000000	0.302358
552.000000	0.303553
553.000000	0.304780
554.000000	0.306004
555.000000	0.307205
556.000000	0.308438
557.000000	0.309530
558.000000	0.310610
559.000000	0.311807
560.000000	0.312832
561.000000	0.313841
562.000000	0.315025
563.000000	0.316141
564.000000	0.317217
565.000000	0.318200
566.000000	0.319145
567.000000	0.320037
568.000000	0.320856
569.000000	0.321666
570.000000	0.322442
571.000000	0.323197
572.000000	0.324012
573.000000	0.324776
574.000000	0.325460
575.000000	0.326127
576.000000	0.326778
577.000000	0.327368
578.000000	0.327952
579.000000	0.328586
580.000000	0.329203
581.000000	0.329740
582.000000	0.330137
583.000000	0.330504
584.000000	0.330926
585.000000	0.331485
586.000000	0.331856
587.000000	0.332147
588.000000	0.332538
589.000000	0.332907
590.000000	0.333209
591.000000	0.333439
592.000000	0.333670
593.000000	0.333944
594.000000	0.334215
595.000000	0.334334
596.000000	0.334510
597.000000	0.334722
598.000000	0.334770
599.000000	0.334862
600.000000	0.335049
601.000000	0.335227
602.000000	0.335271
603.000000	0.335331
604.000000	0.335460
605.000000	0.335488
606.000000	0.335564
607.000000	0.335669
608.000000	0.335681
609.000000	0.335745
610.000000	0.335848
611.000000	0.335943
612.000000	0.336034
613.000000	0.336137
614.000000	0.336280
615.000000	0.336346
616.000000	0.336332
617.000000	0.336268
618.000000	0.336349
619.000000	0.336384
620.000000	0.336368
621.000000	0.336419
622.000000	0.336368
623.000000	0.336312
624.000000	0.336340
625.000000	0.336330
626.000000	0.336369
627.000000	0.336479
628.000000	0.336557
629.000000	0.336708
630.000000	0.336785
631.000000	0.336832
632.000000	0.336912
633.000000	0.337037
634.000000	0.337179
635.000000	0.337333
636.000000	0.337465
637.000000	0.337567
638.000000	0.337760
639.000000	0.337924
640.000000	0.338078
641.000000	0.338170
642.000000	0.338294
643.000000	0.338450
644.000000	0.338610
645.000000	0.338751
646.000000	0.338908
647.000000	0.339075
648.000000	0.339212
649.000000	0.339400
650.000000	0.339622
651.000000	0.339792
652.000000	0.340036
653.000000	0.340345
654.000000	0.340564
655.000000	0.340852
656.000000	0.341167
657.000000	0.341395
658.000000	0.341648
659.000000	0.341893
660.000000	0.342102
661.000000	0.342333
662.000000	0.342526
663.000000	0.342754
664.000000	0.343054
665.000000	0.343421
666.000000	0.343798
667.000000	0.344094
668.000000	0.344355
669.000000	0.344689
670.000000	0.345113
671.000000	0.345395
672.000000	0.345719
673.000000	0.346100
674.000000	0.346451
675.000000	0.346781
676.000000	0.347134
677.000000	0.347567
678.000000	0.347978
679.000000	0.348363
680.000000	0.348746
681.000000	0.349154
682.000000	0.349608
683.000000	0.350012
684.000000	0.350400
685.000000	0.350813
686.000000	0.351269
687.000000	0.351713
688.000000	0.352145
689.000000	0.352575
690.000000	0.353046
691.000000	0.353536
692.000000	0.353977
693.000000	0.354436
694.000000	0.354931
695.000000	0.355407
696.000000	0.355858
697.000000	0.356306
698.000000	0.356814
699.000000	0.357343
700.000000	0.357851
701.000000	0.358315
702.000000	0.358772
703.000000	0.359235
704.000000	0.359745
705.000000	0.360337
706.000000	0.360929
707.000000	0.361498
708.000000	0.362052
709.000000	0.362560
710.000000	0.363041
711.000000	0.363603
712.000000	0.364124
713.000000	0.364611
714.000000	0.365189
715.000000	0.365802
716.000000	0.366386
717.000000	0.366854
718.000000	0.367406
719.000000	0.367948
720.000000	0.368405
721.000000	0.368885
722.000000	0.369295
723.000000	0.369714
724.000000	0.370255
725.000000	0.370709
726.000000	0.371192
727.000000	0.371738
728.000000	0.372203
729.000000	0.372651
730.000000	0.373087
731.000000	0.373526
732.000000	0.373918
733.000000	0.374307
734.000000	0.374729
735.000000	0.375096
736.000000	0.375520
737.000000	0.375883
738.000000	0.376228
739.000000	0.376662
740.000000	0.377047
741.000000	0.377457
742.000000	0.377921
743.000000	0.378360
744.000000	0.378673
745.000000	0.378908
746.000000	0.379179
747.000000	0.379490
748.000000	0.379834
749.000000	0.380118
750.000000	0.380277
751.000000	0.380492
752.000000	0.380774
753.000000	0.381075
754.000000	0.381253
755.000000	0.381396
756.000000	0.381587
757.000000	0.381818
758.000000	0.381959
759.000000	0.382086
760.000000	0.382174
761.000000	0.382297
762.000000	0.382419
763.000000	0.382519
764.000000	0.382678
765.000000	0.382762
766.000000	0.382801
767.000000	0.382842
768.000000	0.382899
769.000000	0.382951
770.000000	0.383003
771.000000	0.383083
772.000000	0.383147
773.000000	0.383097
774.000000	0.382993
775.000000	0.382943
776.000000	0.382895
777.000000	0.382790
778.000000	0.382708
779.000000	0.382619
780.000000	0.382516
781.000000	0.382391
782.000000	0.382284
783.000000	0.382291
784.000000	0.382262
785.000000	0.382130
786.000000	0.381955
787.000000	0.381768
788.000000	0.381546
789.000000	0.381358
790.000000	0.381170
791.000000	0.380958
792.000000	0.380725
793.000000	0.380496
794.000000	0.380280
795.000000	0.379978
796.000000	0.379723
797.000000	0.379492
798.000000	0.379115
799.000000	0.378833
800.000000	0.378626
801.000000	0.378399
802.000000	0.378127
803.000000	0.377874
804.000000	0.377677
805.000000	0.377349
806.000000	0.377021
807.000000	0.376759
808.000000	0.376425
809.000000	0.376124
810.000000	0.375860
811.000000	0.375568
812.000000	0.375080
813.000000	0.374662
814.000000	0.374370
815.000000	0.374100
816.000000	0.373699
817.000000	0.373328
818.000000	0.373054
819.000000	0.372756
820.000000	0.372467
821.000000	0.372153
822.000000	0.371868
823.000000	0.371581
824.000000	0.371186
825.000000	0.370732
826.000000	0.370408
827.000000	0.370071
828.000000	0.369693
829.000000	0.369367
830.000000	0.369060
831.000000	0.368750
832.000000	0.368239
833.000000	0.367882
834.000000	0.367571
835.000000	0.367238
836.000000	0.367001
837.000000	0.366695
838.000000	0.366325
839.000000	0.365973
840.000000	0.365663
841.000000	0.365350
842.000000	0.364972
843.000000	0.364724
844.000000	0.364337
845.000000	0.363833
846.000000	0.363647
847.000000	0.363342
848.000000	0.362950
849.000000	0.362660
850.000000	0.362481
851.000000	0.362201
852.000000	0.361818
853.000000	0.361503
854.000000	0.361125
855.000000	0.360843
856.000000	0.360640
857.000000	0.360403
858.000000	0.360114
859.000000	0.359698
860.000000	0.359246
861.000000	0.358880
862.000000	0.358630
863.000000	0.358386
864.000000	0.358194
865.000000	0.357939
866.000000	0.357628
867.000000	0.357414
868.000000	0.357200
869.000000	0.356861
870.000000	0.356424
871.000000	0.356041
872.000000	0.355725
873.000000	0.355414
874.000000	0.355193
875.000000	0.354932
876.000000	0.354662
877.000000	0.354388
878.000000	0.354034
879.000000	0.353701
880.000000	0.353344
881.000000	0.353194
882.000000	0.353001
883.000000	0.352781
884.000000	0.352567
885.000000	0.352278
886.000000	0.352004
887.000000	0.351805
888.000000	0.351550
889.000000	0.351271
890.000000	0.350904
891.000000	0.350624
892.000000	0.350397
893.000000	0.350188
894.000000	0.350094
895.000000	0.349964
896.000000	0.349797
897.000000	0.349582
898.000000	0.349320
899.000000	0.349056
900.000000	0.348814
901.000000	0.348570
902.000000	0.348394
903.000000	0.348177
904.000000	0.348020
905.000000	0.347920
906.000000	0.347839
907.000000	0.347673
908.000000	0.347480
909.000000	0.347293
910.000000	0.347231
911.000000	0.347175
912.000000	0.347010
913.000000	0.346741
914.000000	0.346606
915.000000	0.346590
916.000000	0.346309
917.000000	0.346131
918.000000	0.346058
919.000000	0.346001
920.000000	0.345910
921.000000	0.345773
922.000000	0.345649
923.000000	0.345589
924.000000	0.345505
925.000000	0.345446
926.000000	0.345408
927.000000	0.345131
928.000000	0.344838
929.000000	0.344586
930.000000	0.344398
931.000000	0.344404
932.000000	0.344267
933.000000	0.344033
934.000000	0.344048
935.000000	0.343837
936.000000	0.343662
937.000000	0.343651
938.000000	0.343468
939.000000	0.343534
940.000000	0.343617
941.000000	0.343346
942.000000	0.343280
943.000000	0.343267
944.000000	0.343084
945.000000	0.343036
946.000000	0.343101
947.000000	0.343108
948.000000	0.342855
949.000000	0.342789
950.000000	0.342700
951.000000	0.342516
952.000000	0.342463
953.000000	0.342560
954.000000	0.342539
955.000000	0.342236
956.000000	0.342230
957.000000	0.342091
958.000000	0.341900
959.000000	0.342028
960.000000	0.342155
961.000000	0.342157
962.000000	0.342038
963.000000	0.342004
964.000000	0.342087
965.000000	0.342224
966.000000	0.342235
967.000000	0.342284
968.000000	0.342223
969.000000	0.342071
970.000000	0.342049
971.000000	0.341913
972.000000	0.341901
973.000000	0.342032
974.000000	0.342229
975.000000	0.342172
976.000000	0.342061
977.000000	0.342104
978.000000	0.342189
979.000000	0.342445
980.000000	0.342505
981.000000	0.342442
982.000000	0.342626
983.000000	0.342627
984.000000	0.342547
985.000000	0.342871
986.000000	0.342986
987.000000	0.342987
988.000000	0.342911
989.000000	0.342818
990.000000	0.343047
991.000000	0.343443
992.000000	0.343695
993.000000	0.343439
994.000000	0.343384
995.000000	0.343720
996.000000	0.343786
997.000000	0.344050
998.000000	0.344129
999.000000	0.344135
1000.000000	0.344717
1001.000000	0.344751
1002.000000	0.344246
1003.000000	0.343984
1004.000000	0.344123
1005.000000	0.344180
1006.000000	0.344509
1007.000000	0.345658
1008.000000	0.346321
1009.000000	0.346554
1010.000000	0.345960
1011.000000	0.346080
1012.000000	0.346613
1013.000000	0.345830
1014.000000	0.345685
1015.000000	0.346298
1016.000000	0.346643
1017.000000	0.347020
1018.000000	0.347421
1019.000000	0.347880
1020.000000	0.348120
1021.000000	0.347986
1022.000000	0.348398
1023.000000	0.348720
1024.000000	0.348530
1025.000000	0.348085
1026.000000	0.348283
1027.000000	0.348660
1028.000000	0.348805
1029.000000	0.349113
1030.000000	0.349275
1031.000000	0.349085
1032.000000	0.349864
1033.000000	0.350923
1034.000000	0.351587
1035.000000	0.352734
1036.000000	0.353217
1037.000000	0.352921
1038.000000	0.352927
1039.000000	0.352910
1040.000000	0.353020
1041.000000	0.353672
1042.000000	0.354269
1043.000000	0.354907
1044.000000	0.355662
1045.000000	0.356276
1046.000000	0.356504
1047.000000	0.356793
1048.000000	0.357043
1049.000000	0.357315
1050.000000	0.357440
1051.000000	0.357604
1052.000000	0.357835
1053.000000	0.358022
1054.000000	0.358126
1055.000000	0.358632
1056.000000	0.359563
1057.000000	0.360217
1058.000000	0.360948
1059.000000	0.361321
1060.000000	0.361633
1061.000000	0.362003
1062.000000	0.362057
1063.000000	0.362690
1064.000000	0.363220
1065.000000	0.363725
1066.000000	0.364155
1067.000000	0.364602
1068.000000	0.365040
1069.000000	0.365204
1070.000000	0.365649
1071.000000	0.366669
1072.000000	0.367155
1073.000000	0.367389
1074.000000	0.367874
1075.000000	0.367971
1076.000000	0.367896
1077.000000	0.368551
1078.000000	0.369200
1079.000000	0.369651
1080.000000	0.370342
1081.000000	0.370772
1082.000000	0.370767
1083.000000	0.371220
1084.000000	0.372015
1085.000000	0.372616
1086.000000	0.373304
1087.000000	0.373982
1088.000000	0.374557
1089.000000	0.374908
1090.000000	0.375045
1091.000000	0.375332
1092.000000	0.375073
1093.000000	0.375565
1094.000000	0.376115
1095.000000	0.376835
1096.000000	0.377578
1097.000000	0.378647
1098.000000	0.379447
1099.000000	0.380221
1100.000000	0.380906
1101.000000	0.381388
1102.000000	0.381898
1103.000000	0.382278
1104.000000	0.382725
1105.000000	0.383263
1106.000000	0.383634
1107.000000	0.383694
1108.000000	0.384027
1109.000000	0.384290
1110.000000	0.384955
1111.000000	0.385496
1112.000000	0.386249
1113.000000	0.386890
1114.000000	0.387431
1115.000000	0.388109
1116.000000	0.389016
1117.000000	0.389643
1118.000000	0.390228
1119.000000	0.390611
1120.000000	0.390614
1121.000000	0.390940
1122.000000	0.391514
1123.000000	0.392124
1124.000000	0.392564
1125.000000	0.393097
1126.000000	0.393520
1127.000000	0.393873
1128.000000	0.394216
1129.000000	0.394651
1130.000000	0.395118
1131.000000	0.395619
1132.000000	0.395909
1133.000000	0.396190
1134.000000	0.396618
1135.000000	0.396875
1136.000000	0.397193
1137.000000	0.397714
1138.000000	0.398089
1139.000000	0.398477
1140.000000	0.398861
1141.000000	0.399086
1142.000000	0.399497
1143.000000	0.399936
1144.000000	0.400376
1145.000000	0.400641
1146.000000	0.400946
1147.000000	0.401326
1148.000000	0.401441
1149.000000	0.401872
1150.000000	0.402762
1151.000000	0.403137
1152.000000	0.403223
1153.000000	0.403460
1154.000000	0.403364
1155.000000	0.403600
1156.000000	0.404189
1157.000000	0.404576
1158.000000	0.404890
1159.000000	0.405224
1160.000000	0.405386
1161.000000	0.405687
1162.000000	0.406157
1163.000000	0.406881
1164.000000	0.407155
1165.000000	0.407438
1166.000000	0.407714
1167.000000	0.407716
1168.000000	0.407885
1169.000000	0.408245
1170.000000	0.408482
1171.000000	0.408720
1172.000000	0.408954
1173.000000	0.409086
1174.000000	0.409335
1175.000000	0.409518
1176.000000	0.409777
1177.000000	0.410288
1178.000000	0.410668
1179.000000	0.411045
1180.000000	0.411337
1181.000000	0.411714
1182.000000	0.411970
1183.000000	0.412231
1184.000000	0.412470
1185.000000	0.412720
1186.000000	0.412933
1187.000000	0.413167
1188.000000	0.413475
1189.000000	0.413645
1190.000000	0.413732
1191.000000	0.413908
1192.000000	0.414188
1193.000000	0.414568
1194.000000	0.414949
1195.000000	0.415280
1196.000000	0.415517
1197.000000	0.415736
1198.000000	0.415881
1199.000000	0.416133
1200.000000	0.416375
1201.000000	0.416768
1202.000000	0.417106
1203.000000	0.417314
1204.000000	0.417433
1205.000000	0.417574
1206.000000	0.417711
1207.000000	0.418039
1208.000000	0.418123
1209.000000	0.418143
1210.000000	0.418280
1211.000000	0.418349
1212.000000	0.418458
1213.000000	0.418693
1214.000000	0.418980
1215.000000	0.419331
1216.000000	0.419525
1217.000000	0.419681
1218.000000	0.419861
1219.000000	0.419932
1220.000000	0.420065
1221.000000	0.420402
1222.000000	0.420634
1223.000000	0.420904
1224.000000	0.421115
1225.000000	0.421104
1226.000000	0.421155
1227.000000	0.421199
1228.000000	0.421286
1229.000000	0.421336
1230.000000	0.421506
1231.000000	0.421525
1232.000000	0.421474
1233.000000	0.421702
1234.000000	0.422134
1235.000000	0.422287
1236.000000	0.422290
1237.000000	0.422436
1238.000000	0.422353
1239.000000	0.422414
1240.000000	0.422677
1241.000000	0.422850
1242.000000	0.422910
1243.000000	0.423115
1244.000000	0.423318
1245.000000	0.423502
1246.000000	0.423605
1247.000000	0.423767
1248.000000	0.423932
1249.000000	0.424093
1250.000000	0.424285
1251.000000	0.424403
1252.000000	0.424517
1253.000000	0.424670
1254.000000	0.424723
1255.000000	0.424709
1256.000000	0.424708
1257.000000	0.424595
1258.000000	0.424638
1259.000000	0.424669
1260.000000	0.424845
1261.000000	0.425068
1262.000000	0.425264
1263.000000	0.425583
1264.000000	0.425806
1265.000000	0.425918
1266.000000	0.425998
1267.000000	0.425955
1268.000000	0.425895
1269.000000	0.426003
1270.000000	0.426139
1271.000000	0.426160
1272.000000	0.426327
1273.000000	0.426450
1274.000000	0.426474
1275.000000	0.426541
1276.000000	0.426727
1277.000000	0.426892
1278.000000	0.426952
1279.000000	0.426977
1280.000000	0.426942
1281.000000	0.426828
1282.000000	0.426556
1283.000000	0.426559
1284.000000	0.426616
1285.000000	0.426621
1286.000000	0.426634
1287.000000	0.426787
1288.000000	0.426781
1289.000000	0.426737
1290.000000	0.426802
1291.000000	0.426734
1292.000000	0.426658
1293.000000	0.426626
1294.000000	0.426665
1295.000000	0.426741
1296.000000	0.426606
1297.000000	0.426641
1298.000000	0.426805
1299.000000	0.426704
1300.000000	0.426795
1301.000000	0.427011
1302.000000	0.427051
1303.000000	0.427123
1304.000000	0.427118
1305.000000	0.427255
1306.000000	0.427140
1307.000000	0.426837
1308.000000	0.426806
1309.000000	0.426734
1310.000000	0.426697
1311.000000	0.426912
1312.000000	0.426946
1313.000000	0.426732
1314.000000	0.426553
1315.000000	0.426163
1316.000000	0.425942
1317.000000	0.425986
1318.000000	0.426017
1319.000000	0.426096
1320.000000	0.426048
1321.000000	0.425726
1322.000000	0.425512
1323.000000	0.425445
1324.000000	0.425386
1325.000000	0.425272
1326.000000	0.425147
1327.000000	0.425014
1328.000000	0.424866
1329.000000	0.424662
1330.000000	0.424443
1331.000000	0.424374
1332.000000	0.424491
1333.000000	0.424396
1334.000000	0.424392
1335.000000	0.424343
1336.000000	0.424003
1337.000000	0.423812
1338.000000	0.423666
1339.000000	0.423636
1340.000000	0.423390
1341.000000	0.423343
1342.000000	0.423246
1343.000000	0.423017
1344.000000	0.422998
1345.000000	0.422870
1346.000000	0.422703
1347.000000	0.422501
1348.000000	0.422289
1349.000000	0.421969
1350.000000	0.421814
1351.000000	0.421649
1352.000000	0.421361
1353.000000	0.421212
1354.000000	0.421048
1355.000000	0.420730
1356.000000	0.420459
1357.000000	0.420065
1358.000000	0.419778
1359.000000	0.419705
1360.000000	0.419550
1361.000000	0.419492
1362.000000	0.419360
1363.000000	0.419192
1364.000000	0.418908
1365.000000	0.418586
1366.000000	0.418272
1367.000000	0.417813
1368.000000	0.417369
1369.000000	0.417294
1370.000000	0.416937
1371.000000	0.416574
1372.000000	0.416237
1373.000000	0.415654
1374.000000	0.415109
1375.000000	0.414488
1376.000000	0.413830
1377.000000	0.413281
1378.000000	0.412688
1379.000000	0.412022
1380.000000	0.411434
1381.000000	0.410635
1382.000000	0.409742
1383.000000	0.408870
1384.000000	0.407638
1385.000000	0.406385
1386.000000	0.405110
1387.000000	0.403750
1388.000000	0.402509
1389.000000	0.401198
1390.000000	0.399951
1391.000000	0.398662
1392.000000	0.397303
1393.000000	0.395826
1394.000000	0.394304
1395.000000	0.392745
1396.000000	0.391083
1397.000000	0.389438
1398.000000	0.387814
1399.000000	0.386055
1400.000000	0.384098
1401.000000	0.382284
1402.000000	0.380494
1403.000000	0.378740
1404.000000	0.377203
1405.000000	0.375487
1406.000000	0.373568
1407.000000	0.371844
1408.000000	0.370027
1409.000000	0.368289
1410.000000	0.366868
1411.000000	0.365383
1412.000000	0.363891
1413.000000	0.362694
1414.000000	0.361539
1415.000000	0.360450
1416.000000	0.359557
1417.000000	0.358770
1418.000000	0.357923
1419.000000	0.357197
1420.000000	0.356609
1421.000000	0.356123
1422.000000	0.355696
1423.000000	0.355303
1424.000000	0.354638
1425.000000	0.353757
1426.000000	0.352703
1427.000000	0.351753
1428.000000	0.350893
1429.000000	0.350022
1430.000000	0.349390
1431.000000	0.348826
1432.000000	0.348283
1433.000000	0.347818
1434.000000	0.347542
1435.000000	0.347346
1436.000000	0.347415
1437.000000	0.347727
1438.000000	0.348111
1439.000000	0.348691
1440.000000	0.349363
1441.000000	0.350297
1442.000000	0.351177
1443.000000	0.352029
1444.000000	0.353008
1445.000000	0.353851
1446.000000	0.354562
1447.000000	0.355420
1448.000000	0.356175
1449.000000	0.356855
1450.000000	0.357333
1451.000000	0.357495
1452.000000	0.357623
1453.000000	0.357748
1454.000000	0.357748
1455.000000	0.357838
1456.000000	0.357903
1457.000000	0.357890
1458.000000	0.357970
1459.000000	0.358019
1460.000000	0.358052
1461.000000	0.358012
1462.000000	0.357914
1463.000000	0.357778
1464.000000	0.357706
1465.000000	0.357735
1466.000000	0.357814
1467.000000	0.358158
1468.000000	0.358440
1469.000000	0.358672
1470.000000	0.358938
1471.000000	0.359211
1472.000000	0.359458
1473.000000	0.359857
1474.000000	0.360370
1475.000000	0.360740
1476.000000	0.361040
1477.000000	0.361471
1478.000000	0.361892
1479.000000	0.362299
1480.000000	0.362865
1481.000000	0.363376
1482.000000	0.363966
1483.000000	0.364469
1484.000000	0.364892
1485.000000	0.365402
1486.000000	0.365870
1487.000000	0.366433
1488.000000	0.367180
1489.000000	0.367838
1490.000000	0.368338
1491.000000	0.368900
1492.000000	0.369418
1493.000000	0.369902
1494.000000	0.370280
1495.000000	0.370747
1496.000000	0.371215
1497.000000	0.371721
1498.000000	0.372341
1499.000000	0.372894
1500.000000	0.373363
1501.000000	0.373802
1502.000000	0.374169
1503.000000	0.374563
1504.000000	0.375035
1505.000000	0.375497
1506.000000	0.375903
1507.000000	0.376344
1508.000000	0.376797
1509.000000	0.377070
1510.000000	0.377369
1511.000000	0.377661
1512.000000	0.377849
1513.000000	0.378085
1514.000000	0.378299
1515.000000	0.378553
1516.000000	0.378850
1517.000000	0.379114
1518.000000	0.379415
1519.000000	0.379563
1520.000000	0.379667
1521.000000	0.379776
1522.000000	0.380001
1523.000000	0.380258
1524.000000	0.380506
1525.000000	0.380784
1526.000000	0.380884
1527.000000	0.380983
1528.000000	0.381136
1529.000000	0.381288
1530.000000	0.381411
1531.000000	0.381671
1532.000000	0.382003
1533.000000	0.382163
1534.000000	0.382333
1535.000000	0.382560
1536.000000	0.382610
1537.000000	0.382836
1538.000000	0.383226
1539.000000	0.383394
1540.000000	0.383557
1541.000000	0.383840
1542.000000	0.383900
1543.000000	0.383962
1544.000000	0.384190
1545.000000	0.384328
1546.000000	0.384463
1547.000000	0.384563
1548.000000	0.384633
1549.000000	0.384694
1550.000000	0.384649
1551.000000	0.384718
1552.000000	0.384812
1553.000000	0.384742
1554.000000	0.384754
1555.000000	0.384895
1556.000000	0.385053
1557.000000	0.385167
1558.000000	0.385261
1559.000000	0.385300
1560.000000	0.385292
1561.000000	0.385215
1562.000000	0.385237
1563.000000	0.385349
1564.000000	0.385452
1565.000000	0.385613
1566.000000	0.385598
1567.000000	0.385601
1568.000000	0.385630
1569.000000	0.385704
1570.000000	0.385756
1571.000000	0.385785
1572.000000	0.385865
1573.000000	0.385971
1574.000000	0.386012
1575.000000	0.386101
1576.000000	0.386208
1577.000000	0.386246
1578.000000	0.386290
1579.000000	0.386445
1580.000000	0.386545
1581.000000	0.386667
1582.000000	0.386750
1583.000000	0.386850
1584.000000	0.386853
1585.000000	0.386833
1586.000000	0.386891
1587.000000	0.386994
1588.000000	0.387049
1589.000000	0.387141
1590.000000	0.387178
1591.000000	0.387135
1592.000000	0.387145
1593.000000	0.387235
1594.000000	0.387285
1595.000000	0.387398
1596.000000	0.387474
1597.000000	0.387544
1598.000000	0.387573
1599.000000	0.387628
1600.000000	0.387603
1601.000000	0.387648
1602.000000	0.387601
1603.000000	0.387458
1604.000000	0.387420
1605.000000	0.387390
1606.000000	0.387427
1607.000000	0.387680
1608.000000	0.387740
1609.000000	0.387793
1610.000000	0.387857
1611.000000	0.387875
1612.000000	0.387918
1613.000000	0.388118
1614.000000	0.388206
1615.000000	0.388301
1616.000000	0.388413
1617.000000	0.388450
1618.000000	0.388561
1619.000000	0.388672
1620.000000	0.388780
1621.000000	0.388962
1622.000000	0.389159
1623.000000	0.389285
1624.000000	0.389498
1625.000000	0.389644
1626.000000	0.389719
1627.000000	0.389787
1628.000000	0.389927
1629.000000	0.390065
1630.000000	0.390184
1631.000000	0.390276
1632.000000	0.390295
1633.000000	0.390199
1634.000000	0.390243
1635.000000	0.390366
1636.000000	0.390518
1637.000000	0.390766
1638.000000	0.390935
1639.000000	0.391239
1640.000000	0.391381
1641.000000	0.391449
1642.000000	0.391666
1643.000000	0.391924
1644.000000	0.392095
1645.000000	0.392396
1646.000000	0.392479
1647.000000	0.392354
1648.000000	0.392371
1649.000000	0.392489
1650.000000	0.392640
1651.000000	0.392910
1652.000000	0.393204
1653.000000	0.393513
1654.000000	0.393721
1655.000000	0.393821
1656.000000	0.393847
1657.000000	0.393888
1658.000000	0.393906
1659.000000	0.394009
1660.000000	0.394175
1661.000000	0.394189
1662.000000	0.394328
1663.000000	0.394584
1664.000000	0.394652
1665.000000	0.394665
1666.000000	0.394858
1667.000000	0.394914
1668.000000	0.395026
1669.000000	0.395287
1670.000000	0.395234
1671.000000	0.395092
1672.000000	0.395234
1673.000000	0.395300
1674.000000	0.395725
1675.000000	0.396139
1676.000000	0.396256
1677.000000	0.396356
1678.000000	0.396375
1679.000000	0.396376
1680.000000	0.396507
1681.000000	0.396676
1682.000000	0.396814
1683.000000	0.396875
1684.000000	0.396941
1685.000000	0.397189
1686.000000	0.397368
1687.000000	0.397480
1688.000000	0.397416
1689.000000	0.397347
1690.000000	0.397359
1691.000000	0.397496
1692.000000	0.397624
1693.000000	0.397650
1694.000000	0.397573
1695.000000	0.397502
1696.000000	0.397599
1697.000000	0.397596
1698.000000	0.397670
1699.000000	0.397739
1700.000000	0.397754
1701.000000	0.397869
1702.000000	0.397816
1703.000000	0.397729
1704.000000	0.397670
1705.000000	0.397696
1706.000000	0.397836
1707.000000	0.397948
1708.000000	0.398121
1709.000000	0.398154
1710.000000	0.398213
1711.000000	0.398231
1712.000000	0.398226
1713.000000	0.398193
1714.000000	0.398021
1715.000000	0.398138
1716.000000	0.398535
1717.000000	0.398663
1718.000000	0.398805
1719.000000	0.398880
1720.000000	0.398763
1721.000000	0.398762
1722.000000	0.398926
1723.000000	0.398950
1724.000000	0.398862
1725.000000	0.398897
1726.000000	0.398799
1727.000000	0.398867
1728.000000	0.399081
1729.000000	0.399017
1730.000000	0.399047
1731.000000	0.399044
1732.000000	0.398887
1733.000000	0.398891
1734.000000	0.398809
1735.000000	0.398856
1736.000000	0.398908
1737.000000	0.398976
1738.000000	0.399219
1739.000000	0.399264
1740.000000	0.399158
1741.000000	0.399137
1742.000000	0.399070
1743.000000	0.399204
1744.000000	0.399450
1745.000000	0.399519
1746.000000	0.399623
1747.000000	0.399434
1748.000000	0.399351
1749.000000	0.399429
1750.000000	0.399367
1751.000000	0.399441
1752.000000	0.399604
1753.000000	0.399550
1754.000000	0.399520
1755.000000	0.399467
1756.000000	0.399441
1757.000000	0.399381
1758.000000	0.399380
1759.000000	0.399496
1760.000000	0.399498
1761.000000	0.399335
1762.000000	0.399284
1763.000000	0.399288
1764.000000	0.399255
1765.000000	0.399196
1766.000000	0.399219
1767.000000	0.399104
1768.000000	0.399074
1769.000000	0.399335
1770.000000	0.399471
1771.000000	0.399591
1772.000000	0.399517
1773.000000	0.399138
1774.000000	0.399065
1775.000000	0.399083
1776.000000	0.399070
1777.000000	0.399196
1778.000000	0.399225
1779.000000	0.399097
1780.000000	0.399078
1781.000000	0.399042
1782.000000	0.399221
1783.000000	0.399587
1784.000000	0.399821
1785.000000	0.399953
1786.000000	0.400026
1787.000000	0.400136
1788.000000	0.400305
1789.000000	0.400348
1790.000000	0.400341
1791.000000	0.400319
1792.000000	0.400527
1793.000000	0.400653
1794.000000	0.400703
1795.000000	0.400776
1796.000000	0.400870
1797.000000	0.400888
1798.000000	0.400781
1799.000000	0.400780
1800.000000	0.400882
1801.000000	0.401182
1802.000000	0.400968
1803.000000	0.400293
1804.000000	0.400743
1805.000000	0.402039
1806.000000	0.402893
1807.000000	0.404861
1808.000000	0.405571
1809.000000	0.405856
1810.000000	0.405247
1811.000000	0.404494
1812.000000	0.402320
1813.000000	0.402290
1814.000000	0.402941
1815.000000	0.403328
1816.000000	0.405565
1817.000000	0.405906
1818.000000	0.404857
1819.000000	0.404315
1820.000000	0.403878
1821.000000	0.403161
1822.000000	0.403118
1823.000000	0.403957
1824.000000	0.403788
1825.000000	0.403238
1826.000000	0.403087
1827.000000	0.402514
1828.000000	0.402102
1829.000000	0.402199
1830.000000	0.402048
1831.000000	0.402167
1832.000000	0.402501
1833.000000	0.402350
1834.000000	0.402347
1835.000000	0.402000
1836.000000	0.400749
1837.000000	0.400201
1838.000000	0.399828
1839.000000	0.399284
1840.000000	0.399112
1841.000000	0.398539
1842.000000	0.398314
1843.000000	0.398129
1844.000000	0.398130
1845.000000	0.398528
1846.000000	0.398525
1847.000000	0.398277
1848.000000	0.397725
1849.000000	0.397362
1850.000000	0.396707
1851.000000	0.396386
1852.000000	0.396352
1853.000000	0.396124
1854.000000	0.395817
1855.000000	0.395142
1856.000000	0.394024
1857.000000	0.393169
1858.000000	0.391957
1859.000000	0.390958
1860.000000	0.390498
1861.000000	0.389047
1862.000000	0.387737
1863.000000	0.386437
1864.000000	0.385196
1865.000000	0.383902
1866.000000	0.382483
1867.000000	0.381391
1868.000000	0.379161
1869.000000	0.376743
1870.000000	0.374959
1871.000000	0.372996
1872.000000	0.371412
1873.000000	0.369543
1874.000000	0.367575
1875.000000	0.365700
1876.000000	0.363684
1877.000000	0.361002
1878.000000	0.358636
1879.000000	0.355433
1880.000000	0.351491
1881.000000	0.347563
1882.000000	0.343118
1883.000000	0.338583
1884.000000	0.334607
1885.000000	0.330958
1886.000000	0.326811
1887.000000	0.322811
1888.000000	0.318485
1889.000000	0.313381
1890.000000	0.307973
1891.000000	0.303023
1892.000000	0.298231
1893.000000	0.293014
1894.000000	0.287928
1895.000000	0.282912
1896.000000	0.277903
1897.000000	0.272947
1898.000000	0.268041
1899.000000	0.262874
1900.000000	0.257729
1901.000000	0.252453
1902.000000	0.248321
1903.000000	0.245452
1904.000000	0.242329
1905.000000	0.239357
1906.000000	0.236374
1907.000000	0.233266
1908.000000	0.230019
1909.000000	0.227907
1910.000000	0.226632
1911.000000	0.225379
1912.000000	0.224539
1913.000000	0.223803
1914.000000	0.222539
1915.000000	0.221635
1916.000000	0.221197
1917.000000	0.220447
1918.000000	0.219623
1919.000000	0.219035
1920.000000	0.218825
1921.000000	0.218262
1922.000000	0.217979
1923.000000	0.218286
1924.000000	0.218253
1925.000000	0.218589
1926.000000	0.218994
1927.000000	0.219471
1928.000000	0.220065
1929.000000	0.220913
1930.000000	0.221318
1931.000000	0.221933
1932.000000	0.222670
1933.000000	0.223028
1934.000000	0.223952
1935.000000	0.224850
1936.000000	0.225278
1937.000000	0.225738
1938.000000	0.225237
1939.000000	0.225198
1940.000000	0.225059
1941.000000	0.225698
1942.000000	0.226187
1943.000000	0.226494
1944.000000	0.226525
1945.000000	0.226051
1946.000000	0.225213
1947.000000	0.225291
1948.000000	0.225523
1949.000000	0.225262
1950.000000	0.225413
1951.000000	0.225534
1952.000000	0.225632
1953.000000	0.225671
1954.000000	0.226273
1955.000000	0.226943
1956.000000	0.227140
1957.000000	0.227108
1958.000000	0.227073
1959.000000	0.227122
1960.000000	0.227269
1961.000000	0.227516
1962.000000	0.227687
1963.000000	0.228076
1964.000000	0.227880
1965.000000	0.227314
1966.000000	0.227488
1967.000000	0.227734
1968.000000	0.227951
1969.000000	0.228564
1970.000000	0.228729
1971.000000	0.228794
1972.000000	0.229369
1973.000000	0.229590
1974.000000	0.229875
1975.000000	0.230217
1976.000000	0.230522
1977.000000	0.230556
1978.000000	0.231021
1979.000000	0.231813
1980.000000	0.232938
1981.000000	0.234028
1982.000000	0.234354
1983.000000	0.235065
1984.000000	0.235664
1985.000000	0.235704
1986.000000	0.236015
1987.000000	0.236718
1988.000000	0.237420
1989.000000	0.237628
1990.000000	0.238664
1991.000000	0.239374
1992.000000	0.239938
1993.000000	0.240726
1994.000000	0.241322
1995.000000	0.242237
1996.000000	0.243072
1997.000000	0.243939
1998.000000	0.244865
1999.000000	0.245885
2000.000000	0.246975
2001.000000	0.248016
2002.000000	0.249183
2003.000000	0.250445
2004.000000	0.251232
2005.000000	0.252166
2006.000000	0.253499
2007.000000	0.254466
2008.000000	0.255515
2009.000000	0.256971
2010.000000	0.257999
2011.000000	0.258296
2012.000000	0.259067
2013.000000	0.259935
2014.000000	0.260533
2015.000000	0.261577
2016.000000	0.263041
2017.000000	0.264552
2018.000000	0.266123
2019.000000	0.267310
2020.000000	0.268782
2021.000000	0.269968
2022.000000	0.270710
2023.000000	0.271579
2024.000000	0.272287
2025.000000	0.273184
2026.000000	0.273833
2027.000000	0.275353
2028.000000	0.276056
2029.000000	0.277154
2030.000000	0.277888
2031.000000	0.278231
2032.000000	0.279434
2033.000000	0.280621
2034.000000	0.281957
2035.000000	0.283906
2036.000000	0.285042
2037.000000	0.286451
2038.000000	0.287126
2039.000000	0.286767
2040.000000	0.287258
2041.000000	0.288116
2042.000000	0.288673
2043.000000	0.289746
2044.000000	0.290952
2045.000000	0.291617
2046.000000	0.291933
2047.000000	0.292623
2048.000000	0.293557
2049.000000	0.294209
2050.000000	0.294389
2051.000000	0.295001
2052.000000	0.295585
2053.000000	0.296213
2054.000000	0.297506
2055.000000	0.298124
2056.000000	0.298814
2057.000000	0.299788
2058.000000	0.301195
2059.000000	0.302419
2060.000000	0.303119
2061.000000	0.303518
2062.000000	0.304080
2063.000000	0.304190
2064.000000	0.304667
2065.000000	0.305962
2066.000000	0.306600
2067.000000	0.307178
2068.000000	0.307739
2069.000000	0.308218
2070.000000	0.308936
2071.000000	0.309404
2072.000000	0.310111
2073.000000	0.311033
2074.000000	0.311640
2075.000000	0.312238
2076.000000	0.312884
2077.000000	0.313409
2078.000000	0.313761
2079.000000	0.314067
2080.000000	0.313942
2081.000000	0.314620
2082.000000	0.315753
2083.000000	0.316808
2084.000000	0.317715
2085.000000	0.319021
2086.000000	0.319436
2087.000000	0.319726
2088.000000	0.320610
2089.000000	0.321589
2090.000000	0.322267
2091.000000	0.322770
2092.000000	0.323268
2093.000000	0.323526
2094.000000	0.324101
2095.000000	0.325249
2096.000000	0.325903
2097.000000	0.326652
2098.000000	0.326462
2099.000000	0.326096
2100.000000	0.326057
2101.000000	0.326249
2102.000000	0.326779
2103.000000	0.328022
2104.000000	0.328934
2105.000000	0.329590
2106.000000	0.330326
2107.000000	0.330829
2108.000000	0.330730
2109.000000	0.330976
2110.000000	0.330892
2111.000000	0.331362
2112.000000	0.332257
2113.000000	0.332547
2114.000000	0.333233
2115.000000	0.333715
2116.000000	0.333583
2117.000000	0.333651
2118.000000	0.334146
2119.000000	0.334745
2120.000000	0.335287
2121.000000	0.336248
2122.000000	0.336579
2123.000000	0.336406
2124.000000	0.336429
2125.000000	0.335765
2126.000000	0.336025
2127.000000	0.337206
2128.000000	0.338018
2129.000000	0.338928
2130.000000	0.340292
2131.000000	0.340505
2132.000000	0.340226
2133.000000	0.340000
2134.000000	0.338885
2135.000000	0.337904
2136.000000	0.337169
2137.000000	0.336792
2138.000000	0.336521
2139.000000	0.337026
2140.000000	0.338753
2141.000000	0.339434
2142.000000	0.340048
2143.000000	0.340365
2144.000000	0.340046
2145.000000	0.340031
2146.000000	0.340210
2147.000000	0.341114
2148.000000	0.341247
2149.000000	0.341491
2150.000000	0.341466
2151.000000	0.341561
2152.000000	0.341342
2153.000000	0.341102
2154.000000	0.340563
2155.000000	0.339621
2156.000000	0.338793
2157.000000	0.337597
2158.000000	0.336947
2159.000000	0.336725
2160.000000	0.336527
2161.000000	0.336678
2162.000000	0.336914
2163.000000	0.336680
2164.000000	0.337051
2165.000000	0.338478
2166.000000	0.338612
2167.000000	0.339312
2168.000000	0.340324
2169.000000	0.339888
2170.000000	0.340442
2171.000000	0.340139
2172.000000	0.338980
2173.000000	0.338666
2174.000000	0.338083
2175.000000	0.338141
2176.000000	0.339491
2177.000000	0.339703
2178.000000	0.339857
2179.000000	0.339687
2180.000000	0.338245
2181.000000	0.338044
2182.000000	0.337399
2183.000000	0.337338
2184.000000	0.339010
2185.000000	0.340371
2186.000000	0.340986
2187.000000	0.342240
2188.000000	0.341603
2189.000000	0.340255
2190.000000	0.340092
2191.000000	0.339506
2192.000000	0.338917
2193.000000	0.338395
2194.000000	0.338080
2195.000000	0.338027
2196.000000	0.337902
2197.000000	0.338163
2198.000000	0.337587
2199.000000	0.335524
2200.000000	0.334934
2201.000000	0.335711
2202.000000	0.335432
2203.000000	0.335365
2204.000000	0.334549
2205.000000	0.333295
2206.000000	0.332261
2207.000000	0.333979
2208.000000	0.336256
2209.000000	0.336906
2210.000000	0.337862
2211.000000	0.335436
2212.000000	0.334598
2213.000000	0.333579
2214.000000	0.331816
2215.000000	0.330587
2216.000000	0.329279
2217.000000	0.329337
2218.000000	0.330073
2219.000000	0.331843
2220.000000	0.336236
2221.000000	0.338085
2222.000000	0.339462
2223.000000	0.339602
2224.000000	0.336973
2225.000000	0.337855
2226.000000	0.335931
2227.000000	0.334870
2228.000000	0.335529
2229.000000	0.332396
2230.000000	0.331940
2231.000000	0.331897
2232.000000	0.331098
2233.000000	0.334554
2234.000000	0.338805
2235.000000	0.341460
2236.000000	0.342142
2237.000000	0.341154
2238.000000	0.340581
2239.000000	0.337713
2240.000000	0.337531
2241.000000	0.338927
2242.000000	0.339721
2243.000000	0.341760
2244.000000	0.341503
2245.000000	0.339922
2246.000000	0.339490
2247.000000	0.336491
2248.000000	0.336229
2249.000000	0.338214
2250.000000	0.341325
2251.000000	0.341972
2252.000000	0.343876
2253.000000	0.343665
2254.000000	0.339136
2255.000000	0.336123
2256.000000	0.333580
2257.000000	0.332672
2258.000000	0.332704
2259.000000	0.331215
2260.000000	0.331561
2261.000000	0.330449
2262.000000	0.327732
2263.000000	0.325936
2264.000000	0.323825
2265.000000	0.322792
2266.000000	0.322642
2267.000000	0.321876
2268.000000	0.322518
2269.000000	0.321483
2270.000000	0.318607
2271.000000	0.316649
2272.000000	0.315540
2273.000000	0.312341
2274.000000	0.306777
2275.000000	0.303808
2276.000000	0.301073
2277.000000	0.298018
2278.000000	0.296449
2279.000000	0.295489
2280.000000	0.293020
2281.000000	0.290063
2282.000000	0.288391
2283.000000	0.287431
2284.000000	0.287218
2285.000000	0.288024
2286.000000	0.289898
2287.000000	0.291710
2288.000000	0.290256
2289.000000	0.288652
2290.000000	0.288093
2291.000000	0.288675
2292.000000	0.291160
2293.000000	0.294124
2294.000000	0.296347
2295.000000	0.298065
2296.000000	0.299119
2297.000000	0.299329
2298.000000	0.300747
2299.000000	0.303000
2300.000000	0.303963
2301.000000	0.305166
2302.000000	0.305754
2303.000000	0.304355
2304.000000	0.303880
2305.000000	0.304012
2306.000000	0.304038
2307.000000	0.303735
2308.000000	0.304105
2309.000000	0.304186
2310.000000	0.305225
2311.000000	0.306308
2312.000000	0.306734
2313.000000	0.306848
2314.000000	0.305531
2315.000000	0.304999
2316.000000	0.304546
2317.000000	0.303992
2318.000000	0.304719
2319.000000	0.305415
2320.000000	0.303799
2321.000000	0.303924
2322.000000	0.302815
2323.000000	0.297802
2324.000000	0.296226
2325.000000	0.294487
2326.000000	0.293570
2327.000000	0.293880
2328.000000	0.295004
2329.000000	0.296035
2330.000000	0.293759
2331.000000	0.293561
2332.000000	0.292471
2333.000000	0.290808
2334.000000	0.290906
2335.000000	0.290868
2336.000000	0.290115
2337.000000	0.290092
2338.000000	0.290954
2339.000000	0.291057
2340.000000	0.292693
2341.000000	0.291732
2342.000000	0.288532
2343.000000	0.285503
2344.000000	0.280174
2345.000000	0.275987
2346.000000	0.270363
2347.000000	0.269078
2348.000000	0.271163
2349.000000	0.271890
2350.000000	0.272441
2351.000000	0.276300
2352.000000	0.273233
2353.000000	0.269498
2354.000000	0.269510
2355.000000	0.268600
2356.000000	0.271369
2357.000000	0.276075
2358.000000	0.279848
2359.000000	0.280360
2360.000000	0.277391
2361.000000	0.273605
2362.000000	0.268586
2363.000000	0.265937
2364.000000	0.263433
2365.000000	0.261099
2366.000000	0.259947
2367.000000	0.255054
2368.000000	0.252934
2369.000000	0.255004
2370.000000	0.253455
2371.000000	0.254644
2372.000000	0.258657
2373.000000	0.259293
2374.000000	0.260419
2375.000000	0.258930
2376.000000	0.256796
2377.000000	0.253276
2378.000000	0.246732
2379.000000	0.246542
2380.000000	0.245818
2381.000000	0.242337
2382.000000	0.239471
2383.000000	0.236926
2384.000000	0.235279
2385.000000	0.232176
2386.000000	0.235085
2387.000000	0.240213
2388.000000	0.245907
2389.000000	0.251583
2390.000000	0.250580
2391.000000	0.249088
2392.000000	0.242059
2393.000000	0.239555
2394.000000	0.242804
2395.000000	0.242031
2396.000000	0.244722
2397.000000	0.242654
2398.000000	0.241495
2399.000000	0.242289
2400.000000	0.233722
2401.000000	0.225614
2402.000000	0.222507
2403.000000	0.217684
2404.000000	0.217102
2405.000000	0.218944
2406.000000	0.217763
2407.000000	0.222960
2408.000000	0.222323
2409.000000	0.217959
2410.000000	0.218531
2411.000000	0.206880
2412.000000	0.199091
2413.000000	0.205631
2414.000000	0.207186
2415.000000	0.214404
2416.000000	0.223367
2417.000000	0.217485
2418.000000	0.215394
2419.000000	0.214146
2420.000000	0.213146
2421.000000	0.222079
2422.000000	0.223820
2423.000000	0.230734
2424.000000	0.233620
2425.000000	0.223236
2426.000000	0.219026
2427.000000	0.211198
2428.000000	0.209925
2429.000000	0.221280
2430.000000	0.231653
2431.000000	0.238080
2432.000000	0.241664
2433.000000	0.237174
2434.000000	0.229328
2435.000000	0.219975
2436.000000	0.210014
2437.000000	0.207360
2438.000000	0.203921
2439.000000	0.194496
2440.000000	0.181123
2441.000000	0.173963
2442.000000	0.173801
2443.000000	0.181617
2444.000000	0.199627
2445.000000	0.215682
2446.000000	0.218477
2447.000000	0.217110
2448.000000	0.215836
2449.000000	0.205443
2450.000000	0.201654
2451.000000	0.211717
2452.000000	0.227861
2453.000000	0.234013
2454.000000	0.228965
2455.000000	0.226569
2456.000000	0.221860
2457.000000	0.211993
2458.000000	0.214864
2459.000000	0.229824
2460.000000	0.229580
2461.000000	0.238748
2462.000000	0.256077
2463.000000	0.237495
2464.000000	0.213599
2465.000000	0.197384
2466.000000	0.179395
2467.000000	0.175416
2468.000000	0.186629
2469.000000	0.195879
2470.000000	0.187828
2471.000000	0.186399
2472.000000	0.192930
2473.000000	0.185310
2474.000000	0.207549
2475.000000	0.235288
2476.000000	0.222877
2477.000000	0.233567
2478.000000	0.243964
2479.000000	0.235875
2480.000000	0.245401
2481.000000	0.221989
2482.000000	0.185062
2483.000000	0.163422
2484.000000	0.158839
2485.000000	0.178696
2486.000000	0.210351
2487.000000	0.239078
2488.000000	0.237504
2489.000000	0.221083
2490.000000	0.224893
2491.000000	0.216458
2492.000000	0.209547
2493.000000	0.214171
2494.000000	0.215144
2495.000000	0.217861
2496.000000	0.210956
2497.000000	0.196836
2498.000000	0.189266
2499.000000	0.174178
2500.000000	0.159889
