# Wavelength	NAu-1-60_HEX-10_FV7-30_00000.asd.rts.txt
350.000000	0.120303
351.000000	0.119472
352.000000	0.119471
353.000000	0.115058
354.000000	0.108880
355.000000	0.114758
356.000000	0.121802
357.000000	0.126886
358.000000	0.129190
359.000000	0.123262
360.000000	0.117039
361.000000	0.118960
362.000000	0.115173
363.000000	0.116889
364.000000	0.125661
365.000000	0.115064
366.000000	0.111705
367.000000	0.119033
368.000000	0.121725
369.000000	0.123639
370.000000	0.123470
371.000000	0.120249
372.000000	0.124594
373.000000	0.129558
374.000000	0.129065
375.000000	0.122402
376.000000	0.119025
377.000000	0.121021
378.000000	0.124134
379.000000	0.125266
380.000000	0.125929
381.000000	0.129110
382.000000	0.130107
383.000000	0.128791
384.000000	0.126889
385.000000	0.129048
386.000000	0.132969
387.000000	0.136323
388.000000	0.135947
389.000000	0.136404
390.000000	0.138683
391.000000	0.142110
392.000000	0.144114
393.000000	0.144906
394.000000	0.145206
395.000000	0.145569
396.000000	0.147040
397.000000	0.149357
398.000000	0.150615
399.000000	0.151984
400.000000	0.153646
401.000000	0.155282
402.000000	0.156257
403.000000	0.157078
404.000000	0.158488
405.000000	0.161146
406.000000	0.163134
407.000000	0.163875
408.000000	0.164911
409.000000	0.165345
410.000000	0.165779
411.000000	0.167596
412.000000	0.168650
413.000000	0.169542
414.000000	0.171197
415.000000	0.172513
416.000000	0.173599
417.000000	0.174467
418.000000	0.174553
419.000000	0.174983
420.000000	0.175677
421.000000	0.175479
422.000000	0.176427
423.000000	0.177431
424.000000	0.176804
425.000000	0.176582
426.000000	0.176663
427.000000	0.176727
428.000000	0.176712
429.000000	0.176906
430.000000	0.177135
431.000000	0.176489
432.000000	0.176272
433.000000	0.176458
434.000000	0.176504
435.000000	0.176544
436.000000	0.176297
437.000000	0.175656
438.000000	0.175612
439.000000	0.175670
440.000000	0.175574
441.000000	0.175407
442.000000	0.175297
443.000000	0.174953
444.000000	0.173873
445.000000	0.173478
446.000000	0.173746
447.000000	0.174108
448.000000	0.174494
449.000000	0.175121
450.000000	0.176249
451.000000	0.178246
452.000000	0.180197
453.000000	0.181979
454.000000	0.184567
455.000000	0.186951
456.000000	0.189287
457.000000	0.192033
458.000000	0.194922
459.000000	0.197465
460.000000	0.199417
461.000000	0.201381
462.000000	0.203371
463.000000	0.205173
464.000000	0.206596
465.000000	0.207918
466.000000	0.209147
467.000000	0.210235
468.000000	0.211103
469.000000	0.211857
470.000000	0.212751
471.000000	0.213558
472.000000	0.214270
473.000000	0.214931
474.000000	0.215560
475.000000	0.216135
476.000000	0.216812
477.000000	0.217692
478.000000	0.218232
479.000000	0.218645
480.000000	0.219154
481.000000	0.219876
482.000000	0.220535
483.000000	0.220820
484.000000	0.221620
485.000000	0.222380
486.000000	0.222941
487.000000	0.223411
488.000000	0.223808
489.000000	0.224274
490.000000	0.225015
491.000000	0.225582
492.000000	0.226121
493.000000	0.226779
494.000000	0.227417
495.000000	0.228018
496.000000	0.228578
497.000000	0.229243
498.000000	0.229981
499.000000	0.230776
500.000000	0.231433
501.000000	0.232205
502.000000	0.233024
503.000000	0.233620
504.000000	0.234291
505.000000	0.235016
506.000000	0.235735
507.000000	0.236489
508.000000	0.237325
509.000000	0.238200
510.000000	0.239022
511.000000	0.239761
512.000000	0.240509
513.000000	0.241420
514.000000	0.242291
515.000000	0.243155
516.000000	0.244044
517.000000	0.244850
518.000000	0.245742
519.000000	0.246738
520.000000	0.247608
521.000000	0.248529
522.000000	0.249528
523.000000	0.250353
524.000000	0.251304
525.000000	0.252391
526.000000	0.253514
527.000000	0.254583
528.000000	0.255566
529.000000	0.256525
530.000000	0.257593
531.000000	0.258749
532.000000	0.259889
533.000000	0.261091
534.000000	0.262191
535.000000	0.263209
536.000000	0.264408
537.000000	0.265527
538.000000	0.266616
539.000000	0.267813
540.000000	0.268896
541.000000	0.269953
542.000000	0.271113
543.000000	0.272285
544.000000	0.273442
545.000000	0.274524
546.000000	0.275638
547.000000	0.276780
548.000000	0.277962
549.000000	0.279107
550.000000	0.280242
551.000000	0.281386
552.000000	0.282505
553.000000	0.283641
554.000000	0.284765
555.000000	0.285859
556.000000	0.286928
557.000000	0.287901
558.000000	0.288907
559.000000	0.289966
560.000000	0.290891
561.000000	0.291785
562.000000	0.292743
563.000000	0.293675
564.000000	0.294647
565.000000	0.295609
566.000000	0.296501
567.000000	0.297344
568.000000	0.298148
569.000000	0.298980
570.000000	0.299763
571.000000	0.300480
572.000000	0.301200
573.000000	0.301832
574.000000	0.302395
575.000000	0.303006
576.000000	0.303613
577.000000	0.304181
578.000000	0.304743
579.000000	0.305234
580.000000	0.305741
581.000000	0.306260
582.000000	0.306649
583.000000	0.306981
584.000000	0.307319
585.000000	0.307730
586.000000	0.308113
587.000000	0.308442
588.000000	0.308727
589.000000	0.309039
590.000000	0.309339
591.000000	0.309611
592.000000	0.309943
593.000000	0.310218
594.000000	0.310395
595.000000	0.310504
596.000000	0.310632
597.000000	0.310811
598.000000	0.310943
599.000000	0.310991
600.000000	0.311056
601.000000	0.311154
602.000000	0.311334
603.000000	0.311455
604.000000	0.311483
605.000000	0.311532
606.000000	0.311664
607.000000	0.311855
608.000000	0.312005
609.000000	0.312034
610.000000	0.312047
611.000000	0.312161
612.000000	0.312168
613.000000	0.312174
614.000000	0.312292
615.000000	0.312448
616.000000	0.312543
617.000000	0.312534
618.000000	0.312543
619.000000	0.312625
620.000000	0.312654
621.000000	0.312527
622.000000	0.312512
623.000000	0.312550
624.000000	0.312552
625.000000	0.312543
626.000000	0.312500
627.000000	0.312476
628.000000	0.312661
629.000000	0.312804
630.000000	0.312812
631.000000	0.312964
632.000000	0.313099
633.000000	0.313192
634.000000	0.313249
635.000000	0.313402
636.000000	0.313590
637.000000	0.313752
638.000000	0.313929
639.000000	0.314081
640.000000	0.314241
641.000000	0.314331
642.000000	0.314472
643.000000	0.314620
644.000000	0.314695
645.000000	0.314766
646.000000	0.314868
647.000000	0.314999
648.000000	0.315182
649.000000	0.315414
650.000000	0.315649
651.000000	0.315853
652.000000	0.316012
653.000000	0.316172
654.000000	0.316322
655.000000	0.316545
656.000000	0.316806
657.000000	0.317009
658.000000	0.317239
659.000000	0.317530
660.000000	0.317850
661.000000	0.318100
662.000000	0.318305
663.000000	0.318539
664.000000	0.318804
665.000000	0.319115
666.000000	0.319416
667.000000	0.319628
668.000000	0.319905
669.000000	0.320202
670.000000	0.320490
671.000000	0.320772
672.000000	0.321090
673.000000	0.321407
674.000000	0.321637
675.000000	0.321853
676.000000	0.322117
677.000000	0.322490
678.000000	0.322920
679.000000	0.323315
680.000000	0.323645
681.000000	0.324010
682.000000	0.324434
683.000000	0.324842
684.000000	0.325304
685.000000	0.325665
686.000000	0.325983
687.000000	0.326323
688.000000	0.326667
689.000000	0.327046
690.000000	0.327512
691.000000	0.328010
692.000000	0.328443
693.000000	0.328859
694.000000	0.329283
695.000000	0.329720
696.000000	0.330152
697.000000	0.330557
698.000000	0.331019
699.000000	0.331524
700.000000	0.332038
701.000000	0.332460
702.000000	0.332941
703.000000	0.333468
704.000000	0.333849
705.000000	0.334311
706.000000	0.334810
707.000000	0.335293
708.000000	0.335733
709.000000	0.336209
710.000000	0.336778
711.000000	0.337248
712.000000	0.337688
713.000000	0.338151
714.000000	0.338592
715.000000	0.339040
716.000000	0.339518
717.000000	0.340011
718.000000	0.340502
719.000000	0.340976
720.000000	0.341435
721.000000	0.341862
722.000000	0.342336
723.000000	0.342907
724.000000	0.343372
725.000000	0.343816
726.000000	0.344309
727.000000	0.344741
728.000000	0.345218
729.000000	0.345683
730.000000	0.346031
731.000000	0.346395
732.000000	0.346762
733.000000	0.347158
734.000000	0.347528
735.000000	0.347864
736.000000	0.348275
737.000000	0.348628
738.000000	0.348962
739.000000	0.349337
740.000000	0.349606
741.000000	0.349889
742.000000	0.350136
743.000000	0.350333
744.000000	0.350603
745.000000	0.350818
746.000000	0.351050
747.000000	0.351315
748.000000	0.351630
749.000000	0.351963
750.000000	0.352251
751.000000	0.352523
752.000000	0.352785
753.000000	0.353029
754.000000	0.353207
755.000000	0.353363
756.000000	0.353536
757.000000	0.353696
758.000000	0.353827
759.000000	0.353966
760.000000	0.354053
761.000000	0.354143
762.000000	0.354207
763.000000	0.354277
764.000000	0.354499
765.000000	0.354537
766.000000	0.354484
767.000000	0.354477
768.000000	0.354434
769.000000	0.354453
770.000000	0.354525
771.000000	0.354453
772.000000	0.354405
773.000000	0.354349
774.000000	0.354329
775.000000	0.354310
776.000000	0.354315
777.000000	0.354316
778.000000	0.354192
779.000000	0.354068
780.000000	0.353979
781.000000	0.353856
782.000000	0.353761
783.000000	0.353748
784.000000	0.353655
785.000000	0.353548
786.000000	0.353464
787.000000	0.353403
788.000000	0.353325
789.000000	0.353172
790.000000	0.352911
791.000000	0.352589
792.000000	0.352364
793.000000	0.352133
794.000000	0.351824
795.000000	0.351586
796.000000	0.351358
797.000000	0.351121
798.000000	0.350912
799.000000	0.350724
800.000000	0.350516
801.000000	0.350261
802.000000	0.350047
803.000000	0.349825
804.000000	0.349591
805.000000	0.349293
806.000000	0.348980
807.000000	0.348725
808.000000	0.348437
809.000000	0.348149
810.000000	0.347896
811.000000	0.347667
812.000000	0.347388
813.000000	0.347066
814.000000	0.346755
815.000000	0.346563
816.000000	0.346249
817.000000	0.345892
818.000000	0.345540
819.000000	0.345232
820.000000	0.344932
821.000000	0.344589
822.000000	0.344314
823.000000	0.344016
824.000000	0.343620
825.000000	0.343221
826.000000	0.342915
827.000000	0.342654
828.000000	0.342421
829.000000	0.342125
830.000000	0.341798
831.000000	0.341506
832.000000	0.341155
833.000000	0.340862
834.000000	0.340669
835.000000	0.340565
836.000000	0.340279
837.000000	0.339902
838.000000	0.339539
839.000000	0.339249
840.000000	0.338826
841.000000	0.338426
842.000000	0.338146
843.000000	0.337791
844.000000	0.337428
845.000000	0.337067
846.000000	0.336740
847.000000	0.336442
848.000000	0.336161
849.000000	0.335902
850.000000	0.335568
851.000000	0.335158
852.000000	0.334778
853.000000	0.334555
854.000000	0.334376
855.000000	0.334204
856.000000	0.333861
857.000000	0.333568
858.000000	0.333410
859.000000	0.333272
860.000000	0.332999
861.000000	0.332755
862.000000	0.332519
863.000000	0.332137
864.000000	0.331744
865.000000	0.331465
866.000000	0.331314
867.000000	0.331020
868.000000	0.330762
869.000000	0.330488
870.000000	0.330185
871.000000	0.329839
872.000000	0.329460
873.000000	0.329058
874.000000	0.328879
875.000000	0.328698
876.000000	0.328493
877.000000	0.328254
878.000000	0.327990
879.000000	0.327664
880.000000	0.327221
881.000000	0.327144
882.000000	0.327030
883.000000	0.326802
884.000000	0.326455
885.000000	0.326070
886.000000	0.325674
887.000000	0.325353
888.000000	0.325238
889.000000	0.325184
890.000000	0.324966
891.000000	0.324629
892.000000	0.324399
893.000000	0.324225
894.000000	0.324131
895.000000	0.323874
896.000000	0.323596
897.000000	0.323337
898.000000	0.323097
899.000000	0.322848
900.000000	0.322650
901.000000	0.322485
902.000000	0.322368
903.000000	0.322161
904.000000	0.321997
905.000000	0.321896
906.000000	0.321654
907.000000	0.321361
908.000000	0.321188
909.000000	0.321174
910.000000	0.321053
911.000000	0.320849
912.000000	0.320665
913.000000	0.320486
914.000000	0.320367
915.000000	0.320308
916.000000	0.320105
917.000000	0.319921
918.000000	0.319789
919.000000	0.319667
920.000000	0.319465
921.000000	0.319330
922.000000	0.319263
923.000000	0.319157
924.000000	0.318944
925.000000	0.318786
926.000000	0.318738
927.000000	0.318509
928.000000	0.318275
929.000000	0.318071
930.000000	0.317901
931.000000	0.317844
932.000000	0.317720
933.000000	0.317538
934.000000	0.317416
935.000000	0.317116
936.000000	0.316964
937.000000	0.317064
938.000000	0.316909
939.000000	0.316827
940.000000	0.316777
941.000000	0.316659
942.000000	0.316229
943.000000	0.316113
944.000000	0.316351
945.000000	0.316198
946.000000	0.315987
947.000000	0.315899
948.000000	0.315919
949.000000	0.315722
950.000000	0.315580
951.000000	0.315509
952.000000	0.315394
953.000000	0.315353
954.000000	0.315337
955.000000	0.315203
956.000000	0.314933
957.000000	0.314845
958.000000	0.314774
959.000000	0.314567
960.000000	0.314636
961.000000	0.314846
962.000000	0.314923
963.000000	0.314571
964.000000	0.314494
965.000000	0.314509
966.000000	0.314333
967.000000	0.314592
968.000000	0.314738
969.000000	0.314648
970.000000	0.314554
971.000000	0.314432
972.000000	0.314320
973.000000	0.314226
974.000000	0.314303
975.000000	0.314304
976.000000	0.314328
977.000000	0.314409
978.000000	0.314162
979.000000	0.314287
980.000000	0.314443
981.000000	0.314420
982.000000	0.314527
983.000000	0.314456
984.000000	0.314286
985.000000	0.314354
986.000000	0.314342
987.000000	0.314256
988.000000	0.314132
989.000000	0.314411
990.000000	0.314393
991.000000	0.314156
992.000000	0.314123
993.000000	0.314576
994.000000	0.314836
995.000000	0.314951
996.000000	0.315093
997.000000	0.315127
998.000000	0.315096
999.000000	0.315136
1000.000000	0.315212
1001.000000	0.314570
1002.000000	0.315169
1003.000000	0.315704
1004.000000	0.315865
1005.000000	0.315349
1006.000000	0.315373
1007.000000	0.315555
1008.000000	0.315649
1009.000000	0.315638
1010.000000	0.315754
1011.000000	0.315548
1012.000000	0.315721
1013.000000	0.316474
1014.000000	0.316498
1015.000000	0.316471
1016.000000	0.316593
1017.000000	0.316093
1018.000000	0.316132
1019.000000	0.316419
1020.000000	0.316972
1021.000000	0.317231
1022.000000	0.318252
1023.000000	0.318826
1024.000000	0.319040
1025.000000	0.319035
1026.000000	0.318872
1027.000000	0.318693
1028.000000	0.318877
1029.000000	0.319563
1030.000000	0.320213
1031.000000	0.320337
1032.000000	0.320304
1033.000000	0.320315
1034.000000	0.320443
1035.000000	0.320796
1036.000000	0.321018
1037.000000	0.321289
1038.000000	0.321311
1039.000000	0.321253
1040.000000	0.321150
1041.000000	0.321443
1042.000000	0.321831
1043.000000	0.322143
1044.000000	0.323061
1045.000000	0.323465
1046.000000	0.323365
1047.000000	0.323738
1048.000000	0.324076
1049.000000	0.324438
1050.000000	0.325294
1051.000000	0.325639
1052.000000	0.325485
1053.000000	0.325720
1054.000000	0.326033
1055.000000	0.326456
1056.000000	0.327115
1057.000000	0.327955
1058.000000	0.328767
1059.000000	0.328776
1060.000000	0.328929
1061.000000	0.329463
1062.000000	0.329659
1063.000000	0.330269
1064.000000	0.330866
1065.000000	0.331725
1066.000000	0.332101
1067.000000	0.332141
1068.000000	0.332535
1069.000000	0.332766
1070.000000	0.333111
1071.000000	0.333976
1072.000000	0.334457
1073.000000	0.334591
1074.000000	0.335042
1075.000000	0.335498
1076.000000	0.335973
1077.000000	0.336684
1078.000000	0.336888
1079.000000	0.337247
1080.000000	0.337514
1081.000000	0.337921
1082.000000	0.338538
1083.000000	0.339042
1084.000000	0.339497
1085.000000	0.340074
1086.000000	0.340665
1087.000000	0.341215
1088.000000	0.341892
1089.000000	0.342362
1090.000000	0.342574
1091.000000	0.342777
1092.000000	0.343227
1093.000000	0.343661
1094.000000	0.344058
1095.000000	0.344504
1096.000000	0.344880
1097.000000	0.345086
1098.000000	0.345560
1099.000000	0.346161
1100.000000	0.346681
1101.000000	0.347273
1102.000000	0.347667
1103.000000	0.347694
1104.000000	0.348151
1105.000000	0.348802
1106.000000	0.349372
1107.000000	0.350219
1108.000000	0.350762
1109.000000	0.351320
1110.000000	0.351382
1111.000000	0.351709
1112.000000	0.351860
1113.000000	0.352411
1114.000000	0.353214
1115.000000	0.353867
1116.000000	0.354775
1117.000000	0.355321
1118.000000	0.355540
1119.000000	0.355907
1120.000000	0.356262
1121.000000	0.356557
1122.000000	0.356920
1123.000000	0.357495
1124.000000	0.357784
1125.000000	0.358216
1126.000000	0.358795
1127.000000	0.359234
1128.000000	0.359619
1129.000000	0.359979
1130.000000	0.360378
1131.000000	0.360806
1132.000000	0.361066
1133.000000	0.361329
1134.000000	0.361599
1135.000000	0.361556
1136.000000	0.361862
1137.000000	0.362435
1138.000000	0.362801
1139.000000	0.363278
1140.000000	0.363829
1141.000000	0.364235
1142.000000	0.364707
1143.000000	0.365377
1144.000000	0.365914
1145.000000	0.366002
1146.000000	0.366306
1147.000000	0.366501
1148.000000	0.366472
1149.000000	0.366569
1150.000000	0.366627
1151.000000	0.366956
1152.000000	0.367296
1153.000000	0.367763
1154.000000	0.368622
1155.000000	0.369046
1156.000000	0.369228
1157.000000	0.369545
1158.000000	0.369690
1159.000000	0.369897
1160.000000	0.370206
1161.000000	0.370483
1162.000000	0.370757
1163.000000	0.371167
1164.000000	0.371575
1165.000000	0.371912
1166.000000	0.372254
1167.000000	0.372545
1168.000000	0.372746
1169.000000	0.372890
1170.000000	0.373159
1171.000000	0.373466
1172.000000	0.373788
1173.000000	0.374150
1174.000000	0.374461
1175.000000	0.374665
1176.000000	0.374930
1177.000000	0.375391
1178.000000	0.375720
1179.000000	0.376005
1180.000000	0.376194
1181.000000	0.376316
1182.000000	0.376553
1183.000000	0.376824
1184.000000	0.377028
1185.000000	0.377143
1186.000000	0.377125
1187.000000	0.377274
1188.000000	0.377439
1189.000000	0.377597
1190.000000	0.377927
1191.000000	0.378158
1192.000000	0.378409
1193.000000	0.378727
1194.000000	0.378962
1195.000000	0.379206
1196.000000	0.379397
1197.000000	0.379560
1198.000000	0.379744
1199.000000	0.379895
1200.000000	0.380021
1201.000000	0.380016
1202.000000	0.380117
1203.000000	0.380306
1204.000000	0.380333
1205.000000	0.380586
1206.000000	0.380832
1207.000000	0.381231
1208.000000	0.381405
1209.000000	0.381739
1210.000000	0.381860
1211.000000	0.381660
1212.000000	0.381748
1213.000000	0.381932
1214.000000	0.382166
1215.000000	0.382612
1216.000000	0.382811
1217.000000	0.382878
1218.000000	0.382974
1219.000000	0.382983
1220.000000	0.382990
1221.000000	0.383240
1222.000000	0.383386
1223.000000	0.383547
1224.000000	0.383785
1225.000000	0.383886
1226.000000	0.384023
1227.000000	0.384001
1228.000000	0.384001
1229.000000	0.384038
1230.000000	0.384052
1231.000000	0.384012
1232.000000	0.384105
1233.000000	0.384357
1234.000000	0.384662
1235.000000	0.384838
1236.000000	0.385028
1237.000000	0.385146
1238.000000	0.384953
1239.000000	0.384973
1240.000000	0.385066
1241.000000	0.385234
1242.000000	0.385442
1243.000000	0.385608
1244.000000	0.385701
1245.000000	0.385897
1246.000000	0.386055
1247.000000	0.386295
1248.000000	0.386605
1249.000000	0.386809
1250.000000	0.386878
1251.000000	0.386885
1252.000000	0.386982
1253.000000	0.387154
1254.000000	0.387170
1255.000000	0.387180
1256.000000	0.387196
1257.000000	0.387049
1258.000000	0.387151
1259.000000	0.387317
1260.000000	0.387511
1261.000000	0.387795
1262.000000	0.387936
1263.000000	0.388051
1264.000000	0.388204
1265.000000	0.388137
1266.000000	0.387920
1267.000000	0.387887
1268.000000	0.387944
1269.000000	0.388005
1270.000000	0.388190
1271.000000	0.388267
1272.000000	0.388262
1273.000000	0.388306
1274.000000	0.388262
1275.000000	0.388253
1276.000000	0.388225
1277.000000	0.388322
1278.000000	0.388464
1279.000000	0.388512
1280.000000	0.388410
1281.000000	0.388334
1282.000000	0.388288
1283.000000	0.388293
1284.000000	0.388286
1285.000000	0.388293
1286.000000	0.388260
1287.000000	0.388208
1288.000000	0.388337
1289.000000	0.388282
1290.000000	0.388206
1291.000000	0.388189
1292.000000	0.388052
1293.000000	0.388205
1294.000000	0.388328
1295.000000	0.388316
1296.000000	0.388417
1297.000000	0.388330
1298.000000	0.388264
1299.000000	0.388360
1300.000000	0.388446
1301.000000	0.388441
1302.000000	0.388396
1303.000000	0.388491
1304.000000	0.388443
1305.000000	0.388422
1306.000000	0.388352
1307.000000	0.388280
1308.000000	0.388269
1309.000000	0.388282
1310.000000	0.388241
1311.000000	0.388263
1312.000000	0.388089
1313.000000	0.388046
1314.000000	0.387983
1315.000000	0.387851
1316.000000	0.387996
1317.000000	0.387993
1318.000000	0.387805
1319.000000	0.387840
1320.000000	0.387922
1321.000000	0.387825
1322.000000	0.387731
1323.000000	0.387689
1324.000000	0.387557
1325.000000	0.387488
1326.000000	0.387498
1327.000000	0.387308
1328.000000	0.386993
1329.000000	0.386727
1330.000000	0.386385
1331.000000	0.386275
1332.000000	0.386435
1333.000000	0.386416
1334.000000	0.386471
1335.000000	0.386510
1336.000000	0.386426
1337.000000	0.386361
1338.000000	0.386252
1339.000000	0.386302
1340.000000	0.386181
1341.000000	0.385986
1342.000000	0.385922
1343.000000	0.385698
1344.000000	0.385402
1345.000000	0.385459
1346.000000	0.385631
1347.000000	0.385397
1348.000000	0.385227
1349.000000	0.385057
1350.000000	0.384964
1351.000000	0.384905
1352.000000	0.384750
1353.000000	0.384664
1354.000000	0.384499
1355.000000	0.384311
1356.000000	0.384352
1357.000000	0.384213
1358.000000	0.383976
1359.000000	0.383880
1360.000000	0.383826
1361.000000	0.383928
1362.000000	0.383864
1363.000000	0.383784
1364.000000	0.383671
1365.000000	0.383316
1366.000000	0.383194
1367.000000	0.383227
1368.000000	0.383138
1369.000000	0.383062
1370.000000	0.382884
1371.000000	0.382507
1372.000000	0.382136
1373.000000	0.381803
1374.000000	0.381506
1375.000000	0.381196
1376.000000	0.380884
1377.000000	0.380647
1378.000000	0.380275
1379.000000	0.379580
1380.000000	0.379043
1381.000000	0.378450
1382.000000	0.377671
1383.000000	0.377054
1384.000000	0.376164
1385.000000	0.375150
1386.000000	0.374259
1387.000000	0.373286
1388.000000	0.372243
1389.000000	0.371298
1390.000000	0.370354
1391.000000	0.369265
1392.000000	0.368332
1393.000000	0.367243
1394.000000	0.365967
1395.000000	0.364857
1396.000000	0.363897
1397.000000	0.362647
1398.000000	0.361228
1399.000000	0.359963
1400.000000	0.358516
1401.000000	0.357150
1402.000000	0.355971
1403.000000	0.354797
1404.000000	0.353612
1405.000000	0.352474
1406.000000	0.351286
1407.000000	0.350156
1408.000000	0.348874
1409.000000	0.347793
1410.000000	0.346952
1411.000000	0.346032
1412.000000	0.345121
1413.000000	0.344146
1414.000000	0.343262
1415.000000	0.342680
1416.000000	0.342264
1417.000000	0.342006
1418.000000	0.341727
1419.000000	0.341556
1420.000000	0.341387
1421.000000	0.341217
1422.000000	0.341046
1423.000000	0.340838
1424.000000	0.340455
1425.000000	0.340106
1426.000000	0.339783
1427.000000	0.339380
1428.000000	0.338975
1429.000000	0.338565
1430.000000	0.338110
1431.000000	0.337725
1432.000000	0.337493
1433.000000	0.337338
1434.000000	0.337374
1435.000000	0.337699
1436.000000	0.338091
1437.000000	0.338570
1438.000000	0.339196
1439.000000	0.340044
1440.000000	0.340978
1441.000000	0.342114
1442.000000	0.343197
1443.000000	0.344308
1444.000000	0.345357
1445.000000	0.346376
1446.000000	0.347469
1447.000000	0.348516
1448.000000	0.349371
1449.000000	0.350071
1450.000000	0.350740
1451.000000	0.351308
1452.000000	0.351803
1453.000000	0.352300
1454.000000	0.352562
1455.000000	0.352758
1456.000000	0.353086
1457.000000	0.353450
1458.000000	0.353727
1459.000000	0.353838
1460.000000	0.353896
1461.000000	0.353861
1462.000000	0.353819
1463.000000	0.353829
1464.000000	0.353816
1465.000000	0.353940
1466.000000	0.354129
1467.000000	0.354289
1468.000000	0.354551
1469.000000	0.354875
1470.000000	0.355054
1471.000000	0.355345
1472.000000	0.355639
1473.000000	0.355921
1474.000000	0.356200
1475.000000	0.356557
1476.000000	0.357047
1477.000000	0.357469
1478.000000	0.357801
1479.000000	0.358105
1480.000000	0.358306
1481.000000	0.358520
1482.000000	0.358703
1483.000000	0.359103
1484.000000	0.359681
1485.000000	0.360078
1486.000000	0.360490
1487.000000	0.360858
1488.000000	0.361054
1489.000000	0.361442
1490.000000	0.361884
1491.000000	0.362261
1492.000000	0.362524
1493.000000	0.362878
1494.000000	0.363242
1495.000000	0.363538
1496.000000	0.363848
1497.000000	0.364200
1498.000000	0.364533
1499.000000	0.364792
1500.000000	0.365275
1501.000000	0.365724
1502.000000	0.365886
1503.000000	0.366126
1504.000000	0.366351
1505.000000	0.366385
1506.000000	0.366667
1507.000000	0.367026
1508.000000	0.367319
1509.000000	0.367624
1510.000000	0.367798
1511.000000	0.367924
1512.000000	0.368012
1513.000000	0.368182
1514.000000	0.368436
1515.000000	0.368588
1516.000000	0.368728
1517.000000	0.368808
1518.000000	0.368901
1519.000000	0.368997
1520.000000	0.369175
1521.000000	0.369361
1522.000000	0.369503
1523.000000	0.369657
1524.000000	0.369748
1525.000000	0.369819
1526.000000	0.369933
1527.000000	0.370072
1528.000000	0.370175
1529.000000	0.370260
1530.000000	0.370275
1531.000000	0.370416
1532.000000	0.370636
1533.000000	0.370752
1534.000000	0.370981
1535.000000	0.371300
1536.000000	0.371355
1537.000000	0.371498
1538.000000	0.371648
1539.000000	0.371499
1540.000000	0.371651
1541.000000	0.372012
1542.000000	0.372216
1543.000000	0.372477
1544.000000	0.372626
1545.000000	0.372750
1546.000000	0.372960
1547.000000	0.373158
1548.000000	0.373276
1549.000000	0.373232
1550.000000	0.373213
1551.000000	0.373204
1552.000000	0.373200
1553.000000	0.373307
1554.000000	0.373424
1555.000000	0.373527
1556.000000	0.373560
1557.000000	0.373568
1558.000000	0.373622
1559.000000	0.373522
1560.000000	0.373504
1561.000000	0.373621
1562.000000	0.373698
1563.000000	0.373806
1564.000000	0.373921
1565.000000	0.374071
1566.000000	0.374100
1567.000000	0.374184
1568.000000	0.374302
1569.000000	0.374489
1570.000000	0.374639
1571.000000	0.374833
1572.000000	0.374837
1573.000000	0.374699
1574.000000	0.374691
1575.000000	0.374675
1576.000000	0.374678
1577.000000	0.374820
1578.000000	0.374753
1579.000000	0.374578
1580.000000	0.374454
1581.000000	0.374258
1582.000000	0.374267
1583.000000	0.374460
1584.000000	0.374458
1585.000000	0.374615
1586.000000	0.374673
1587.000000	0.374533
1588.000000	0.374514
1589.000000	0.374584
1590.000000	0.374593
1591.000000	0.374628
1592.000000	0.374596
1593.000000	0.374522
1594.000000	0.374525
1595.000000	0.374623
1596.000000	0.374662
1597.000000	0.374727
1598.000000	0.374776
1599.000000	0.374757
1600.000000	0.374805
1601.000000	0.375065
1602.000000	0.375225
1603.000000	0.375442
1604.000000	0.375509
1605.000000	0.375460
1606.000000	0.375531
1607.000000	0.375646
1608.000000	0.375736
1609.000000	0.375973
1610.000000	0.376064
1611.000000	0.376098
1612.000000	0.376086
1613.000000	0.376135
1614.000000	0.376138
1615.000000	0.376116
1616.000000	0.376141
1617.000000	0.376149
1618.000000	0.376120
1619.000000	0.376024
1620.000000	0.376030
1621.000000	0.376127
1622.000000	0.376181
1623.000000	0.376176
1624.000000	0.376268
1625.000000	0.376212
1626.000000	0.376139
1627.000000	0.376218
1628.000000	0.376234
1629.000000	0.376107
1630.000000	0.376115
1631.000000	0.376107
1632.000000	0.376088
1633.000000	0.376129
1634.000000	0.376088
1635.000000	0.376077
1636.000000	0.376033
1637.000000	0.375891
1638.000000	0.375877
1639.000000	0.376012
1640.000000	0.376035
1641.000000	0.376138
1642.000000	0.376241
1643.000000	0.376358
1644.000000	0.376431
1645.000000	0.376537
1646.000000	0.376507
1647.000000	0.376409
1648.000000	0.376332
1649.000000	0.376300
1650.000000	0.376329
1651.000000	0.376459
1652.000000	0.376508
1653.000000	0.376462
1654.000000	0.376537
1655.000000	0.376537
1656.000000	0.376500
1657.000000	0.376632
1658.000000	0.376687
1659.000000	0.376806
1660.000000	0.376872
1661.000000	0.376822
1662.000000	0.376848
1663.000000	0.376777
1664.000000	0.376774
1665.000000	0.376877
1666.000000	0.376985
1667.000000	0.376969
1668.000000	0.377073
1669.000000	0.377256
1670.000000	0.377225
1671.000000	0.377301
1672.000000	0.377320
1673.000000	0.377096
1674.000000	0.377283
1675.000000	0.377412
1676.000000	0.377438
1677.000000	0.377538
1678.000000	0.377470
1679.000000	0.377354
1680.000000	0.377428
1681.000000	0.377531
1682.000000	0.377613
1683.000000	0.377697
1684.000000	0.377505
1685.000000	0.377421
1686.000000	0.377402
1687.000000	0.377353
1688.000000	0.377558
1689.000000	0.377623
1690.000000	0.377349
1691.000000	0.377282
1692.000000	0.377085
1693.000000	0.376870
1694.000000	0.377016
1695.000000	0.377139
1696.000000	0.377306
1697.000000	0.377295
1698.000000	0.377103
1699.000000	0.377079
1700.000000	0.376984
1701.000000	0.377092
1702.000000	0.377294
1703.000000	0.377340
1704.000000	0.377495
1705.000000	0.377584
1706.000000	0.377646
1707.000000	0.377638
1708.000000	0.377413
1709.000000	0.377349
1710.000000	0.377492
1711.000000	0.377521
1712.000000	0.377677
1713.000000	0.377721
1714.000000	0.377625
1715.000000	0.377608
1716.000000	0.377705
1717.000000	0.377682
1718.000000	0.377503
1719.000000	0.377398
1720.000000	0.377362
1721.000000	0.377284
1722.000000	0.377261
1723.000000	0.377176
1724.000000	0.377033
1725.000000	0.376941
1726.000000	0.376722
1727.000000	0.376632
1728.000000	0.376519
1729.000000	0.376414
1730.000000	0.376588
1731.000000	0.376564
1732.000000	0.376446
1733.000000	0.376502
1734.000000	0.376383
1735.000000	0.376393
1736.000000	0.376564
1737.000000	0.376543
1738.000000	0.376451
1739.000000	0.376415
1740.000000	0.376305
1741.000000	0.376246
1742.000000	0.376215
1743.000000	0.376346
1744.000000	0.376598
1745.000000	0.376509
1746.000000	0.376364
1747.000000	0.376078
1748.000000	0.375945
1749.000000	0.376277
1750.000000	0.376344
1751.000000	0.376466
1752.000000	0.376609
1753.000000	0.376495
1754.000000	0.376365
1755.000000	0.376064
1756.000000	0.375893
1757.000000	0.375737
1758.000000	0.375628
1759.000000	0.375642
1760.000000	0.375601
1761.000000	0.375467
1762.000000	0.375363
1763.000000	0.375290
1764.000000	0.375253
1765.000000	0.375194
1766.000000	0.375161
1767.000000	0.375077
1768.000000	0.374984
1769.000000	0.374961
1770.000000	0.375048
1771.000000	0.375226
1772.000000	0.375224
1773.000000	0.375090
1774.000000	0.375096
1775.000000	0.375116
1776.000000	0.375150
1777.000000	0.375291
1778.000000	0.375308
1779.000000	0.375205
1780.000000	0.375153
1781.000000	0.375066
1782.000000	0.375026
1783.000000	0.375011
1784.000000	0.375118
1785.000000	0.375188
1786.000000	0.375109
1787.000000	0.375000
1788.000000	0.375000
1789.000000	0.374815
1790.000000	0.374881
1791.000000	0.374884
1792.000000	0.374940
1793.000000	0.374982
1794.000000	0.375066
1795.000000	0.375122
1796.000000	0.375191
1797.000000	0.375138
1798.000000	0.374965
1799.000000	0.374899
1800.000000	0.374798
1801.000000	0.375037
1802.000000	0.374820
1803.000000	0.374805
1804.000000	0.374766
1805.000000	0.374577
1806.000000	0.374662
1807.000000	0.374980
1808.000000	0.375338
1809.000000	0.376213
1810.000000	0.376231
1811.000000	0.376470
1812.000000	0.376631
1813.000000	0.376903
1814.000000	0.377425
1815.000000	0.377430
1816.000000	0.377401
1817.000000	0.377084
1818.000000	0.376004
1819.000000	0.375576
1820.000000	0.375545
1821.000000	0.374899
1822.000000	0.374855
1823.000000	0.375342
1824.000000	0.375045
1825.000000	0.374103
1826.000000	0.374088
1827.000000	0.374180
1828.000000	0.373958
1829.000000	0.374367
1830.000000	0.375304
1831.000000	0.375271
1832.000000	0.374369
1833.000000	0.374177
1834.000000	0.373912
1835.000000	0.373698
1836.000000	0.373840
1837.000000	0.373615
1838.000000	0.372679
1839.000000	0.372391
1840.000000	0.372450
1841.000000	0.372168
1842.000000	0.372124
1843.000000	0.372501
1844.000000	0.372771
1845.000000	0.372847
1846.000000	0.373003
1847.000000	0.373727
1848.000000	0.373100
1849.000000	0.372109
1850.000000	0.371273
1851.000000	0.370889
1852.000000	0.370542
1853.000000	0.370447
1854.000000	0.370730
1855.000000	0.370541
1856.000000	0.370199
1857.000000	0.369454
1858.000000	0.368659
1859.000000	0.368228
1860.000000	0.367954
1861.000000	0.367287
1862.000000	0.366732
1863.000000	0.366513
1864.000000	0.366060
1865.000000	0.365757
1866.000000	0.364835
1867.000000	0.363546
1868.000000	0.361916
1869.000000	0.359796
1870.000000	0.357943
1871.000000	0.356846
1872.000000	0.355739
1873.000000	0.354827
1874.000000	0.354543
1875.000000	0.353737
1876.000000	0.352840
1877.000000	0.350962
1878.000000	0.348800
1879.000000	0.346558
1880.000000	0.343769
1881.000000	0.341391
1882.000000	0.338814
1883.000000	0.336112
1884.000000	0.333276
1885.000000	0.329746
1886.000000	0.326558
1887.000000	0.323714
1888.000000	0.319900
1889.000000	0.316240
1890.000000	0.313128
1891.000000	0.309052
1892.000000	0.305234
1893.000000	0.301787
1894.000000	0.297939
1895.000000	0.293806
1896.000000	0.289738
1897.000000	0.285749
1898.000000	0.280788
1899.000000	0.276207
1900.000000	0.272771
1901.000000	0.268932
1902.000000	0.265848
1903.000000	0.263788
1904.000000	0.261343
1905.000000	0.259389
1906.000000	0.257654
1907.000000	0.256502
1908.000000	0.254759
1909.000000	0.253604
1910.000000	0.252868
1911.000000	0.251609
1912.000000	0.251240
1913.000000	0.251374
1914.000000	0.250774
1915.000000	0.250492
1916.000000	0.250801
1917.000000	0.250788
1918.000000	0.250423
1919.000000	0.250739
1920.000000	0.251697
1921.000000	0.252233
1922.000000	0.252771
1923.000000	0.253660
1924.000000	0.254681
1925.000000	0.255756
1926.000000	0.257290
1927.000000	0.258678
1928.000000	0.259504
1929.000000	0.259934
1930.000000	0.260210
1931.000000	0.260217
1932.000000	0.261070
1933.000000	0.262123
1934.000000	0.262249
1935.000000	0.262945
1936.000000	0.263273
1937.000000	0.263220
1938.000000	0.264197
1939.000000	0.264908
1940.000000	0.265679
1941.000000	0.265986
1942.000000	0.266582
1943.000000	0.266744
1944.000000	0.266686
1945.000000	0.267070
1946.000000	0.267603
1947.000000	0.267985
1948.000000	0.268745
1949.000000	0.269605
1950.000000	0.269930
1951.000000	0.270331
1952.000000	0.270991
1953.000000	0.271216
1954.000000	0.271196
1955.000000	0.271671
1956.000000	0.271684
1957.000000	0.271466
1958.000000	0.271636
1959.000000	0.271905
1960.000000	0.272006
1961.000000	0.272267
1962.000000	0.272729
1963.000000	0.273370
1964.000000	0.273906
1965.000000	0.274527
1966.000000	0.275005
1967.000000	0.275101
1968.000000	0.275690
1969.000000	0.276069
1970.000000	0.276867
1971.000000	0.277927
1972.000000	0.277790
1973.000000	0.277785
1974.000000	0.277493
1975.000000	0.277557
1976.000000	0.277428
1977.000000	0.278226
1978.000000	0.278902
1979.000000	0.279863
1980.000000	0.281027
1981.000000	0.282013
1982.000000	0.283222
1983.000000	0.284493
1984.000000	0.285129
1985.000000	0.285222
1986.000000	0.285388
1987.000000	0.285065
1988.000000	0.285301
1989.000000	0.285948
1990.000000	0.287413
1991.000000	0.288611
1992.000000	0.289336
1993.000000	0.290410
1994.000000	0.290601
1995.000000	0.290271
1996.000000	0.290522
1997.000000	0.290749
1998.000000	0.290326
1999.000000	0.291064
2000.000000	0.292848
2001.000000	0.294116
2002.000000	0.295365
2003.000000	0.296615
2004.000000	0.297401
2005.000000	0.297937
2006.000000	0.298500
2007.000000	0.298803
2008.000000	0.299274
2009.000000	0.299588
2010.000000	0.300197
2011.000000	0.300872
2012.000000	0.301619
2013.000000	0.302389
2014.000000	0.303015
2015.000000	0.304152
2016.000000	0.305141
2017.000000	0.306283
2018.000000	0.307143
2019.000000	0.307391
2020.000000	0.307879
2021.000000	0.308567
2022.000000	0.309410
2023.000000	0.310041
2024.000000	0.311002
2025.000000	0.311494
2026.000000	0.311647
2027.000000	0.311081
2028.000000	0.310806
2029.000000	0.311083
2030.000000	0.311172
2031.000000	0.311874
2032.000000	0.312920
2033.000000	0.313520
2034.000000	0.314018
2035.000000	0.314560
2036.000000	0.314994
2037.000000	0.315048
2038.000000	0.315819
2039.000000	0.317299
2040.000000	0.318289
2041.000000	0.319062
2042.000000	0.320052
2043.000000	0.319885
2044.000000	0.319854
2045.000000	0.320430
2046.000000	0.320056
2047.000000	0.320298
2048.000000	0.320826
2049.000000	0.321372
2050.000000	0.321758
2051.000000	0.322158
2052.000000	0.322549
2053.000000	0.322754
2054.000000	0.322902
2055.000000	0.323369
2056.000000	0.324114
2057.000000	0.324746
2058.000000	0.325270
2059.000000	0.325520
2060.000000	0.325667
2061.000000	0.325166
2062.000000	0.325282
2063.000000	0.325892
2064.000000	0.326075
2065.000000	0.326510
2066.000000	0.326721
2067.000000	0.326875
2068.000000	0.327239
2069.000000	0.327534
2070.000000	0.328547
2071.000000	0.329467
2072.000000	0.329700
2073.000000	0.330116
2074.000000	0.330275
2075.000000	0.330491
2076.000000	0.330586
2077.000000	0.330818
2078.000000	0.330881
2079.000000	0.331360
2080.000000	0.332373
2081.000000	0.333001
2082.000000	0.333851
2083.000000	0.334462
2084.000000	0.334413
2085.000000	0.333847
2086.000000	0.334197
2087.000000	0.334873
2088.000000	0.335283
2089.000000	0.336448
2090.000000	0.336665
2091.000000	0.336044
2092.000000	0.335948
2093.000000	0.335291
2094.000000	0.335361
2095.000000	0.336252
2096.000000	0.336785
2097.000000	0.337188
2098.000000	0.338355
2099.000000	0.338877
2100.000000	0.338482
2101.000000	0.338194
2102.000000	0.338170
2103.000000	0.338751
2104.000000	0.339638
2105.000000	0.339791
2106.000000	0.339736
2107.000000	0.339987
2108.000000	0.339480
2109.000000	0.339694
2110.000000	0.341049
2111.000000	0.341093
2112.000000	0.340318
2113.000000	0.339744
2114.000000	0.338557
2115.000000	0.337575
2116.000000	0.337907
2117.000000	0.337890
2118.000000	0.338825
2119.000000	0.340294
2120.000000	0.340684
2121.000000	0.340761
2122.000000	0.340799
2123.000000	0.339780
2124.000000	0.339659
2125.000000	0.340317
2126.000000	0.340247
2127.000000	0.339897
2128.000000	0.339966
2129.000000	0.339665
2130.000000	0.339715
2131.000000	0.340256
2132.000000	0.340909
2133.000000	0.341773
2134.000000	0.342428
2135.000000	0.342718
2136.000000	0.342949
2137.000000	0.343036
2138.000000	0.342722
2139.000000	0.342504
2140.000000	0.342064
2141.000000	0.342111
2142.000000	0.342642
2143.000000	0.342218
2144.000000	0.341765
2145.000000	0.341559
2146.000000	0.340821
2147.000000	0.340566
2148.000000	0.340775
2149.000000	0.341245
2150.000000	0.341375
2151.000000	0.340979
2152.000000	0.341065
2153.000000	0.340915
2154.000000	0.340386
2155.000000	0.339114
2156.000000	0.339078
2157.000000	0.339629
2158.000000	0.339548
2159.000000	0.340423
2160.000000	0.340473
2161.000000	0.339035
2162.000000	0.338617
2163.000000	0.338144
2164.000000	0.337933
2165.000000	0.338237
2166.000000	0.338632
2167.000000	0.338178
2168.000000	0.339274
2169.000000	0.339513
2170.000000	0.338775
2171.000000	0.338743
2172.000000	0.338826
2173.000000	0.338813
2174.000000	0.338875
2175.000000	0.339249
2176.000000	0.339867
2177.000000	0.340170
2178.000000	0.340861
2179.000000	0.341314
2180.000000	0.341060
2181.000000	0.341590
2182.000000	0.342507
2183.000000	0.342089
2184.000000	0.341549
2185.000000	0.340465
2186.000000	0.338272
2187.000000	0.337202
2188.000000	0.336861
2189.000000	0.336819
2190.000000	0.337101
2191.000000	0.337323
2192.000000	0.337196
2193.000000	0.336283
2194.000000	0.335936
2195.000000	0.335982
2196.000000	0.335570
2197.000000	0.335851
2198.000000	0.335082
2199.000000	0.332441
2200.000000	0.331917
2201.000000	0.331566
2202.000000	0.330779
2203.000000	0.331210
2204.000000	0.331569
2205.000000	0.329234
2206.000000	0.330787
2207.000000	0.331995
2208.000000	0.332238
2209.000000	0.331711
2210.000000	0.331606
2211.000000	0.330311
2212.000000	0.328370
2213.000000	0.328616
2214.000000	0.329852
2215.000000	0.330661
2216.000000	0.333476
2217.000000	0.334723
2218.000000	0.334629
2219.000000	0.335146
2220.000000	0.335909
2221.000000	0.336122
2222.000000	0.336043
2223.000000	0.336065
2224.000000	0.335769
2225.000000	0.335771
2226.000000	0.334880
2227.000000	0.333070
2228.000000	0.332467
2229.000000	0.331456
2230.000000	0.331895
2231.000000	0.333273
2232.000000	0.332399
2233.000000	0.331147
2234.000000	0.330085
2235.000000	0.329889
2236.000000	0.330016
2237.000000	0.331395
2238.000000	0.331959
2239.000000	0.332915
2240.000000	0.332457
2241.000000	0.330821
2242.000000	0.330496
2243.000000	0.328567
2244.000000	0.328959
2245.000000	0.332246
2246.000000	0.333802
2247.000000	0.336369
2248.000000	0.337778
2249.000000	0.338566
2250.000000	0.337481
2251.000000	0.337292
2252.000000	0.334552
2253.000000	0.333740
2254.000000	0.334232
2255.000000	0.333380
2256.000000	0.334969
2257.000000	0.335339
2258.000000	0.332171
2259.000000	0.328752
2260.000000	0.327632
2261.000000	0.326577
2262.000000	0.325968
2263.000000	0.325571
2264.000000	0.326728
2265.000000	0.325455
2266.000000	0.323112
2267.000000	0.320577
2268.000000	0.316483
2269.000000	0.313680
2270.000000	0.311478
2271.000000	0.309508
2272.000000	0.307687
2273.000000	0.306131
2274.000000	0.304585
2275.000000	0.302417
2276.000000	0.299988
2277.000000	0.299196
2278.000000	0.295629
2279.000000	0.294354
2280.000000	0.293069
2281.000000	0.290795
2282.000000	0.290071
2283.000000	0.288273
2284.000000	0.288955
2285.000000	0.289549
2286.000000	0.289600
2287.000000	0.290731
2288.000000	0.289334
2289.000000	0.288623
2290.000000	0.288976
2291.000000	0.289327
2292.000000	0.290358
2293.000000	0.289961
2294.000000	0.290602
2295.000000	0.291061
2296.000000	0.293268
2297.000000	0.297098
2298.000000	0.299796
2299.000000	0.303388
2300.000000	0.305497
2301.000000	0.306571
2302.000000	0.307304
2303.000000	0.307304
2304.000000	0.307152
2305.000000	0.305370
2306.000000	0.305519
2307.000000	0.307016
2308.000000	0.308010
2309.000000	0.307405
2310.000000	0.307002
2311.000000	0.306243
2312.000000	0.305545
2313.000000	0.305915
2314.000000	0.306197
2315.000000	0.307145
2316.000000	0.307634
2317.000000	0.307475
2318.000000	0.310471
2319.000000	0.312731
2320.000000	0.311888
2321.000000	0.313091
2322.000000	0.312711
2323.000000	0.310040
2324.000000	0.308618
2325.000000	0.305955
2326.000000	0.304912
2327.000000	0.304906
2328.000000	0.305510
2329.000000	0.308984
2330.000000	0.310573
2331.000000	0.312112
2332.000000	0.313930
2333.000000	0.311377
2334.000000	0.306843
2335.000000	0.304202
2336.000000	0.298786
2337.000000	0.297492
2338.000000	0.300390
2339.000000	0.301521
2340.000000	0.304996
2341.000000	0.304737
2342.000000	0.301868
2343.000000	0.300845
2344.000000	0.297763
2345.000000	0.296681
2346.000000	0.296790
2347.000000	0.296045
2348.000000	0.295686
2349.000000	0.296299
2350.000000	0.294671
2351.000000	0.296190
2352.000000	0.296572
2353.000000	0.295657
2354.000000	0.296047
2355.000000	0.295814
2356.000000	0.292961
2357.000000	0.290571
2358.000000	0.287763
2359.000000	0.284758
2360.000000	0.287268
2361.000000	0.289461
2362.000000	0.289171
2363.000000	0.291509
2364.000000	0.288819
2365.000000	0.288050
2366.000000	0.289819
2367.000000	0.285484
2368.000000	0.282041
2369.000000	0.277367
2370.000000	0.268608
2371.000000	0.264328
2372.000000	0.266438
2373.000000	0.267571
2374.000000	0.270849
2375.000000	0.275771
2376.000000	0.276011
2377.000000	0.272045
2378.000000	0.268510
2379.000000	0.267097
2380.000000	0.266558
2381.000000	0.268858
2382.000000	0.269748
2383.000000	0.267846
2384.000000	0.264834
2385.000000	0.265587
2386.000000	0.269080
2387.000000	0.269923
2388.000000	0.270653
2389.000000	0.266868
2390.000000	0.261131
2391.000000	0.256706
2392.000000	0.251086
2393.000000	0.249025
2394.000000	0.249004
2395.000000	0.248067
2396.000000	0.250620
2397.000000	0.255344
2398.000000	0.257293
2399.000000	0.256145
2400.000000	0.249619
2401.000000	0.243860
2402.000000	0.238753
2403.000000	0.234711
2404.000000	0.244386
2405.000000	0.250269
2406.000000	0.251446
2407.000000	0.261746
2408.000000	0.262528
2409.000000	0.263933
2410.000000	0.269116
2411.000000	0.264988
2412.000000	0.268621
2413.000000	0.269019
2414.000000	0.260698
2415.000000	0.253146
2416.000000	0.237121
2417.000000	0.226219
2418.000000	0.225206
2419.000000	0.226141
2420.000000	0.234778
2421.000000	0.237141
2422.000000	0.237763
2423.000000	0.240377
2424.000000	0.235144
2425.000000	0.244054
2426.000000	0.248886
2427.000000	0.240982
2428.000000	0.245035
2429.000000	0.243993
2430.000000	0.239566
2431.000000	0.249054
2432.000000	0.247741
2433.000000	0.239358
2434.000000	0.241497
2435.000000	0.240245
2436.000000	0.239295
2437.000000	0.232223
2438.000000	0.221862
2439.000000	0.214917
2440.000000	0.213795
2441.000000	0.216741
2442.000000	0.219882
2443.000000	0.226339
2444.000000	0.221310
2445.000000	0.226013
2446.000000	0.229560
2447.000000	0.234337
2448.000000	0.248536
2449.000000	0.258291
2450.000000	0.279680
2451.000000	0.278655
2452.000000	0.274372
2453.000000	0.276190
2454.000000	0.260896
2455.000000	0.255539
2456.000000	0.247815
2457.000000	0.236168
2458.000000	0.230349
2459.000000	0.234974
2460.000000	0.253013
2461.000000	0.256976
2462.000000	0.249873
2463.000000	0.234445
2464.000000	0.209696
2465.000000	0.209988
2466.000000	0.216749
2467.000000	0.220984
2468.000000	0.231094
2469.000000	0.223626
2470.000000	0.214593
2471.000000	0.204581
2472.000000	0.201098
2473.000000	0.198932
2474.000000	0.175924
2475.000000	0.171163
2476.000000	0.153545
2477.000000	0.143361
2478.000000	0.163775
2479.000000	0.173814
2480.000000	0.207262
2481.000000	0.238734
2482.000000	0.244372
2483.000000	0.268483
2484.000000	0.264633
2485.000000	0.238012
2486.000000	0.220871
2487.000000	0.177623
2488.000000	0.147847
2489.000000	0.145450
2490.000000	0.123545
2491.000000	0.097394
2492.000000	0.110037
2493.000000	0.136410
2494.000000	0.168489
2495.000000	0.264829
2496.000000	0.287885
2497.000000	0.250513
2498.000000	0.254424
2499.000000	0.260944
2500.000000	0.257809
