# Wavelength	NAu-2-30_HEX-50_FV7-20_000000000.asd.rts.txt
350.000000	0.171545
351.000000	0.164438
352.000000	0.169242
353.000000	0.170904
354.000000	0.164948
355.000000	0.162180
356.000000	0.160173
357.000000	0.160565
358.000000	0.165463
359.000000	0.167778
360.000000	0.165798
361.000000	0.160407
362.000000	0.161478
363.000000	0.164218
364.000000	0.164540
365.000000	0.164193
366.000000	0.162594
367.000000	0.160807
368.000000	0.161844
369.000000	0.162934
370.000000	0.163683
371.000000	0.164379
372.000000	0.165358
373.000000	0.164338
374.000000	0.161551
375.000000	0.163210
376.000000	0.164670
377.000000	0.164320
378.000000	0.163409
379.000000	0.163855
380.000000	0.164626
381.000000	0.164490
382.000000	0.164897
383.000000	0.165058
384.000000	0.164721
385.000000	0.165219
386.000000	0.165500
387.000000	0.165677
388.000000	0.166955
389.000000	0.167970
390.000000	0.168321
391.000000	0.167824
392.000000	0.167139
393.000000	0.166899
394.000000	0.167319
395.000000	0.167447
396.000000	0.167889
397.000000	0.168561
398.000000	0.168476
399.000000	0.168336
400.000000	0.168415
401.000000	0.168724
402.000000	0.169032
403.000000	0.169146
404.000000	0.169121
405.000000	0.169425
406.000000	0.169727
407.000000	0.169918
408.000000	0.170183
409.000000	0.170572
410.000000	0.171012
411.000000	0.171332
412.000000	0.171657
413.000000	0.171963
414.000000	0.172225
415.000000	0.172501
416.000000	0.172801
417.000000	0.173151
418.000000	0.173682
419.000000	0.174026
420.000000	0.174148
421.000000	0.174276
422.000000	0.174497
423.000000	0.174803
424.000000	0.175177
425.000000	0.175330
426.000000	0.175579
427.000000	0.176107
428.000000	0.176545
429.000000	0.176887
430.000000	0.177211
431.000000	0.177734
432.000000	0.177976
433.000000	0.178066
434.000000	0.178474
435.000000	0.178890
436.000000	0.179163
437.000000	0.179255
438.000000	0.179585
439.000000	0.179969
440.000000	0.180320
441.000000	0.180538
442.000000	0.180788
443.000000	0.181060
444.000000	0.181343
445.000000	0.181546
446.000000	0.181832
447.000000	0.182251
448.000000	0.182569
449.000000	0.182910
450.000000	0.183376
451.000000	0.183911
452.000000	0.184268
453.000000	0.184497
454.000000	0.185200
455.000000	0.185618
456.000000	0.185846
457.000000	0.186188
458.000000	0.186627
459.000000	0.187057
460.000000	0.187428
461.000000	0.187806
462.000000	0.188192
463.000000	0.188502
464.000000	0.188902
465.000000	0.189337
466.000000	0.189698
467.000000	0.189928
468.000000	0.190223
469.000000	0.190573
470.000000	0.191008
471.000000	0.191293
472.000000	0.191550
473.000000	0.191889
474.000000	0.192203
475.000000	0.192472
476.000000	0.192802
477.000000	0.193188
478.000000	0.193425
479.000000	0.193729
480.000000	0.194201
481.000000	0.194489
482.000000	0.194768
483.000000	0.195073
484.000000	0.195400
485.000000	0.195664
486.000000	0.195942
487.000000	0.196154
488.000000	0.196405
489.000000	0.196702
490.000000	0.196963
491.000000	0.197207
492.000000	0.197459
493.000000	0.197642
494.000000	0.197799
495.000000	0.197993
496.000000	0.198200
497.000000	0.198255
498.000000	0.198363
499.000000	0.198621
500.000000	0.198860
501.000000	0.199018
502.000000	0.199151
503.000000	0.199302
504.000000	0.199443
505.000000	0.199640
506.000000	0.199947
507.000000	0.200237
508.000000	0.200501
509.000000	0.200748
510.000000	0.201121
511.000000	0.201465
512.000000	0.201786
513.000000	0.202165
514.000000	0.202569
515.000000	0.202988
516.000000	0.203371
517.000000	0.203734
518.000000	0.204128
519.000000	0.204528
520.000000	0.204946
521.000000	0.205374
522.000000	0.205832
523.000000	0.206369
524.000000	0.206981
525.000000	0.207619
526.000000	0.208240
527.000000	0.208949
528.000000	0.209744
529.000000	0.210629
530.000000	0.211515
531.000000	0.212493
532.000000	0.213549
533.000000	0.214657
534.000000	0.215813
535.000000	0.216995
536.000000	0.218196
537.000000	0.219331
538.000000	0.220414
539.000000	0.221491
540.000000	0.222519
541.000000	0.223504
542.000000	0.224481
543.000000	0.225405
544.000000	0.226352
545.000000	0.227299
546.000000	0.228224
547.000000	0.229167
548.000000	0.230165
549.000000	0.231178
550.000000	0.232231
551.000000	0.233351
552.000000	0.234517
553.000000	0.235713
554.000000	0.236985
555.000000	0.238366
556.000000	0.239807
557.000000	0.241249
558.000000	0.242767
559.000000	0.244292
560.000000	0.245827
561.000000	0.247395
562.000000	0.248902
563.000000	0.250387
564.000000	0.251872
565.000000	0.253274
566.000000	0.254616
567.000000	0.255918
568.000000	0.257155
569.000000	0.258262
570.000000	0.259294
571.000000	0.260265
572.000000	0.261178
573.000000	0.261994
574.000000	0.262695
575.000000	0.263324
576.000000	0.263881
577.000000	0.264378
578.000000	0.264871
579.000000	0.265296
580.000000	0.265623
581.000000	0.265861
582.000000	0.266092
583.000000	0.266276
584.000000	0.266424
585.000000	0.266574
586.000000	0.266616
587.000000	0.266569
588.000000	0.266488
589.000000	0.266381
590.000000	0.266238
591.000000	0.266055
592.000000	0.265842
593.000000	0.265614
594.000000	0.265356
595.000000	0.265030
596.000000	0.264703
597.000000	0.264413
598.000000	0.264090
599.000000	0.263713
600.000000	0.263336
601.000000	0.262937
602.000000	0.262507
603.000000	0.262096
604.000000	0.261715
605.000000	0.261283
606.000000	0.260842
607.000000	0.260390
608.000000	0.259901
609.000000	0.259446
610.000000	0.259024
611.000000	0.258611
612.000000	0.258165
613.000000	0.257716
614.000000	0.257314
615.000000	0.256913
616.000000	0.256508
617.000000	0.256079
618.000000	0.255681
619.000000	0.255304
620.000000	0.254918
621.000000	0.254541
622.000000	0.254178
623.000000	0.253831
624.000000	0.253499
625.000000	0.253170
626.000000	0.252861
627.000000	0.252573
628.000000	0.252269
629.000000	0.252041
630.000000	0.251790
631.000000	0.251551
632.000000	0.251317
633.000000	0.251125
634.000000	0.250993
635.000000	0.250887
636.000000	0.250813
637.000000	0.250766
638.000000	0.250752
639.000000	0.250780
640.000000	0.250870
641.000000	0.250908
642.000000	0.250940
643.000000	0.250996
644.000000	0.251097
645.000000	0.251162
646.000000	0.251233
647.000000	0.251324
648.000000	0.251408
649.000000	0.251552
650.000000	0.251746
651.000000	0.251924
652.000000	0.252113
653.000000	0.252362
654.000000	0.252655
655.000000	0.252955
656.000000	0.253309
657.000000	0.253707
658.000000	0.254084
659.000000	0.254466
660.000000	0.254858
661.000000	0.255252
662.000000	0.255686
663.000000	0.256176
664.000000	0.256635
665.000000	0.257149
666.000000	0.257701
667.000000	0.258238
668.000000	0.258849
669.000000	0.259493
670.000000	0.260149
671.000000	0.260841
672.000000	0.261562
673.000000	0.262302
674.000000	0.263067
675.000000	0.263838
676.000000	0.264632
677.000000	0.265487
678.000000	0.266368
679.000000	0.267256
680.000000	0.268150
681.000000	0.269062
682.000000	0.270038
683.000000	0.271025
684.000000	0.272063
685.000000	0.273120
686.000000	0.274214
687.000000	0.275330
688.000000	0.276453
689.000000	0.277574
690.000000	0.278731
691.000000	0.279956
692.000000	0.281161
693.000000	0.282397
694.000000	0.283726
695.000000	0.285063
696.000000	0.286403
697.000000	0.287769
698.000000	0.289135
699.000000	0.290521
700.000000	0.291945
701.000000	0.293353
702.000000	0.294789
703.000000	0.296251
704.000000	0.297718
705.000000	0.299262
706.000000	0.300840
707.000000	0.302450
708.000000	0.304044
709.000000	0.305628
710.000000	0.307241
711.000000	0.308895
712.000000	0.310594
713.000000	0.312336
714.000000	0.314047
715.000000	0.315744
716.000000	0.317433
717.000000	0.319098
718.000000	0.320775
719.000000	0.322442
720.000000	0.324098
721.000000	0.325782
722.000000	0.327436
723.000000	0.329120
724.000000	0.330863
725.000000	0.332558
726.000000	0.334255
727.000000	0.335899
728.000000	0.337539
729.000000	0.339184
730.000000	0.340775
731.000000	0.342344
732.000000	0.343896
733.000000	0.345465
734.000000	0.346997
735.000000	0.348496
736.000000	0.350068
737.000000	0.351570
738.000000	0.353004
739.000000	0.354464
740.000000	0.355831
741.000000	0.357208
742.000000	0.358569
743.000000	0.359868
744.000000	0.361139
745.000000	0.362362
746.000000	0.363612
747.000000	0.364858
748.000000	0.366086
749.000000	0.367290
750.000000	0.368434
751.000000	0.369545
752.000000	0.370626
753.000000	0.371692
754.000000	0.372741
755.000000	0.373738
756.000000	0.374698
757.000000	0.375594
758.000000	0.376475
759.000000	0.377342
760.000000	0.378133
761.000000	0.379012
762.000000	0.379833
763.000000	0.380557
764.000000	0.381298
765.000000	0.382012
766.000000	0.382706
767.000000	0.383377
768.000000	0.384014
769.000000	0.384586
770.000000	0.385107
771.000000	0.385644
772.000000	0.386186
773.000000	0.386662
774.000000	0.387137
775.000000	0.387570
776.000000	0.387988
777.000000	0.388397
778.000000	0.388814
779.000000	0.389186
780.000000	0.389520
781.000000	0.389852
782.000000	0.390144
783.000000	0.390472
784.000000	0.390710
785.000000	0.390937
786.000000	0.391163
787.000000	0.391387
788.000000	0.391622
789.000000	0.391812
790.000000	0.391963
791.000000	0.392163
792.000000	0.392298
793.000000	0.392439
794.000000	0.392649
795.000000	0.392824
796.000000	0.392957
797.000000	0.393062
798.000000	0.393195
799.000000	0.393327
800.000000	0.393463
801.000000	0.393617
802.000000	0.393754
803.000000	0.393834
804.000000	0.393892
805.000000	0.393936
806.000000	0.393915
807.000000	0.393923
808.000000	0.393924
809.000000	0.393886
810.000000	0.393853
811.000000	0.393835
812.000000	0.393774
813.000000	0.393709
814.000000	0.393657
815.000000	0.393646
816.000000	0.393636
817.000000	0.393631
818.000000	0.393547
819.000000	0.393528
820.000000	0.393526
821.000000	0.393432
822.000000	0.393248
823.000000	0.393103
824.000000	0.392937
825.000000	0.392788
826.000000	0.392694
827.000000	0.392610
828.000000	0.392560
829.000000	0.392556
830.000000	0.392496
831.000000	0.392440
832.000000	0.392323
833.000000	0.392191
834.000000	0.392071
835.000000	0.392008
836.000000	0.391933
837.000000	0.391813
838.000000	0.391676
839.000000	0.391538
840.000000	0.391364
841.000000	0.391217
842.000000	0.391094
843.000000	0.390950
844.000000	0.390808
845.000000	0.390642
846.000000	0.390465
847.000000	0.390291
848.000000	0.390116
849.000000	0.389970
850.000000	0.389806
851.000000	0.389588
852.000000	0.389364
853.000000	0.389159
854.000000	0.388896
855.000000	0.388753
856.000000	0.388688
857.000000	0.388485
858.000000	0.388316
859.000000	0.388168
860.000000	0.387983
861.000000	0.387838
862.000000	0.387740
863.000000	0.387562
864.000000	0.387304
865.000000	0.387043
866.000000	0.386847
867.000000	0.386660
868.000000	0.386463
869.000000	0.386199
870.000000	0.385955
871.000000	0.385808
872.000000	0.385611
873.000000	0.385271
874.000000	0.385126
875.000000	0.384899
876.000000	0.384586
877.000000	0.384207
878.000000	0.383829
879.000000	0.383559
880.000000	0.383274
881.000000	0.383037
882.000000	0.382792
883.000000	0.382547
884.000000	0.382257
885.000000	0.382002
886.000000	0.381722
887.000000	0.381427
888.000000	0.381172
889.000000	0.380943
890.000000	0.380642
891.000000	0.380418
892.000000	0.380188
893.000000	0.379922
894.000000	0.379730
895.000000	0.379446
896.000000	0.379137
897.000000	0.378831
898.000000	0.378539
899.000000	0.378195
900.000000	0.377904
901.000000	0.377652
902.000000	0.377404
903.000000	0.377190
904.000000	0.377031
905.000000	0.376818
906.000000	0.376668
907.000000	0.376436
908.000000	0.376142
909.000000	0.375778
910.000000	0.375380
911.000000	0.374994
912.000000	0.374683
913.000000	0.374427
914.000000	0.374254
915.000000	0.374166
916.000000	0.373941
917.000000	0.373646
918.000000	0.373387
919.000000	0.373179
920.000000	0.372896
921.000000	0.372613
922.000000	0.372315
923.000000	0.371932
924.000000	0.371651
925.000000	0.371397
926.000000	0.371152
927.000000	0.370909
928.000000	0.370643
929.000000	0.370349
930.000000	0.370048
931.000000	0.369798
932.000000	0.369540
933.000000	0.369301
934.000000	0.369082
935.000000	0.368833
936.000000	0.368570
937.000000	0.368214
938.000000	0.367905
939.000000	0.367623
940.000000	0.367317
941.000000	0.367102
942.000000	0.366785
943.000000	0.366578
944.000000	0.366405
945.000000	0.366111
946.000000	0.365815
947.000000	0.365636
948.000000	0.365537
949.000000	0.365245
950.000000	0.364971
951.000000	0.364704
952.000000	0.364355
953.000000	0.364097
954.000000	0.363862
955.000000	0.363522
956.000000	0.363273
957.000000	0.363023
958.000000	0.362708
959.000000	0.362436
960.000000	0.362199
961.000000	0.362040
962.000000	0.361912
963.000000	0.361736
964.000000	0.361572
965.000000	0.361374
966.000000	0.361003
967.000000	0.360745
968.000000	0.360533
969.000000	0.360300
970.000000	0.360125
971.000000	0.359924
972.000000	0.359755
973.000000	0.359582
974.000000	0.359465
975.000000	0.359244
976.000000	0.359026
977.000000	0.358893
978.000000	0.358698
979.000000	0.358607
980.000000	0.358414
981.000000	0.358331
982.000000	0.358182
983.000000	0.357961
984.000000	0.357781
985.000000	0.357665
986.000000	0.357479
987.000000	0.357304
988.000000	0.357093
989.000000	0.356914
990.000000	0.356894
991.000000	0.356865
992.000000	0.356700
993.000000	0.356724
994.000000	0.356650
995.000000	0.356617
996.000000	0.356588
997.000000	0.356480
998.000000	0.356285
999.000000	0.356226
1000.000000	0.356513
1001.000000	0.356497
1002.000000	0.356381
1003.000000	0.356147
1004.000000	0.355984
1005.000000	0.355832
1006.000000	0.355589
1007.000000	0.355242
1008.000000	0.355275
1009.000000	0.355460
1010.000000	0.355318
1011.000000	0.355515
1012.000000	0.355710
1013.000000	0.355549
1014.000000	0.355484
1015.000000	0.355266
1016.000000	0.355067
1017.000000	0.354937
1018.000000	0.355173
1019.000000	0.355341
1020.000000	0.355968
1021.000000	0.355809
1022.000000	0.355323
1023.000000	0.355435
1024.000000	0.355315
1025.000000	0.355690
1026.000000	0.356266
1027.000000	0.356291
1028.000000	0.356084
1029.000000	0.356169
1030.000000	0.356240
1031.000000	0.356383
1032.000000	0.356614
1033.000000	0.356547
1034.000000	0.356577
1035.000000	0.356566
1036.000000	0.356609
1037.000000	0.356671
1038.000000	0.356708
1039.000000	0.356834
1040.000000	0.357067
1041.000000	0.357160
1042.000000	0.357180
1043.000000	0.357387
1044.000000	0.357651
1045.000000	0.357870
1046.000000	0.358171
1047.000000	0.358456
1048.000000	0.358665
1049.000000	0.358672
1050.000000	0.358559
1051.000000	0.358666
1052.000000	0.358578
1053.000000	0.358592
1054.000000	0.359214
1055.000000	0.359538
1056.000000	0.359654
1057.000000	0.359877
1058.000000	0.360188
1059.000000	0.360148
1060.000000	0.360405
1061.000000	0.360802
1062.000000	0.360952
1063.000000	0.361236
1064.000000	0.361494
1065.000000	0.361564
1066.000000	0.361821
1067.000000	0.362276
1068.000000	0.362483
1069.000000	0.362477
1070.000000	0.362657
1071.000000	0.362875
1072.000000	0.363096
1073.000000	0.363419
1074.000000	0.363985
1075.000000	0.364235
1076.000000	0.364392
1077.000000	0.364533
1078.000000	0.364591
1079.000000	0.364723
1080.000000	0.364897
1081.000000	0.365061
1082.000000	0.365335
1083.000000	0.365583
1084.000000	0.365900
1085.000000	0.366200
1086.000000	0.366460
1087.000000	0.366748
1088.000000	0.366950
1089.000000	0.367133
1090.000000	0.367266
1091.000000	0.367413
1092.000000	0.367562
1093.000000	0.367849
1094.000000	0.368044
1095.000000	0.368158
1096.000000	0.368406
1097.000000	0.368650
1098.000000	0.368966
1099.000000	0.369380
1100.000000	0.369731
1101.000000	0.370076
1102.000000	0.370286
1103.000000	0.370337
1104.000000	0.370503
1105.000000	0.370547
1106.000000	0.370742
1107.000000	0.371044
1108.000000	0.371291
1109.000000	0.371664
1110.000000	0.372000
1111.000000	0.372250
1112.000000	0.372452
1113.000000	0.372664
1114.000000	0.372806
1115.000000	0.373017
1116.000000	0.373316
1117.000000	0.373489
1118.000000	0.373577
1119.000000	0.373674
1120.000000	0.373690
1121.000000	0.373770
1122.000000	0.373990
1123.000000	0.374395
1124.000000	0.374663
1125.000000	0.374922
1126.000000	0.375145
1127.000000	0.375312
1128.000000	0.375430
1129.000000	0.375478
1130.000000	0.375659
1131.000000	0.375950
1132.000000	0.376038
1133.000000	0.376142
1134.000000	0.376271
1135.000000	0.376226
1136.000000	0.376256
1137.000000	0.376400
1138.000000	0.376403
1139.000000	0.376346
1140.000000	0.376484
1141.000000	0.376646
1142.000000	0.376785
1143.000000	0.376976
1144.000000	0.377197
1145.000000	0.377189
1146.000000	0.377092
1147.000000	0.377066
1148.000000	0.376887
1149.000000	0.376866
1150.000000	0.376943
1151.000000	0.377008
1152.000000	0.377036
1153.000000	0.377132
1154.000000	0.377231
1155.000000	0.377282
1156.000000	0.377359
1157.000000	0.377430
1158.000000	0.377385
1159.000000	0.377401
1160.000000	0.377475
1161.000000	0.377489
1162.000000	0.377503
1163.000000	0.377702
1164.000000	0.377832
1165.000000	0.377861
1166.000000	0.377960
1167.000000	0.378044
1168.000000	0.378082
1169.000000	0.378132
1170.000000	0.378200
1171.000000	0.378316
1172.000000	0.378421
1173.000000	0.378483
1174.000000	0.378551
1175.000000	0.378560
1176.000000	0.378579
1177.000000	0.378744
1178.000000	0.378806
1179.000000	0.378806
1180.000000	0.378771
1181.000000	0.378752
1182.000000	0.378739
1183.000000	0.378832
1184.000000	0.378975
1185.000000	0.379057
1186.000000	0.379145
1187.000000	0.379198
1188.000000	0.379207
1189.000000	0.379203
1190.000000	0.379250
1191.000000	0.379277
1192.000000	0.379382
1193.000000	0.379579
1194.000000	0.379685
1195.000000	0.379788
1196.000000	0.379859
1197.000000	0.379912
1198.000000	0.379956
1199.000000	0.380013
1200.000000	0.380061
1201.000000	0.380078
1202.000000	0.380135
1203.000000	0.380225
1204.000000	0.380280
1205.000000	0.380437
1206.000000	0.380492
1207.000000	0.380622
1208.000000	0.380670
1209.000000	0.380732
1210.000000	0.380784
1211.000000	0.380803
1212.000000	0.380837
1213.000000	0.380925
1214.000000	0.381024
1215.000000	0.381134
1216.000000	0.381195
1217.000000	0.381184
1218.000000	0.381192
1219.000000	0.381198
1220.000000	0.381250
1221.000000	0.381346
1222.000000	0.381425
1223.000000	0.381532
1224.000000	0.381612
1225.000000	0.381608
1226.000000	0.381701
1227.000000	0.381735
1228.000000	0.381792
1229.000000	0.381802
1230.000000	0.381777
1231.000000	0.381741
1232.000000	0.381808
1233.000000	0.381932
1234.000000	0.382094
1235.000000	0.382178
1236.000000	0.382094
1237.000000	0.382183
1238.000000	0.382300
1239.000000	0.382337
1240.000000	0.382399
1241.000000	0.382458
1242.000000	0.382427
1243.000000	0.382446
1244.000000	0.382575
1245.000000	0.382814
1246.000000	0.382977
1247.000000	0.383124
1248.000000	0.383277
1249.000000	0.383396
1250.000000	0.383509
1251.000000	0.383668
1252.000000	0.383760
1253.000000	0.383855
1254.000000	0.383909
1255.000000	0.383874
1256.000000	0.383936
1257.000000	0.384076
1258.000000	0.384182
1259.000000	0.384228
1260.000000	0.384358
1261.000000	0.384412
1262.000000	0.384485
1263.000000	0.384640
1264.000000	0.384761
1265.000000	0.384856
1266.000000	0.384908
1267.000000	0.384967
1268.000000	0.385024
1269.000000	0.385080
1270.000000	0.385240
1271.000000	0.385343
1272.000000	0.385488
1273.000000	0.385625
1274.000000	0.385605
1275.000000	0.385608
1276.000000	0.385601
1277.000000	0.385711
1278.000000	0.385735
1279.000000	0.385806
1280.000000	0.385899
1281.000000	0.385916
1282.000000	0.385948
1283.000000	0.386054
1284.000000	0.386061
1285.000000	0.386155
1286.000000	0.386288
1287.000000	0.386405
1288.000000	0.386581
1289.000000	0.386648
1290.000000	0.386573
1291.000000	0.386530
1292.000000	0.386505
1293.000000	0.386526
1294.000000	0.386565
1295.000000	0.386629
1296.000000	0.386659
1297.000000	0.386658
1298.000000	0.386720
1299.000000	0.386784
1300.000000	0.386902
1301.000000	0.386944
1302.000000	0.386884
1303.000000	0.386889
1304.000000	0.386818
1305.000000	0.386749
1306.000000	0.386679
1307.000000	0.386651
1308.000000	0.386633
1309.000000	0.386592
1310.000000	0.386572
1311.000000	0.386624
1312.000000	0.386594
1313.000000	0.386514
1314.000000	0.386446
1315.000000	0.386300
1316.000000	0.386237
1317.000000	0.386301
1318.000000	0.386287
1319.000000	0.386189
1320.000000	0.386153
1321.000000	0.386005
1322.000000	0.385836
1323.000000	0.385790
1324.000000	0.385762
1325.000000	0.385666
1326.000000	0.385511
1327.000000	0.385400
1328.000000	0.385389
1329.000000	0.385244
1330.000000	0.385100
1331.000000	0.384985
1332.000000	0.384859
1333.000000	0.384728
1334.000000	0.384721
1335.000000	0.384695
1336.000000	0.384641
1337.000000	0.384526
1338.000000	0.384337
1339.000000	0.384144
1340.000000	0.383897
1341.000000	0.383697
1342.000000	0.383573
1343.000000	0.383433
1344.000000	0.383261
1345.000000	0.383066
1346.000000	0.383000
1347.000000	0.382826
1348.000000	0.382676
1349.000000	0.382523
1350.000000	0.382346
1351.000000	0.382152
1352.000000	0.381932
1353.000000	0.381695
1354.000000	0.381475
1355.000000	0.381157
1356.000000	0.380917
1357.000000	0.380671
1358.000000	0.380380
1359.000000	0.380134
1360.000000	0.379885
1361.000000	0.379681
1362.000000	0.379454
1363.000000	0.379211
1364.000000	0.379008
1365.000000	0.378788
1366.000000	0.378604
1367.000000	0.378471
1368.000000	0.378213
1369.000000	0.378097
1370.000000	0.377859
1371.000000	0.377518
1372.000000	0.377196
1373.000000	0.376838
1374.000000	0.376459
1375.000000	0.376026
1376.000000	0.375695
1377.000000	0.375340
1378.000000	0.374923
1379.000000	0.374425
1380.000000	0.373867
1381.000000	0.373260
1382.000000	0.372581
1383.000000	0.371944
1384.000000	0.371209
1385.000000	0.370373
1386.000000	0.369568
1387.000000	0.368785
1388.000000	0.367881
1389.000000	0.366890
1390.000000	0.365879
1391.000000	0.364637
1392.000000	0.363399
1393.000000	0.362064
1394.000000	0.360676
1395.000000	0.359261
1396.000000	0.357809
1397.000000	0.356206
1398.000000	0.354459
1399.000000	0.352784
1400.000000	0.351009
1401.000000	0.349277
1402.000000	0.347648
1403.000000	0.345946
1404.000000	0.344322
1405.000000	0.342744
1406.000000	0.341206
1407.000000	0.339815
1408.000000	0.338346
1409.000000	0.336902
1410.000000	0.335637
1411.000000	0.334335
1412.000000	0.333052
1413.000000	0.331938
1414.000000	0.330784
1415.000000	0.329640
1416.000000	0.328601
1417.000000	0.327588
1418.000000	0.326540
1419.000000	0.325579
1420.000000	0.324580
1421.000000	0.323651
1422.000000	0.322735
1423.000000	0.321892
1424.000000	0.321023
1425.000000	0.320135
1426.000000	0.319248
1427.000000	0.318404
1428.000000	0.317588
1429.000000	0.316790
1430.000000	0.316052
1431.000000	0.315336
1432.000000	0.314608
1433.000000	0.313936
1434.000000	0.313247
1435.000000	0.312597
1436.000000	0.312002
1437.000000	0.311410
1438.000000	0.310841
1439.000000	0.310339
1440.000000	0.309919
1441.000000	0.309547
1442.000000	0.309289
1443.000000	0.309075
1444.000000	0.308904
1445.000000	0.308826
1446.000000	0.308760
1447.000000	0.308714
1448.000000	0.308739
1449.000000	0.308776
1450.000000	0.308870
1451.000000	0.308993
1452.000000	0.309065
1453.000000	0.309105
1454.000000	0.309059
1455.000000	0.309053
1456.000000	0.309129
1457.000000	0.309196
1458.000000	0.309257
1459.000000	0.309259
1460.000000	0.309237
1461.000000	0.309205
1462.000000	0.309165
1463.000000	0.309140
1464.000000	0.309133
1465.000000	0.309164
1466.000000	0.309214
1467.000000	0.309264
1468.000000	0.309328
1469.000000	0.309506
1470.000000	0.309623
1471.000000	0.309784
1472.000000	0.310013
1473.000000	0.310262
1474.000000	0.310509
1475.000000	0.310834
1476.000000	0.311201
1477.000000	0.311589
1478.000000	0.312003
1479.000000	0.312440
1480.000000	0.312887
1481.000000	0.313330
1482.000000	0.313846
1483.000000	0.314376
1484.000000	0.314915
1485.000000	0.315430
1486.000000	0.315922
1487.000000	0.316446
1488.000000	0.317007
1489.000000	0.317582
1490.000000	0.318074
1491.000000	0.318592
1492.000000	0.319046
1493.000000	0.319542
1494.000000	0.320038
1495.000000	0.320510
1496.000000	0.320970
1497.000000	0.321456
1498.000000	0.321967
1499.000000	0.322431
1500.000000	0.322933
1501.000000	0.323375
1502.000000	0.323710
1503.000000	0.324121
1504.000000	0.324541
1505.000000	0.324920
1506.000000	0.325341
1507.000000	0.325704
1508.000000	0.326039
1509.000000	0.326355
1510.000000	0.326670
1511.000000	0.327034
1512.000000	0.327379
1513.000000	0.327732
1514.000000	0.328075
1515.000000	0.328338
1516.000000	0.328621
1517.000000	0.328868
1518.000000	0.329082
1519.000000	0.329233
1520.000000	0.329423
1521.000000	0.329602
1522.000000	0.329833
1523.000000	0.330151
1524.000000	0.330368
1525.000000	0.330566
1526.000000	0.330710
1527.000000	0.330813
1528.000000	0.330996
1529.000000	0.331143
1530.000000	0.331239
1531.000000	0.331433
1532.000000	0.331569
1533.000000	0.331689
1534.000000	0.331880
1535.000000	0.332040
1536.000000	0.332162
1537.000000	0.332380
1538.000000	0.332552
1539.000000	0.332611
1540.000000	0.332692
1541.000000	0.332765
1542.000000	0.332836
1543.000000	0.332950
1544.000000	0.333031
1545.000000	0.333155
1546.000000	0.333288
1547.000000	0.333393
1548.000000	0.333531
1549.000000	0.333650
1550.000000	0.333719
1551.000000	0.333796
1552.000000	0.333917
1553.000000	0.333982
1554.000000	0.334042
1555.000000	0.334158
1556.000000	0.334233
1557.000000	0.334289
1558.000000	0.334362
1559.000000	0.334383
1560.000000	0.334393
1561.000000	0.334425
1562.000000	0.334436
1563.000000	0.334475
1564.000000	0.334513
1565.000000	0.334545
1566.000000	0.334499
1567.000000	0.334530
1568.000000	0.334532
1569.000000	0.334560
1570.000000	0.334590
1571.000000	0.334600
1572.000000	0.334601
1573.000000	0.334619
1574.000000	0.334628
1575.000000	0.334656
1576.000000	0.334685
1577.000000	0.334687
1578.000000	0.334674
1579.000000	0.334704
1580.000000	0.334737
1581.000000	0.334868
1582.000000	0.334897
1583.000000	0.334887
1584.000000	0.334852
1585.000000	0.334803
1586.000000	0.334830
1587.000000	0.334907
1588.000000	0.334939
1589.000000	0.335013
1590.000000	0.335035
1591.000000	0.335025
1592.000000	0.335057
1593.000000	0.335141
1594.000000	0.335136
1595.000000	0.335141
1596.000000	0.335171
1597.000000	0.335193
1598.000000	0.335200
1599.000000	0.335288
1600.000000	0.335271
1601.000000	0.335218
1602.000000	0.335241
1603.000000	0.335305
1604.000000	0.335379
1605.000000	0.335555
1606.000000	0.335636
1607.000000	0.335730
1608.000000	0.335794
1609.000000	0.335872
1610.000000	0.335924
1611.000000	0.335968
1612.000000	0.336038
1613.000000	0.336208
1614.000000	0.336317
1615.000000	0.336494
1616.000000	0.336678
1617.000000	0.336770
1618.000000	0.336904
1619.000000	0.337076
1620.000000	0.337212
1621.000000	0.337363
1622.000000	0.337585
1623.000000	0.337766
1624.000000	0.337952
1625.000000	0.338061
1626.000000	0.338139
1627.000000	0.338185
1628.000000	0.338340
1629.000000	0.338506
1630.000000	0.338691
1631.000000	0.338880
1632.000000	0.339011
1633.000000	0.339108
1634.000000	0.339281
1635.000000	0.339530
1636.000000	0.339720
1637.000000	0.339968
1638.000000	0.340136
1639.000000	0.340258
1640.000000	0.340442
1641.000000	0.340744
1642.000000	0.340930
1643.000000	0.341129
1644.000000	0.341299
1645.000000	0.341364
1646.000000	0.341479
1647.000000	0.341690
1648.000000	0.341793
1649.000000	0.341933
1650.000000	0.342118
1651.000000	0.342303
1652.000000	0.342539
1653.000000	0.342801
1654.000000	0.343055
1655.000000	0.343267
1656.000000	0.343364
1657.000000	0.343481
1658.000000	0.343601
1659.000000	0.343748
1660.000000	0.343986
1661.000000	0.344208
1662.000000	0.344445
1663.000000	0.344692
1664.000000	0.344901
1665.000000	0.345104
1666.000000	0.345386
1667.000000	0.345587
1668.000000	0.345809
1669.000000	0.346064
1670.000000	0.346209
1671.000000	0.346412
1672.000000	0.346604
1673.000000	0.346707
1674.000000	0.346878
1675.000000	0.347105
1676.000000	0.347250
1677.000000	0.347403
1678.000000	0.347533
1679.000000	0.347659
1680.000000	0.347841
1681.000000	0.348021
1682.000000	0.348153
1683.000000	0.348314
1684.000000	0.348454
1685.000000	0.348613
1686.000000	0.348744
1687.000000	0.348798
1688.000000	0.348766
1689.000000	0.348790
1690.000000	0.348828
1691.000000	0.348944
1692.000000	0.349058
1693.000000	0.349150
1694.000000	0.349242
1695.000000	0.349399
1696.000000	0.349461
1697.000000	0.349470
1698.000000	0.349442
1699.000000	0.349483
1700.000000	0.349552
1701.000000	0.349712
1702.000000	0.349747
1703.000000	0.349772
1704.000000	0.349930
1705.000000	0.350022
1706.000000	0.350089
1707.000000	0.350220
1708.000000	0.350345
1709.000000	0.350391
1710.000000	0.350552
1711.000000	0.350703
1712.000000	0.350840
1713.000000	0.350941
1714.000000	0.351074
1715.000000	0.351235
1716.000000	0.351412
1717.000000	0.351531
1718.000000	0.351645
1719.000000	0.351710
1720.000000	0.351724
1721.000000	0.351780
1722.000000	0.351853
1723.000000	0.351953
1724.000000	0.352092
1725.000000	0.352251
1726.000000	0.352339
1727.000000	0.352486
1728.000000	0.352625
1729.000000	0.352661
1730.000000	0.352840
1731.000000	0.352938
1732.000000	0.352931
1733.000000	0.353092
1734.000000	0.353159
1735.000000	0.353301
1736.000000	0.353501
1737.000000	0.353647
1738.000000	0.353819
1739.000000	0.353958
1740.000000	0.354052
1741.000000	0.354133
1742.000000	0.354217
1743.000000	0.354323
1744.000000	0.354403
1745.000000	0.354441
1746.000000	0.354454
1747.000000	0.354476
1748.000000	0.354440
1749.000000	0.354377
1750.000000	0.354334
1751.000000	0.354439
1752.000000	0.354591
1753.000000	0.354638
1754.000000	0.354709
1755.000000	0.354720
1756.000000	0.354732
1757.000000	0.354761
1758.000000	0.354818
1759.000000	0.354849
1760.000000	0.354904
1761.000000	0.354979
1762.000000	0.355006
1763.000000	0.355009
1764.000000	0.355065
1765.000000	0.355090
1766.000000	0.355143
1767.000000	0.355169
1768.000000	0.355149
1769.000000	0.355176
1770.000000	0.355281
1771.000000	0.355375
1772.000000	0.355459
1773.000000	0.355521
1774.000000	0.355599
1775.000000	0.355747
1776.000000	0.355831
1777.000000	0.355848
1778.000000	0.355919
1779.000000	0.355943
1780.000000	0.356041
1781.000000	0.356196
1782.000000	0.356266
1783.000000	0.356350
1784.000000	0.356443
1785.000000	0.356496
1786.000000	0.356610
1787.000000	0.356790
1788.000000	0.356920
1789.000000	0.356968
1790.000000	0.357078
1791.000000	0.357093
1792.000000	0.357156
1793.000000	0.357216
1794.000000	0.357201
1795.000000	0.357297
1796.000000	0.357512
1797.000000	0.357613
1798.000000	0.357651
1799.000000	0.357746
1800.000000	0.357863
1801.000000	0.357742
1802.000000	0.357857
1803.000000	0.357662
1804.000000	0.357691
1805.000000	0.357726
1806.000000	0.357785
1807.000000	0.357937
1808.000000	0.358020
1809.000000	0.358015
1810.000000	0.358085
1811.000000	0.358199
1812.000000	0.358256
1813.000000	0.358487
1814.000000	0.359109
1815.000000	0.359308
1816.000000	0.359446
1817.000000	0.359324
1818.000000	0.358912
1819.000000	0.358667
1820.000000	0.358358
1821.000000	0.358006
1822.000000	0.357984
1823.000000	0.358129
1824.000000	0.358078
1825.000000	0.358081
1826.000000	0.358213
1827.000000	0.358271
1828.000000	0.358133
1829.000000	0.358113
1830.000000	0.358192
1831.000000	0.358134
1832.000000	0.357770
1833.000000	0.357766
1834.000000	0.358128
1835.000000	0.358046
1836.000000	0.357741
1837.000000	0.357551
1838.000000	0.357072
1839.000000	0.356467
1840.000000	0.356363
1841.000000	0.356321
1842.000000	0.356020
1843.000000	0.355524
1844.000000	0.355297
1845.000000	0.354866
1846.000000	0.354639
1847.000000	0.354591
1848.000000	0.354394
1849.000000	0.354078
1850.000000	0.353299
1851.000000	0.352690
1852.000000	0.351860
1853.000000	0.351276
1854.000000	0.350587
1855.000000	0.349893
1856.000000	0.349264
1857.000000	0.348354
1858.000000	0.347278
1859.000000	0.346412
1860.000000	0.345558
1861.000000	0.344556
1862.000000	0.343364
1863.000000	0.342238
1864.000000	0.341011
1865.000000	0.339530
1866.000000	0.338025
1867.000000	0.336564
1868.000000	0.334794
1869.000000	0.332875
1870.000000	0.330871
1871.000000	0.328910
1872.000000	0.326864
1873.000000	0.324665
1874.000000	0.322333
1875.000000	0.320004
1876.000000	0.317496
1877.000000	0.314414
1878.000000	0.311392
1879.000000	0.308006
1880.000000	0.304456
1881.000000	0.301098
1882.000000	0.297342
1883.000000	0.293561
1884.000000	0.289786
1885.000000	0.285647
1886.000000	0.281446
1887.000000	0.277266
1888.000000	0.272778
1889.000000	0.268085
1890.000000	0.263567
1891.000000	0.258852
1892.000000	0.253686
1893.000000	0.248501
1894.000000	0.243175
1895.000000	0.238028
1896.000000	0.232994
1897.000000	0.228374
1898.000000	0.223545
1899.000000	0.219107
1900.000000	0.214750
1901.000000	0.210633
1902.000000	0.207140
1903.000000	0.203906
1904.000000	0.200921
1905.000000	0.198030
1906.000000	0.195257
1907.000000	0.192635
1908.000000	0.190144
1909.000000	0.188032
1910.000000	0.186165
1911.000000	0.184462
1912.000000	0.183087
1913.000000	0.181640
1914.000000	0.180250
1915.000000	0.179136
1916.000000	0.178218
1917.000000	0.177333
1918.000000	0.176684
1919.000000	0.176254
1920.000000	0.175512
1921.000000	0.174686
1922.000000	0.174166
1923.000000	0.173583
1924.000000	0.173256
1925.000000	0.173213
1926.000000	0.173019
1927.000000	0.173093
1928.000000	0.173187
1929.000000	0.173498
1930.000000	0.173612
1931.000000	0.173792
1932.000000	0.173963
1933.000000	0.174040
1934.000000	0.174355
1935.000000	0.174750
1936.000000	0.174848
1937.000000	0.174936
1938.000000	0.175006
1939.000000	0.175038
1940.000000	0.174936
1941.000000	0.175146
1942.000000	0.175291
1943.000000	0.175135
1944.000000	0.174967
1945.000000	0.174669
1946.000000	0.174401
1947.000000	0.174097
1948.000000	0.173864
1949.000000	0.173705
1950.000000	0.173350
1951.000000	0.173022
1952.000000	0.172796
1953.000000	0.172470
1954.000000	0.172175
1955.000000	0.172054
1956.000000	0.171731
1957.000000	0.171451
1958.000000	0.171212
1959.000000	0.170951
1960.000000	0.170907
1961.000000	0.170929
1962.000000	0.170936
1963.000000	0.171003
1964.000000	0.171123
1965.000000	0.171118
1966.000000	0.171125
1967.000000	0.171130
1968.000000	0.171188
1969.000000	0.171172
1970.000000	0.171001
1971.000000	0.170971
1972.000000	0.170856
1973.000000	0.170821
1974.000000	0.170980
1975.000000	0.171219
1976.000000	0.171534
1977.000000	0.171964
1978.000000	0.172266
1979.000000	0.172704
1980.000000	0.173134
1981.000000	0.173446
1982.000000	0.173904
1983.000000	0.174470
1984.000000	0.174945
1985.000000	0.175396
1986.000000	0.175871
1987.000000	0.176372
1988.000000	0.176900
1989.000000	0.177552
1990.000000	0.178303
1991.000000	0.178840
1992.000000	0.179513
1993.000000	0.180276
1994.000000	0.181071
1995.000000	0.181979
1996.000000	0.182735
1997.000000	0.183486
1998.000000	0.184028
1999.000000	0.184892
2000.000000	0.185925
2001.000000	0.186954
2002.000000	0.188021
2003.000000	0.189120
2004.000000	0.189981
2005.000000	0.190834
2006.000000	0.191951
2007.000000	0.192891
2008.000000	0.193857
2009.000000	0.194902
2010.000000	0.195894
2011.000000	0.196701
2012.000000	0.197555
2013.000000	0.198385
2014.000000	0.199076
2015.000000	0.199858
2016.000000	0.200782
2017.000000	0.201783
2018.000000	0.202891
2019.000000	0.204185
2020.000000	0.205329
2021.000000	0.206384
2022.000000	0.207391
2023.000000	0.208329
2024.000000	0.209072
2025.000000	0.210047
2026.000000	0.211015
2027.000000	0.211940
2028.000000	0.212990
2029.000000	0.214132
2030.000000	0.215107
2031.000000	0.216111
2032.000000	0.217357
2033.000000	0.218369
2034.000000	0.219416
2035.000000	0.220713
2036.000000	0.221734
2037.000000	0.222692
2038.000000	0.223614
2039.000000	0.224554
2040.000000	0.225326
2041.000000	0.225969
2042.000000	0.226829
2043.000000	0.227728
2044.000000	0.228532
2045.000000	0.229485
2046.000000	0.230281
2047.000000	0.231197
2048.000000	0.232191
2049.000000	0.233190
2050.000000	0.234016
2051.000000	0.234731
2052.000000	0.235133
2053.000000	0.235634
2054.000000	0.236183
2055.000000	0.237039
2056.000000	0.238047
2057.000000	0.239037
2058.000000	0.239795
2059.000000	0.240490
2060.000000	0.241095
2061.000000	0.241398
2062.000000	0.241985
2063.000000	0.242779
2064.000000	0.243275
2065.000000	0.243906
2066.000000	0.244434
2067.000000	0.244893
2068.000000	0.245588
2069.000000	0.246675
2070.000000	0.247744
2071.000000	0.248739
2072.000000	0.249762
2073.000000	0.250529
2074.000000	0.251134
2075.000000	0.251780
2076.000000	0.252358
2077.000000	0.253033
2078.000000	0.253644
2079.000000	0.254382
2080.000000	0.255310
2081.000000	0.256144
2082.000000	0.257069
2083.000000	0.257925
2084.000000	0.258452
2085.000000	0.259135
2086.000000	0.259907
2087.000000	0.260613
2088.000000	0.261192
2089.000000	0.261990
2090.000000	0.262832
2091.000000	0.263636
2092.000000	0.264530
2093.000000	0.265861
2094.000000	0.266676
2095.000000	0.267230
2096.000000	0.267872
2097.000000	0.268205
2098.000000	0.268618
2099.000000	0.269498
2100.000000	0.270198
2101.000000	0.270726
2102.000000	0.271401
2103.000000	0.271895
2104.000000	0.272407
2105.000000	0.273017
2106.000000	0.273865
2107.000000	0.274511
2108.000000	0.275061
2109.000000	0.275567
2110.000000	0.275737
2111.000000	0.276171
2112.000000	0.276550
2113.000000	0.276949
2114.000000	0.277479
2115.000000	0.278169
2116.000000	0.278790
2117.000000	0.279166
2118.000000	0.279603
2119.000000	0.279921
2120.000000	0.280239
2121.000000	0.280390
2122.000000	0.280778
2123.000000	0.281194
2124.000000	0.281727
2125.000000	0.282676
2126.000000	0.283067
2127.000000	0.283323
2128.000000	0.283568
2129.000000	0.283256
2130.000000	0.283168
2131.000000	0.283609
2132.000000	0.283916
2133.000000	0.284529
2134.000000	0.285352
2135.000000	0.285487
2136.000000	0.285626
2137.000000	0.285839
2138.000000	0.285941
2139.000000	0.285983
2140.000000	0.286031
2141.000000	0.286155
2142.000000	0.286127
2143.000000	0.286095
2144.000000	0.286440
2145.000000	0.286773
2146.000000	0.287179
2147.000000	0.287653
2148.000000	0.288198
2149.000000	0.288612
2150.000000	0.288848
2151.000000	0.289107
2152.000000	0.289077
2153.000000	0.288806
2154.000000	0.288791
2155.000000	0.288830
2156.000000	0.288835
2157.000000	0.288990
2158.000000	0.289147
2159.000000	0.289298
2160.000000	0.289435
2161.000000	0.289564
2162.000000	0.289875
2163.000000	0.290221
2164.000000	0.290368
2165.000000	0.290539
2166.000000	0.290781
2167.000000	0.290515
2168.000000	0.290383
2169.000000	0.290283
2170.000000	0.290011
2171.000000	0.290109
2172.000000	0.290487
2173.000000	0.290567
2174.000000	0.290837
2175.000000	0.290955
2176.000000	0.290727
2177.000000	0.290762
2178.000000	0.290918
2179.000000	0.291157
2180.000000	0.291599
2181.000000	0.292075
2182.000000	0.291959
2183.000000	0.292204
2184.000000	0.292657
2185.000000	0.292361
2186.000000	0.292365
2187.000000	0.292105
2188.000000	0.291455
2189.000000	0.290569
2190.000000	0.289340
2191.000000	0.289338
2192.000000	0.289165
2193.000000	0.289338
2194.000000	0.289212
2195.000000	0.289301
2196.000000	0.289200
2197.000000	0.288617
2198.000000	0.288437
2199.000000	0.288640
2200.000000	0.288953
2201.000000	0.289591
2202.000000	0.289927
2203.000000	0.290060
2204.000000	0.290276
2205.000000	0.290221
2206.000000	0.289739
2207.000000	0.290017
2208.000000	0.290594
2209.000000	0.290716
2210.000000	0.291506
2211.000000	0.291800
2212.000000	0.292110
2213.000000	0.291860
2214.000000	0.290926
2215.000000	0.290423
2216.000000	0.289281
2217.000000	0.289243
2218.000000	0.290056
2219.000000	0.290715
2220.000000	0.292367
2221.000000	0.292954
2222.000000	0.293232
2223.000000	0.293005
2224.000000	0.291923
2225.000000	0.291014
2226.000000	0.290277
2227.000000	0.289243
2228.000000	0.289582
2229.000000	0.289138
2230.000000	0.288540
2231.000000	0.288980
2232.000000	0.288768
2233.000000	0.288937
2234.000000	0.289629
2235.000000	0.289780
2236.000000	0.289423
2237.000000	0.288684
2238.000000	0.288019
2239.000000	0.286377
2240.000000	0.285694
2241.000000	0.285688
2242.000000	0.285314
2243.000000	0.285041
2244.000000	0.284985
2245.000000	0.284713
2246.000000	0.284856
2247.000000	0.285156
2248.000000	0.285740
2249.000000	0.287429
2250.000000	0.287826
2251.000000	0.287359
2252.000000	0.287194
2253.000000	0.285054
2254.000000	0.283558
2255.000000	0.283085
2256.000000	0.282254
2257.000000	0.282767
2258.000000	0.283089
2259.000000	0.283193
2260.000000	0.283929
2261.000000	0.283603
2262.000000	0.282763
2263.000000	0.282062
2264.000000	0.280178
2265.000000	0.279856
2266.000000	0.280964
2267.000000	0.280705
2268.000000	0.280592
2269.000000	0.280300
2270.000000	0.278813
2271.000000	0.277724
2272.000000	0.277375
2273.000000	0.276668
2274.000000	0.275282
2275.000000	0.274616
2276.000000	0.274886
2277.000000	0.273489
2278.000000	0.272050
2279.000000	0.270819
2280.000000	0.268621
2281.000000	0.266651
2282.000000	0.265947
2283.000000	0.265254
2284.000000	0.264275
2285.000000	0.263162
2286.000000	0.261564
2287.000000	0.259496
2288.000000	0.257560
2289.000000	0.256472
2290.000000	0.255611
2291.000000	0.255084
2292.000000	0.254737
2293.000000	0.253593
2294.000000	0.252439
2295.000000	0.250636
2296.000000	0.249515
2297.000000	0.248376
2298.000000	0.247801
2299.000000	0.247742
2300.000000	0.247512
2301.000000	0.247774
2302.000000	0.247598
2303.000000	0.247029
2304.000000	0.246640
2305.000000	0.245865
2306.000000	0.245612
2307.000000	0.245186
2308.000000	0.246453
2309.000000	0.247141
2310.000000	0.248151
2311.000000	0.249823
2312.000000	0.249594
2313.000000	0.249582
2314.000000	0.249935
2315.000000	0.249808
2316.000000	0.250457
2317.000000	0.250863
2318.000000	0.251106
2319.000000	0.251260
2320.000000	0.249949
2321.000000	0.248604
2322.000000	0.247206
2323.000000	0.245249
2324.000000	0.244449
2325.000000	0.243918
2326.000000	0.242752
2327.000000	0.242206
2328.000000	0.242288
2329.000000	0.242330
2330.000000	0.242676
2331.000000	0.242389
2332.000000	0.241159
2333.000000	0.239903
2334.000000	0.237649
2335.000000	0.236640
2336.000000	0.236079
2337.000000	0.235126
2338.000000	0.235026
2339.000000	0.234391
2340.000000	0.232741
2341.000000	0.231284
2342.000000	0.229419
2343.000000	0.228392
2344.000000	0.228312
2345.000000	0.227516
2346.000000	0.226838
2347.000000	0.225914
2348.000000	0.224518
2349.000000	0.222483
2350.000000	0.221271
2351.000000	0.220763
2352.000000	0.220026
2353.000000	0.219622
2354.000000	0.218600
2355.000000	0.217411
2356.000000	0.214591
2357.000000	0.210843
2358.000000	0.207699
2359.000000	0.205457
2360.000000	0.204535
2361.000000	0.204983
2362.000000	0.205635
2363.000000	0.205726
2364.000000	0.204210
2365.000000	0.202223
2366.000000	0.200579
2367.000000	0.197752
2368.000000	0.196090
2369.000000	0.194971
2370.000000	0.193261
2371.000000	0.192719
2372.000000	0.192058
2373.000000	0.191350
2374.000000	0.190886
2375.000000	0.190419
2376.000000	0.190492
2377.000000	0.190808
2378.000000	0.190750
2379.000000	0.190037
2380.000000	0.188469
2381.000000	0.186355
2382.000000	0.184195
2383.000000	0.181909
2384.000000	0.180601
2385.000000	0.179561
2386.000000	0.179066
2387.000000	0.178934
2388.000000	0.179052
2389.000000	0.179025
2390.000000	0.177377
2391.000000	0.176956
2392.000000	0.175943
2393.000000	0.175110
2394.000000	0.174859
2395.000000	0.172624
2396.000000	0.171307
2397.000000	0.170228
2398.000000	0.169166
2399.000000	0.169358
2400.000000	0.168737
2401.000000	0.167090
2402.000000	0.166469
2403.000000	0.166521
2404.000000	0.165071
2405.000000	0.163257
2406.000000	0.163203
2407.000000	0.161383
2408.000000	0.161436
2409.000000	0.164697
2410.000000	0.165822
2411.000000	0.166947
2412.000000	0.164911
2413.000000	0.161792
2414.000000	0.158631
2415.000000	0.154527
2416.000000	0.155403
2417.000000	0.156275
2418.000000	0.158888
2419.000000	0.162203
2420.000000	0.162366
2421.000000	0.163710
2422.000000	0.161433
2423.000000	0.159372
2424.000000	0.158599
2425.000000	0.156172
2426.000000	0.158139
2427.000000	0.159973
2428.000000	0.162710
2429.000000	0.164590
2430.000000	0.161381
2431.000000	0.158887
2432.000000	0.153806
2433.000000	0.153987
2434.000000	0.158272
2435.000000	0.158613
2436.000000	0.161312
2437.000000	0.160007
2438.000000	0.155578
2439.000000	0.154685
2440.000000	0.156942
2441.000000	0.159858
2442.000000	0.159907
2443.000000	0.157665
2444.000000	0.149811
2445.000000	0.143484
2446.000000	0.140860
2447.000000	0.140256
2448.000000	0.144292
2449.000000	0.142522
2450.000000	0.139620
2451.000000	0.141234
2452.000000	0.141152
2453.000000	0.143221
2454.000000	0.149445
2455.000000	0.151827
2456.000000	0.152183
2457.000000	0.157438
2458.000000	0.160893
2459.000000	0.159745
2460.000000	0.161218
2461.000000	0.161117
2462.000000	0.157416
2463.000000	0.156812
2464.000000	0.152460
2465.000000	0.143339
2466.000000	0.136699
2467.000000	0.137927
2468.000000	0.139098
2469.000000	0.134676
2470.000000	0.134213
2471.000000	0.130815
2472.000000	0.125031
2473.000000	0.124793
2474.000000	0.124180
2475.000000	0.120450
2476.000000	0.116591
2477.000000	0.119309
2478.000000	0.125020
2479.000000	0.126406
2480.000000	0.132080
2481.000000	0.146616
2482.000000	0.154739
2483.000000	0.157485
2484.000000	0.156949
2485.000000	0.141785
2486.000000	0.129476
2487.000000	0.124769
2488.000000	0.117242
2489.000000	0.110641
2490.000000	0.102089
2491.000000	0.098718
2492.000000	0.095198
2493.000000	0.096804
2494.000000	0.095648
2495.000000	0.090995
2496.000000	0.086758
2497.000000	0.075423
2498.000000	0.079675
2499.000000	0.108891
2500.000000	0.114972
