# Wavelength	NAu-1-30_HEX-40_FV7-30_00002.asd.rts.txt
350.000000	0.156561
351.000000	0.179076
352.000000	0.174079
353.000000	0.171664
354.000000	0.184437
355.000000	0.179263
356.000000	0.180722
357.000000	0.185504
358.000000	0.168272
359.000000	0.158975
360.000000	0.159050
361.000000	0.161097
362.000000	0.159132
363.000000	0.161319
364.000000	0.169156
365.000000	0.167287
366.000000	0.163135
367.000000	0.159882
368.000000	0.157443
369.000000	0.163640
370.000000	0.168324
371.000000	0.160127
372.000000	0.164366
373.000000	0.171102
374.000000	0.172257
375.000000	0.172740
376.000000	0.170637
377.000000	0.166913
378.000000	0.165255
379.000000	0.167863
380.000000	0.170510
381.000000	0.168707
382.000000	0.171452
383.000000	0.173381
384.000000	0.171746
385.000000	0.174914
386.000000	0.174431
387.000000	0.171647
388.000000	0.178648
389.000000	0.183245
390.000000	0.184154
391.000000	0.183701
392.000000	0.183206
393.000000	0.183884
394.000000	0.185959
395.000000	0.187266
396.000000	0.187737
397.000000	0.187938
398.000000	0.189489
399.000000	0.190257
400.000000	0.191013
401.000000	0.193432
402.000000	0.194781
403.000000	0.195406
404.000000	0.196138
405.000000	0.196551
406.000000	0.198076
407.000000	0.200596
408.000000	0.201185
409.000000	0.201589
410.000000	0.202478
411.000000	0.203988
412.000000	0.204676
413.000000	0.205338
414.000000	0.206834
415.000000	0.207005
416.000000	0.207287
417.000000	0.208362
418.000000	0.208714
419.000000	0.209064
420.000000	0.209546
421.000000	0.209818
422.000000	0.210275
423.000000	0.210568
424.000000	0.210305
425.000000	0.210149
426.000000	0.210476
427.000000	0.211196
428.000000	0.210989
429.000000	0.210944
430.000000	0.211315
431.000000	0.211204
432.000000	0.211649
433.000000	0.212174
434.000000	0.211792
435.000000	0.211922
436.000000	0.212280
437.000000	0.212303
438.000000	0.211822
439.000000	0.211567
440.000000	0.211734
441.000000	0.211052
442.000000	0.210839
443.000000	0.210971
444.000000	0.210481
445.000000	0.210682
446.000000	0.210968
447.000000	0.210409
448.000000	0.211216
449.000000	0.212314
450.000000	0.212969
451.000000	0.214285
452.000000	0.215947
453.000000	0.217656
454.000000	0.219277
455.000000	0.221092
456.000000	0.223096
457.000000	0.225010
458.000000	0.226817
459.000000	0.228714
460.000000	0.230739
461.000000	0.231786
462.000000	0.233113
463.000000	0.234911
464.000000	0.235841
465.000000	0.236660
466.000000	0.237520
467.000000	0.238391
468.000000	0.239050
469.000000	0.239608
470.000000	0.240367
471.000000	0.240968
472.000000	0.241470
473.000000	0.241991
474.000000	0.242614
475.000000	0.243081
476.000000	0.243535
477.000000	0.244253
478.000000	0.244810
479.000000	0.245322
480.000000	0.245772
481.000000	0.246067
482.000000	0.246457
483.000000	0.246970
484.000000	0.247738
485.000000	0.248243
486.000000	0.248501
487.000000	0.248916
488.000000	0.249355
489.000000	0.249849
490.000000	0.250501
491.000000	0.250990
492.000000	0.251418
493.000000	0.251863
494.000000	0.252382
495.000000	0.252975
496.000000	0.253594
497.000000	0.254305
498.000000	0.254801
499.000000	0.255176
500.000000	0.255848
501.000000	0.256407
502.000000	0.256899
503.000000	0.257469
504.000000	0.258130
505.000000	0.258764
506.000000	0.259286
507.000000	0.259842
508.000000	0.260447
509.000000	0.261050
510.000000	0.261614
511.000000	0.262288
512.000000	0.263083
513.000000	0.263840
514.000000	0.264447
515.000000	0.265033
516.000000	0.265729
517.000000	0.266461
518.000000	0.267210
519.000000	0.267912
520.000000	0.268756
521.000000	0.269482
522.000000	0.270073
523.000000	0.270874
524.000000	0.271706
525.000000	0.272529
526.000000	0.273400
527.000000	0.274184
528.000000	0.274900
529.000000	0.275653
530.000000	0.276410
531.000000	0.277237
532.000000	0.278066
533.000000	0.278834
534.000000	0.279638
535.000000	0.280475
536.000000	0.281281
537.000000	0.282155
538.000000	0.283058
539.000000	0.283892
540.000000	0.284770
541.000000	0.285624
542.000000	0.286428
543.000000	0.287238
544.000000	0.288106
545.000000	0.288979
546.000000	0.289889
547.000000	0.290729
548.000000	0.291525
549.000000	0.292290
550.000000	0.293084
551.000000	0.293957
552.000000	0.294864
553.000000	0.295566
554.000000	0.296261
555.000000	0.297116
556.000000	0.298054
557.000000	0.298851
558.000000	0.299599
559.000000	0.300412
560.000000	0.301180
561.000000	0.301937
562.000000	0.302620
563.000000	0.303314
564.000000	0.304049
565.000000	0.304725
566.000000	0.305399
567.000000	0.306093
568.000000	0.306768
569.000000	0.307326
570.000000	0.307912
571.000000	0.308525
572.000000	0.309064
573.000000	0.309707
574.000000	0.310323
575.000000	0.310766
576.000000	0.311275
577.000000	0.311731
578.000000	0.312121
579.000000	0.312657
580.000000	0.313222
581.000000	0.313704
582.000000	0.313986
583.000000	0.314323
584.000000	0.314728
585.000000	0.315078
586.000000	0.315391
587.000000	0.315684
588.000000	0.315975
589.000000	0.316272
590.000000	0.316549
591.000000	0.316804
592.000000	0.317102
593.000000	0.317349
594.000000	0.317533
595.000000	0.317735
596.000000	0.317968
597.000000	0.318216
598.000000	0.318343
599.000000	0.318456
600.000000	0.318664
601.000000	0.318926
602.000000	0.319115
603.000000	0.319214
604.000000	0.319284
605.000000	0.319490
606.000000	0.319726
607.000000	0.319929
608.000000	0.320044
609.000000	0.320222
610.000000	0.320438
611.000000	0.320613
612.000000	0.320684
613.000000	0.320756
614.000000	0.320918
615.000000	0.321040
616.000000	0.321079
617.000000	0.321075
618.000000	0.321285
619.000000	0.321346
620.000000	0.321315
621.000000	0.321448
622.000000	0.321438
623.000000	0.321392
624.000000	0.321433
625.000000	0.321520
626.000000	0.321538
627.000000	0.321487
628.000000	0.321543
629.000000	0.321718
630.000000	0.321834
631.000000	0.321909
632.000000	0.322033
633.000000	0.322191
634.000000	0.322343
635.000000	0.322606
636.000000	0.322884
637.000000	0.323099
638.000000	0.323301
639.000000	0.323529
640.000000	0.323801
641.000000	0.323941
642.000000	0.324056
643.000000	0.324174
644.000000	0.324302
645.000000	0.324438
646.000000	0.324560
647.000000	0.324643
648.000000	0.324794
649.000000	0.325009
650.000000	0.325233
651.000000	0.325401
652.000000	0.325588
653.000000	0.325800
654.000000	0.325931
655.000000	0.326142
656.000000	0.326432
657.000000	0.326702
658.000000	0.326918
659.000000	0.327107
660.000000	0.327277
661.000000	0.327466
662.000000	0.327661
663.000000	0.327886
664.000000	0.328062
665.000000	0.328262
666.000000	0.328444
667.000000	0.328555
668.000000	0.328836
669.000000	0.329162
670.000000	0.329452
671.000000	0.329762
672.000000	0.330078
673.000000	0.330375
674.000000	0.330638
675.000000	0.330821
676.000000	0.331038
677.000000	0.331424
678.000000	0.331747
679.000000	0.332014
680.000000	0.332270
681.000000	0.332536
682.000000	0.332826
683.000000	0.333090
684.000000	0.333472
685.000000	0.333738
686.000000	0.333980
687.000000	0.334322
688.000000	0.334617
689.000000	0.334920
690.000000	0.335315
691.000000	0.335728
692.000000	0.336127
693.000000	0.336537
694.000000	0.336850
695.000000	0.337171
696.000000	0.337507
697.000000	0.337836
698.000000	0.338224
699.000000	0.338629
700.000000	0.339010
701.000000	0.339336
702.000000	0.339678
703.000000	0.340032
704.000000	0.340355
705.000000	0.340674
706.000000	0.340981
707.000000	0.341361
708.000000	0.341802
709.000000	0.342212
710.000000	0.342551
711.000000	0.342913
712.000000	0.343259
713.000000	0.343597
714.000000	0.343938
715.000000	0.344322
716.000000	0.344717
717.000000	0.345031
718.000000	0.345347
719.000000	0.345691
720.000000	0.346072
721.000000	0.346391
722.000000	0.346689
723.000000	0.347043
724.000000	0.347361
725.000000	0.347682
726.000000	0.348064
727.000000	0.348384
728.000000	0.348743
729.000000	0.349094
730.000000	0.349337
731.000000	0.349570
732.000000	0.349817
733.000000	0.350126
734.000000	0.350450
735.000000	0.350716
736.000000	0.351030
737.000000	0.351277
738.000000	0.351465
739.000000	0.351735
740.000000	0.351986
741.000000	0.352242
742.000000	0.352501
743.000000	0.352745
744.000000	0.353050
745.000000	0.353246
746.000000	0.353408
747.000000	0.353569
748.000000	0.353743
749.000000	0.353940
750.000000	0.354126
751.000000	0.354335
752.000000	0.354516
753.000000	0.354679
754.000000	0.354860
755.000000	0.355061
756.000000	0.355252
757.000000	0.355357
758.000000	0.355466
759.000000	0.355583
760.000000	0.355644
761.000000	0.355796
762.000000	0.355852
763.000000	0.355852
764.000000	0.356052
765.000000	0.356129
766.000000	0.356146
767.000000	0.356203
768.000000	0.356234
769.000000	0.356290
770.000000	0.356385
771.000000	0.356466
772.000000	0.356505
773.000000	0.356478
774.000000	0.356518
775.000000	0.356566
776.000000	0.356633
777.000000	0.356697
778.000000	0.356700
779.000000	0.356652
780.000000	0.356603
781.000000	0.356620
782.000000	0.356584
783.000000	0.356554
784.000000	0.356438
785.000000	0.356423
786.000000	0.356372
787.000000	0.356231
788.000000	0.356162
789.000000	0.356094
790.000000	0.355995
791.000000	0.355905
792.000000	0.355863
793.000000	0.355798
794.000000	0.355667
795.000000	0.355563
796.000000	0.355468
797.000000	0.355345
798.000000	0.355152
799.000000	0.355042
800.000000	0.354973
801.000000	0.354863
802.000000	0.354756
803.000000	0.354603
804.000000	0.354442
805.000000	0.354336
806.000000	0.354148
807.000000	0.353955
808.000000	0.353761
809.000000	0.353561
810.000000	0.353448
811.000000	0.353411
812.000000	0.353148
813.000000	0.352943
814.000000	0.352847
815.000000	0.352727
816.000000	0.352612
817.000000	0.352477
818.000000	0.352211
819.000000	0.351944
820.000000	0.351707
821.000000	0.351466
822.000000	0.351281
823.000000	0.351221
824.000000	0.351078
825.000000	0.350747
826.000000	0.350625
827.000000	0.350501
828.000000	0.350306
829.000000	0.350243
830.000000	0.350128
831.000000	0.349989
832.000000	0.349770
833.000000	0.349542
834.000000	0.349313
835.000000	0.349108
836.000000	0.348853
837.000000	0.348631
838.000000	0.348497
839.000000	0.348429
840.000000	0.348282
841.000000	0.348083
842.000000	0.347849
843.000000	0.347628
844.000000	0.347449
845.000000	0.347266
846.000000	0.347030
847.000000	0.346800
848.000000	0.346603
849.000000	0.346465
850.000000	0.346231
851.000000	0.345994
852.000000	0.345855
853.000000	0.345786
854.000000	0.345583
855.000000	0.345380
856.000000	0.345194
857.000000	0.345056
858.000000	0.344996
859.000000	0.344881
860.000000	0.344578
861.000000	0.344332
862.000000	0.344160
863.000000	0.343914
864.000000	0.343686
865.000000	0.343496
866.000000	0.343366
867.000000	0.343258
868.000000	0.343031
869.000000	0.342709
870.000000	0.342510
871.000000	0.342337
872.000000	0.342160
873.000000	0.341911
874.000000	0.341661
875.000000	0.341417
876.000000	0.341194
877.000000	0.340934
878.000000	0.340710
879.000000	0.340546
880.000000	0.340297
881.000000	0.340053
882.000000	0.339870
883.000000	0.339743
884.000000	0.339571
885.000000	0.339482
886.000000	0.339336
887.000000	0.339101
888.000000	0.338891
889.000000	0.338685
890.000000	0.338455
891.000000	0.338377
892.000000	0.338127
893.000000	0.337901
894.000000	0.337839
895.000000	0.337472
896.000000	0.337186
897.000000	0.337014
898.000000	0.336869
899.000000	0.336742
900.000000	0.336567
901.000000	0.336327
902.000000	0.336208
903.000000	0.336122
904.000000	0.336019
905.000000	0.335779
906.000000	0.335660
907.000000	0.335439
908.000000	0.335168
909.000000	0.335008
910.000000	0.334910
911.000000	0.334820
912.000000	0.334683
913.000000	0.334338
914.000000	0.334062
915.000000	0.333978
916.000000	0.333887
917.000000	0.333726
918.000000	0.333525
919.000000	0.333330
920.000000	0.333277
921.000000	0.333148
922.000000	0.332988
923.000000	0.332921
924.000000	0.332831
925.000000	0.332624
926.000000	0.332377
927.000000	0.332333
928.000000	0.332096
929.000000	0.331806
930.000000	0.331736
931.000000	0.331775
932.000000	0.331627
933.000000	0.331349
934.000000	0.331262
935.000000	0.331026
936.000000	0.330830
937.000000	0.330758
938.000000	0.330733
939.000000	0.330537
940.000000	0.330162
941.000000	0.329907
942.000000	0.329609
943.000000	0.329490
944.000000	0.329449
945.000000	0.329211
946.000000	0.328898
947.000000	0.328718
948.000000	0.328744
949.000000	0.328683
950.000000	0.328572
951.000000	0.328398
952.000000	0.328231
953.000000	0.328188
954.000000	0.328140
955.000000	0.327912
956.000000	0.327646
957.000000	0.327463
958.000000	0.327294
959.000000	0.327154
960.000000	0.327214
961.000000	0.327194
962.000000	0.327043
963.000000	0.327070
964.000000	0.326902
965.000000	0.326693
966.000000	0.326490
967.000000	0.326258
968.000000	0.326134
969.000000	0.325982
970.000000	0.325735
971.000000	0.325716
972.000000	0.325899
973.000000	0.326031
974.000000	0.325863
975.000000	0.325680
976.000000	0.325574
977.000000	0.325535
978.000000	0.325428
979.000000	0.325320
980.000000	0.325028
981.000000	0.324863
982.000000	0.325146
983.000000	0.325175
984.000000	0.325000
985.000000	0.325310
986.000000	0.325140
987.000000	0.324930
988.000000	0.324932
989.000000	0.324829
990.000000	0.324838
991.000000	0.324866
992.000000	0.324826
993.000000	0.324909
994.000000	0.325102
995.000000	0.325230
996.000000	0.324721
997.000000	0.324948
998.000000	0.325062
999.000000	0.324846
1000.000000	0.325123
1001.000000	0.324334
1002.000000	0.325236
1003.000000	0.325460
1004.000000	0.325614
1005.000000	0.325897
1006.000000	0.325933
1007.000000	0.325613
1008.000000	0.325440
1009.000000	0.325252
1010.000000	0.324592
1011.000000	0.324339
1012.000000	0.324760
1013.000000	0.325229
1014.000000	0.325466
1015.000000	0.325599
1016.000000	0.325586
1017.000000	0.325220
1018.000000	0.325418
1019.000000	0.325731
1020.000000	0.326320
1021.000000	0.326317
1022.000000	0.326812
1023.000000	0.326913
1024.000000	0.326063
1025.000000	0.326210
1026.000000	0.326489
1027.000000	0.325879
1028.000000	0.326216
1029.000000	0.326644
1030.000000	0.326403
1031.000000	0.326812
1032.000000	0.327637
1033.000000	0.327847
1034.000000	0.327973
1035.000000	0.328311
1036.000000	0.328363
1037.000000	0.327559
1038.000000	0.327508
1039.000000	0.327944
1040.000000	0.328274
1041.000000	0.328742
1042.000000	0.329817
1043.000000	0.330502
1044.000000	0.330533
1045.000000	0.330096
1046.000000	0.329536
1047.000000	0.329700
1048.000000	0.330091
1049.000000	0.330184
1050.000000	0.330757
1051.000000	0.330981
1052.000000	0.330319
1053.000000	0.330413
1054.000000	0.331402
1055.000000	0.331991
1056.000000	0.332583
1057.000000	0.333271
1058.000000	0.333534
1059.000000	0.333478
1060.000000	0.333471
1061.000000	0.333453
1062.000000	0.333655
1063.000000	0.333898
1064.000000	0.334474
1065.000000	0.335483
1066.000000	0.336045
1067.000000	0.336626
1068.000000	0.337114
1069.000000	0.337263
1070.000000	0.337410
1071.000000	0.337620
1072.000000	0.337907
1073.000000	0.338161
1074.000000	0.338453
1075.000000	0.338741
1076.000000	0.338819
1077.000000	0.338774
1078.000000	0.338831
1079.000000	0.339218
1080.000000	0.340142
1081.000000	0.340574
1082.000000	0.341148
1083.000000	0.341489
1084.000000	0.341428
1085.000000	0.341725
1086.000000	0.342121
1087.000000	0.342538
1088.000000	0.342977
1089.000000	0.343380
1090.000000	0.343864
1091.000000	0.344118
1092.000000	0.344285
1093.000000	0.344698
1094.000000	0.344959
1095.000000	0.344927
1096.000000	0.345365
1097.000000	0.346040
1098.000000	0.346669
1099.000000	0.347598
1100.000000	0.348128
1101.000000	0.348339
1102.000000	0.348663
1103.000000	0.348840
1104.000000	0.349104
1105.000000	0.349454
1106.000000	0.349742
1107.000000	0.349879
1108.000000	0.350076
1109.000000	0.350277
1110.000000	0.350627
1111.000000	0.350993
1112.000000	0.351426
1113.000000	0.351869
1114.000000	0.352437
1115.000000	0.352847
1116.000000	0.353228
1117.000000	0.353560
1118.000000	0.353766
1119.000000	0.353992
1120.000000	0.354163
1121.000000	0.354422
1122.000000	0.354855
1123.000000	0.355369
1124.000000	0.355774
1125.000000	0.356113
1126.000000	0.356337
1127.000000	0.356458
1128.000000	0.356497
1129.000000	0.356323
1130.000000	0.356646
1131.000000	0.357137
1132.000000	0.357514
1133.000000	0.358394
1134.000000	0.358676
1135.000000	0.358344
1136.000000	0.358473
1137.000000	0.358681
1138.000000	0.358734
1139.000000	0.358925
1140.000000	0.359240
1141.000000	0.359438
1142.000000	0.359632
1143.000000	0.359931
1144.000000	0.360285
1145.000000	0.360279
1146.000000	0.360367
1147.000000	0.360536
1148.000000	0.360736
1149.000000	0.360850
1150.000000	0.360941
1151.000000	0.361162
1152.000000	0.361290
1153.000000	0.361562
1154.000000	0.362049
1155.000000	0.362273
1156.000000	0.362399
1157.000000	0.362575
1158.000000	0.362609
1159.000000	0.362695
1160.000000	0.362802
1161.000000	0.362909
1162.000000	0.363083
1163.000000	0.363350
1164.000000	0.363417
1165.000000	0.363576
1166.000000	0.363782
1167.000000	0.363914
1168.000000	0.364061
1169.000000	0.364375
1170.000000	0.364526
1171.000000	0.364600
1172.000000	0.364750
1173.000000	0.364879
1174.000000	0.364963
1175.000000	0.364972
1176.000000	0.364983
1177.000000	0.364981
1178.000000	0.365107
1179.000000	0.365422
1180.000000	0.365520
1181.000000	0.365693
1182.000000	0.365737
1183.000000	0.365798
1184.000000	0.365987
1185.000000	0.366192
1186.000000	0.366561
1187.000000	0.366742
1188.000000	0.366892
1189.000000	0.366878
1190.000000	0.366745
1191.000000	0.366779
1192.000000	0.366909
1193.000000	0.367063
1194.000000	0.367240
1195.000000	0.367287
1196.000000	0.366948
1197.000000	0.367002
1198.000000	0.367345
1199.000000	0.367553
1200.000000	0.367857
1201.000000	0.368203
1202.000000	0.368343
1203.000000	0.368386
1204.000000	0.368470
1205.000000	0.368564
1206.000000	0.368497
1207.000000	0.368338
1208.000000	0.368345
1209.000000	0.368412
1210.000000	0.368486
1211.000000	0.368696
1212.000000	0.368817
1213.000000	0.368961
1214.000000	0.369069
1215.000000	0.369121
1216.000000	0.369237
1217.000000	0.369324
1218.000000	0.369313
1219.000000	0.369360
1220.000000	0.369379
1221.000000	0.369267
1222.000000	0.369162
1223.000000	0.369111
1224.000000	0.369227
1225.000000	0.369266
1226.000000	0.369415
1227.000000	0.369654
1228.000000	0.369800
1229.000000	0.369975
1230.000000	0.370271
1231.000000	0.370289
1232.000000	0.370261
1233.000000	0.370403
1234.000000	0.370439
1235.000000	0.370466
1236.000000	0.370563
1237.000000	0.370575
1238.000000	0.370338
1239.000000	0.370246
1240.000000	0.370148
1241.000000	0.370153
1242.000000	0.370325
1243.000000	0.370537
1244.000000	0.370734
1245.000000	0.370922
1246.000000	0.371035
1247.000000	0.371146
1248.000000	0.371205
1249.000000	0.371313
1250.000000	0.371251
1251.000000	0.371110
1252.000000	0.371094
1253.000000	0.371152
1254.000000	0.371199
1255.000000	0.371337
1256.000000	0.371417
1257.000000	0.371507
1258.000000	0.371593
1259.000000	0.371575
1260.000000	0.371658
1261.000000	0.371732
1262.000000	0.371756
1263.000000	0.371803
1264.000000	0.371795
1265.000000	0.371896
1266.000000	0.371889
1267.000000	0.371912
1268.000000	0.372056
1269.000000	0.372071
1270.000000	0.372135
1271.000000	0.372086
1272.000000	0.372087
1273.000000	0.372237
1274.000000	0.372198
1275.000000	0.372159
1276.000000	0.372242
1277.000000	0.372256
1278.000000	0.371972
1279.000000	0.371930
1280.000000	0.371973
1281.000000	0.371950
1282.000000	0.372032
1283.000000	0.372106
1284.000000	0.372047
1285.000000	0.372011
1286.000000	0.371933
1287.000000	0.371920
1288.000000	0.371954
1289.000000	0.372005
1290.000000	0.371926
1291.000000	0.371860
1292.000000	0.371767
1293.000000	0.371680
1294.000000	0.371621
1295.000000	0.371564
1296.000000	0.371605
1297.000000	0.371610
1298.000000	0.371699
1299.000000	0.371843
1300.000000	0.371891
1301.000000	0.371962
1302.000000	0.371888
1303.000000	0.371841
1304.000000	0.371719
1305.000000	0.371533
1306.000000	0.371444
1307.000000	0.371442
1308.000000	0.371442
1309.000000	0.371551
1310.000000	0.371599
1311.000000	0.371646
1312.000000	0.371614
1313.000000	0.371590
1314.000000	0.371485
1315.000000	0.371344
1316.000000	0.371302
1317.000000	0.371336
1318.000000	0.371316
1319.000000	0.371165
1320.000000	0.371019
1321.000000	0.370857
1322.000000	0.370733
1323.000000	0.370661
1324.000000	0.370671
1325.000000	0.370625
1326.000000	0.370447
1327.000000	0.370356
1328.000000	0.370358
1329.000000	0.370210
1330.000000	0.370019
1331.000000	0.369888
1332.000000	0.369800
1333.000000	0.369656
1334.000000	0.369583
1335.000000	0.369563
1336.000000	0.369477
1337.000000	0.369353
1338.000000	0.369218
1339.000000	0.369071
1340.000000	0.368928
1341.000000	0.368930
1342.000000	0.368928
1343.000000	0.368998
1344.000000	0.368921
1345.000000	0.368674
1346.000000	0.368467
1347.000000	0.368139
1348.000000	0.367934
1349.000000	0.367756
1350.000000	0.367700
1351.000000	0.367555
1352.000000	0.367245
1353.000000	0.367082
1354.000000	0.366994
1355.000000	0.366932
1356.000000	0.366996
1357.000000	0.366850
1358.000000	0.366657
1359.000000	0.366468
1360.000000	0.366298
1361.000000	0.366235
1362.000000	0.366107
1363.000000	0.365935
1364.000000	0.365763
1365.000000	0.365487
1366.000000	0.365326
1367.000000	0.365209
1368.000000	0.365059
1369.000000	0.364978
1370.000000	0.364721
1371.000000	0.364276
1372.000000	0.363892
1373.000000	0.363664
1374.000000	0.363422
1375.000000	0.363216
1376.000000	0.363010
1377.000000	0.362565
1378.000000	0.362165
1379.000000	0.361649
1380.000000	0.361058
1381.000000	0.360569
1382.000000	0.360040
1383.000000	0.359705
1384.000000	0.359219
1385.000000	0.358340
1386.000000	0.357574
1387.000000	0.356835
1388.000000	0.356000
1389.000000	0.355447
1390.000000	0.354901
1391.000000	0.353969
1392.000000	0.353171
1393.000000	0.352362
1394.000000	0.351551
1395.000000	0.350728
1396.000000	0.350005
1397.000000	0.349015
1398.000000	0.347837
1399.000000	0.346777
1400.000000	0.345554
1401.000000	0.344456
1402.000000	0.343562
1403.000000	0.342493
1404.000000	0.341375
1405.000000	0.340272
1406.000000	0.339083
1407.000000	0.337936
1408.000000	0.336697
1409.000000	0.335615
1410.000000	0.334636
1411.000000	0.333470
1412.000000	0.332371
1413.000000	0.331403
1414.000000	0.330419
1415.000000	0.329581
1416.000000	0.328911
1417.000000	0.328291
1418.000000	0.327641
1419.000000	0.327091
1420.000000	0.326418
1421.000000	0.325703
1422.000000	0.325088
1423.000000	0.324459
1424.000000	0.323734
1425.000000	0.323071
1426.000000	0.322240
1427.000000	0.321398
1428.000000	0.320642
1429.000000	0.319859
1430.000000	0.319063
1431.000000	0.318287
1432.000000	0.317593
1433.000000	0.316884
1434.000000	0.316386
1435.000000	0.316127
1436.000000	0.315899
1437.000000	0.315813
1438.000000	0.315732
1439.000000	0.315747
1440.000000	0.315794
1441.000000	0.315887
1442.000000	0.316073
1443.000000	0.316250
1444.000000	0.316525
1445.000000	0.316910
1446.000000	0.317193
1447.000000	0.317361
1448.000000	0.317566
1449.000000	0.317705
1450.000000	0.317701
1451.000000	0.317655
1452.000000	0.317585
1453.000000	0.317526
1454.000000	0.317428
1455.000000	0.317420
1456.000000	0.317531
1457.000000	0.317544
1458.000000	0.317516
1459.000000	0.317485
1460.000000	0.317424
1461.000000	0.317338
1462.000000	0.317238
1463.000000	0.317179
1464.000000	0.317068
1465.000000	0.316912
1466.000000	0.316858
1467.000000	0.316834
1468.000000	0.316866
1469.000000	0.317042
1470.000000	0.317091
1471.000000	0.317238
1472.000000	0.317466
1473.000000	0.317636
1474.000000	0.317805
1475.000000	0.317985
1476.000000	0.318047
1477.000000	0.318207
1478.000000	0.318472
1479.000000	0.318746
1480.000000	0.319223
1481.000000	0.319604
1482.000000	0.320047
1483.000000	0.320458
1484.000000	0.320804
1485.000000	0.321173
1486.000000	0.321580
1487.000000	0.321971
1488.000000	0.322352
1489.000000	0.322791
1490.000000	0.323161
1491.000000	0.323515
1492.000000	0.323849
1493.000000	0.324184
1494.000000	0.324397
1495.000000	0.324659
1496.000000	0.324971
1497.000000	0.325271
1498.000000	0.325569
1499.000000	0.325907
1500.000000	0.326225
1501.000000	0.326538
1502.000000	0.326929
1503.000000	0.327252
1504.000000	0.327546
1505.000000	0.327900
1506.000000	0.328243
1507.000000	0.328514
1508.000000	0.328859
1509.000000	0.329121
1510.000000	0.329255
1511.000000	0.329531
1512.000000	0.329791
1513.000000	0.330068
1514.000000	0.330391
1515.000000	0.330462
1516.000000	0.330506
1517.000000	0.330619
1518.000000	0.330723
1519.000000	0.330886
1520.000000	0.331118
1521.000000	0.331126
1522.000000	0.331155
1523.000000	0.331423
1524.000000	0.331594
1525.000000	0.331785
1526.000000	0.331952
1527.000000	0.332007
1528.000000	0.332189
1529.000000	0.332432
1530.000000	0.332594
1531.000000	0.332694
1532.000000	0.332734
1533.000000	0.332836
1534.000000	0.332944
1535.000000	0.333062
1536.000000	0.333116
1537.000000	0.333095
1538.000000	0.333139
1539.000000	0.333210
1540.000000	0.333257
1541.000000	0.333374
1542.000000	0.333582
1543.000000	0.333735
1544.000000	0.333869
1545.000000	0.334073
1546.000000	0.334106
1547.000000	0.334075
1548.000000	0.334155
1549.000000	0.334200
1550.000000	0.334154
1551.000000	0.334056
1552.000000	0.333941
1553.000000	0.333788
1554.000000	0.333713
1555.000000	0.333841
1556.000000	0.333930
1557.000000	0.333930
1558.000000	0.334002
1559.000000	0.334014
1560.000000	0.334022
1561.000000	0.334126
1562.000000	0.334171
1563.000000	0.334212
1564.000000	0.334288
1565.000000	0.334350
1566.000000	0.334328
1567.000000	0.334419
1568.000000	0.334444
1569.000000	0.334458
1570.000000	0.334538
1571.000000	0.334632
1572.000000	0.334643
1573.000000	0.334671
1574.000000	0.334681
1575.000000	0.334652
1576.000000	0.334638
1577.000000	0.334618
1578.000000	0.334576
1579.000000	0.334552
1580.000000	0.334562
1581.000000	0.334673
1582.000000	0.334722
1583.000000	0.334727
1584.000000	0.334698
1585.000000	0.334728
1586.000000	0.334788
1587.000000	0.334905
1588.000000	0.334968
1589.000000	0.334981
1590.000000	0.335041
1591.000000	0.335067
1592.000000	0.335160
1593.000000	0.335492
1594.000000	0.335585
1595.000000	0.335592
1596.000000	0.335628
1597.000000	0.335543
1598.000000	0.335513
1599.000000	0.335626
1600.000000	0.335631
1601.000000	0.335662
1602.000000	0.335664
1603.000000	0.335665
1604.000000	0.335633
1605.000000	0.335606
1606.000000	0.335535
1607.000000	0.335435
1608.000000	0.335408
1609.000000	0.335438
1610.000000	0.335468
1611.000000	0.335614
1612.000000	0.335648
1613.000000	0.335698
1614.000000	0.335778
1615.000000	0.335983
1616.000000	0.336028
1617.000000	0.335949
1618.000000	0.335929
1619.000000	0.335707
1620.000000	0.335692
1621.000000	0.335922
1622.000000	0.336070
1623.000000	0.336227
1624.000000	0.336347
1625.000000	0.336258
1626.000000	0.336260
1627.000000	0.336280
1628.000000	0.336390
1629.000000	0.336562
1630.000000	0.336764
1631.000000	0.337017
1632.000000	0.337103
1633.000000	0.337131
1634.000000	0.337234
1635.000000	0.337326
1636.000000	0.337392
1637.000000	0.337486
1638.000000	0.337587
1639.000000	0.337704
1640.000000	0.337795
1641.000000	0.338043
1642.000000	0.338197
1643.000000	0.338247
1644.000000	0.338399
1645.000000	0.338622
1646.000000	0.338714
1647.000000	0.338842
1648.000000	0.338886
1649.000000	0.338920
1650.000000	0.339024
1651.000000	0.339126
1652.000000	0.339321
1653.000000	0.339498
1654.000000	0.339761
1655.000000	0.340133
1656.000000	0.340252
1657.000000	0.340370
1658.000000	0.340509
1659.000000	0.340620
1660.000000	0.340810
1661.000000	0.341003
1662.000000	0.341184
1663.000000	0.341321
1664.000000	0.341456
1665.000000	0.341609
1666.000000	0.341845
1667.000000	0.341997
1668.000000	0.342143
1669.000000	0.342315
1670.000000	0.342423
1671.000000	0.342572
1672.000000	0.342740
1673.000000	0.342861
1674.000000	0.343001
1675.000000	0.343336
1676.000000	0.343575
1677.000000	0.343854
1678.000000	0.343959
1679.000000	0.343941
1680.000000	0.343903
1681.000000	0.343840
1682.000000	0.343959
1683.000000	0.343930
1684.000000	0.343792
1685.000000	0.343737
1686.000000	0.343598
1687.000000	0.343653
1688.000000	0.343817
1689.000000	0.343938
1690.000000	0.343847
1691.000000	0.343778
1692.000000	0.343780
1693.000000	0.343774
1694.000000	0.343810
1695.000000	0.343909
1696.000000	0.344080
1697.000000	0.344093
1698.000000	0.344189
1699.000000	0.344275
1700.000000	0.344164
1701.000000	0.344234
1702.000000	0.344236
1703.000000	0.344239
1704.000000	0.344374
1705.000000	0.344493
1706.000000	0.344736
1707.000000	0.344882
1708.000000	0.344898
1709.000000	0.344905
1710.000000	0.344951
1711.000000	0.345042
1712.000000	0.345231
1713.000000	0.345344
1714.000000	0.345504
1715.000000	0.345602
1716.000000	0.345607
1717.000000	0.345680
1718.000000	0.345698
1719.000000	0.345768
1720.000000	0.345982
1721.000000	0.346134
1722.000000	0.346382
1723.000000	0.346407
1724.000000	0.346261
1725.000000	0.346293
1726.000000	0.346150
1727.000000	0.346133
1728.000000	0.346244
1729.000000	0.346203
1730.000000	0.346179
1731.000000	0.346282
1732.000000	0.346515
1733.000000	0.346641
1734.000000	0.346651
1735.000000	0.346651
1736.000000	0.346507
1737.000000	0.346423
1738.000000	0.346336
1739.000000	0.346417
1740.000000	0.346565
1741.000000	0.346594
1742.000000	0.346739
1743.000000	0.346818
1744.000000	0.346697
1745.000000	0.346742
1746.000000	0.346905
1747.000000	0.346952
1748.000000	0.346980
1749.000000	0.347103
1750.000000	0.347066
1751.000000	0.347045
1752.000000	0.347124
1753.000000	0.346916
1754.000000	0.346881
1755.000000	0.347026
1756.000000	0.347018
1757.000000	0.346868
1758.000000	0.346956
1759.000000	0.347155
1760.000000	0.347228
1761.000000	0.347397
1762.000000	0.347475
1763.000000	0.347339
1764.000000	0.347320
1765.000000	0.347372
1766.000000	0.347411
1767.000000	0.347354
1768.000000	0.347279
1769.000000	0.347301
1770.000000	0.347349
1771.000000	0.347337
1772.000000	0.347347
1773.000000	0.347315
1774.000000	0.347370
1775.000000	0.347570
1776.000000	0.347593
1777.000000	0.347518
1778.000000	0.347569
1779.000000	0.347544
1780.000000	0.347599
1781.000000	0.347776
1782.000000	0.347893
1783.000000	0.347993
1784.000000	0.347988
1785.000000	0.348157
1786.000000	0.348350
1787.000000	0.348480
1788.000000	0.348745
1789.000000	0.348829
1790.000000	0.348790
1791.000000	0.348788
1792.000000	0.349006
1793.000000	0.349025
1794.000000	0.348907
1795.000000	0.348871
1796.000000	0.348680
1797.000000	0.348623
1798.000000	0.348669
1799.000000	0.348716
1800.000000	0.348879
1801.000000	0.348569
1802.000000	0.348918
1803.000000	0.348777
1804.000000	0.348985
1805.000000	0.349241
1806.000000	0.349601
1807.000000	0.350402
1808.000000	0.350399
1809.000000	0.349696
1810.000000	0.349601
1811.000000	0.349625
1812.000000	0.349402
1813.000000	0.349281
1814.000000	0.349781
1815.000000	0.349832
1816.000000	0.349389
1817.000000	0.349074
1818.000000	0.348758
1819.000000	0.348927
1820.000000	0.349016
1821.000000	0.348588
1822.000000	0.348839
1823.000000	0.349693
1824.000000	0.349845
1825.000000	0.350078
1826.000000	0.350127
1827.000000	0.349586
1828.000000	0.348967
1829.000000	0.348801
1830.000000	0.348457
1831.000000	0.348807
1832.000000	0.349590
1833.000000	0.350166
1834.000000	0.351617
1835.000000	0.352028
1836.000000	0.351765
1837.000000	0.351693
1838.000000	0.351191
1839.000000	0.350612
1840.000000	0.349720
1841.000000	0.348715
1842.000000	0.348312
1843.000000	0.348191
1844.000000	0.347699
1845.000000	0.347120
1846.000000	0.346993
1847.000000	0.346647
1848.000000	0.346323
1849.000000	0.346583
1850.000000	0.346772
1851.000000	0.346747
1852.000000	0.346342
1853.000000	0.346151
1854.000000	0.345746
1855.000000	0.345564
1856.000000	0.345573
1857.000000	0.345094
1858.000000	0.344700
1859.000000	0.344461
1860.000000	0.343368
1861.000000	0.342011
1862.000000	0.340884
1863.000000	0.339569
1864.000000	0.338405
1865.000000	0.337411
1866.000000	0.336493
1867.000000	0.335529
1868.000000	0.334483
1869.000000	0.333879
1870.000000	0.333581
1871.000000	0.332607
1872.000000	0.331318
1873.000000	0.329804
1874.000000	0.327664
1875.000000	0.325611
1876.000000	0.323093
1877.000000	0.320696
1878.000000	0.318099
1879.000000	0.315742
1880.000000	0.313968
1881.000000	0.311919
1882.000000	0.309648
1883.000000	0.306630
1884.000000	0.303551
1885.000000	0.299180
1886.000000	0.295790
1887.000000	0.292583
1888.000000	0.289805
1889.000000	0.286514
1890.000000	0.283858
1891.000000	0.281013
1892.000000	0.277248
1893.000000	0.273419
1894.000000	0.269376
1895.000000	0.265519
1896.000000	0.261498
1897.000000	0.257889
1898.000000	0.254557
1899.000000	0.251130
1900.000000	0.247678
1901.000000	0.244009
1902.000000	0.240529
1903.000000	0.237676
1904.000000	0.234414
1905.000000	0.231232
1906.000000	0.228414
1907.000000	0.225812
1908.000000	0.223309
1909.000000	0.221387
1910.000000	0.219819
1911.000000	0.217874
1912.000000	0.216233
1913.000000	0.214941
1914.000000	0.213435
1915.000000	0.212414
1916.000000	0.211602
1917.000000	0.210500
1918.000000	0.209231
1919.000000	0.208274
1920.000000	0.207776
1921.000000	0.206606
1922.000000	0.205558
1923.000000	0.205386
1924.000000	0.204446
1925.000000	0.203734
1926.000000	0.204012
1927.000000	0.203969
1928.000000	0.204175
1929.000000	0.204751
1930.000000	0.205794
1931.000000	0.205766
1932.000000	0.205965
1933.000000	0.206465
1934.000000	0.206056
1935.000000	0.206013
1936.000000	0.206123
1937.000000	0.205856
1938.000000	0.206222
1939.000000	0.206430
1940.000000	0.206974
1941.000000	0.207333
1942.000000	0.206974
1943.000000	0.205979
1944.000000	0.205407
1945.000000	0.204516
1946.000000	0.204374
1947.000000	0.204831
1948.000000	0.204885
1949.000000	0.205337
1950.000000	0.205782
1951.000000	0.205802
1952.000000	0.205548
1953.000000	0.205236
1954.000000	0.204918
1955.000000	0.204629
1956.000000	0.204629
1957.000000	0.204642
1958.000000	0.204494
1959.000000	0.204090
1960.000000	0.203452
1961.000000	0.203212
1962.000000	0.203112
1963.000000	0.203362
1964.000000	0.203340
1965.000000	0.203441
1966.000000	0.203894
1967.000000	0.204219
1968.000000	0.204946
1969.000000	0.205859
1970.000000	0.205836
1971.000000	0.205366
1972.000000	0.205143
1973.000000	0.204885
1974.000000	0.204342
1975.000000	0.204634
1976.000000	0.205621
1977.000000	0.206066
1978.000000	0.206679
1979.000000	0.207388
1980.000000	0.207654
1981.000000	0.208020
1982.000000	0.208677
1983.000000	0.208993
1984.000000	0.209459
1985.000000	0.210001
1986.000000	0.210596
1987.000000	0.211240
1988.000000	0.212146
1989.000000	0.212963
1990.000000	0.213470
1991.000000	0.213727
1992.000000	0.214128
1993.000000	0.214737
1994.000000	0.215177
1995.000000	0.215992
1996.000000	0.216738
1997.000000	0.217274
1998.000000	0.217613
1999.000000	0.218267
2000.000000	0.218938
2001.000000	0.219432
2002.000000	0.220481
2003.000000	0.221459
2004.000000	0.222507
2005.000000	0.223813
2006.000000	0.224982
2007.000000	0.225934
2008.000000	0.226830
2009.000000	0.227470
2010.000000	0.228331
2011.000000	0.229128
2012.000000	0.229800
2013.000000	0.230426
2014.000000	0.230841
2015.000000	0.231488
2016.000000	0.232793
2017.000000	0.233921
2018.000000	0.235192
2019.000000	0.236222
2020.000000	0.236698
2021.000000	0.237344
2022.000000	0.237847
2023.000000	0.238383
2024.000000	0.238803
2025.000000	0.239707
2026.000000	0.240624
2027.000000	0.241883
2028.000000	0.243455
2029.000000	0.243935
2030.000000	0.244644
2031.000000	0.245119
2032.000000	0.245359
2033.000000	0.246477
2034.000000	0.247248
2035.000000	0.248094
2036.000000	0.248792
2037.000000	0.249532
2038.000000	0.250240
2039.000000	0.250882
2040.000000	0.251581
2041.000000	0.252688
2042.000000	0.253489
2043.000000	0.254184
2044.000000	0.254881
2045.000000	0.255016
2046.000000	0.255203
2047.000000	0.255512
2048.000000	0.255619
2049.000000	0.256171
2050.000000	0.256619
2051.000000	0.257437
2052.000000	0.258643
2053.000000	0.259524
2054.000000	0.260758
2055.000000	0.261897
2056.000000	0.262627
2057.000000	0.263620
2058.000000	0.264493
2059.000000	0.264938
2060.000000	0.265538
2061.000000	0.266117
2062.000000	0.266577
2063.000000	0.267196
2064.000000	0.267337
2065.000000	0.267303
2066.000000	0.267318
2067.000000	0.267221
2068.000000	0.267310
2069.000000	0.268239
2070.000000	0.268397
2071.000000	0.268911
2072.000000	0.270246
2073.000000	0.271010
2074.000000	0.272295
2075.000000	0.273237
2076.000000	0.274129
2077.000000	0.274613
2078.000000	0.274903
2079.000000	0.274975
2080.000000	0.274168
2081.000000	0.274629
2082.000000	0.275715
2083.000000	0.276715
2084.000000	0.277728
2085.000000	0.278655
2086.000000	0.278716
2087.000000	0.278793
2088.000000	0.279589
2089.000000	0.280628
2090.000000	0.281557
2091.000000	0.282806
2092.000000	0.283495
2093.000000	0.283953
2094.000000	0.284532
2095.000000	0.284983
2096.000000	0.285462
2097.000000	0.286038
2098.000000	0.286159
2099.000000	0.286369
2100.000000	0.286900
2101.000000	0.287456
2102.000000	0.288329
2103.000000	0.288756
2104.000000	0.288738
2105.000000	0.288849
2106.000000	0.288389
2107.000000	0.288683
2108.000000	0.289130
2109.000000	0.289972
2110.000000	0.291782
2111.000000	0.292712
2112.000000	0.293192
2113.000000	0.293920
2114.000000	0.294099
2115.000000	0.294145
2116.000000	0.294560
2117.000000	0.294845
2118.000000	0.296000
2119.000000	0.296378
2120.000000	0.296729
2121.000000	0.297152
2122.000000	0.297578
2123.000000	0.297497
2124.000000	0.297944
2125.000000	0.299264
2126.000000	0.299475
2127.000000	0.299098
2128.000000	0.299047
2129.000000	0.298434
2130.000000	0.297852
2131.000000	0.298198
2132.000000	0.298788
2133.000000	0.299379
2134.000000	0.299929
2135.000000	0.299648
2136.000000	0.298984
2137.000000	0.298577
2138.000000	0.297650
2139.000000	0.297407
2140.000000	0.297659
2141.000000	0.297942
2142.000000	0.298670
2143.000000	0.298730
2144.000000	0.298589
2145.000000	0.298797
2146.000000	0.298677
2147.000000	0.299583
2148.000000	0.300374
2149.000000	0.301079
2150.000000	0.301465
2151.000000	0.301084
2152.000000	0.300389
2153.000000	0.299616
2154.000000	0.299132
2155.000000	0.298313
2156.000000	0.298212
2157.000000	0.299090
2158.000000	0.299250
2159.000000	0.299302
2160.000000	0.299672
2161.000000	0.300214
2162.000000	0.300265
2163.000000	0.300071
2164.000000	0.299788
2165.000000	0.299044
2166.000000	0.298197
2167.000000	0.297484
2168.000000	0.297624
2169.000000	0.297301
2170.000000	0.297140
2171.000000	0.297169
2172.000000	0.297624
2173.000000	0.297580
2174.000000	0.297046
2175.000000	0.297335
2176.000000	0.298177
2177.000000	0.298371
2178.000000	0.299353
2179.000000	0.299584
2180.000000	0.298043
2181.000000	0.297992
2182.000000	0.298289
2183.000000	0.297704
2184.000000	0.299200
2185.000000	0.299866
2186.000000	0.299638
2187.000000	0.300702
2188.000000	0.299610
2189.000000	0.298311
2190.000000	0.298218
2191.000000	0.298418
2192.000000	0.298434
2193.000000	0.299486
2194.000000	0.299213
2195.000000	0.298058
2196.000000	0.296647
2197.000000	0.293743
2198.000000	0.292177
2199.000000	0.290836
2200.000000	0.290041
2201.000000	0.289707
2202.000000	0.290574
2203.000000	0.292456
2204.000000	0.295173
2205.000000	0.297052
2206.000000	0.298473
2207.000000	0.296883
2208.000000	0.293839
2209.000000	0.291351
2210.000000	0.289271
2211.000000	0.288885
2212.000000	0.288631
2213.000000	0.289457
2214.000000	0.291857
2215.000000	0.293716
2216.000000	0.297259
2217.000000	0.298412
2218.000000	0.298684
2219.000000	0.298358
2220.000000	0.294120
2221.000000	0.294169
2222.000000	0.297794
2223.000000	0.298092
2224.000000	0.298276
2225.000000	0.299791
2226.000000	0.297392
2227.000000	0.294417
2228.000000	0.294136
2229.000000	0.294374
2230.000000	0.294140
2231.000000	0.294299
2232.000000	0.295562
2233.000000	0.296824
2234.000000	0.297679
2235.000000	0.298113
2236.000000	0.297979
2237.000000	0.296077
2238.000000	0.295758
2239.000000	0.295998
2240.000000	0.297070
2241.000000	0.299789
2242.000000	0.300503
2243.000000	0.300101
2244.000000	0.300095
2245.000000	0.299110
2246.000000	0.299033
2247.000000	0.300091
2248.000000	0.300456
2249.000000	0.301081
2250.000000	0.300209
2251.000000	0.299202
2252.000000	0.302234
2253.000000	0.302477
2254.000000	0.301662
2255.000000	0.300799
2256.000000	0.296934
2257.000000	0.295737
2258.000000	0.295809
2259.000000	0.296140
2260.000000	0.296476
2261.000000	0.295346
2262.000000	0.293126
2263.000000	0.291382
2264.000000	0.287804
2265.000000	0.287072
2266.000000	0.288815
2267.000000	0.288353
2268.000000	0.288571
2269.000000	0.287866
2270.000000	0.284347
2271.000000	0.282844
2272.000000	0.282568
2273.000000	0.282119
2274.000000	0.283456
2275.000000	0.282363
2276.000000	0.279925
2277.000000	0.277489
2278.000000	0.273620
2279.000000	0.269109
2280.000000	0.267703
2281.000000	0.266328
2282.000000	0.264771
2283.000000	0.265528
2284.000000	0.264315
2285.000000	0.262663
2286.000000	0.264431
2287.000000	0.264590
2288.000000	0.265511
2289.000000	0.267630
2290.000000	0.265000
2291.000000	0.263371
2292.000000	0.262504
2293.000000	0.261297
2294.000000	0.262284
2295.000000	0.266411
2296.000000	0.267942
2297.000000	0.269943
2298.000000	0.270934
2299.000000	0.269812
2300.000000	0.270894
2301.000000	0.273120
2302.000000	0.273533
2303.000000	0.273731
2304.000000	0.274036
2305.000000	0.273547
2306.000000	0.273331
2307.000000	0.273468
2308.000000	0.274194
2309.000000	0.272551
2310.000000	0.272079
2311.000000	0.272276
2312.000000	0.271188
2313.000000	0.270881
2314.000000	0.268947
2315.000000	0.266823
2316.000000	0.267451
2317.000000	0.266866
2318.000000	0.266460
2319.000000	0.267312
2320.000000	0.264311
2321.000000	0.261703
2322.000000	0.260790
2323.000000	0.258194
2324.000000	0.256382
2325.000000	0.256716
2326.000000	0.257547
2327.000000	0.259904
2328.000000	0.262205
2329.000000	0.261789
2330.000000	0.259229
2331.000000	0.256070
2332.000000	0.253514
2333.000000	0.252496
2334.000000	0.253415
2335.000000	0.253649
2336.000000	0.253280
2337.000000	0.252850
2338.000000	0.252781
2339.000000	0.251814
2340.000000	0.250059
2341.000000	0.249149
2342.000000	0.246993
2343.000000	0.247179
2344.000000	0.249631
2345.000000	0.249436
2346.000000	0.250220
2347.000000	0.250218
2348.000000	0.247561
2349.000000	0.247560
2350.000000	0.247781
2351.000000	0.245401
2352.000000	0.244458
2353.000000	0.243536
2354.000000	0.242735
2355.000000	0.244028
2356.000000	0.243133
2357.000000	0.240397
2358.000000	0.237894
2359.000000	0.234852
2360.000000	0.229816
2361.000000	0.224879
2362.000000	0.224467
2363.000000	0.222758
2364.000000	0.220445
2365.000000	0.222490
2366.000000	0.222152
2367.000000	0.219855
2368.000000	0.222214
2369.000000	0.226357
2370.000000	0.224930
2371.000000	0.223791
2372.000000	0.228691
2373.000000	0.230824
2374.000000	0.231145
2375.000000	0.232195
2376.000000	0.226756
2377.000000	0.217036
2378.000000	0.213795
2379.000000	0.216740
2380.000000	0.217853
2381.000000	0.217813
2382.000000	0.216782
2383.000000	0.211625
2384.000000	0.205361
2385.000000	0.203061
2386.000000	0.199204
2387.000000	0.195714
2388.000000	0.197226
2389.000000	0.198060
2390.000000	0.200604
2391.000000	0.204093
2392.000000	0.204128
2393.000000	0.205814
2394.000000	0.210455
2395.000000	0.212988
2396.000000	0.213934
2397.000000	0.210298
2398.000000	0.204604
2399.000000	0.198980
2400.000000	0.192545
2401.000000	0.191054
2402.000000	0.192715
2403.000000	0.197818
2404.000000	0.200705
2405.000000	0.200402
2406.000000	0.198390
2407.000000	0.187289
2408.000000	0.179284
2409.000000	0.177676
2410.000000	0.172935
2411.000000	0.171667
2412.000000	0.174076
2413.000000	0.171924
2414.000000	0.175929
2415.000000	0.185137
2416.000000	0.187867
2417.000000	0.195472
2418.000000	0.200883
2419.000000	0.198800
2420.000000	0.196672
2421.000000	0.187164
2422.000000	0.175236
2423.000000	0.172232
2424.000000	0.168617
2425.000000	0.170257
2426.000000	0.178391
2427.000000	0.178432
2428.000000	0.188704
2429.000000	0.194837
2430.000000	0.193506
2431.000000	0.198619
2432.000000	0.203656
2433.000000	0.210659
2434.000000	0.200775
2435.000000	0.193620
2436.000000	0.195141
2437.000000	0.181819
2438.000000	0.182067
2439.000000	0.177797
2440.000000	0.157587
2441.000000	0.168580
2442.000000	0.179312
2443.000000	0.179146
2444.000000	0.194019
2445.000000	0.190430
2446.000000	0.179900
2447.000000	0.192591
2448.000000	0.198524
2449.000000	0.187747
2450.000000	0.184155
2451.000000	0.180857
2452.000000	0.170336
2453.000000	0.168013
2454.000000	0.164349
2455.000000	0.155908
2456.000000	0.153784
2457.000000	0.156970
2458.000000	0.159790
2459.000000	0.168232
2460.000000	0.178707
2461.000000	0.169307
2462.000000	0.157249
2463.000000	0.140791
2464.000000	0.116945
2465.000000	0.108193
2466.000000	0.113199
2467.000000	0.124707
2468.000000	0.123945
2469.000000	0.113821
2470.000000	0.116426
2471.000000	0.119568
2472.000000	0.110694
2473.000000	0.117068
2474.000000	0.099588
2475.000000	0.059188
2476.000000	0.060882
2477.000000	0.053171
2478.000000	0.043538
2479.000000	0.043924
2480.000000	0.034237
2481.000000	0.048385
2482.000000	0.064621
2483.000000	0.104420
2484.000000	0.158068
2485.000000	0.188880
2486.000000	0.199234
2487.000000	0.190336
2488.000000	0.167112
2489.000000	0.082522
2490.000000	0.036249
2491.000000	0.047952
2492.000000	0.053976
2493.000000	0.155269
2494.000000	0.197574
2495.000000	0.188148
2496.000000	0.178879
2497.000000	0.092978
2498.000000	0.075475
2499.000000	0.090593
2500.000000	0.091063
