# Wavelength	NAu-1-30_HEX-50_FV7-20_00001.asd.rts.txt
350.000000	0.171074
351.000000	0.182923
352.000000	0.188867
353.000000	0.183300
354.000000	0.171561
355.000000	0.170331
356.000000	0.174434
357.000000	0.177940
358.000000	0.170367
359.000000	0.169743
360.000000	0.172632
361.000000	0.171310
362.000000	0.172304
363.000000	0.172278
364.000000	0.169851
365.000000	0.171448
366.000000	0.176517
367.000000	0.181287
368.000000	0.179357
369.000000	0.172663
370.000000	0.168045
371.000000	0.172435
372.000000	0.176792
373.000000	0.179092
374.000000	0.179703
375.000000	0.180949
376.000000	0.182167
377.000000	0.183665
378.000000	0.187104
379.000000	0.188662
380.000000	0.186707
381.000000	0.182203
382.000000	0.184924
383.000000	0.187014
384.000000	0.184198
385.000000	0.186874
386.000000	0.188861
387.000000	0.188495
388.000000	0.188279
389.000000	0.188852
390.000000	0.190719
391.000000	0.193735
392.000000	0.195624
393.000000	0.196179
394.000000	0.196111
395.000000	0.198089
396.000000	0.199413
397.000000	0.199764
398.000000	0.202192
399.000000	0.204025
400.000000	0.205641
401.000000	0.208326
402.000000	0.208897
403.000000	0.208930
404.000000	0.210280
405.000000	0.211861
406.000000	0.213401
407.000000	0.214735
408.000000	0.215577
409.000000	0.216270
410.000000	0.216977
411.000000	0.217741
412.000000	0.218422
413.000000	0.219685
414.000000	0.221806
415.000000	0.221652
416.000000	0.221462
417.000000	0.222663
418.000000	0.224384
419.000000	0.225304
420.000000	0.225276
421.000000	0.225109
422.000000	0.225558
423.000000	0.226191
424.000000	0.226343
425.000000	0.226719
426.000000	0.227057
427.000000	0.227172
428.000000	0.227651
429.000000	0.227442
430.000000	0.226627
431.000000	0.226807
432.000000	0.226968
433.000000	0.227165
434.000000	0.227902
435.000000	0.227855
436.000000	0.227283
437.000000	0.226757
438.000000	0.226817
439.000000	0.226673
440.000000	0.226159
441.000000	0.226144
442.000000	0.225966
443.000000	0.225493
444.000000	0.225081
445.000000	0.225446
446.000000	0.226048
447.000000	0.226018
448.000000	0.226477
449.000000	0.227417
450.000000	0.228706
451.000000	0.230200
452.000000	0.231951
453.000000	0.233863
454.000000	0.235859
455.000000	0.238153
456.000000	0.240563
457.000000	0.242603
458.000000	0.244653
459.000000	0.246814
460.000000	0.249058
461.000000	0.250766
462.000000	0.252343
463.000000	0.253807
464.000000	0.254940
465.000000	0.255942
466.000000	0.256925
467.000000	0.258098
468.000000	0.259085
469.000000	0.259889
470.000000	0.260766
471.000000	0.261557
472.000000	0.262200
473.000000	0.262732
474.000000	0.263279
475.000000	0.263910
476.000000	0.264671
477.000000	0.265192
478.000000	0.265711
479.000000	0.266362
480.000000	0.266880
481.000000	0.267294
482.000000	0.267834
483.000000	0.268434
484.000000	0.268954
485.000000	0.269451
486.000000	0.270106
487.000000	0.270734
488.000000	0.271244
489.000000	0.271698
490.000000	0.272251
491.000000	0.272737
492.000000	0.273153
493.000000	0.273469
494.000000	0.274381
495.000000	0.275231
496.000000	0.275595
497.000000	0.276262
498.000000	0.276941
499.000000	0.277605
500.000000	0.278315
501.000000	0.279097
502.000000	0.279886
503.000000	0.280485
504.000000	0.281079
505.000000	0.281696
506.000000	0.282341
507.000000	0.283056
508.000000	0.283816
509.000000	0.284529
510.000000	0.285073
511.000000	0.285784
512.000000	0.286652
513.000000	0.287320
514.000000	0.288127
515.000000	0.289060
516.000000	0.289921
517.000000	0.290670
518.000000	0.291440
519.000000	0.292256
520.000000	0.293200
521.000000	0.294076
522.000000	0.294836
523.000000	0.295597
524.000000	0.296518
525.000000	0.297533
526.000000	0.298493
527.000000	0.299476
528.000000	0.300397
529.000000	0.301245
530.000000	0.302221
531.000000	0.303209
532.000000	0.304062
533.000000	0.305017
534.000000	0.306075
535.000000	0.307150
536.000000	0.308087
537.000000	0.309171
538.000000	0.310292
539.000000	0.311201
540.000000	0.312221
541.000000	0.313265
542.000000	0.314254
543.000000	0.315209
544.000000	0.316224
545.000000	0.317255
546.000000	0.318267
547.000000	0.319373
548.000000	0.320508
549.000000	0.321362
550.000000	0.322324
551.000000	0.323397
552.000000	0.324418
553.000000	0.325427
554.000000	0.326416
555.000000	0.327392
556.000000	0.328399
557.000000	0.329287
558.000000	0.330171
559.000000	0.331075
560.000000	0.331937
561.000000	0.332847
562.000000	0.333778
563.000000	0.334612
564.000000	0.335429
565.000000	0.336211
566.000000	0.337022
567.000000	0.337810
568.000000	0.338523
569.000000	0.339224
570.000000	0.339870
571.000000	0.340480
572.000000	0.341161
573.000000	0.341776
574.000000	0.342304
575.000000	0.342838
576.000000	0.343440
577.000000	0.344020
578.000000	0.344577
579.000000	0.345138
580.000000	0.345676
581.000000	0.346163
582.000000	0.346579
583.000000	0.346929
584.000000	0.347260
585.000000	0.347644
586.000000	0.347980
587.000000	0.348314
588.000000	0.348703
589.000000	0.349001
590.000000	0.349292
591.000000	0.349612
592.000000	0.349820
593.000000	0.350070
594.000000	0.350366
595.000000	0.350578
596.000000	0.350757
597.000000	0.350964
598.000000	0.351138
599.000000	0.351253
600.000000	0.351372
601.000000	0.351470
602.000000	0.351633
603.000000	0.351784
604.000000	0.351909
605.000000	0.352053
606.000000	0.352242
607.000000	0.352424
608.000000	0.352486
609.000000	0.352656
610.000000	0.352805
611.000000	0.352775
612.000000	0.352875
613.000000	0.352965
614.000000	0.352997
615.000000	0.353081
616.000000	0.353186
617.000000	0.353257
618.000000	0.353331
619.000000	0.353366
620.000000	0.353402
621.000000	0.353561
622.000000	0.353568
623.000000	0.353526
624.000000	0.353541
625.000000	0.353493
626.000000	0.353503
627.000000	0.353618
628.000000	0.353756
629.000000	0.353940
630.000000	0.354026
631.000000	0.354124
632.000000	0.354220
633.000000	0.354337
634.000000	0.354485
635.000000	0.354721
636.000000	0.354932
637.000000	0.355052
638.000000	0.355210
639.000000	0.355384
640.000000	0.355591
641.000000	0.355665
642.000000	0.355818
643.000000	0.356004
644.000000	0.356122
645.000000	0.356296
646.000000	0.356520
647.000000	0.356725
648.000000	0.356860
649.000000	0.357034
650.000000	0.357246
651.000000	0.357425
652.000000	0.357587
653.000000	0.357782
654.000000	0.357973
655.000000	0.358201
656.000000	0.358427
657.000000	0.358568
658.000000	0.358795
659.000000	0.359028
660.000000	0.359233
661.000000	0.359568
662.000000	0.359768
663.000000	0.359908
664.000000	0.360143
665.000000	0.360388
666.000000	0.360682
667.000000	0.361026
668.000000	0.361333
669.000000	0.361612
670.000000	0.361885
671.000000	0.362132
672.000000	0.362457
673.000000	0.362825
674.000000	0.363108
675.000000	0.363373
676.000000	0.363665
677.000000	0.364024
678.000000	0.364288
679.000000	0.364560
680.000000	0.364914
681.000000	0.365227
682.000000	0.365570
683.000000	0.365910
684.000000	0.366403
685.000000	0.366736
686.000000	0.367030
687.000000	0.367464
688.000000	0.367875
689.000000	0.368251
690.000000	0.368637
691.000000	0.368996
692.000000	0.369318
693.000000	0.369684
694.000000	0.370066
695.000000	0.370464
696.000000	0.370881
697.000000	0.371324
698.000000	0.371716
699.000000	0.372134
700.000000	0.372626
701.000000	0.373012
702.000000	0.373421
703.000000	0.373873
704.000000	0.374317
705.000000	0.374781
706.000000	0.375214
707.000000	0.375646
708.000000	0.376047
709.000000	0.376415
710.000000	0.376797
711.000000	0.377276
712.000000	0.377761
713.000000	0.378207
714.000000	0.378542
715.000000	0.378963
716.000000	0.379440
717.000000	0.379815
718.000000	0.380247
719.000000	0.380641
720.000000	0.380953
721.000000	0.381403
722.000000	0.381767
723.000000	0.382072
724.000000	0.382478
725.000000	0.382844
726.000000	0.383244
727.000000	0.383627
728.000000	0.384041
729.000000	0.384425
730.000000	0.384687
731.000000	0.385023
732.000000	0.385364
733.000000	0.385739
734.000000	0.386158
735.000000	0.386520
736.000000	0.386931
737.000000	0.387260
738.000000	0.387507
739.000000	0.387854
740.000000	0.388198
741.000000	0.388524
742.000000	0.388795
743.000000	0.388994
744.000000	0.389237
745.000000	0.389399
746.000000	0.389571
747.000000	0.389784
748.000000	0.390116
749.000000	0.390434
750.000000	0.390620
751.000000	0.390827
752.000000	0.391014
753.000000	0.391189
754.000000	0.391367
755.000000	0.391517
756.000000	0.391672
757.000000	0.391819
758.000000	0.391987
759.000000	0.392153
760.000000	0.392236
761.000000	0.392408
762.000000	0.392547
763.000000	0.392612
764.000000	0.392704
765.000000	0.392828
766.000000	0.392882
767.000000	0.392809
768.000000	0.392883
769.000000	0.392964
770.000000	0.392998
771.000000	0.393052
772.000000	0.393112
773.000000	0.393067
774.000000	0.392951
775.000000	0.392869
776.000000	0.392852
777.000000	0.392856
778.000000	0.392769
779.000000	0.392721
780.000000	0.392721
781.000000	0.392628
782.000000	0.392526
783.000000	0.392494
784.000000	0.392381
785.000000	0.392330
786.000000	0.392255
787.000000	0.392117
788.000000	0.392008
789.000000	0.391955
790.000000	0.391878
791.000000	0.391702
792.000000	0.391581
793.000000	0.391472
794.000000	0.391323
795.000000	0.391125
796.000000	0.390975
797.000000	0.390872
798.000000	0.390737
799.000000	0.390576
800.000000	0.390387
801.000000	0.390188
802.000000	0.390047
803.000000	0.389897
804.000000	0.389708
805.000000	0.389369
806.000000	0.388995
807.000000	0.388727
808.000000	0.388515
809.000000	0.388326
810.000000	0.388204
811.000000	0.388109
812.000000	0.387781
813.000000	0.387517
814.000000	0.387380
815.000000	0.387260
816.000000	0.387029
817.000000	0.386776
818.000000	0.386526
819.000000	0.386364
820.000000	0.386208
821.000000	0.385947
822.000000	0.385606
823.000000	0.385439
824.000000	0.385305
825.000000	0.385087
826.000000	0.384852
827.000000	0.384588
828.000000	0.384357
829.000000	0.384210
830.000000	0.383957
831.000000	0.383649
832.000000	0.383279
833.000000	0.383072
834.000000	0.382874
835.000000	0.382595
836.000000	0.382335
837.000000	0.382028
838.000000	0.381679
839.000000	0.381296
840.000000	0.381060
841.000000	0.380853
842.000000	0.380524
843.000000	0.380345
844.000000	0.380175
845.000000	0.379952
846.000000	0.379797
847.000000	0.379494
848.000000	0.379173
849.000000	0.379024
850.000000	0.378760
851.000000	0.378474
852.000000	0.378252
853.000000	0.378016
854.000000	0.377769
855.000000	0.377581
856.000000	0.377303
857.000000	0.376947
858.000000	0.376686
859.000000	0.376514
860.000000	0.376436
861.000000	0.376275
862.000000	0.376049
863.000000	0.375760
864.000000	0.375487
865.000000	0.375218
866.000000	0.374968
867.000000	0.374723
868.000000	0.374465
869.000000	0.374156
870.000000	0.373892
871.000000	0.373586
872.000000	0.373382
873.000000	0.373253
874.000000	0.373061
875.000000	0.372789
876.000000	0.372509
877.000000	0.372249
878.000000	0.372011
879.000000	0.371842
880.000000	0.371591
881.000000	0.371329
882.000000	0.371009
883.000000	0.370671
884.000000	0.370326
885.000000	0.370195
886.000000	0.370144
887.000000	0.370072
888.000000	0.369884
889.000000	0.369682
890.000000	0.369362
891.000000	0.369044
892.000000	0.368835
893.000000	0.368583
894.000000	0.368370
895.000000	0.368202
896.000000	0.368110
897.000000	0.367971
898.000000	0.367671
899.000000	0.367499
900.000000	0.367350
901.000000	0.367185
902.000000	0.367248
903.000000	0.367130
904.000000	0.366863
905.000000	0.366499
906.000000	0.366235
907.000000	0.366071
908.000000	0.365992
909.000000	0.365766
910.000000	0.365659
911.000000	0.365604
912.000000	0.365507
913.000000	0.365399
914.000000	0.365173
915.000000	0.364955
916.000000	0.364837
917.000000	0.364708
918.000000	0.364629
919.000000	0.364571
920.000000	0.364293
921.000000	0.364101
922.000000	0.364027
923.000000	0.363907
924.000000	0.363563
925.000000	0.363308
926.000000	0.363278
927.000000	0.363065
928.000000	0.362925
929.000000	0.362789
930.000000	0.362538
931.000000	0.362376
932.000000	0.362175
933.000000	0.361942
934.000000	0.361718
935.000000	0.361572
936.000000	0.361583
937.000000	0.361615
938.000000	0.361419
939.000000	0.361295
940.000000	0.361239
941.000000	0.361244
942.000000	0.361078
943.000000	0.361078
944.000000	0.361150
945.000000	0.360795
946.000000	0.360648
947.000000	0.360744
948.000000	0.360782
949.000000	0.360429
950.000000	0.360155
951.000000	0.359954
952.000000	0.359518
953.000000	0.359643
954.000000	0.359766
955.000000	0.359397
956.000000	0.359253
957.000000	0.359078
958.000000	0.358881
959.000000	0.358873
960.000000	0.358779
961.000000	0.358787
962.000000	0.358861
963.000000	0.358751
964.000000	0.358696
965.000000	0.358586
966.000000	0.358254
967.000000	0.358228
968.000000	0.358079
969.000000	0.357915
970.000000	0.358142
971.000000	0.357999
972.000000	0.357918
973.000000	0.357965
974.000000	0.357878
975.000000	0.357765
976.000000	0.357754
977.000000	0.357827
978.000000	0.357529
979.000000	0.357623
980.000000	0.357731
981.000000	0.357642
982.000000	0.357632
983.000000	0.357491
984.000000	0.357375
985.000000	0.357627
986.000000	0.357777
987.000000	0.357799
988.000000	0.357582
989.000000	0.357077
990.000000	0.357100
991.000000	0.357557
992.000000	0.357990
993.000000	0.357762
994.000000	0.357560
995.000000	0.357698
996.000000	0.357705
997.000000	0.357915
998.000000	0.358163
999.000000	0.358370
1000.000000	0.358372
1001.000000	0.358479
1002.000000	0.358117
1003.000000	0.358309
1004.000000	0.358452
1005.000000	0.358550
1006.000000	0.358534
1007.000000	0.358416
1008.000000	0.358888
1009.000000	0.359603
1010.000000	0.359703
1011.000000	0.360055
1012.000000	0.359874
1013.000000	0.358975
1014.000000	0.358751
1015.000000	0.358508
1016.000000	0.358509
1017.000000	0.358560
1018.000000	0.358859
1019.000000	0.359142
1020.000000	0.359503
1021.000000	0.359616
1022.000000	0.360424
1023.000000	0.360605
1024.000000	0.360013
1025.000000	0.360186
1026.000000	0.360301
1027.000000	0.359953
1028.000000	0.360467
1029.000000	0.360996
1030.000000	0.361229
1031.000000	0.361818
1032.000000	0.362257
1033.000000	0.362591
1034.000000	0.362914
1035.000000	0.363140
1036.000000	0.363238
1037.000000	0.363062
1038.000000	0.363300
1039.000000	0.363822
1040.000000	0.364357
1041.000000	0.364764
1042.000000	0.365598
1043.000000	0.365768
1044.000000	0.365824
1045.000000	0.366636
1046.000000	0.366709
1047.000000	0.366906
1048.000000	0.367249
1049.000000	0.367281
1050.000000	0.366978
1051.000000	0.366884
1052.000000	0.366412
1053.000000	0.366420
1054.000000	0.366862
1055.000000	0.367441
1056.000000	0.368458
1057.000000	0.369605
1058.000000	0.369869
1059.000000	0.369932
1060.000000	0.370239
1061.000000	0.370251
1062.000000	0.371082
1063.000000	0.371808
1064.000000	0.372231
1065.000000	0.372391
1066.000000	0.372739
1067.000000	0.372822
1068.000000	0.373075
1069.000000	0.373321
1070.000000	0.373625
1071.000000	0.374059
1072.000000	0.374554
1073.000000	0.375203
1074.000000	0.376029
1075.000000	0.376415
1076.000000	0.376814
1077.000000	0.377109
1078.000000	0.377350
1079.000000	0.377619
1080.000000	0.377935
1081.000000	0.378323
1082.000000	0.378965
1083.000000	0.379264
1084.000000	0.379512
1085.000000	0.379865
1086.000000	0.379816
1087.000000	0.380121
1088.000000	0.380861
1089.000000	0.381258
1090.000000	0.381338
1091.000000	0.381661
1092.000000	0.382345
1093.000000	0.383009
1094.000000	0.383504
1095.000000	0.384170
1096.000000	0.384687
1097.000000	0.384864
1098.000000	0.385178
1099.000000	0.385585
1100.000000	0.386039
1101.000000	0.386196
1102.000000	0.386640
1103.000000	0.387445
1104.000000	0.388032
1105.000000	0.388702
1106.000000	0.389140
1107.000000	0.389169
1108.000000	0.389399
1109.000000	0.389491
1110.000000	0.389874
1111.000000	0.390423
1112.000000	0.391433
1113.000000	0.391841
1114.000000	0.392173
1115.000000	0.392450
1116.000000	0.392273
1117.000000	0.392549
1118.000000	0.393107
1119.000000	0.393442
1120.000000	0.393716
1121.000000	0.394138
1122.000000	0.394779
1123.000000	0.395431
1124.000000	0.395931
1125.000000	0.396428
1126.000000	0.396736
1127.000000	0.396965
1128.000000	0.397150
1129.000000	0.397309
1130.000000	0.397676
1131.000000	0.398152
1132.000000	0.398350
1133.000000	0.398643
1134.000000	0.398925
1135.000000	0.398800
1136.000000	0.399019
1137.000000	0.399603
1138.000000	0.399887
1139.000000	0.400265
1140.000000	0.400584
1141.000000	0.400644
1142.000000	0.400840
1143.000000	0.400923
1144.000000	0.401221
1145.000000	0.401447
1146.000000	0.401668
1147.000000	0.401868
1148.000000	0.401953
1149.000000	0.402162
1150.000000	0.402423
1151.000000	0.402696
1152.000000	0.402981
1153.000000	0.403225
1154.000000	0.403375
1155.000000	0.403557
1156.000000	0.403819
1157.000000	0.403960
1158.000000	0.403907
1159.000000	0.404012
1160.000000	0.404048
1161.000000	0.404180
1162.000000	0.404584
1163.000000	0.405068
1164.000000	0.405232
1165.000000	0.405370
1166.000000	0.405467
1167.000000	0.405292
1168.000000	0.405345
1169.000000	0.405508
1170.000000	0.405712
1171.000000	0.406108
1172.000000	0.406382
1173.000000	0.406593
1174.000000	0.406784
1175.000000	0.406844
1176.000000	0.406938
1177.000000	0.407222
1178.000000	0.407380
1179.000000	0.407478
1180.000000	0.407502
1181.000000	0.407509
1182.000000	0.407479
1183.000000	0.407698
1184.000000	0.408047
1185.000000	0.408289
1186.000000	0.408692
1187.000000	0.408818
1188.000000	0.408654
1189.000000	0.408757
1190.000000	0.408980
1191.000000	0.409141
1192.000000	0.409602
1193.000000	0.409903
1194.000000	0.409817
1195.000000	0.409968
1196.000000	0.410149
1197.000000	0.410275
1198.000000	0.410482
1199.000000	0.410655
1200.000000	0.410760
1201.000000	0.410816
1202.000000	0.410910
1203.000000	0.411070
1204.000000	0.411179
1205.000000	0.411385
1206.000000	0.411498
1207.000000	0.411760
1208.000000	0.411835
1209.000000	0.411883
1210.000000	0.411917
1211.000000	0.411819
1212.000000	0.411868
1213.000000	0.412057
1214.000000	0.412195
1215.000000	0.412397
1216.000000	0.412512
1217.000000	0.412468
1218.000000	0.412474
1219.000000	0.412477
1220.000000	0.412596
1221.000000	0.412712
1222.000000	0.412802
1223.000000	0.412849
1224.000000	0.412872
1225.000000	0.412825
1226.000000	0.412914
1227.000000	0.413017
1228.000000	0.413133
1229.000000	0.413256
1230.000000	0.413454
1231.000000	0.413436
1232.000000	0.413518
1233.000000	0.413638
1234.000000	0.413520
1235.000000	0.413580
1236.000000	0.413697
1237.000000	0.413804
1238.000000	0.413915
1239.000000	0.414036
1240.000000	0.414220
1241.000000	0.414192
1242.000000	0.414241
1243.000000	0.414313
1244.000000	0.414368
1245.000000	0.414655
1246.000000	0.414989
1247.000000	0.415338
1248.000000	0.415608
1249.000000	0.415593
1250.000000	0.415506
1251.000000	0.415528
1252.000000	0.415541
1253.000000	0.415674
1254.000000	0.415719
1255.000000	0.415706
1256.000000	0.415693
1257.000000	0.415699
1258.000000	0.415709
1259.000000	0.415624
1260.000000	0.415644
1261.000000	0.415534
1262.000000	0.415543
1263.000000	0.415704
1264.000000	0.415857
1265.000000	0.415853
1266.000000	0.415834
1267.000000	0.415868
1268.000000	0.415896
1269.000000	0.415918
1270.000000	0.416050
1271.000000	0.416154
1272.000000	0.416183
1273.000000	0.416266
1274.000000	0.416428
1275.000000	0.416466
1276.000000	0.416386
1277.000000	0.416492
1278.000000	0.416578
1279.000000	0.416587
1280.000000	0.416573
1281.000000	0.416482
1282.000000	0.416222
1283.000000	0.416280
1284.000000	0.416431
1285.000000	0.416536
1286.000000	0.416706
1287.000000	0.416917
1288.000000	0.417072
1289.000000	0.417056
1290.000000	0.417035
1291.000000	0.417043
1292.000000	0.416927
1293.000000	0.417034
1294.000000	0.417250
1295.000000	0.417304
1296.000000	0.417313
1297.000000	0.417205
1298.000000	0.417069
1299.000000	0.416980
1300.000000	0.417001
1301.000000	0.417050
1302.000000	0.416975
1303.000000	0.417001
1304.000000	0.416896
1305.000000	0.416799
1306.000000	0.416719
1307.000000	0.416686
1308.000000	0.416631
1309.000000	0.416563
1310.000000	0.416486
1311.000000	0.416404
1312.000000	0.416300
1313.000000	0.416208
1314.000000	0.416075
1315.000000	0.415884
1316.000000	0.415788
1317.000000	0.415857
1318.000000	0.415897
1319.000000	0.415790
1320.000000	0.415684
1321.000000	0.415487
1322.000000	0.415234
1323.000000	0.415004
1324.000000	0.414855
1325.000000	0.414747
1326.000000	0.414595
1327.000000	0.414383
1328.000000	0.414363
1329.000000	0.414183
1330.000000	0.413800
1331.000000	0.413558
1332.000000	0.413514
1333.000000	0.413349
1334.000000	0.413203
1335.000000	0.413248
1336.000000	0.413363
1337.000000	0.413267
1338.000000	0.413203
1339.000000	0.412876
1340.000000	0.412337
1341.000000	0.411941
1342.000000	0.411402
1343.000000	0.411119
1344.000000	0.411065
1345.000000	0.410932
1346.000000	0.410834
1347.000000	0.410575
1348.000000	0.410287
1349.000000	0.409875
1350.000000	0.409724
1351.000000	0.409550
1352.000000	0.409160
1353.000000	0.408987
1354.000000	0.408691
1355.000000	0.408274
1356.000000	0.408201
1357.000000	0.407971
1358.000000	0.407733
1359.000000	0.407713
1360.000000	0.407523
1361.000000	0.407239
1362.000000	0.406947
1363.000000	0.406516
1364.000000	0.406233
1365.000000	0.406002
1366.000000	0.405722
1367.000000	0.405445
1368.000000	0.405238
1369.000000	0.405099
1370.000000	0.404802
1371.000000	0.404352
1372.000000	0.403958
1373.000000	0.403556
1374.000000	0.403043
1375.000000	0.402646
1376.000000	0.402295
1377.000000	0.401784
1378.000000	0.401302
1379.000000	0.400858
1380.000000	0.400386
1381.000000	0.399724
1382.000000	0.399080
1383.000000	0.398450
1384.000000	0.397612
1385.000000	0.396753
1386.000000	0.395672
1387.000000	0.394548
1388.000000	0.393484
1389.000000	0.392285
1390.000000	0.391220
1391.000000	0.390153
1392.000000	0.388921
1393.000000	0.387628
1394.000000	0.386360
1395.000000	0.385054
1396.000000	0.383624
1397.000000	0.382212
1398.000000	0.380816
1399.000000	0.379339
1400.000000	0.377741
1401.000000	0.376177
1402.000000	0.374676
1403.000000	0.373039
1404.000000	0.371527
1405.000000	0.369952
1406.000000	0.368307
1407.000000	0.366770
1408.000000	0.365092
1409.000000	0.363470
1410.000000	0.361980
1411.000000	0.360433
1412.000000	0.358905
1413.000000	0.357421
1414.000000	0.355947
1415.000000	0.354657
1416.000000	0.353453
1417.000000	0.352440
1418.000000	0.351455
1419.000000	0.350353
1420.000000	0.349306
1421.000000	0.348372
1422.000000	0.347468
1423.000000	0.346692
1424.000000	0.345694
1425.000000	0.344634
1426.000000	0.343483
1427.000000	0.342271
1428.000000	0.341184
1429.000000	0.340098
1430.000000	0.339070
1431.000000	0.338167
1432.000000	0.337310
1433.000000	0.336533
1434.000000	0.335842
1435.000000	0.335273
1436.000000	0.334869
1437.000000	0.334597
1438.000000	0.334362
1439.000000	0.334331
1440.000000	0.334312
1441.000000	0.334290
1442.000000	0.334487
1443.000000	0.334835
1444.000000	0.335083
1445.000000	0.335280
1446.000000	0.335382
1447.000000	0.335265
1448.000000	0.335159
1449.000000	0.335278
1450.000000	0.335394
1451.000000	0.335400
1452.000000	0.335343
1453.000000	0.335217
1454.000000	0.335003
1455.000000	0.334796
1456.000000	0.334720
1457.000000	0.334661
1458.000000	0.334473
1459.000000	0.334252
1460.000000	0.334122
1461.000000	0.334005
1462.000000	0.333879
1463.000000	0.333788
1464.000000	0.333718
1465.000000	0.333602
1466.000000	0.333440
1467.000000	0.333377
1468.000000	0.333460
1469.000000	0.333644
1470.000000	0.333813
1471.000000	0.334083
1472.000000	0.334215
1473.000000	0.334330
1474.000000	0.334550
1475.000000	0.334808
1476.000000	0.335181
1477.000000	0.335697
1478.000000	0.336108
1479.000000	0.336482
1480.000000	0.336944
1481.000000	0.337337
1482.000000	0.337698
1483.000000	0.338193
1484.000000	0.338684
1485.000000	0.339235
1486.000000	0.339913
1487.000000	0.340498
1488.000000	0.341172
1489.000000	0.341763
1490.000000	0.342078
1491.000000	0.342560
1492.000000	0.342974
1493.000000	0.343462
1494.000000	0.344062
1495.000000	0.344550
1496.000000	0.345053
1497.000000	0.345501
1498.000000	0.345876
1499.000000	0.346238
1500.000000	0.346706
1501.000000	0.347125
1502.000000	0.347491
1503.000000	0.348019
1504.000000	0.348508
1505.000000	0.348929
1506.000000	0.349521
1507.000000	0.349910
1508.000000	0.350323
1509.000000	0.350775
1510.000000	0.350991
1511.000000	0.351350
1512.000000	0.351590
1513.000000	0.351681
1514.000000	0.351963
1515.000000	0.352211
1516.000000	0.352450
1517.000000	0.352728
1518.000000	0.353002
1519.000000	0.353180
1520.000000	0.353385
1521.000000	0.353622
1522.000000	0.353906
1523.000000	0.354254
1524.000000	0.354642
1525.000000	0.354967
1526.000000	0.355058
1527.000000	0.355130
1528.000000	0.355279
1529.000000	0.355300
1530.000000	0.355284
1531.000000	0.355474
1532.000000	0.355619
1533.000000	0.355738
1534.000000	0.355998
1535.000000	0.356198
1536.000000	0.356112
1537.000000	0.356136
1538.000000	0.356269
1539.000000	0.356290
1540.000000	0.356475
1541.000000	0.356754
1542.000000	0.356861
1543.000000	0.356852
1544.000000	0.356854
1545.000000	0.356865
1546.000000	0.356998
1547.000000	0.357254
1548.000000	0.357407
1549.000000	0.357463
1550.000000	0.357412
1551.000000	0.357433
1552.000000	0.357618
1553.000000	0.357702
1554.000000	0.357860
1555.000000	0.357963
1556.000000	0.357891
1557.000000	0.358039
1558.000000	0.358154
1559.000000	0.358218
1560.000000	0.358237
1561.000000	0.358282
1562.000000	0.358287
1563.000000	0.358300
1564.000000	0.358321
1565.000000	0.358343
1566.000000	0.358284
1567.000000	0.358245
1568.000000	0.358282
1569.000000	0.358484
1570.000000	0.358514
1571.000000	0.358490
1572.000000	0.358467
1573.000000	0.358346
1574.000000	0.358291
1575.000000	0.358318
1576.000000	0.358325
1577.000000	0.358296
1578.000000	0.358223
1579.000000	0.358205
1580.000000	0.358185
1581.000000	0.358171
1582.000000	0.358182
1583.000000	0.358258
1584.000000	0.358280
1585.000000	0.358439
1586.000000	0.358419
1587.000000	0.358264
1588.000000	0.358178
1589.000000	0.357948
1590.000000	0.357914
1591.000000	0.358106
1592.000000	0.358196
1593.000000	0.358394
1594.000000	0.358421
1595.000000	0.358383
1596.000000	0.358378
1597.000000	0.358266
1598.000000	0.358286
1599.000000	0.358436
1600.000000	0.358535
1601.000000	0.358800
1602.000000	0.358914
1603.000000	0.359018
1604.000000	0.359036
1605.000000	0.358974
1606.000000	0.358938
1607.000000	0.358849
1608.000000	0.358939
1609.000000	0.359212
1610.000000	0.359302
1611.000000	0.359499
1612.000000	0.359597
1613.000000	0.359584
1614.000000	0.359680
1615.000000	0.359965
1616.000000	0.360104
1617.000000	0.360107
1618.000000	0.360188
1619.000000	0.360248
1620.000000	0.360241
1621.000000	0.360204
1622.000000	0.360401
1623.000000	0.360623
1624.000000	0.360798
1625.000000	0.361005
1626.000000	0.361069
1627.000000	0.360918
1628.000000	0.361085
1629.000000	0.361406
1630.000000	0.361665
1631.000000	0.361950
1632.000000	0.362151
1633.000000	0.362281
1634.000000	0.362507
1635.000000	0.362863
1636.000000	0.363078
1637.000000	0.363237
1638.000000	0.363423
1639.000000	0.363600
1640.000000	0.363798
1641.000000	0.364181
1642.000000	0.364394
1643.000000	0.364530
1644.000000	0.364730
1645.000000	0.364891
1646.000000	0.365036
1647.000000	0.365243
1648.000000	0.365418
1649.000000	0.365622
1650.000000	0.365905
1651.000000	0.366381
1652.000000	0.366638
1653.000000	0.366723
1654.000000	0.366985
1655.000000	0.367092
1656.000000	0.367285
1657.000000	0.367792
1658.000000	0.368013
1659.000000	0.368215
1660.000000	0.368451
1661.000000	0.368528
1662.000000	0.368644
1663.000000	0.368717
1664.000000	0.368847
1665.000000	0.368966
1666.000000	0.369225
1667.000000	0.369518
1668.000000	0.369749
1669.000000	0.369953
1670.000000	0.370068
1671.000000	0.370293
1672.000000	0.370462
1673.000000	0.370478
1674.000000	0.370788
1675.000000	0.370998
1676.000000	0.371066
1677.000000	0.371292
1678.000000	0.371179
1679.000000	0.371061
1680.000000	0.371391
1681.000000	0.371676
1682.000000	0.372068
1683.000000	0.372480
1684.000000	0.372563
1685.000000	0.372692
1686.000000	0.372662
1687.000000	0.372638
1688.000000	0.372713
1689.000000	0.372687
1690.000000	0.372867
1691.000000	0.373168
1692.000000	0.373229
1693.000000	0.373368
1694.000000	0.373422
1695.000000	0.373481
1696.000000	0.373648
1697.000000	0.373676
1698.000000	0.373714
1699.000000	0.373735
1700.000000	0.373562
1701.000000	0.373658
1702.000000	0.373679
1703.000000	0.373727
1704.000000	0.374103
1705.000000	0.374301
1706.000000	0.374427
1707.000000	0.374590
1708.000000	0.374645
1709.000000	0.374716
1710.000000	0.375029
1711.000000	0.375162
1712.000000	0.375263
1713.000000	0.375253
1714.000000	0.375021
1715.000000	0.375026
1716.000000	0.375138
1717.000000	0.375201
1718.000000	0.375350
1719.000000	0.375425
1720.000000	0.375492
1721.000000	0.375518
1722.000000	0.375497
1723.000000	0.375575
1724.000000	0.375707
1725.000000	0.375803
1726.000000	0.375851
1727.000000	0.375936
1728.000000	0.375884
1729.000000	0.375875
1730.000000	0.376152
1731.000000	0.376217
1732.000000	0.376148
1733.000000	0.376274
1734.000000	0.376235
1735.000000	0.376358
1736.000000	0.376642
1737.000000	0.376741
1738.000000	0.376816
1739.000000	0.376896
1740.000000	0.376889
1741.000000	0.376895
1742.000000	0.376906
1743.000000	0.377053
1744.000000	0.377226
1745.000000	0.377262
1746.000000	0.377341
1747.000000	0.377317
1748.000000	0.377215
1749.000000	0.377029
1750.000000	0.377017
1751.000000	0.377258
1752.000000	0.377484
1753.000000	0.377779
1754.000000	0.377947
1755.000000	0.377815
1756.000000	0.377797
1757.000000	0.377841
1758.000000	0.377868
1759.000000	0.377822
1760.000000	0.377901
1761.000000	0.378018
1762.000000	0.378104
1763.000000	0.378272
1764.000000	0.378471
1765.000000	0.378696
1766.000000	0.378781
1767.000000	0.378753
1768.000000	0.378712
1769.000000	0.378577
1770.000000	0.378616
1771.000000	0.378752
1772.000000	0.378819
1773.000000	0.378826
1774.000000	0.378887
1775.000000	0.379002
1776.000000	0.379182
1777.000000	0.379428
1778.000000	0.379528
1779.000000	0.379610
1780.000000	0.379636
1781.000000	0.379441
1782.000000	0.379472
1783.000000	0.379638
1784.000000	0.379889
1785.000000	0.380131
1786.000000	0.380489
1787.000000	0.380747
1788.000000	0.380774
1789.000000	0.380813
1790.000000	0.380901
1791.000000	0.380925
1792.000000	0.381230
1793.000000	0.381365
1794.000000	0.381294
1795.000000	0.381338
1796.000000	0.381333
1797.000000	0.381415
1798.000000	0.381649
1799.000000	0.381729
1800.000000	0.381746
1801.000000	0.381315
1802.000000	0.381595
1803.000000	0.382214
1804.000000	0.382664
1805.000000	0.383568
1806.000000	0.383627
1807.000000	0.383026
1808.000000	0.382862
1809.000000	0.382633
1810.000000	0.381759
1811.000000	0.381516
1812.000000	0.381916
1813.000000	0.381978
1814.000000	0.381667
1815.000000	0.381880
1816.000000	0.382521
1817.000000	0.382786
1818.000000	0.382711
1819.000000	0.383993
1820.000000	0.384206
1821.000000	0.384291
1822.000000	0.384387
1823.000000	0.384188
1824.000000	0.383928
1825.000000	0.383509
1826.000000	0.383309
1827.000000	0.382900
1828.000000	0.382625
1829.000000	0.382712
1830.000000	0.382417
1831.000000	0.382317
1832.000000	0.382209
1833.000000	0.382266
1834.000000	0.382991
1835.000000	0.382772
1836.000000	0.381541
1837.000000	0.381090
1838.000000	0.380557
1839.000000	0.379632
1840.000000	0.379183
1841.000000	0.379587
1842.000000	0.379364
1843.000000	0.378531
1844.000000	0.378136
1845.000000	0.377784
1846.000000	0.377551
1847.000000	0.377103
1848.000000	0.377072
1849.000000	0.377502
1850.000000	0.377319
1851.000000	0.377132
1852.000000	0.377105
1853.000000	0.376668
1854.000000	0.375662
1855.000000	0.374726
1856.000000	0.373387
1857.000000	0.372110
1858.000000	0.371335
1859.000000	0.370591
1860.000000	0.370863
1861.000000	0.370618
1862.000000	0.369603
1863.000000	0.368259
1864.000000	0.366660
1865.000000	0.363948
1866.000000	0.362096
1867.000000	0.360594
1868.000000	0.358784
1869.000000	0.356693
1870.000000	0.355108
1871.000000	0.353023
1872.000000	0.350702
1873.000000	0.348758
1874.000000	0.347205
1875.000000	0.344889
1876.000000	0.342055
1877.000000	0.339358
1878.000000	0.335875
1879.000000	0.333074
1880.000000	0.330632
1881.000000	0.327874
1882.000000	0.325060
1883.000000	0.321530
1884.000000	0.317838
1885.000000	0.313160
1886.000000	0.309099
1887.000000	0.305178
1888.000000	0.300828
1889.000000	0.296351
1890.000000	0.291778
1891.000000	0.287378
1892.000000	0.282890
1893.000000	0.277864
1894.000000	0.272856
1895.000000	0.267778
1896.000000	0.262237
1897.000000	0.256902
1898.000000	0.252617
1899.000000	0.248680
1900.000000	0.244404
1901.000000	0.240170
1902.000000	0.236852
1903.000000	0.233542
1904.000000	0.229811
1905.000000	0.226440
1906.000000	0.222942
1907.000000	0.218913
1908.000000	0.215015
1909.000000	0.212301
1910.000000	0.210239
1911.000000	0.208007
1912.000000	0.205510
1913.000000	0.203238
1914.000000	0.201027
1915.000000	0.199152
1916.000000	0.198305
1917.000000	0.197243
1918.000000	0.196713
1919.000000	0.195737
1920.000000	0.194609
1921.000000	0.193190
1922.000000	0.192295
1923.000000	0.191923
1924.000000	0.191646
1925.000000	0.191680
1926.000000	0.191445
1927.000000	0.191057
1928.000000	0.190919
1929.000000	0.190914
1930.000000	0.191249
1931.000000	0.191280
1932.000000	0.191703
1933.000000	0.191722
1934.000000	0.191102
1935.000000	0.191338
1936.000000	0.190993
1937.000000	0.191122
1938.000000	0.191367
1939.000000	0.191366
1940.000000	0.191050
1941.000000	0.191458
1942.000000	0.191331
1943.000000	0.191033
1944.000000	0.190903
1945.000000	0.190218
1946.000000	0.189976
1947.000000	0.190284
1948.000000	0.190596
1949.000000	0.191036
1950.000000	0.191029
1951.000000	0.190817
1952.000000	0.190293
1953.000000	0.189720
1954.000000	0.189323
1955.000000	0.188923
1956.000000	0.188497
1957.000000	0.188448
1958.000000	0.187852
1959.000000	0.187412
1960.000000	0.187816
1961.000000	0.187858
1962.000000	0.187822
1963.000000	0.187851
1964.000000	0.188393
1965.000000	0.188394
1966.000000	0.188465
1967.000000	0.189359
1968.000000	0.190109
1969.000000	0.190559
1970.000000	0.190736
1971.000000	0.190323
1972.000000	0.189715
1973.000000	0.189068
1974.000000	0.187864
1975.000000	0.187558
1976.000000	0.187683
1977.000000	0.187799
1978.000000	0.188384
1979.000000	0.189095
1980.000000	0.189646
1981.000000	0.190348
1982.000000	0.191328
1983.000000	0.192596
1984.000000	0.193323
1985.000000	0.193965
1986.000000	0.194479
1987.000000	0.194659
1988.000000	0.194621
1989.000000	0.195419
1990.000000	0.196459
1991.000000	0.197171
1992.000000	0.197859
1993.000000	0.198407
1994.000000	0.198735
1995.000000	0.199174
1996.000000	0.199961
1997.000000	0.200773
1998.000000	0.201631
1999.000000	0.202665
2000.000000	0.203965
2001.000000	0.205115
2002.000000	0.206421
2003.000000	0.207570
2004.000000	0.208350
2005.000000	0.209277
2006.000000	0.210432
2007.000000	0.211595
2008.000000	0.212699
2009.000000	0.213931
2010.000000	0.215100
2011.000000	0.216013
2012.000000	0.216933
2013.000000	0.217728
2014.000000	0.218925
2015.000000	0.219539
2016.000000	0.220631
2017.000000	0.222125
2018.000000	0.223192
2019.000000	0.224523
2020.000000	0.225395
2021.000000	0.226426
2022.000000	0.227287
2023.000000	0.228132
2024.000000	0.229058
2025.000000	0.230192
2026.000000	0.231098
2027.000000	0.232158
2028.000000	0.233790
2029.000000	0.234907
2030.000000	0.235962
2031.000000	0.237028
2032.000000	0.237961
2033.000000	0.238727
2034.000000	0.239823
2035.000000	0.241171
2036.000000	0.242541
2037.000000	0.244797
2038.000000	0.246129
2039.000000	0.247433
2040.000000	0.247886
2041.000000	0.247578
2042.000000	0.246974
2043.000000	0.247271
2044.000000	0.248131
2045.000000	0.249540
2046.000000	0.251602
2047.000000	0.252899
2048.000000	0.253633
2049.000000	0.254733
2050.000000	0.255383
2051.000000	0.256092
2052.000000	0.257262
2053.000000	0.258029
2054.000000	0.258618
2055.000000	0.259093
2056.000000	0.260247
2057.000000	0.260554
2058.000000	0.260846
2059.000000	0.261911
2060.000000	0.262760
2061.000000	0.263536
2062.000000	0.264101
2063.000000	0.264898
2064.000000	0.265332
2065.000000	0.265304
2066.000000	0.265692
2067.000000	0.266526
2068.000000	0.267316
2069.000000	0.268240
2070.000000	0.268923
2071.000000	0.269582
2072.000000	0.270321
2073.000000	0.270779
2074.000000	0.271619
2075.000000	0.272395
2076.000000	0.273200
2077.000000	0.273893
2078.000000	0.274575
2079.000000	0.275377
2080.000000	0.275858
2081.000000	0.276920
2082.000000	0.278593
2083.000000	0.280108
2084.000000	0.281295
2085.000000	0.282503
2086.000000	0.282910
2087.000000	0.283193
2088.000000	0.283581
2089.000000	0.284482
2090.000000	0.285401
2091.000000	0.286796
2092.000000	0.287473
2093.000000	0.287873
2094.000000	0.288610
2095.000000	0.289315
2096.000000	0.289989
2097.000000	0.291077
2098.000000	0.291319
2099.000000	0.291588
2100.000000	0.292139
2101.000000	0.292740
2102.000000	0.293881
2103.000000	0.294897
2104.000000	0.295318
2105.000000	0.295739
2106.000000	0.295590
2107.000000	0.296341
2108.000000	0.297472
2109.000000	0.298488
2110.000000	0.300278
2111.000000	0.301164
2112.000000	0.301430
2113.000000	0.301078
2114.000000	0.301251
2115.000000	0.301572
2116.000000	0.301909
2117.000000	0.302559
2118.000000	0.302691
2119.000000	0.302716
2120.000000	0.302974
2121.000000	0.303124
2122.000000	0.303637
2123.000000	0.304464
2124.000000	0.305091
2125.000000	0.305927
2126.000000	0.306610
2127.000000	0.307578
2128.000000	0.308078
2129.000000	0.308287
2130.000000	0.308412
2131.000000	0.307090
2132.000000	0.305725
2133.000000	0.306093
2134.000000	0.306805
2135.000000	0.307682
2136.000000	0.309142
2137.000000	0.309803
2138.000000	0.309246
2139.000000	0.309462
2140.000000	0.310086
2141.000000	0.310371
2142.000000	0.310466
2143.000000	0.310561
2144.000000	0.311174
2145.000000	0.311236
2146.000000	0.311117
2147.000000	0.311273
2148.000000	0.309872
2149.000000	0.308414
2150.000000	0.308581
2151.000000	0.308305
2152.000000	0.309715
2153.000000	0.310442
2154.000000	0.310330
2155.000000	0.309396
2156.000000	0.308944
2157.000000	0.307973
2158.000000	0.307573
2159.000000	0.307218
2160.000000	0.307291
2161.000000	0.307266
2162.000000	0.308092
2163.000000	0.310598
2164.000000	0.311607
2165.000000	0.312429
2166.000000	0.313163
2167.000000	0.311933
2168.000000	0.310790
2169.000000	0.310691
2170.000000	0.310008
2171.000000	0.309750
2172.000000	0.310104
2173.000000	0.310193
2174.000000	0.310175
2175.000000	0.310364
2176.000000	0.310969
2177.000000	0.311044
2178.000000	0.310696
2179.000000	0.310753
2180.000000	0.311105
2181.000000	0.311114
2182.000000	0.310455
2183.000000	0.309916
2184.000000	0.309116
2185.000000	0.308253
2186.000000	0.308427
2187.000000	0.308231
2188.000000	0.308043
2189.000000	0.308161
2190.000000	0.308249
2191.000000	0.309450
2192.000000	0.309884
2193.000000	0.310601
2194.000000	0.310110
2195.000000	0.308134
2196.000000	0.307517
2197.000000	0.306227
2198.000000	0.306143
2199.000000	0.308452
2200.000000	0.309674
2201.000000	0.311444
2202.000000	0.312169
2203.000000	0.312170
2204.000000	0.310538
2205.000000	0.309742
2206.000000	0.308678
2207.000000	0.308750
2208.000000	0.308629
2209.000000	0.308095
2210.000000	0.310205
2211.000000	0.309223
2212.000000	0.309247
2213.000000	0.309665
2214.000000	0.308745
2215.000000	0.309479
2216.000000	0.312494
2217.000000	0.313819
2218.000000	0.315153
2219.000000	0.315942
2220.000000	0.316469
2221.000000	0.316567
2222.000000	0.316046
2223.000000	0.315108
2224.000000	0.313378
2225.000000	0.311626
2226.000000	0.311408
2227.000000	0.310916
2228.000000	0.310480
2229.000000	0.310561
2230.000000	0.309414
2231.000000	0.309407
2232.000000	0.310098
2233.000000	0.311066
2234.000000	0.311983
2235.000000	0.312155
2236.000000	0.311261
2237.000000	0.308549
2238.000000	0.307491
2239.000000	0.305093
2240.000000	0.306080
2241.000000	0.311300
2242.000000	0.312396
2243.000000	0.313007
2244.000000	0.313737
2245.000000	0.311545
2246.000000	0.311189
2247.000000	0.313599
2248.000000	0.313469
2249.000000	0.311696
2250.000000	0.310326
2251.000000	0.309612
2252.000000	0.309536
2253.000000	0.309236
2254.000000	0.310570
2255.000000	0.310888
2256.000000	0.311026
2257.000000	0.312499
2258.000000	0.311916
2259.000000	0.312298
2260.000000	0.311439
2261.000000	0.309743
2262.000000	0.307372
2263.000000	0.306151
2264.000000	0.304245
2265.000000	0.302769
2266.000000	0.302859
2267.000000	0.300947
2268.000000	0.297065
2269.000000	0.295441
2270.000000	0.294421
2271.000000	0.292922
2272.000000	0.292843
2273.000000	0.290891
2274.000000	0.286413
2275.000000	0.284277
2276.000000	0.282261
2277.000000	0.281661
2278.000000	0.281508
2279.000000	0.281061
2280.000000	0.280887
2281.000000	0.278642
2282.000000	0.277586
2283.000000	0.278237
2284.000000	0.278635
2285.000000	0.279458
2286.000000	0.280655
2287.000000	0.281886
2288.000000	0.281679
2289.000000	0.281721
2290.000000	0.281474
2291.000000	0.280822
2292.000000	0.280243
2293.000000	0.279276
2294.000000	0.279321
2295.000000	0.279965
2296.000000	0.279667
2297.000000	0.280075
2298.000000	0.280307
2299.000000	0.278352
2300.000000	0.278426
2301.000000	0.280393
2302.000000	0.280833
2303.000000	0.282489
2304.000000	0.283134
2305.000000	0.282184
2306.000000	0.281346
2307.000000	0.280385
2308.000000	0.278489
2309.000000	0.274713
2310.000000	0.272402
2311.000000	0.272711
2312.000000	0.272468
2313.000000	0.276171
2314.000000	0.281442
2315.000000	0.284117
2316.000000	0.285080
2317.000000	0.284686
2318.000000	0.284232
2319.000000	0.281711
2320.000000	0.279377
2321.000000	0.278337
2322.000000	0.274874
2323.000000	0.270032
2324.000000	0.267701
2325.000000	0.265098
2326.000000	0.261356
2327.000000	0.260132
2328.000000	0.258360
2329.000000	0.257746
2330.000000	0.258617
2331.000000	0.259135
2332.000000	0.260882
2333.000000	0.260772
2334.000000	0.259824
2335.000000	0.259582
2336.000000	0.259028
2337.000000	0.258723
2338.000000	0.258918
2339.000000	0.258138
2340.000000	0.257385
2341.000000	0.256138
2342.000000	0.253035
2343.000000	0.252079
2344.000000	0.252862
2345.000000	0.251390
2346.000000	0.249849
2347.000000	0.248062
2348.000000	0.244232
2349.000000	0.242320
2350.000000	0.242343
2351.000000	0.243328
2352.000000	0.242970
2353.000000	0.240737
2354.000000	0.239143
2355.000000	0.235604
2356.000000	0.231809
2357.000000	0.228925
2358.000000	0.225221
2359.000000	0.223782
2360.000000	0.223844
2361.000000	0.229428
2362.000000	0.232948
2363.000000	0.230994
2364.000000	0.232175
2365.000000	0.227861
2366.000000	0.221697
2367.000000	0.221261
2368.000000	0.217662
2369.000000	0.212771
2370.000000	0.211809
2371.000000	0.211055
2372.000000	0.209399
2373.000000	0.211554
2374.000000	0.214024
2375.000000	0.212033
2376.000000	0.215417
2377.000000	0.216730
2378.000000	0.210682
2379.000000	0.212017
2380.000000	0.210877
2381.000000	0.206823
2382.000000	0.209779
2383.000000	0.207449
2384.000000	0.204768
2385.000000	0.206037
2386.000000	0.202031
2387.000000	0.200002
2388.000000	0.196439
2389.000000	0.191451
2390.000000	0.192680
2391.000000	0.194353
2392.000000	0.199293
2393.000000	0.200757
2394.000000	0.194946
2395.000000	0.189892
2396.000000	0.187485
2397.000000	0.188150
2398.000000	0.191066
2399.000000	0.191847
2400.000000	0.187520
2401.000000	0.181882
2402.000000	0.176763
2403.000000	0.176210
2404.000000	0.176396
2405.000000	0.173346
2406.000000	0.171459
2407.000000	0.170774
2408.000000	0.171784
2409.000000	0.176230
2410.000000	0.181007
2411.000000	0.181850
2412.000000	0.177991
2413.000000	0.171119
2414.000000	0.174087
2415.000000	0.177180
2416.000000	0.179507
2417.000000	0.187879
2418.000000	0.188145
2419.000000	0.186979
2420.000000	0.180492
2421.000000	0.179495
2422.000000	0.183235
2423.000000	0.178895
2424.000000	0.187832
2425.000000	0.185120
2426.000000	0.175293
2427.000000	0.187213
2428.000000	0.191688
2429.000000	0.198772
2430.000000	0.207599
2431.000000	0.198478
2432.000000	0.185168
2433.000000	0.176881
2434.000000	0.172896
2435.000000	0.166596
2436.000000	0.169852
2437.000000	0.175402
2438.000000	0.173063
2439.000000	0.177611
2440.000000	0.184909
2441.000000	0.180629
2442.000000	0.174916
2443.000000	0.173933
2444.000000	0.171331
2445.000000	0.173875
2446.000000	0.185242
2447.000000	0.199557
2448.000000	0.191388
2449.000000	0.181698
2450.000000	0.181543
2451.000000	0.157224
2452.000000	0.147899
2453.000000	0.157192
2454.000000	0.144761
2455.000000	0.147018
2456.000000	0.159847
2457.000000	0.146726
2458.000000	0.147625
2459.000000	0.156666
2460.000000	0.169930
2461.000000	0.203710
2462.000000	0.227905
2463.000000	0.238234
2464.000000	0.230179
2465.000000	0.212155
2466.000000	0.209237
2467.000000	0.212415
2468.000000	0.203653
2469.000000	0.195756
2470.000000	0.178235
2471.000000	0.154068
2472.000000	0.158182
2473.000000	0.186820
2474.000000	0.203067
2475.000000	0.213676
2476.000000	0.215071
2477.000000	0.182957
2478.000000	0.162868
2479.000000	0.157399
2480.000000	0.163076
2481.000000	0.169408
2482.000000	0.169090
2483.000000	0.176152
2484.000000	0.183701
2485.000000	0.213054
2486.000000	0.221881
2487.000000	0.197759
2488.000000	0.168283
2489.000000	0.136449
2490.000000	0.122437
2491.000000	0.152657
2492.000000	0.162248
2493.000000	0.156473
2494.000000	0.174051
2495.000000	0.207465
2496.000000	0.214093
2497.000000	0.224122
2498.000000	0.217852
2499.000000	0.188128
2500.000000	0.170275
