# Wavelength	NAu-1-10_HEX-60_FV7-30_00001.asd.rts.txt
350.000000	0.239538
351.000000	0.250783
352.000000	0.242105
353.000000	0.237918
354.000000	0.246745
355.000000	0.234380
356.000000	0.236085
357.000000	0.248454
358.000000	0.239115
359.000000	0.227363
360.000000	0.223368
361.000000	0.230556
362.000000	0.229111
363.000000	0.226110
364.000000	0.226751
365.000000	0.229409
366.000000	0.230301
367.000000	0.227774
368.000000	0.222236
369.000000	0.224104
370.000000	0.228664
371.000000	0.228065
372.000000	0.230599
373.000000	0.232421
374.000000	0.231549
375.000000	0.231957
376.000000	0.230591
377.000000	0.227890
378.000000	0.227761
379.000000	0.230846
380.000000	0.233002
381.000000	0.230731
382.000000	0.234279
383.000000	0.237001
384.000000	0.235187
385.000000	0.236932
386.000000	0.238725
387.000000	0.239188
388.000000	0.238487
389.000000	0.239739
390.000000	0.241737
391.000000	0.241695
392.000000	0.241549
393.000000	0.242473
394.000000	0.244300
395.000000	0.242677
396.000000	0.242949
397.000000	0.245711
398.000000	0.245279
399.000000	0.245321
400.000000	0.246872
401.000000	0.249705
402.000000	0.250398
403.000000	0.250396
404.000000	0.251457
405.000000	0.252038
406.000000	0.252412
407.000000	0.252942
408.000000	0.254125
409.000000	0.253825
410.000000	0.253059
411.000000	0.254612
412.000000	0.255080
413.000000	0.255227
414.000000	0.256367
415.000000	0.257088
416.000000	0.257688
417.000000	0.258307
418.000000	0.258343
419.000000	0.258601
420.000000	0.259259
421.000000	0.260004
422.000000	0.260349
423.000000	0.260576
424.000000	0.261213
425.000000	0.261517
426.000000	0.261564
427.000000	0.261546
428.000000	0.261738
429.000000	0.262059
430.000000	0.262400
431.000000	0.262559
432.000000	0.262950
433.000000	0.263227
434.000000	0.262874
435.000000	0.263037
436.000000	0.263549
437.000000	0.263921
438.000000	0.263538
439.000000	0.263487
440.000000	0.264136
441.000000	0.263947
442.000000	0.264061
443.000000	0.264316
444.000000	0.263849
445.000000	0.264020
446.000000	0.264514
447.000000	0.264528
448.000000	0.265068
449.000000	0.265697
450.000000	0.266091
451.000000	0.266517
452.000000	0.267448
453.000000	0.268661
454.000000	0.269322
455.000000	0.270123
456.000000	0.271206
457.000000	0.272312
458.000000	0.273489
459.000000	0.274642
460.000000	0.275636
461.000000	0.275849
462.000000	0.276432
463.000000	0.277571
464.000000	0.278294
465.000000	0.278765
466.000000	0.279129
467.000000	0.279734
468.000000	0.280384
469.000000	0.280737
470.000000	0.280751
471.000000	0.281207
472.000000	0.281648
473.000000	0.281831
474.000000	0.282272
475.000000	0.282594
476.000000	0.282943
477.000000	0.283694
478.000000	0.284015
479.000000	0.284188
480.000000	0.284522
481.000000	0.284597
482.000000	0.284806
483.000000	0.285282
484.000000	0.286006
485.000000	0.286334
486.000000	0.286418
487.000000	0.287297
488.000000	0.287743
489.000000	0.287793
490.000000	0.288276
491.000000	0.288837
492.000000	0.289290
493.000000	0.289395
494.000000	0.289603
495.000000	0.290032
496.000000	0.290616
497.000000	0.291138
498.000000	0.291547
499.000000	0.291923
500.000000	0.292290
501.000000	0.292734
502.000000	0.293243
503.000000	0.293648
504.000000	0.293891
505.000000	0.294210
506.000000	0.294770
507.000000	0.295074
508.000000	0.295384
509.000000	0.295828
510.000000	0.296368
511.000000	0.296921
512.000000	0.297485
513.000000	0.298058
514.000000	0.298497
515.000000	0.298933
516.000000	0.299479
517.000000	0.299978
518.000000	0.300511
519.000000	0.301040
520.000000	0.301505
521.000000	0.301934
522.000000	0.302392
523.000000	0.303004
524.000000	0.303569
525.000000	0.303999
526.000000	0.304326
527.000000	0.304890
528.000000	0.305471
529.000000	0.305858
530.000000	0.306320
531.000000	0.306886
532.000000	0.307441
533.000000	0.307956
534.000000	0.308500
535.000000	0.309064
536.000000	0.309619
537.000000	0.310094
538.000000	0.310559
539.000000	0.311107
540.000000	0.311549
541.000000	0.311968
542.000000	0.312490
543.000000	0.312986
544.000000	0.313559
545.000000	0.314163
546.000000	0.314745
547.000000	0.315300
548.000000	0.315834
549.000000	0.316259
550.000000	0.316788
551.000000	0.317406
552.000000	0.317959
553.000000	0.318373
554.000000	0.318795
555.000000	0.319337
556.000000	0.319922
557.000000	0.320393
558.000000	0.320869
559.000000	0.321410
560.000000	0.321911
561.000000	0.322434
562.000000	0.322938
563.000000	0.323398
564.000000	0.323881
565.000000	0.324334
566.000000	0.324790
567.000000	0.325282
568.000000	0.325782
569.000000	0.326204
570.000000	0.326613
571.000000	0.327035
572.000000	0.327507
573.000000	0.327964
574.000000	0.328369
575.000000	0.328768
576.000000	0.329194
577.000000	0.329542
578.000000	0.329836
579.000000	0.330279
580.000000	0.330758
581.000000	0.331185
582.000000	0.331521
583.000000	0.331846
584.000000	0.332169
585.000000	0.332465
586.000000	0.332785
587.000000	0.333119
588.000000	0.333444
589.000000	0.333718
590.000000	0.333972
591.000000	0.334247
592.000000	0.334616
593.000000	0.334919
594.000000	0.335130
595.000000	0.335363
596.000000	0.335611
597.000000	0.335884
598.000000	0.336075
599.000000	0.336152
600.000000	0.336325
601.000000	0.336646
602.000000	0.336917
603.000000	0.337071
604.000000	0.337156
605.000000	0.337374
606.000000	0.337600
607.000000	0.337816
608.000000	0.338054
609.000000	0.338281
610.000000	0.338503
611.000000	0.338720
612.000000	0.338806
613.000000	0.338948
614.000000	0.339242
615.000000	0.339303
616.000000	0.339326
617.000000	0.339411
618.000000	0.339720
619.000000	0.339832
620.000000	0.339830
621.000000	0.340033
622.000000	0.340148
623.000000	0.340198
624.000000	0.340264
625.000000	0.340497
626.000000	0.340627
627.000000	0.340602
628.000000	0.340718
629.000000	0.340897
630.000000	0.341010
631.000000	0.341205
632.000000	0.341392
633.000000	0.341548
634.000000	0.341669
635.000000	0.341897
636.000000	0.342157
637.000000	0.342369
638.000000	0.342549
639.000000	0.342706
640.000000	0.342892
641.000000	0.343011
642.000000	0.343105
643.000000	0.343225
644.000000	0.343420
645.000000	0.343653
646.000000	0.343845
647.000000	0.343949
648.000000	0.344159
649.000000	0.344386
650.000000	0.344576
651.000000	0.344784
652.000000	0.344939
653.000000	0.345098
654.000000	0.345279
655.000000	0.345522
656.000000	0.345777
657.000000	0.345945
658.000000	0.346174
659.000000	0.346402
660.000000	0.346573
661.000000	0.346700
662.000000	0.346857
663.000000	0.347059
664.000000	0.347163
665.000000	0.347313
666.000000	0.347480
667.000000	0.347594
668.000000	0.347848
669.000000	0.348103
670.000000	0.348291
671.000000	0.348526
672.000000	0.348772
673.000000	0.349008
674.000000	0.349251
675.000000	0.349480
676.000000	0.349711
677.000000	0.349987
678.000000	0.350308
679.000000	0.350577
680.000000	0.350758
681.000000	0.350942
682.000000	0.351163
683.000000	0.351346
684.000000	0.351564
685.000000	0.351727
686.000000	0.351886
687.000000	0.352071
688.000000	0.352251
689.000000	0.352413
690.000000	0.352608
691.000000	0.352910
692.000000	0.353235
693.000000	0.353573
694.000000	0.353773
695.000000	0.354007
696.000000	0.354268
697.000000	0.354490
698.000000	0.354737
699.000000	0.355010
700.000000	0.355295
701.000000	0.355500
702.000000	0.355752
703.000000	0.356061
704.000000	0.356343
705.000000	0.356606
706.000000	0.356807
707.000000	0.356999
708.000000	0.357241
709.000000	0.357500
710.000000	0.357762
711.000000	0.358019
712.000000	0.358264
713.000000	0.358510
714.000000	0.358734
715.000000	0.358990
716.000000	0.359245
717.000000	0.359401
718.000000	0.359603
719.000000	0.359833
720.000000	0.360072
721.000000	0.360301
722.000000	0.360519
723.000000	0.360770
724.000000	0.360943
725.000000	0.361161
726.000000	0.361444
727.000000	0.361577
728.000000	0.361738
729.000000	0.361934
730.000000	0.362078
731.000000	0.362165
732.000000	0.362311
733.000000	0.362565
734.000000	0.362748
735.000000	0.362905
736.000000	0.363150
737.000000	0.363331
738.000000	0.363471
739.000000	0.363690
740.000000	0.363875
741.000000	0.364130
742.000000	0.364348
743.000000	0.364480
744.000000	0.364645
745.000000	0.364750
746.000000	0.364857
747.000000	0.364952
748.000000	0.365079
749.000000	0.365186
750.000000	0.365239
751.000000	0.365446
752.000000	0.365604
753.000000	0.365696
754.000000	0.365832
755.000000	0.365925
756.000000	0.365962
757.000000	0.365907
758.000000	0.365885
759.000000	0.366000
760.000000	0.366177
761.000000	0.366324
762.000000	0.366396
763.000000	0.366427
764.000000	0.366595
765.000000	0.366684
766.000000	0.366759
767.000000	0.366885
768.000000	0.366920
769.000000	0.366916
770.000000	0.366923
771.000000	0.366977
772.000000	0.367007
773.000000	0.366999
774.000000	0.367118
775.000000	0.367264
776.000000	0.367402
777.000000	0.367485
778.000000	0.367496
779.000000	0.367533
780.000000	0.367593
781.000000	0.367556
782.000000	0.367519
783.000000	0.367570
784.000000	0.367568
785.000000	0.367606
786.000000	0.367549
787.000000	0.367391
788.000000	0.367438
789.000000	0.367470
790.000000	0.367455
791.000000	0.367499
792.000000	0.367548
793.000000	0.367594
794.000000	0.367629
795.000000	0.367584
796.000000	0.367581
797.000000	0.367608
798.000000	0.367513
799.000000	0.367526
800.000000	0.367555
801.000000	0.367467
802.000000	0.367486
803.000000	0.367457
804.000000	0.367370
805.000000	0.367396
806.000000	0.367346
807.000000	0.367306
808.000000	0.367297
809.000000	0.367187
810.000000	0.367134
811.000000	0.367195
812.000000	0.367033
813.000000	0.366923
814.000000	0.366927
815.000000	0.366945
816.000000	0.366875
817.000000	0.366794
818.000000	0.366697
819.000000	0.366604
820.000000	0.366596
821.000000	0.366622
822.000000	0.366620
823.000000	0.366636
824.000000	0.366563
825.000000	0.366428
826.000000	0.366427
827.000000	0.366421
828.000000	0.366365
829.000000	0.366285
830.000000	0.366227
831.000000	0.366210
832.000000	0.366044
833.000000	0.365891
834.000000	0.365779
835.000000	0.365720
836.000000	0.365571
837.000000	0.365473
838.000000	0.365439
839.000000	0.365336
840.000000	0.365331
841.000000	0.365320
842.000000	0.365156
843.000000	0.364988
844.000000	0.364969
845.000000	0.365019
846.000000	0.364897
847.000000	0.364777
848.000000	0.364705
849.000000	0.364698
850.000000	0.364561
851.000000	0.364378
852.000000	0.364268
853.000000	0.364247
854.000000	0.364132
855.000000	0.364002
856.000000	0.363803
857.000000	0.363607
858.000000	0.363576
859.000000	0.363600
860.000000	0.363414
861.000000	0.363259
862.000000	0.363181
863.000000	0.363064
864.000000	0.362942
865.000000	0.362845
866.000000	0.362765
867.000000	0.362518
868.000000	0.362312
869.000000	0.362137
870.000000	0.362025
871.000000	0.361879
872.000000	0.361754
873.000000	0.361610
874.000000	0.361446
875.000000	0.361271
876.000000	0.361124
877.000000	0.360966
878.000000	0.360796
879.000000	0.360663
880.000000	0.360449
881.000000	0.360295
882.000000	0.360194
883.000000	0.360135
884.000000	0.360024
885.000000	0.359925
886.000000	0.359771
887.000000	0.359546
888.000000	0.359221
889.000000	0.359127
890.000000	0.359059
891.000000	0.358889
892.000000	0.358619
893.000000	0.358485
894.000000	0.358577
895.000000	0.358225
896.000000	0.358019
897.000000	0.357938
898.000000	0.357775
899.000000	0.357573
900.000000	0.357458
901.000000	0.357355
902.000000	0.357064
903.000000	0.356869
904.000000	0.356806
905.000000	0.356705
906.000000	0.356581
907.000000	0.356391
908.000000	0.356228
909.000000	0.356120
910.000000	0.355962
911.000000	0.355790
912.000000	0.355638
913.000000	0.355297
914.000000	0.354910
915.000000	0.354653
916.000000	0.354510
917.000000	0.354372
918.000000	0.354235
919.000000	0.354069
920.000000	0.353821
921.000000	0.353646
922.000000	0.353536
923.000000	0.353364
924.000000	0.353161
925.000000	0.352979
926.000000	0.352849
927.000000	0.352632
928.000000	0.352307
929.000000	0.352001
930.000000	0.351831
931.000000	0.351536
932.000000	0.351259
933.000000	0.351137
934.000000	0.351135
935.000000	0.350938
936.000000	0.350740
937.000000	0.350617
938.000000	0.350415
939.000000	0.350223
940.000000	0.349949
941.000000	0.349610
942.000000	0.349363
943.000000	0.349297
944.000000	0.349216
945.000000	0.348945
946.000000	0.348603
947.000000	0.348417
948.000000	0.348444
949.000000	0.348261
950.000000	0.348006
951.000000	0.347740
952.000000	0.347578
953.000000	0.347529
954.000000	0.347430
955.000000	0.347111
956.000000	0.346772
957.000000	0.346593
958.000000	0.346452
959.000000	0.346272
960.000000	0.346175
961.000000	0.346117
962.000000	0.345993
963.000000	0.345720
964.000000	0.345448
965.000000	0.345175
966.000000	0.344786
967.000000	0.344543
968.000000	0.344305
969.000000	0.343960
970.000000	0.343612
971.000000	0.343512
972.000000	0.343503
973.000000	0.343426
974.000000	0.343385
975.000000	0.343327
976.000000	0.343036
977.000000	0.342552
978.000000	0.342792
979.000000	0.342675
980.000000	0.342133
981.000000	0.342026
982.000000	0.341784
983.000000	0.341378
984.000000	0.341139
985.000000	0.341491
986.000000	0.341499
987.000000	0.341122
988.000000	0.340513
989.000000	0.340296
990.000000	0.340339
991.000000	0.340518
992.000000	0.340704
993.000000	0.340591
994.000000	0.340434
995.000000	0.340276
996.000000	0.339679
997.000000	0.340149
998.000000	0.340444
999.000000	0.340160
1000.000000	0.340328
1001.000000	0.339724
1002.000000	0.340617
1003.000000	0.340591
1004.000000	0.340465
1005.000000	0.339944
1006.000000	0.339484
1007.000000	0.338872
1008.000000	0.338412
1009.000000	0.337859
1010.000000	0.337450
1011.000000	0.338100
1012.000000	0.338724
1013.000000	0.338783
1014.000000	0.339229
1015.000000	0.339155
1016.000000	0.338560
1017.000000	0.337957
1018.000000	0.337755
1019.000000	0.337993
1020.000000	0.339037
1021.000000	0.338961
1022.000000	0.339005
1023.000000	0.338953
1024.000000	0.337798
1025.000000	0.337761
1026.000000	0.337821
1027.000000	0.337867
1028.000000	0.338788
1029.000000	0.339291
1030.000000	0.339420
1031.000000	0.339585
1032.000000	0.339331
1033.000000	0.338476
1034.000000	0.338301
1035.000000	0.338690
1036.000000	0.338951
1037.000000	0.339396
1038.000000	0.339691
1039.000000	0.340178
1040.000000	0.340155
1041.000000	0.340208
1042.000000	0.340501
1043.000000	0.340483
1044.000000	0.340485
1045.000000	0.340898
1046.000000	0.340978
1047.000000	0.341170
1048.000000	0.341430
1049.000000	0.341612
1050.000000	0.341736
1051.000000	0.341872
1052.000000	0.341881
1053.000000	0.341953
1054.000000	0.342197
1055.000000	0.342474
1056.000000	0.343021
1057.000000	0.343268
1058.000000	0.343084
1059.000000	0.343187
1060.000000	0.343206
1061.000000	0.343370
1062.000000	0.343404
1063.000000	0.343114
1064.000000	0.343321
1065.000000	0.343545
1066.000000	0.343671
1067.000000	0.344094
1068.000000	0.344454
1069.000000	0.344274
1070.000000	0.344617
1071.000000	0.345843
1072.000000	0.346330
1073.000000	0.346675
1074.000000	0.346911
1075.000000	0.346886
1076.000000	0.346705
1077.000000	0.346627
1078.000000	0.347008
1079.000000	0.347337
1080.000000	0.347861
1081.000000	0.348153
1082.000000	0.348696
1083.000000	0.348877
1084.000000	0.348553
1085.000000	0.348812
1086.000000	0.349171
1087.000000	0.349588
1088.000000	0.350590
1089.000000	0.350952
1090.000000	0.350889
1091.000000	0.350783
1092.000000	0.350765
1093.000000	0.350607
1094.000000	0.350786
1095.000000	0.351219
1096.000000	0.351618
1097.000000	0.352178
1098.000000	0.352580
1099.000000	0.352897
1100.000000	0.353265
1101.000000	0.353613
1102.000000	0.353771
1103.000000	0.353695
1104.000000	0.353962
1105.000000	0.354269
1106.000000	0.354498
1107.000000	0.354979
1108.000000	0.355248
1109.000000	0.355327
1110.000000	0.355351
1111.000000	0.355502
1112.000000	0.355633
1113.000000	0.355966
1114.000000	0.356534
1115.000000	0.356822
1116.000000	0.357114
1117.000000	0.357397
1118.000000	0.357549
1119.000000	0.357609
1120.000000	0.357613
1121.000000	0.357734
1122.000000	0.357887
1123.000000	0.358207
1124.000000	0.358515
1125.000000	0.358785
1126.000000	0.358852
1127.000000	0.358961
1128.000000	0.359080
1129.000000	0.359295
1130.000000	0.359425
1131.000000	0.359581
1132.000000	0.359600
1133.000000	0.359537
1134.000000	0.359625
1135.000000	0.359607
1136.000000	0.359710
1137.000000	0.359945
1138.000000	0.360107
1139.000000	0.360352
1140.000000	0.360683
1141.000000	0.361221
1142.000000	0.361397
1143.000000	0.361200
1144.000000	0.361319
1145.000000	0.361191
1146.000000	0.360967
1147.000000	0.360939
1148.000000	0.361022
1149.000000	0.361112
1150.000000	0.361204
1151.000000	0.361383
1152.000000	0.361678
1153.000000	0.361840
1154.000000	0.361884
1155.000000	0.361981
1156.000000	0.362091
1157.000000	0.362153
1158.000000	0.362255
1159.000000	0.362202
1160.000000	0.361898
1161.000000	0.361753
1162.000000	0.361635
1163.000000	0.361691
1164.000000	0.361835
1165.000000	0.361973
1166.000000	0.362037
1167.000000	0.362033
1168.000000	0.361982
1169.000000	0.361808
1170.000000	0.361903
1171.000000	0.362202
1172.000000	0.362355
1173.000000	0.362554
1174.000000	0.362684
1175.000000	0.362762
1176.000000	0.362640
1177.000000	0.362404
1178.000000	0.362339
1179.000000	0.362124
1180.000000	0.361978
1181.000000	0.362129
1182.000000	0.362267
1183.000000	0.362384
1184.000000	0.362425
1185.000000	0.362435
1186.000000	0.362441
1187.000000	0.362444
1188.000000	0.362341
1189.000000	0.362341
1190.000000	0.362519
1191.000000	0.362550
1192.000000	0.362618
1193.000000	0.362793
1194.000000	0.362892
1195.000000	0.362881
1196.000000	0.362776
1197.000000	0.362735
1198.000000	0.362568
1199.000000	0.362535
1200.000000	0.362597
1201.000000	0.362705
1202.000000	0.362885
1203.000000	0.362993
1204.000000	0.362981
1205.000000	0.362985
1206.000000	0.363011
1207.000000	0.363103
1208.000000	0.363102
1209.000000	0.363234
1210.000000	0.363220
1211.000000	0.363044
1212.000000	0.362943
1213.000000	0.362837
1214.000000	0.362854
1215.000000	0.362920
1216.000000	0.362971
1217.000000	0.363107
1218.000000	0.363151
1219.000000	0.363192
1220.000000	0.363176
1221.000000	0.363164
1222.000000	0.363255
1223.000000	0.363328
1224.000000	0.363303
1225.000000	0.363221
1226.000000	0.363251
1227.000000	0.363306
1228.000000	0.363364
1229.000000	0.363388
1230.000000	0.363414
1231.000000	0.363342
1232.000000	0.363331
1233.000000	0.363458
1234.000000	0.363583
1235.000000	0.363652
1236.000000	0.363679
1237.000000	0.363733
1238.000000	0.363691
1239.000000	0.363664
1240.000000	0.363703
1241.000000	0.363647
1242.000000	0.363432
1243.000000	0.363414
1244.000000	0.363413
1245.000000	0.363456
1246.000000	0.363608
1247.000000	0.363728
1248.000000	0.363806
1249.000000	0.363820
1250.000000	0.363771
1251.000000	0.363782
1252.000000	0.363746
1253.000000	0.363709
1254.000000	0.363684
1255.000000	0.363660
1256.000000	0.363634
1257.000000	0.363661
1258.000000	0.363700
1259.000000	0.363601
1260.000000	0.363610
1261.000000	0.363574
1262.000000	0.363652
1263.000000	0.363847
1264.000000	0.364077
1265.000000	0.364290
1266.000000	0.364196
1267.000000	0.364015
1268.000000	0.363858
1269.000000	0.363607
1270.000000	0.363598
1271.000000	0.363689
1272.000000	0.363796
1273.000000	0.363919
1274.000000	0.363977
1275.000000	0.363995
1276.000000	0.363935
1277.000000	0.363934
1278.000000	0.363810
1279.000000	0.363806
1280.000000	0.363807
1281.000000	0.363706
1282.000000	0.363684
1283.000000	0.363697
1284.000000	0.363483
1285.000000	0.363441
1286.000000	0.363481
1287.000000	0.363593
1288.000000	0.363674
1289.000000	0.363795
1290.000000	0.363783
1291.000000	0.363674
1292.000000	0.363740
1293.000000	0.363689
1294.000000	0.363637
1295.000000	0.363755
1296.000000	0.363775
1297.000000	0.363709
1298.000000	0.363660
1299.000000	0.363663
1300.000000	0.363613
1301.000000	0.363642
1302.000000	0.363598
1303.000000	0.363727
1304.000000	0.363611
1305.000000	0.363414
1306.000000	0.363294
1307.000000	0.363160
1308.000000	0.363110
1309.000000	0.363182
1310.000000	0.363202
1311.000000	0.363252
1312.000000	0.363253
1313.000000	0.363086
1314.000000	0.362896
1315.000000	0.362697
1316.000000	0.362486
1317.000000	0.362382
1318.000000	0.362341
1319.000000	0.362327
1320.000000	0.362273
1321.000000	0.362090
1322.000000	0.361948
1323.000000	0.361779
1324.000000	0.361481
1325.000000	0.361434
1326.000000	0.361642
1327.000000	0.361633
1328.000000	0.361761
1329.000000	0.361685
1330.000000	0.361349
1331.000000	0.361162
1332.000000	0.361152
1333.000000	0.360984
1334.000000	0.360808
1335.000000	0.360713
1336.000000	0.360502
1337.000000	0.360301
1338.000000	0.360075
1339.000000	0.360045
1340.000000	0.359826
1341.000000	0.359585
1342.000000	0.359455
1343.000000	0.359332
1344.000000	0.359196
1345.000000	0.359126
1346.000000	0.359133
1347.000000	0.358857
1348.000000	0.358582
1349.000000	0.358397
1350.000000	0.358181
1351.000000	0.358025
1352.000000	0.357904
1353.000000	0.357697
1354.000000	0.357524
1355.000000	0.357257
1356.000000	0.357109
1357.000000	0.356891
1358.000000	0.356528
1359.000000	0.356271
1360.000000	0.356016
1361.000000	0.355781
1362.000000	0.355604
1363.000000	0.355478
1364.000000	0.355311
1365.000000	0.355144
1366.000000	0.354984
1367.000000	0.354803
1368.000000	0.354593
1369.000000	0.354493
1370.000000	0.354325
1371.000000	0.354112
1372.000000	0.353924
1373.000000	0.353625
1374.000000	0.353283
1375.000000	0.353040
1376.000000	0.352885
1377.000000	0.352734
1378.000000	0.352596
1379.000000	0.352289
1380.000000	0.351889
1381.000000	0.351583
1382.000000	0.351195
1383.000000	0.350773
1384.000000	0.350328
1385.000000	0.349748
1386.000000	0.349316
1387.000000	0.348963
1388.000000	0.348474
1389.000000	0.348010
1390.000000	0.347537
1391.000000	0.346905
1392.000000	0.346256
1393.000000	0.345595
1394.000000	0.344914
1395.000000	0.344251
1396.000000	0.343671
1397.000000	0.342925
1398.000000	0.342059
1399.000000	0.341273
1400.000000	0.340384
1401.000000	0.339472
1402.000000	0.338679
1403.000000	0.337740
1404.000000	0.336705
1405.000000	0.335652
1406.000000	0.334617
1407.000000	0.333579
1408.000000	0.332315
1409.000000	0.331180
1410.000000	0.330191
1411.000000	0.328965
1412.000000	0.327803
1413.000000	0.326917
1414.000000	0.325924
1415.000000	0.324977
1416.000000	0.324156
1417.000000	0.323137
1418.000000	0.321965
1419.000000	0.320891
1420.000000	0.319796
1421.000000	0.318805
1422.000000	0.317823
1423.000000	0.316864
1424.000000	0.315828
1425.000000	0.314828
1426.000000	0.313779
1427.000000	0.312652
1428.000000	0.311607
1429.000000	0.310624
1430.000000	0.309790
1431.000000	0.308979
1432.000000	0.308114
1433.000000	0.307248
1434.000000	0.306535
1435.000000	0.305920
1436.000000	0.305288
1437.000000	0.304766
1438.000000	0.304192
1439.000000	0.303556
1440.000000	0.303083
1441.000000	0.302825
1442.000000	0.302412
1443.000000	0.301893
1444.000000	0.301422
1445.000000	0.300954
1446.000000	0.300512
1447.000000	0.300207
1448.000000	0.299915
1449.000000	0.299608
1450.000000	0.299373
1451.000000	0.299088
1452.000000	0.298667
1453.000000	0.298280
1454.000000	0.297894
1455.000000	0.297567
1456.000000	0.297505
1457.000000	0.297482
1458.000000	0.297305
1459.000000	0.297098
1460.000000	0.296891
1461.000000	0.296610
1462.000000	0.296368
1463.000000	0.296248
1464.000000	0.296156
1465.000000	0.296137
1466.000000	0.296135
1467.000000	0.296055
1468.000000	0.295983
1469.000000	0.295961
1470.000000	0.295955
1471.000000	0.296021
1472.000000	0.296042
1473.000000	0.296134
1474.000000	0.296236
1475.000000	0.296426
1476.000000	0.296586
1477.000000	0.296754
1478.000000	0.297039
1479.000000	0.297281
1480.000000	0.297671
1481.000000	0.298032
1482.000000	0.298494
1483.000000	0.298853
1484.000000	0.299189
1485.000000	0.299498
1486.000000	0.299687
1487.000000	0.300028
1488.000000	0.300493
1489.000000	0.300886
1490.000000	0.301181
1491.000000	0.301582
1492.000000	0.301928
1493.000000	0.302267
1494.000000	0.302666
1495.000000	0.302953
1496.000000	0.303155
1497.000000	0.303429
1498.000000	0.303691
1499.000000	0.304003
1500.000000	0.304310
1501.000000	0.304444
1502.000000	0.304588
1503.000000	0.304772
1504.000000	0.305055
1505.000000	0.305356
1506.000000	0.305679
1507.000000	0.305986
1508.000000	0.306296
1509.000000	0.306611
1510.000000	0.306782
1511.000000	0.306969
1512.000000	0.307228
1513.000000	0.307552
1514.000000	0.307921
1515.000000	0.308182
1516.000000	0.308390
1517.000000	0.308405
1518.000000	0.308499
1519.000000	0.308690
1520.000000	0.308817
1521.000000	0.308950
1522.000000	0.309083
1523.000000	0.309305
1524.000000	0.309451
1525.000000	0.309539
1526.000000	0.309588
1527.000000	0.309534
1528.000000	0.309662
1529.000000	0.309768
1530.000000	0.309727
1531.000000	0.309810
1532.000000	0.309781
1533.000000	0.309726
1534.000000	0.309742
1535.000000	0.309806
1536.000000	0.309855
1537.000000	0.309885
1538.000000	0.310005
1539.000000	0.310115
1540.000000	0.310183
1541.000000	0.310337
1542.000000	0.310518
1543.000000	0.310617
1544.000000	0.310773
1545.000000	0.311028
1546.000000	0.311167
1547.000000	0.311255
1548.000000	0.311351
1549.000000	0.311328
1550.000000	0.311268
1551.000000	0.311273
1552.000000	0.311276
1553.000000	0.311220
1554.000000	0.311214
1555.000000	0.311271
1556.000000	0.311241
1557.000000	0.311185
1558.000000	0.311147
1559.000000	0.310986
1560.000000	0.310931
1561.000000	0.311018
1562.000000	0.310976
1563.000000	0.310903
1564.000000	0.311002
1565.000000	0.311117
1566.000000	0.311120
1567.000000	0.311385
1568.000000	0.311386
1569.000000	0.311169
1570.000000	0.311214
1571.000000	0.311354
1572.000000	0.311339
1573.000000	0.311383
1574.000000	0.311294
1575.000000	0.310997
1576.000000	0.310907
1577.000000	0.310860
1578.000000	0.310849
1579.000000	0.310995
1580.000000	0.311046
1581.000000	0.311207
1582.000000	0.311201
1583.000000	0.311015
1584.000000	0.310942
1585.000000	0.310900
1586.000000	0.310936
1587.000000	0.311139
1588.000000	0.311210
1589.000000	0.311186
1590.000000	0.311246
1591.000000	0.311349
1592.000000	0.311442
1593.000000	0.311681
1594.000000	0.311763
1595.000000	0.311783
1596.000000	0.311758
1597.000000	0.311650
1598.000000	0.311586
1599.000000	0.311562
1600.000000	0.311508
1601.000000	0.311471
1602.000000	0.311507
1603.000000	0.311635
1604.000000	0.311666
1605.000000	0.311776
1606.000000	0.311783
1607.000000	0.311655
1608.000000	0.311687
1609.000000	0.311862
1610.000000	0.311936
1611.000000	0.312109
1612.000000	0.312132
1613.000000	0.312022
1614.000000	0.312093
1615.000000	0.312321
1616.000000	0.312436
1617.000000	0.312566
1618.000000	0.312666
1619.000000	0.312567
1620.000000	0.312676
1621.000000	0.312968
1622.000000	0.313191
1623.000000	0.313444
1624.000000	0.313646
1625.000000	0.313652
1626.000000	0.313719
1627.000000	0.313840
1628.000000	0.313923
1629.000000	0.313958
1630.000000	0.314122
1631.000000	0.314254
1632.000000	0.314330
1633.000000	0.314447
1634.000000	0.314578
1635.000000	0.314724
1636.000000	0.314864
1637.000000	0.315049
1638.000000	0.315251
1639.000000	0.315550
1640.000000	0.315630
1641.000000	0.315619
1642.000000	0.315830
1643.000000	0.316057
1644.000000	0.316262
1645.000000	0.316708
1646.000000	0.316927
1647.000000	0.316872
1648.000000	0.317053
1649.000000	0.317515
1650.000000	0.317759
1651.000000	0.318031
1652.000000	0.318249
1653.000000	0.318217
1654.000000	0.318433
1655.000000	0.318723
1656.000000	0.318849
1657.000000	0.319060
1658.000000	0.319266
1659.000000	0.319537
1660.000000	0.319696
1661.000000	0.319767
1662.000000	0.319877
1663.000000	0.319761
1664.000000	0.319938
1665.000000	0.320360
1666.000000	0.320672
1667.000000	0.321009
1668.000000	0.321183
1669.000000	0.321220
1670.000000	0.321182
1671.000000	0.321115
1672.000000	0.321128
1673.000000	0.321036
1674.000000	0.321189
1675.000000	0.321436
1676.000000	0.321696
1677.000000	0.321971
1678.000000	0.322137
1679.000000	0.322236
1680.000000	0.322377
1681.000000	0.322598
1682.000000	0.322859
1683.000000	0.323142
1684.000000	0.323260
1685.000000	0.323276
1686.000000	0.323352
1687.000000	0.323371
1688.000000	0.323260
1689.000000	0.323325
1690.000000	0.323406
1691.000000	0.323473
1692.000000	0.323658
1693.000000	0.323815
1694.000000	0.323829
1695.000000	0.323939
1696.000000	0.324009
1697.000000	0.324032
1698.000000	0.323997
1699.000000	0.324078
1700.000000	0.324259
1701.000000	0.324465
1702.000000	0.324569
1703.000000	0.324648
1704.000000	0.324794
1705.000000	0.324896
1706.000000	0.325071
1707.000000	0.325134
1708.000000	0.324983
1709.000000	0.324947
1710.000000	0.325010
1711.000000	0.325094
1712.000000	0.325419
1713.000000	0.325466
1714.000000	0.325316
1715.000000	0.325328
1716.000000	0.325264
1717.000000	0.325307
1718.000000	0.325507
1719.000000	0.325614
1720.000000	0.325712
1721.000000	0.325872
1722.000000	0.326128
1723.000000	0.326262
1724.000000	0.326395
1725.000000	0.326527
1726.000000	0.326474
1727.000000	0.326518
1728.000000	0.326554
1729.000000	0.326556
1730.000000	0.326650
1731.000000	0.326778
1732.000000	0.326992
1733.000000	0.327166
1734.000000	0.327197
1735.000000	0.327322
1736.000000	0.327411
1737.000000	0.327518
1738.000000	0.327737
1739.000000	0.327811
1740.000000	0.327785
1741.000000	0.327768
1742.000000	0.327683
1743.000000	0.327784
1744.000000	0.327918
1745.000000	0.328046
1746.000000	0.328274
1747.000000	0.328342
1748.000000	0.328394
1749.000000	0.328460
1750.000000	0.328475
1751.000000	0.328524
1752.000000	0.328754
1753.000000	0.329027
1754.000000	0.329136
1755.000000	0.329245
1756.000000	0.329225
1757.000000	0.328774
1758.000000	0.328733
1759.000000	0.328930
1760.000000	0.329027
1761.000000	0.329342
1762.000000	0.329443
1763.000000	0.329230
1764.000000	0.329304
1765.000000	0.329397
1766.000000	0.329628
1767.000000	0.330135
1768.000000	0.330294
1769.000000	0.330399
1770.000000	0.330579
1771.000000	0.330582
1772.000000	0.330642
1773.000000	0.330719
1774.000000	0.330842
1775.000000	0.331053
1776.000000	0.331071
1777.000000	0.331017
1778.000000	0.331076
1779.000000	0.330930
1780.000000	0.331064
1781.000000	0.331470
1782.000000	0.331645
1783.000000	0.331840
1784.000000	0.332093
1785.000000	0.332065
1786.000000	0.332252
1787.000000	0.332418
1788.000000	0.332507
1789.000000	0.332660
1790.000000	0.332501
1791.000000	0.332432
1792.000000	0.332335
1793.000000	0.332414
1794.000000	0.332808
1795.000000	0.333052
1796.000000	0.333404
1797.000000	0.333533
1798.000000	0.333258
1799.000000	0.333327
1800.000000	0.333631
1801.000000	0.333579
1802.000000	0.333714
1803.000000	0.332922
1804.000000	0.332534
1805.000000	0.331385
1806.000000	0.331263
1807.000000	0.331576
1808.000000	0.331880
1809.000000	0.332737
1810.000000	0.333740
1811.000000	0.334143
1812.000000	0.334189
1813.000000	0.334371
1814.000000	0.334810
1815.000000	0.334584
1816.000000	0.333732
1817.000000	0.333273
1818.000000	0.333114
1819.000000	0.331928
1820.000000	0.331120
1821.000000	0.331001
1822.000000	0.330893
1823.000000	0.330595
1824.000000	0.330604
1825.000000	0.331245
1826.000000	0.331468
1827.000000	0.331413
1828.000000	0.331245
1829.000000	0.330899
1830.000000	0.331453
1831.000000	0.331989
1832.000000	0.332713
1833.000000	0.333220
1834.000000	0.334140
1835.000000	0.334548
1836.000000	0.334800
1837.000000	0.334930
1838.000000	0.334668
1839.000000	0.334168
1840.000000	0.334175
1841.000000	0.333360
1842.000000	0.332898
1843.000000	0.332863
1844.000000	0.332260
1845.000000	0.331086
1846.000000	0.330129
1847.000000	0.328652
1848.000000	0.327535
1849.000000	0.326917
1850.000000	0.326662
1851.000000	0.326659
1852.000000	0.327496
1853.000000	0.327543
1854.000000	0.327274
1855.000000	0.326951
1856.000000	0.326263
1857.000000	0.325515
1858.000000	0.325423
1859.000000	0.324729
1860.000000	0.323742
1861.000000	0.323454
1862.000000	0.322781
1863.000000	0.322010
1864.000000	0.321069
1865.000000	0.320122
1866.000000	0.318853
1867.000000	0.316775
1868.000000	0.315299
1869.000000	0.314787
1870.000000	0.313613
1871.000000	0.312104
1872.000000	0.310630
1873.000000	0.309021
1874.000000	0.306596
1875.000000	0.304990
1876.000000	0.303990
1877.000000	0.301869
1878.000000	0.299698
1879.000000	0.297411
1880.000000	0.294554
1881.000000	0.292168
1882.000000	0.289492
1883.000000	0.286751
1884.000000	0.284099
1885.000000	0.281135
1886.000000	0.278276
1887.000000	0.275541
1888.000000	0.272547
1889.000000	0.269571
1890.000000	0.266553
1891.000000	0.264155
1892.000000	0.261415
1893.000000	0.258735
1894.000000	0.256185
1895.000000	0.252803
1896.000000	0.248852
1897.000000	0.245098
1898.000000	0.240657
1899.000000	0.236713
1900.000000	0.233536
1901.000000	0.230138
1902.000000	0.226907
1903.000000	0.223585
1904.000000	0.219968
1905.000000	0.216190
1906.000000	0.212839
1907.000000	0.209871
1908.000000	0.206748
1909.000000	0.204057
1910.000000	0.201756
1911.000000	0.199256
1912.000000	0.197615
1913.000000	0.195780
1914.000000	0.193434
1915.000000	0.191103
1916.000000	0.188232
1917.000000	0.185848
1918.000000	0.183351
1919.000000	0.181922
1920.000000	0.180932
1921.000000	0.180419
1922.000000	0.179821
1923.000000	0.179010
1924.000000	0.178323
1925.000000	0.177534
1926.000000	0.176684
1927.000000	0.175816
1928.000000	0.175118
1929.000000	0.174363
1930.000000	0.173614
1931.000000	0.173732
1932.000000	0.174494
1933.000000	0.174726
1934.000000	0.175031
1935.000000	0.175469
1936.000000	0.175423
1937.000000	0.175356
1938.000000	0.175232
1939.000000	0.174836
1940.000000	0.173847
1941.000000	0.173209
1942.000000	0.173218
1943.000000	0.173142
1944.000000	0.173160
1945.000000	0.173073
1946.000000	0.172665
1947.000000	0.171996
1948.000000	0.171581
1949.000000	0.171156
1950.000000	0.170812
1951.000000	0.170752
1952.000000	0.171185
1953.000000	0.171557
1954.000000	0.171942
1955.000000	0.171716
1956.000000	0.170780
1957.000000	0.169592
1958.000000	0.168440
1959.000000	0.168153
1960.000000	0.167911
1961.000000	0.167720
1962.000000	0.167452
1963.000000	0.167284
1964.000000	0.166513
1965.000000	0.166037
1966.000000	0.165968
1967.000000	0.166045
1968.000000	0.166146
1969.000000	0.166143
1970.000000	0.166535
1971.000000	0.167017
1972.000000	0.167085
1973.000000	0.167209
1974.000000	0.167507
1975.000000	0.167582
1976.000000	0.167291
1977.000000	0.167555
1978.000000	0.168034
1979.000000	0.168169
1980.000000	0.168597
1981.000000	0.169241
1982.000000	0.169681
1983.000000	0.170529
1984.000000	0.170785
1985.000000	0.170505
1986.000000	0.170788
1987.000000	0.171211
1988.000000	0.171122
1989.000000	0.171695
1990.000000	0.172750
1991.000000	0.172946
1992.000000	0.173248
1993.000000	0.173631
1994.000000	0.173798
1995.000000	0.174207
1996.000000	0.174645
1997.000000	0.175478
1998.000000	0.176860
1999.000000	0.177897
2000.000000	0.178951
2001.000000	0.180436
2002.000000	0.181221
2003.000000	0.181961
2004.000000	0.182799
2005.000000	0.183327
2006.000000	0.184121
2007.000000	0.185381
2008.000000	0.186346
2009.000000	0.187406
2010.000000	0.188161
2011.000000	0.188328
2012.000000	0.188889
2013.000000	0.189379
2014.000000	0.189952
2015.000000	0.191091
2016.000000	0.192788
2017.000000	0.194210
2018.000000	0.195606
2019.000000	0.196380
2020.000000	0.196642
2021.000000	0.197581
2022.000000	0.198581
2023.000000	0.199657
2024.000000	0.201440
2025.000000	0.202774
2026.000000	0.203695
2027.000000	0.204513
2028.000000	0.206054
2029.000000	0.207493
2030.000000	0.208538
2031.000000	0.209672
2032.000000	0.209877
2033.000000	0.209928
2034.000000	0.210631
2035.000000	0.211880
2036.000000	0.212738
2037.000000	0.214068
2038.000000	0.214875
2039.000000	0.215507
2040.000000	0.215534
2041.000000	0.215623
2042.000000	0.216763
2043.000000	0.217829
2044.000000	0.218909
2045.000000	0.219613
2046.000000	0.220010
2047.000000	0.220467
2048.000000	0.220274
2049.000000	0.220844
2050.000000	0.221706
2051.000000	0.222398
2052.000000	0.223032
2053.000000	0.223764
2054.000000	0.224874
2055.000000	0.225635
2056.000000	0.226591
2057.000000	0.227459
2058.000000	0.228246
2059.000000	0.229240
2060.000000	0.229775
2061.000000	0.230103
2062.000000	0.230717
2063.000000	0.231001
2064.000000	0.231449
2065.000000	0.232266
2066.000000	0.233172
2067.000000	0.234376
2068.000000	0.235579
2069.000000	0.237229
2070.000000	0.238494
2071.000000	0.238505
2072.000000	0.238577
2073.000000	0.238669
2074.000000	0.238385
2075.000000	0.238649
2076.000000	0.239584
2077.000000	0.240098
2078.000000	0.240671
2079.000000	0.241117
2080.000000	0.241107
2081.000000	0.241688
2082.000000	0.242630
2083.000000	0.243247
2084.000000	0.244606
2085.000000	0.246132
2086.000000	0.246526
2087.000000	0.247067
2088.000000	0.247527
2089.000000	0.247824
2090.000000	0.248407
2091.000000	0.249472
2092.000000	0.250378
2093.000000	0.251338
2094.000000	0.252116
2095.000000	0.252947
2096.000000	0.253722
2097.000000	0.254164
2098.000000	0.254780
2099.000000	0.255573
2100.000000	0.256639
2101.000000	0.256681
2102.000000	0.256356
2103.000000	0.256006
2104.000000	0.255567
2105.000000	0.256063
2106.000000	0.257495
2107.000000	0.258658
2108.000000	0.260434
2109.000000	0.261770
2110.000000	0.263251
2111.000000	0.263903
2112.000000	0.263945
2113.000000	0.263622
2114.000000	0.263223
2115.000000	0.263257
2116.000000	0.263576
2117.000000	0.264253
2118.000000	0.264600
2119.000000	0.264729
2120.000000	0.265298
2121.000000	0.266268
2122.000000	0.266744
2123.000000	0.267197
2124.000000	0.267636
2125.000000	0.267572
2126.000000	0.268117
2127.000000	0.269335
2128.000000	0.270303
2129.000000	0.271777
2130.000000	0.272225
2131.000000	0.271765
2132.000000	0.271201
2133.000000	0.271171
2134.000000	0.271118
2135.000000	0.271287
2136.000000	0.271619
2137.000000	0.271574
2138.000000	0.270797
2139.000000	0.270614
2140.000000	0.270632
2141.000000	0.270636
2142.000000	0.270552
2143.000000	0.270520
2144.000000	0.270805
2145.000000	0.271330
2146.000000	0.272427
2147.000000	0.273169
2148.000000	0.272961
2149.000000	0.273686
2150.000000	0.273539
2151.000000	0.273116
2152.000000	0.274214
2153.000000	0.273703
2154.000000	0.273246
2155.000000	0.272551
2156.000000	0.271995
2157.000000	0.270683
2158.000000	0.270384
2159.000000	0.270427
2160.000000	0.270872
2161.000000	0.272618
2162.000000	0.273314
2163.000000	0.273773
2164.000000	0.274144
2165.000000	0.273856
2166.000000	0.273385
2167.000000	0.273894
2168.000000	0.273729
2169.000000	0.273134
2170.000000	0.273526
2171.000000	0.273854
2172.000000	0.274543
2173.000000	0.274311
2174.000000	0.273803
2175.000000	0.273461
2176.000000	0.272260
2177.000000	0.272157
2178.000000	0.273116
2179.000000	0.273795
2180.000000	0.274690
2181.000000	0.275324
2182.000000	0.275464
2183.000000	0.275690
2184.000000	0.275240
2185.000000	0.275023
2186.000000	0.274883
2187.000000	0.273330
2188.000000	0.272577
2189.000000	0.271749
2190.000000	0.270808
2191.000000	0.272561
2192.000000	0.272673
2193.000000	0.272361
2194.000000	0.272424
2195.000000	0.272126
2196.000000	0.272014
2197.000000	0.272870
2198.000000	0.272695
2199.000000	0.271500
2200.000000	0.270838
2201.000000	0.268966
2202.000000	0.268657
2203.000000	0.268331
2204.000000	0.271196
2205.000000	0.274832
2206.000000	0.278573
2207.000000	0.280192
2208.000000	0.280058
2209.000000	0.277221
2210.000000	0.274209
2211.000000	0.274142
2212.000000	0.274139
2213.000000	0.273153
2214.000000	0.271751
2215.000000	0.271539
2216.000000	0.271719
2217.000000	0.270816
2218.000000	0.270233
2219.000000	0.270543
2220.000000	0.268719
2221.000000	0.269769
2222.000000	0.275534
2223.000000	0.277636
2224.000000	0.279593
2225.000000	0.279248
2226.000000	0.278112
2227.000000	0.275359
2228.000000	0.274783
2229.000000	0.273819
2230.000000	0.273158
2231.000000	0.274147
2232.000000	0.272317
2233.000000	0.272193
2234.000000	0.272311
2235.000000	0.271782
2236.000000	0.273233
2237.000000	0.277865
2238.000000	0.278744
2239.000000	0.278732
2240.000000	0.278651
2241.000000	0.276004
2242.000000	0.275720
2243.000000	0.277159
2244.000000	0.277316
2245.000000	0.277763
2246.000000	0.277660
2247.000000	0.276995
2248.000000	0.276465
2249.000000	0.276363
2250.000000	0.274078
2251.000000	0.273102
2252.000000	0.273463
2253.000000	0.275783
2254.000000	0.278046
2255.000000	0.278311
2256.000000	0.277996
2257.000000	0.276649
2258.000000	0.275883
2259.000000	0.274864
2260.000000	0.275232
2261.000000	0.274766
2262.000000	0.272796
2263.000000	0.271983
2264.000000	0.271856
2265.000000	0.271165
2266.000000	0.271405
2267.000000	0.271338
2268.000000	0.271179
2269.000000	0.270564
2270.000000	0.269341
2271.000000	0.268036
2272.000000	0.265305
2273.000000	0.264696
2274.000000	0.264849
2275.000000	0.265238
2276.000000	0.268045
2277.000000	0.268668
2278.000000	0.266201
2279.000000	0.266386
2280.000000	0.265136
2281.000000	0.265689
2282.000000	0.268185
2283.000000	0.269378
2284.000000	0.269019
2285.000000	0.266717
2286.000000	0.265671
2287.000000	0.263717
2288.000000	0.262492
2289.000000	0.262726
2290.000000	0.261299
2291.000000	0.260693
2292.000000	0.260290
2293.000000	0.259195
2294.000000	0.259154
2295.000000	0.260639
2296.000000	0.260528
2297.000000	0.260172
2298.000000	0.259462
2299.000000	0.256815
2300.000000	0.256393
2301.000000	0.258153
2302.000000	0.258046
2303.000000	0.258571
2304.000000	0.257554
2305.000000	0.252292
2306.000000	0.250332
2307.000000	0.249663
2308.000000	0.249947
2309.000000	0.249670
2310.000000	0.251967
2311.000000	0.250507
2312.000000	0.248677
2313.000000	0.247772
2314.000000	0.245289
2315.000000	0.247318
2316.000000	0.248996
2317.000000	0.250100
2318.000000	0.252791
2319.000000	0.251528
2320.000000	0.247834
2321.000000	0.244789
2322.000000	0.243109
2323.000000	0.241709
2324.000000	0.240984
2325.000000	0.239934
2326.000000	0.238305
2327.000000	0.237823
2328.000000	0.237406
2329.000000	0.237579
2330.000000	0.237611
2331.000000	0.235032
2332.000000	0.233023
2333.000000	0.233058
2334.000000	0.231206
2335.000000	0.231463
2336.000000	0.234338
2337.000000	0.234906
2338.000000	0.235485
2339.000000	0.235277
2340.000000	0.234805
2341.000000	0.233305
2342.000000	0.229336
2343.000000	0.227330
2344.000000	0.223967
2345.000000	0.221618
2346.000000	0.221382
2347.000000	0.221515
2348.000000	0.222312
2349.000000	0.223984
2350.000000	0.224570
2351.000000	0.223038
2352.000000	0.218923
2353.000000	0.214774
2354.000000	0.209516
2355.000000	0.206945
2356.000000	0.204511
2357.000000	0.202567
2358.000000	0.204401
2359.000000	0.205604
2360.000000	0.207585
2361.000000	0.210377
2362.000000	0.207947
2363.000000	0.202316
2364.000000	0.197640
2365.000000	0.192490
2366.000000	0.189069
2367.000000	0.189328
2368.000000	0.190409
2369.000000	0.191543
2370.000000	0.192761
2371.000000	0.193352
2372.000000	0.194058
2373.000000	0.193569
2374.000000	0.194225
2375.000000	0.197234
2376.000000	0.197220
2377.000000	0.195069
2378.000000	0.190798
2379.000000	0.184236
2380.000000	0.179984
2381.000000	0.176570
2382.000000	0.175769
2383.000000	0.175594
2384.000000	0.174837
2385.000000	0.177298
2386.000000	0.176393
2387.000000	0.178040
2388.000000	0.178843
2389.000000	0.178535
2390.000000	0.182819
2391.000000	0.177078
2392.000000	0.172754
2393.000000	0.170600
2394.000000	0.161325
2395.000000	0.161149
2396.000000	0.166675
2397.000000	0.169199
2398.000000	0.175159
2399.000000	0.178078
2400.000000	0.175825
2401.000000	0.169581
2402.000000	0.164260
2403.000000	0.166496
2404.000000	0.162025
2405.000000	0.160837
2406.000000	0.167287
2407.000000	0.168405
2408.000000	0.175266
2409.000000	0.183432
2410.000000	0.177711
2411.000000	0.169180
2412.000000	0.163420
2413.000000	0.161136
2414.000000	0.171932
2415.000000	0.179204
2416.000000	0.183496
2417.000000	0.186013
2418.000000	0.170562
2419.000000	0.158275
2420.000000	0.149418
2421.000000	0.141694
2422.000000	0.144619
2423.000000	0.150630
2424.000000	0.159168
2425.000000	0.154704
2426.000000	0.150462
2427.000000	0.152632
2428.000000	0.144260
2429.000000	0.145958
2430.000000	0.151583
2431.000000	0.148355
2432.000000	0.153929
2433.000000	0.160262
2434.000000	0.157524
2435.000000	0.158976
2436.000000	0.158558
2437.000000	0.155837
2438.000000	0.161690
2439.000000	0.171950
2440.000000	0.177830
2441.000000	0.180119
2442.000000	0.182999
2443.000000	0.178019
2444.000000	0.171037
2445.000000	0.168763
2446.000000	0.171015
2447.000000	0.170872
2448.000000	0.171429
2449.000000	0.175231
2450.000000	0.169049
2451.000000	0.159302
2452.000000	0.158361
2453.000000	0.163274
2454.000000	0.167290
2455.000000	0.174525
2456.000000	0.170612
2457.000000	0.157116
2458.000000	0.138330
2459.000000	0.124117
2460.000000	0.122622
2461.000000	0.129893
2462.000000	0.142193
2463.000000	0.131403
2464.000000	0.119575
2465.000000	0.125203
2466.000000	0.132706
2467.000000	0.154491
2468.000000	0.179110
2469.000000	0.163251
2470.000000	0.141379
2471.000000	0.135512
2472.000000	0.122850
2473.000000	0.121928
2474.000000	0.127388
2475.000000	0.130042
2476.000000	0.142130
2477.000000	0.170446
2478.000000	0.174608
2479.000000	0.146271
2480.000000	0.125940
2481.000000	0.115357
2482.000000	0.114976
2483.000000	0.145372
2484.000000	0.183235
2485.000000	0.178170
2486.000000	0.157384
2487.000000	0.107681
2488.000000	0.041922
2489.000000	0.025063
2490.000000	0.030562
2491.000000	0.081768
2492.000000	0.117997
2493.000000	0.149479
2494.000000	0.193290
2495.000000	0.278038
2496.000000	0.299321
2497.000000	0.250593
2498.000000	0.231633
2499.000000	0.163852
2500.000000	0.155960
