# Wavelength	NAu-1-20_HEX-70_FV7-10_00002.asd.rts.txt
350.000000	0.233460
351.000000	0.220946
352.000000	0.221719
353.000000	0.218328
354.000000	0.208420
355.000000	0.216131
356.000000	0.211304
357.000000	0.198987
358.000000	0.207257
359.000000	0.210960
360.000000	0.209933
361.000000	0.208859
362.000000	0.209062
363.000000	0.214128
364.000000	0.222374
365.000000	0.220649
366.000000	0.220001
367.000000	0.220288
368.000000	0.212162
369.000000	0.213717
370.000000	0.219771
371.000000	0.218993
372.000000	0.212300
373.000000	0.210424
374.000000	0.217318
375.000000	0.215617
376.000000	0.213286
377.000000	0.213975
378.000000	0.218221
379.000000	0.219457
380.000000	0.218749
381.000000	0.220109
382.000000	0.220702
383.000000	0.222940
384.000000	0.227386
385.000000	0.227251
386.000000	0.228108
387.000000	0.230990
388.000000	0.231750
389.000000	0.234052
390.000000	0.236847
391.000000	0.237375
392.000000	0.236143
393.000000	0.235373
394.000000	0.236664
395.000000	0.239464
396.000000	0.241741
397.000000	0.243081
398.000000	0.245253
399.000000	0.246219
400.000000	0.246690
401.000000	0.248287
402.000000	0.250093
403.000000	0.252047
404.000000	0.254139
405.000000	0.255138
406.000000	0.256435
407.000000	0.258475
408.000000	0.259991
409.000000	0.260860
410.000000	0.261590
411.000000	0.263067
412.000000	0.264665
413.000000	0.265793
414.000000	0.266203
415.000000	0.267204
416.000000	0.268494
417.000000	0.269620
418.000000	0.269998
419.000000	0.270318
420.000000	0.270701
421.000000	0.270765
422.000000	0.271677
423.000000	0.272673
424.000000	0.272652
425.000000	0.272686
426.000000	0.272902
427.000000	0.273167
428.000000	0.273013
429.000000	0.272834
430.000000	0.272817
431.000000	0.272885
432.000000	0.273050
433.000000	0.273071
434.000000	0.272768
435.000000	0.273410
436.000000	0.273770
437.000000	0.272851
438.000000	0.273178
439.000000	0.273285
440.000000	0.272552
441.000000	0.271870
442.000000	0.271134
443.000000	0.270510
444.000000	0.270522
445.000000	0.270373
446.000000	0.270481
447.000000	0.271255
448.000000	0.271959
449.000000	0.273143
450.000000	0.275027
451.000000	0.276500
452.000000	0.278480
453.000000	0.280930
454.000000	0.282965
455.000000	0.285312
456.000000	0.288115
457.000000	0.291062
458.000000	0.293810
459.000000	0.296226
460.000000	0.298384
461.000000	0.300620
462.000000	0.302634
463.000000	0.304177
464.000000	0.305703
465.000000	0.307304
466.000000	0.308707
467.000000	0.309521
468.000000	0.310384
469.000000	0.311307
470.000000	0.312328
471.000000	0.313276
472.000000	0.314070
473.000000	0.314778
474.000000	0.315696
475.000000	0.316544
476.000000	0.317355
477.000000	0.318056
478.000000	0.318444
479.000000	0.318960
480.000000	0.319817
481.000000	0.320418
482.000000	0.321054
483.000000	0.321745
484.000000	0.322275
485.000000	0.322787
486.000000	0.323466
487.000000	0.323765
488.000000	0.324252
489.000000	0.325034
490.000000	0.325900
491.000000	0.326507
492.000000	0.327141
493.000000	0.328007
494.000000	0.328759
495.000000	0.329519
496.000000	0.330302
497.000000	0.330893
498.000000	0.331543
499.000000	0.332382
500.000000	0.333169
501.000000	0.333850
502.000000	0.334570
503.000000	0.335449
504.000000	0.336264
505.000000	0.337086
506.000000	0.337983
507.000000	0.338676
508.000000	0.339434
509.000000	0.340326
510.000000	0.341167
511.000000	0.341987
512.000000	0.342824
513.000000	0.343647
514.000000	0.344640
515.000000	0.345708
516.000000	0.346603
517.000000	0.347539
518.000000	0.348508
519.000000	0.349404
520.000000	0.350439
521.000000	0.351406
522.000000	0.352301
523.000000	0.353425
524.000000	0.354482
525.000000	0.355499
526.000000	0.356727
527.000000	0.357851
528.000000	0.358917
529.000000	0.360084
530.000000	0.361146
531.000000	0.362267
532.000000	0.363438
533.000000	0.364631
534.000000	0.365867
535.000000	0.367089
536.000000	0.368202
537.000000	0.369360
538.000000	0.370567
539.000000	0.371753
540.000000	0.372940
541.000000	0.374126
542.000000	0.375346
543.000000	0.376534
544.000000	0.377699
545.000000	0.378819
546.000000	0.380179
547.000000	0.381476
548.000000	0.382693
549.000000	0.383864
550.000000	0.384955
551.000000	0.386080
552.000000	0.387290
553.000000	0.388470
554.000000	0.389611
555.000000	0.390727
556.000000	0.391830
557.000000	0.392885
558.000000	0.394029
559.000000	0.395111
560.000000	0.396127
561.000000	0.397167
562.000000	0.398158
563.000000	0.399158
564.000000	0.400148
565.000000	0.400982
566.000000	0.402008
567.000000	0.403011
568.000000	0.403839
569.000000	0.404650
570.000000	0.405484
571.000000	0.406298
572.000000	0.407006
573.000000	0.407765
574.000000	0.408478
575.000000	0.409067
576.000000	0.409719
577.000000	0.410317
578.000000	0.410860
579.000000	0.411447
580.000000	0.412032
581.000000	0.412578
582.000000	0.413072
583.000000	0.413546
584.000000	0.414013
585.000000	0.414476
586.000000	0.414909
587.000000	0.415288
588.000000	0.415610
589.000000	0.415951
590.000000	0.416316
591.000000	0.416686
592.000000	0.416988
593.000000	0.417305
594.000000	0.417638
595.000000	0.417919
596.000000	0.418098
597.000000	0.418273
598.000000	0.418454
599.000000	0.418568
600.000000	0.418697
601.000000	0.418830
602.000000	0.419107
603.000000	0.419343
604.000000	0.419474
605.000000	0.419604
606.000000	0.419662
607.000000	0.419666
608.000000	0.419684
609.000000	0.419848
610.000000	0.420004
611.000000	0.419976
612.000000	0.419983
613.000000	0.420069
614.000000	0.420261
615.000000	0.420385
616.000000	0.420466
617.000000	0.420479
618.000000	0.420487
619.000000	0.420627
620.000000	0.420802
621.000000	0.420907
622.000000	0.420899
623.000000	0.420908
624.000000	0.421028
625.000000	0.421133
626.000000	0.421215
627.000000	0.421305
628.000000	0.421496
629.000000	0.421773
630.000000	0.421937
631.000000	0.422096
632.000000	0.422248
633.000000	0.422410
634.000000	0.422551
635.000000	0.422552
636.000000	0.422599
637.000000	0.422771
638.000000	0.422998
639.000000	0.423120
640.000000	0.423232
641.000000	0.423429
642.000000	0.423603
643.000000	0.423750
644.000000	0.423900
645.000000	0.424004
646.000000	0.424149
647.000000	0.424361
648.000000	0.424610
649.000000	0.424852
650.000000	0.425054
651.000000	0.425281
652.000000	0.425469
653.000000	0.425729
654.000000	0.426106
655.000000	0.426364
656.000000	0.426566
657.000000	0.426748
658.000000	0.427028
659.000000	0.427313
660.000000	0.427548
661.000000	0.427822
662.000000	0.428078
663.000000	0.428373
664.000000	0.428679
665.000000	0.429000
666.000000	0.429336
667.000000	0.429647
668.000000	0.429963
669.000000	0.430264
670.000000	0.430559
671.000000	0.430892
672.000000	0.431248
673.000000	0.431586
674.000000	0.431865
675.000000	0.432205
676.000000	0.432583
677.000000	0.432956
678.000000	0.433304
679.000000	0.433691
680.000000	0.434141
681.000000	0.434488
682.000000	0.434858
683.000000	0.435214
684.000000	0.435681
685.000000	0.436159
686.000000	0.436636
687.000000	0.437058
688.000000	0.437497
689.000000	0.437906
690.000000	0.438320
691.000000	0.438846
692.000000	0.439302
693.000000	0.439734
694.000000	0.440207
695.000000	0.440639
696.000000	0.441081
697.000000	0.441625
698.000000	0.442099
699.000000	0.442586
700.000000	0.443146
701.000000	0.443562
702.000000	0.443987
703.000000	0.444453
704.000000	0.444904
705.000000	0.445403
706.000000	0.445891
707.000000	0.446400
708.000000	0.446952
709.000000	0.447475
710.000000	0.447963
711.000000	0.448579
712.000000	0.449181
713.000000	0.449737
714.000000	0.450294
715.000000	0.450842
716.000000	0.451352
717.000000	0.451758
718.000000	0.452238
719.000000	0.452691
720.000000	0.453073
721.000000	0.453613
722.000000	0.454125
723.000000	0.454627
724.000000	0.455159
725.000000	0.455590
726.000000	0.456025
727.000000	0.456427
728.000000	0.456942
729.000000	0.457414
730.000000	0.457685
731.000000	0.458163
732.000000	0.458593
733.000000	0.458941
734.000000	0.459283
735.000000	0.459624
736.000000	0.460085
737.000000	0.460443
738.000000	0.460774
739.000000	0.461158
740.000000	0.461411
741.000000	0.461742
742.000000	0.462078
743.000000	0.462394
744.000000	0.462855
745.000000	0.463168
746.000000	0.463391
747.000000	0.463561
748.000000	0.463841
749.000000	0.464196
750.000000	0.464514
751.000000	0.464769
752.000000	0.464950
753.000000	0.465105
754.000000	0.465293
755.000000	0.465609
756.000000	0.465982
757.000000	0.466232
758.000000	0.466400
759.000000	0.466579
760.000000	0.466717
761.000000	0.466866
762.000000	0.466979
763.000000	0.467056
764.000000	0.467246
765.000000	0.467369
766.000000	0.467488
767.000000	0.467660
768.000000	0.467770
769.000000	0.467835
770.000000	0.467880
771.000000	0.467918
772.000000	0.467966
773.000000	0.467928
774.000000	0.467875
775.000000	0.467785
776.000000	0.467700
777.000000	0.467624
778.000000	0.467549
779.000000	0.467485
780.000000	0.467444
781.000000	0.467398
782.000000	0.467199
783.000000	0.467065
784.000000	0.466989
785.000000	0.466909
786.000000	0.466784
787.000000	0.466622
788.000000	0.466559
789.000000	0.466452
790.000000	0.466251
791.000000	0.466033
792.000000	0.465924
793.000000	0.465866
794.000000	0.465767
795.000000	0.465490
796.000000	0.465288
797.000000	0.465164
798.000000	0.464873
799.000000	0.464659
800.000000	0.464514
801.000000	0.464359
802.000000	0.464105
803.000000	0.463912
804.000000	0.463828
805.000000	0.463433
806.000000	0.463074
807.000000	0.462894
808.000000	0.462699
809.000000	0.462385
810.000000	0.462076
811.000000	0.461838
812.000000	0.461506
813.000000	0.461179
814.000000	0.460894
815.000000	0.460672
816.000000	0.460475
817.000000	0.460245
818.000000	0.459848
819.000000	0.459612
820.000000	0.459406
821.000000	0.459123
822.000000	0.458954
823.000000	0.458691
824.000000	0.458308
825.000000	0.458034
826.000000	0.457835
827.000000	0.457700
828.000000	0.457607
829.000000	0.457244
830.000000	0.456892
831.000000	0.456648
832.000000	0.456279
833.000000	0.455960
834.000000	0.455661
835.000000	0.455417
836.000000	0.455375
837.000000	0.455106
838.000000	0.454653
839.000000	0.454362
840.000000	0.454063
841.000000	0.453744
842.000000	0.453390
843.000000	0.453174
844.000000	0.452963
845.000000	0.452676
846.000000	0.452408
847.000000	0.452075
848.000000	0.451693
849.000000	0.451352
850.000000	0.451011
851.000000	0.450738
852.000000	0.450588
853.000000	0.450445
854.000000	0.450117
855.000000	0.449861
856.000000	0.449726
857.000000	0.449381
858.000000	0.449155
859.000000	0.449032
860.000000	0.448726
861.000000	0.448428
862.000000	0.448174
863.000000	0.447835
864.000000	0.447455
865.000000	0.447156
866.000000	0.446980
867.000000	0.446693
868.000000	0.446436
869.000000	0.446187
870.000000	0.446018
871.000000	0.445761
872.000000	0.445500
873.000000	0.445236
874.000000	0.445095
875.000000	0.444844
876.000000	0.444489
877.000000	0.444055
878.000000	0.443670
879.000000	0.443493
880.000000	0.443325
881.000000	0.442993
882.000000	0.442806
883.000000	0.442704
884.000000	0.442414
885.000000	0.442225
886.000000	0.442001
887.000000	0.441724
888.000000	0.441538
889.000000	0.441370
890.000000	0.441107
891.000000	0.440940
892.000000	0.440766
893.000000	0.440418
894.000000	0.440085
895.000000	0.439979
896.000000	0.439663
897.000000	0.439310
898.000000	0.439227
899.000000	0.439088
900.000000	0.438924
901.000000	0.438765
902.000000	0.438808
903.000000	0.438591
904.000000	0.438266
905.000000	0.438002
906.000000	0.438034
907.000000	0.438034
908.000000	0.437918
909.000000	0.437640
910.000000	0.437533
911.000000	0.437458
912.000000	0.437275
913.000000	0.437164
914.000000	0.437132
915.000000	0.437171
916.000000	0.437023
917.000000	0.436730
918.000000	0.436564
919.000000	0.436589
920.000000	0.436348
921.000000	0.436247
922.000000	0.436267
923.000000	0.436157
924.000000	0.436109
925.000000	0.435999
926.000000	0.435831
927.000000	0.435719
928.000000	0.435516
929.000000	0.435290
930.000000	0.435155
931.000000	0.435039
932.000000	0.434844
933.000000	0.434698
934.000000	0.434805
935.000000	0.434693
936.000000	0.434477
937.000000	0.434231
938.000000	0.434108
939.000000	0.434103
940.000000	0.434050
941.000000	0.433940
942.000000	0.433762
943.000000	0.433803
944.000000	0.433874
945.000000	0.433483
946.000000	0.433346
947.000000	0.433368
948.000000	0.433178
949.000000	0.433151
950.000000	0.433111
951.000000	0.432971
952.000000	0.432918
953.000000	0.432772
954.000000	0.432541
955.000000	0.432282
956.000000	0.432521
957.000000	0.432643
958.000000	0.432578
959.000000	0.432625
960.000000	0.432407
961.000000	0.432054
962.000000	0.431789
963.000000	0.431960
964.000000	0.431947
965.000000	0.431827
966.000000	0.431630
967.000000	0.431526
968.000000	0.431352
969.000000	0.431163
970.000000	0.431248
971.000000	0.431214
972.000000	0.431301
973.000000	0.431435
974.000000	0.431392
975.000000	0.431300
976.000000	0.431329
977.000000	0.431431
978.000000	0.430903
979.000000	0.430980
980.000000	0.431158
981.000000	0.431013
982.000000	0.431124
983.000000	0.431246
984.000000	0.431339
985.000000	0.431407
986.000000	0.431551
987.000000	0.431667
988.000000	0.431633
989.000000	0.432039
990.000000	0.432010
991.000000	0.431810
992.000000	0.432033
993.000000	0.432356
994.000000	0.432549
995.000000	0.432687
996.000000	0.432567
997.000000	0.433030
998.000000	0.433284
999.000000	0.433128
1000.000000	0.433151
1001.000000	0.432985
1002.000000	0.433579
1003.000000	0.433000
1004.000000	0.432927
1005.000000	0.433379
1006.000000	0.433474
1007.000000	0.433465
1008.000000	0.433590
1009.000000	0.433676
1010.000000	0.433060
1011.000000	0.432863
1012.000000	0.433228
1013.000000	0.433614
1014.000000	0.434598
1015.000000	0.435019
1016.000000	0.434986
1017.000000	0.434755
1018.000000	0.434715
1019.000000	0.435043
1020.000000	0.436025
1021.000000	0.436263
1022.000000	0.436978
1023.000000	0.437553
1024.000000	0.437490
1025.000000	0.437958
1026.000000	0.438667
1027.000000	0.438523
1028.000000	0.438176
1029.000000	0.438723
1030.000000	0.438866
1031.000000	0.438290
1032.000000	0.439072
1033.000000	0.439664
1034.000000	0.439924
1035.000000	0.440381
1036.000000	0.440637
1037.000000	0.440137
1038.000000	0.440327
1039.000000	0.440940
1040.000000	0.441739
1041.000000	0.442675
1042.000000	0.442686
1043.000000	0.442911
1044.000000	0.443429
1045.000000	0.443272
1046.000000	0.443687
1047.000000	0.444251
1048.000000	0.444779
1049.000000	0.445029
1050.000000	0.445556
1051.000000	0.445831
1052.000000	0.445404
1053.000000	0.445533
1054.000000	0.446360
1055.000000	0.447015
1056.000000	0.447788
1057.000000	0.448505
1058.000000	0.449092
1059.000000	0.449356
1060.000000	0.449499
1061.000000	0.449587
1062.000000	0.449485
1063.000000	0.449753
1064.000000	0.450340
1065.000000	0.451310
1066.000000	0.451932
1067.000000	0.452716
1068.000000	0.453273
1069.000000	0.453396
1070.000000	0.453815
1071.000000	0.454562
1072.000000	0.455018
1073.000000	0.455425
1074.000000	0.455859
1075.000000	0.456037
1076.000000	0.456784
1077.000000	0.457225
1078.000000	0.457108
1079.000000	0.457339
1080.000000	0.457358
1081.000000	0.457666
1082.000000	0.458460
1083.000000	0.459103
1084.000000	0.459905
1085.000000	0.460503
1086.000000	0.460931
1087.000000	0.461465
1088.000000	0.461607
1089.000000	0.462136
1090.000000	0.463086
1091.000000	0.463804
1092.000000	0.464223
1093.000000	0.464710
1094.000000	0.464882
1095.000000	0.464284
1096.000000	0.464578
1097.000000	0.465291
1098.000000	0.465704
1099.000000	0.466019
1100.000000	0.466729
1101.000000	0.467565
1102.000000	0.468109
1103.000000	0.468942
1104.000000	0.469554
1105.000000	0.469539
1106.000000	0.469905
1107.000000	0.470484
1108.000000	0.470933
1109.000000	0.471702
1110.000000	0.472164
1111.000000	0.472205
1112.000000	0.471661
1113.000000	0.472080
1114.000000	0.472539
1115.000000	0.473056
1116.000000	0.474381
1117.000000	0.475045
1118.000000	0.475202
1119.000000	0.475430
1120.000000	0.475473
1121.000000	0.475833
1122.000000	0.476429
1123.000000	0.477120
1124.000000	0.477945
1125.000000	0.478458
1126.000000	0.478438
1127.000000	0.478552
1128.000000	0.478641
1129.000000	0.478646
1130.000000	0.478878
1131.000000	0.479238
1132.000000	0.479559
1133.000000	0.480054
1134.000000	0.480487
1135.000000	0.480842
1136.000000	0.481187
1137.000000	0.481614
1138.000000	0.481791
1139.000000	0.481883
1140.000000	0.482184
1141.000000	0.482445
1142.000000	0.482617
1143.000000	0.482763
1144.000000	0.483029
1145.000000	0.483021
1146.000000	0.482742
1147.000000	0.482816
1148.000000	0.482888
1149.000000	0.483001
1150.000000	0.483289
1151.000000	0.483492
1152.000000	0.483612
1153.000000	0.483720
1154.000000	0.483722
1155.000000	0.483788
1156.000000	0.483915
1157.000000	0.483917
1158.000000	0.483693
1159.000000	0.483720
1160.000000	0.483753
1161.000000	0.483827
1162.000000	0.484211
1163.000000	0.484725
1164.000000	0.484885
1165.000000	0.484855
1166.000000	0.484965
1167.000000	0.484876
1168.000000	0.485011
1169.000000	0.485411
1170.000000	0.485585
1171.000000	0.485794
1172.000000	0.486025
1173.000000	0.486053
1174.000000	0.486210
1175.000000	0.486510
1176.000000	0.486616
1177.000000	0.486755
1178.000000	0.486875
1179.000000	0.486907
1180.000000	0.486866
1181.000000	0.486877
1182.000000	0.486941
1183.000000	0.486991
1184.000000	0.487181
1185.000000	0.487333
1186.000000	0.487532
1187.000000	0.487679
1188.000000	0.487812
1189.000000	0.487876
1190.000000	0.488034
1191.000000	0.488127
1192.000000	0.488212
1193.000000	0.488564
1194.000000	0.488976
1195.000000	0.489094
1196.000000	0.489031
1197.000000	0.489090
1198.000000	0.488934
1199.000000	0.488963
1200.000000	0.489173
1201.000000	0.489462
1202.000000	0.489585
1203.000000	0.489824
1204.000000	0.490035
1205.000000	0.490234
1206.000000	0.490242
1207.000000	0.490233
1208.000000	0.490234
1209.000000	0.490192
1210.000000	0.490218
1211.000000	0.490333
1212.000000	0.490427
1213.000000	0.490531
1214.000000	0.490745
1215.000000	0.491103
1216.000000	0.491223
1217.000000	0.491256
1218.000000	0.491244
1219.000000	0.490955
1220.000000	0.491011
1221.000000	0.491418
1222.000000	0.491626
1223.000000	0.491801
1224.000000	0.492029
1225.000000	0.491949
1226.000000	0.491800
1227.000000	0.491757
1228.000000	0.491833
1229.000000	0.491900
1230.000000	0.492007
1231.000000	0.492005
1232.000000	0.492168
1233.000000	0.492385
1234.000000	0.492564
1235.000000	0.492682
1236.000000	0.492683
1237.000000	0.492804
1238.000000	0.492759
1239.000000	0.492819
1240.000000	0.493003
1241.000000	0.493221
1242.000000	0.493286
1243.000000	0.493390
1244.000000	0.493525
1245.000000	0.493669
1246.000000	0.493783
1247.000000	0.494049
1248.000000	0.494194
1249.000000	0.494273
1250.000000	0.494477
1251.000000	0.494570
1252.000000	0.494612
1253.000000	0.494648
1254.000000	0.494705
1255.000000	0.494703
1256.000000	0.494711
1257.000000	0.494777
1258.000000	0.494885
1259.000000	0.494884
1260.000000	0.495012
1261.000000	0.495123
1262.000000	0.495204
1263.000000	0.495315
1264.000000	0.495447
1265.000000	0.495581
1266.000000	0.495627
1267.000000	0.495707
1268.000000	0.495837
1269.000000	0.495849
1270.000000	0.495998
1271.000000	0.496112
1272.000000	0.496106
1273.000000	0.496149
1274.000000	0.496244
1275.000000	0.496307
1276.000000	0.496498
1277.000000	0.496640
1278.000000	0.496540
1279.000000	0.496520
1280.000000	0.496416
1281.000000	0.496359
1282.000000	0.496463
1283.000000	0.496578
1284.000000	0.496579
1285.000000	0.496617
1286.000000	0.496576
1287.000000	0.496582
1288.000000	0.496838
1289.000000	0.497085
1290.000000	0.497080
1291.000000	0.497026
1292.000000	0.496825
1293.000000	0.496570
1294.000000	0.496424
1295.000000	0.496403
1296.000000	0.496457
1297.000000	0.496350
1298.000000	0.496326
1299.000000	0.496389
1300.000000	0.496359
1301.000000	0.496266
1302.000000	0.496094
1303.000000	0.495984
1304.000000	0.495813
1305.000000	0.495735
1306.000000	0.495671
1307.000000	0.495771
1308.000000	0.495664
1309.000000	0.495382
1310.000000	0.495242
1311.000000	0.495104
1312.000000	0.494906
1313.000000	0.494858
1314.000000	0.494707
1315.000000	0.494212
1316.000000	0.493919
1317.000000	0.493871
1318.000000	0.493699
1319.000000	0.493380
1320.000000	0.493110
1321.000000	0.492754
1322.000000	0.492368
1323.000000	0.492155
1324.000000	0.492031
1325.000000	0.491789
1326.000000	0.491417
1327.000000	0.491060
1328.000000	0.490885
1329.000000	0.490476
1330.000000	0.489869
1331.000000	0.489439
1332.000000	0.489045
1333.000000	0.488706
1334.000000	0.488665
1335.000000	0.488443
1336.000000	0.488188
1337.000000	0.487826
1338.000000	0.487273
1339.000000	0.486607
1340.000000	0.486094
1341.000000	0.485723
1342.000000	0.485264
1343.000000	0.484897
1344.000000	0.484536
1345.000000	0.483925
1346.000000	0.483422
1347.000000	0.482795
1348.000000	0.482126
1349.000000	0.481513
1350.000000	0.481074
1351.000000	0.480674
1352.000000	0.480133
1353.000000	0.479601
1354.000000	0.479001
1355.000000	0.478256
1356.000000	0.477756
1357.000000	0.477113
1358.000000	0.476572
1359.000000	0.476190
1360.000000	0.475684
1361.000000	0.475215
1362.000000	0.474737
1363.000000	0.474144
1364.000000	0.473642
1365.000000	0.473171
1366.000000	0.472711
1367.000000	0.472284
1368.000000	0.471759
1369.000000	0.471371
1370.000000	0.470645
1371.000000	0.469762
1372.000000	0.468869
1373.000000	0.468015
1374.000000	0.467448
1375.000000	0.466833
1376.000000	0.466332
1377.000000	0.465769
1378.000000	0.464837
1379.000000	0.463879
1380.000000	0.462926
1381.000000	0.461717
1382.000000	0.460459
1383.000000	0.459292
1384.000000	0.457791
1385.000000	0.456174
1386.000000	0.454932
1387.000000	0.453568
1388.000000	0.451889
1389.000000	0.450147
1390.000000	0.448199
1391.000000	0.446110
1392.000000	0.444224
1393.000000	0.442241
1394.000000	0.440390
1395.000000	0.438381
1396.000000	0.436285
1397.000000	0.434037
1398.000000	0.431616
1399.000000	0.429305
1400.000000	0.426933
1401.000000	0.424515
1402.000000	0.422219
1403.000000	0.419770
1404.000000	0.417242
1405.000000	0.414536
1406.000000	0.411754
1407.000000	0.409055
1408.000000	0.406264
1409.000000	0.403573
1410.000000	0.401065
1411.000000	0.398478
1412.000000	0.395868
1413.000000	0.393437
1414.000000	0.391169
1415.000000	0.388933
1416.000000	0.386722
1417.000000	0.384578
1418.000000	0.382232
1419.000000	0.379993
1420.000000	0.377847
1421.000000	0.375831
1422.000000	0.373912
1423.000000	0.372059
1424.000000	0.370172
1425.000000	0.368233
1426.000000	0.366148
1427.000000	0.364126
1428.000000	0.362236
1429.000000	0.360326
1430.000000	0.358553
1431.000000	0.356891
1432.000000	0.355321
1433.000000	0.353810
1434.000000	0.352483
1435.000000	0.351448
1436.000000	0.350445
1437.000000	0.349530
1438.000000	0.348656
1439.000000	0.347856
1440.000000	0.347217
1441.000000	0.346725
1442.000000	0.346334
1443.000000	0.346096
1444.000000	0.345760
1445.000000	0.345283
1446.000000	0.344770
1447.000000	0.344276
1448.000000	0.343881
1449.000000	0.343565
1450.000000	0.343310
1451.000000	0.342973
1452.000000	0.342445
1453.000000	0.342078
1454.000000	0.341739
1455.000000	0.341228
1456.000000	0.340919
1457.000000	0.340615
1458.000000	0.340181
1459.000000	0.339822
1460.000000	0.339472
1461.000000	0.339207
1462.000000	0.338884
1463.000000	0.338483
1464.000000	0.338244
1465.000000	0.337989
1466.000000	0.337724
1467.000000	0.337550
1468.000000	0.337444
1469.000000	0.337432
1470.000000	0.337357
1471.000000	0.337488
1472.000000	0.337709
1473.000000	0.337997
1474.000000	0.338347
1475.000000	0.338707
1476.000000	0.339086
1477.000000	0.339512
1478.000000	0.340047
1479.000000	0.340621
1480.000000	0.341296
1481.000000	0.341929
1482.000000	0.342569
1483.000000	0.343298
1484.000000	0.344085
1485.000000	0.344830
1486.000000	0.345588
1487.000000	0.346379
1488.000000	0.347190
1489.000000	0.348058
1490.000000	0.348901
1491.000000	0.349748
1492.000000	0.350530
1493.000000	0.351335
1494.000000	0.352084
1495.000000	0.352789
1496.000000	0.353520
1497.000000	0.354215
1498.000000	0.354840
1499.000000	0.355553
1500.000000	0.356287
1501.000000	0.356950
1502.000000	0.357656
1503.000000	0.358370
1504.000000	0.359037
1505.000000	0.359563
1506.000000	0.360048
1507.000000	0.360524
1508.000000	0.361018
1509.000000	0.361620
1510.000000	0.362189
1511.000000	0.362760
1512.000000	0.363229
1513.000000	0.363607
1514.000000	0.364090
1515.000000	0.364463
1516.000000	0.364862
1517.000000	0.365323
1518.000000	0.365703
1519.000000	0.365991
1520.000000	0.366356
1521.000000	0.366732
1522.000000	0.367081
1523.000000	0.367478
1524.000000	0.367776
1525.000000	0.367964
1526.000000	0.368115
1527.000000	0.368244
1528.000000	0.368525
1529.000000	0.368909
1530.000000	0.369159
1531.000000	0.369448
1532.000000	0.369766
1533.000000	0.369979
1534.000000	0.370068
1535.000000	0.370165
1536.000000	0.370335
1537.000000	0.370478
1538.000000	0.370493
1539.000000	0.370638
1540.000000	0.370803
1541.000000	0.370877
1542.000000	0.371135
1543.000000	0.371358
1544.000000	0.371395
1545.000000	0.371428
1546.000000	0.371526
1547.000000	0.371715
1548.000000	0.371842
1549.000000	0.371897
1550.000000	0.371975
1551.000000	0.372079
1552.000000	0.372219
1553.000000	0.372292
1554.000000	0.372288
1555.000000	0.372282
1556.000000	0.372245
1557.000000	0.372274
1558.000000	0.372354
1559.000000	0.372463
1560.000000	0.372452
1561.000000	0.372431
1562.000000	0.372429
1563.000000	0.372452
1564.000000	0.372468
1565.000000	0.372546
1566.000000	0.372473
1567.000000	0.372337
1568.000000	0.372291
1569.000000	0.372351
1570.000000	0.372356
1571.000000	0.372377
1572.000000	0.372406
1573.000000	0.372439
1574.000000	0.372402
1575.000000	0.372362
1576.000000	0.372359
1577.000000	0.372291
1578.000000	0.372268
1579.000000	0.372357
1580.000000	0.372407
1581.000000	0.372536
1582.000000	0.372525
1583.000000	0.372493
1584.000000	0.372464
1585.000000	0.372410
1586.000000	0.372437
1587.000000	0.372533
1588.000000	0.372542
1589.000000	0.372544
1590.000000	0.372568
1591.000000	0.372607
1592.000000	0.372633
1593.000000	0.372735
1594.000000	0.372719
1595.000000	0.372639
1596.000000	0.372666
1597.000000	0.372767
1598.000000	0.372769
1599.000000	0.372829
1600.000000	0.372812
1601.000000	0.372754
1602.000000	0.372736
1603.000000	0.372753
1604.000000	0.372815
1605.000000	0.372907
1606.000000	0.373043
1607.000000	0.373327
1608.000000	0.373525
1609.000000	0.373799
1610.000000	0.373984
1611.000000	0.374133
1612.000000	0.374333
1613.000000	0.374590
1614.000000	0.374859
1615.000000	0.375268
1616.000000	0.375612
1617.000000	0.375908
1618.000000	0.376184
1619.000000	0.376454
1620.000000	0.376638
1621.000000	0.376712
1622.000000	0.377001
1623.000000	0.377299
1624.000000	0.377548
1625.000000	0.377745
1626.000000	0.377947
1627.000000	0.378055
1628.000000	0.378339
1629.000000	0.378774
1630.000000	0.379137
1631.000000	0.379393
1632.000000	0.379756
1633.000000	0.380151
1634.000000	0.380607
1635.000000	0.381265
1636.000000	0.381756
1637.000000	0.382226
1638.000000	0.382644
1639.000000	0.383045
1640.000000	0.383425
1641.000000	0.383873
1642.000000	0.384237
1643.000000	0.384616
1644.000000	0.384925
1645.000000	0.385073
1646.000000	0.385351
1647.000000	0.385702
1648.000000	0.386023
1649.000000	0.386556
1650.000000	0.386981
1651.000000	0.387368
1652.000000	0.387815
1653.000000	0.388194
1654.000000	0.388635
1655.000000	0.389089
1656.000000	0.389370
1657.000000	0.389686
1658.000000	0.389982
1659.000000	0.390289
1660.000000	0.390678
1661.000000	0.391064
1662.000000	0.391323
1663.000000	0.391446
1664.000000	0.391745
1665.000000	0.392016
1666.000000	0.392441
1667.000000	0.392964
1668.000000	0.393414
1669.000000	0.393860
1670.000000	0.394150
1671.000000	0.394505
1672.000000	0.394926
1673.000000	0.395187
1674.000000	0.395719
1675.000000	0.396222
1676.000000	0.396534
1677.000000	0.396935
1678.000000	0.397299
1679.000000	0.397593
1680.000000	0.397893
1681.000000	0.398215
1682.000000	0.398402
1683.000000	0.398707
1684.000000	0.399055
1685.000000	0.399345
1686.000000	0.399762
1687.000000	0.400175
1688.000000	0.400402
1689.000000	0.400637
1690.000000	0.400852
1691.000000	0.401045
1692.000000	0.401147
1693.000000	0.401353
1694.000000	0.401441
1695.000000	0.401500
1696.000000	0.401787
1697.000000	0.401928
1698.000000	0.402126
1699.000000	0.402353
1700.000000	0.402508
1701.000000	0.402783
1702.000000	0.402910
1703.000000	0.403031
1704.000000	0.403211
1705.000000	0.403471
1706.000000	0.403903
1707.000000	0.404250
1708.000000	0.404548
1709.000000	0.404826
1710.000000	0.405217
1711.000000	0.405524
1712.000000	0.405895
1713.000000	0.406139
1714.000000	0.406242
1715.000000	0.406441
1716.000000	0.406664
1717.000000	0.406863
1718.000000	0.407014
1719.000000	0.407208
1720.000000	0.407499
1721.000000	0.407718
1722.000000	0.408012
1723.000000	0.408191
1724.000000	0.408249
1725.000000	0.408416
1726.000000	0.408462
1727.000000	0.408580
1728.000000	0.408620
1729.000000	0.408793
1730.000000	0.409261
1731.000000	0.409560
1732.000000	0.409983
1733.000000	0.410296
1734.000000	0.410246
1735.000000	0.410403
1736.000000	0.410560
1737.000000	0.410759
1738.000000	0.411013
1739.000000	0.411327
1740.000000	0.411711
1741.000000	0.411972
1742.000000	0.412240
1743.000000	0.412575
1744.000000	0.412836
1745.000000	0.413101
1746.000000	0.413438
1747.000000	0.413551
1748.000000	0.413716
1749.000000	0.414054
1750.000000	0.414172
1751.000000	0.414355
1752.000000	0.414622
1753.000000	0.414553
1754.000000	0.414593
1755.000000	0.414656
1756.000000	0.414747
1757.000000	0.414829
1758.000000	0.415008
1759.000000	0.415341
1760.000000	0.415538
1761.000000	0.415674
1762.000000	0.415766
1763.000000	0.415685
1764.000000	0.415811
1765.000000	0.416023
1766.000000	0.416204
1767.000000	0.416477
1768.000000	0.416470
1769.000000	0.416301
1770.000000	0.416375
1771.000000	0.416395
1772.000000	0.416416
1773.000000	0.416458
1774.000000	0.416618
1775.000000	0.416860
1776.000000	0.417068
1777.000000	0.417370
1778.000000	0.417635
1779.000000	0.417768
1780.000000	0.418009
1781.000000	0.418394
1782.000000	0.418549
1783.000000	0.418587
1784.000000	0.418827
1785.000000	0.418916
1786.000000	0.419201
1787.000000	0.419834
1788.000000	0.420251
1789.000000	0.420495
1790.000000	0.420869
1791.000000	0.421072
1792.000000	0.421363
1793.000000	0.421620
1794.000000	0.421670
1795.000000	0.421938
1796.000000	0.422441
1797.000000	0.422690
1798.000000	0.422764
1799.000000	0.423012
1800.000000	0.423301
1801.000000	0.421960
1802.000000	0.422914
1803.000000	0.424203
1804.000000	0.424823
1805.000000	0.426281
1806.000000	0.426619
1807.000000	0.425191
1808.000000	0.424823
1809.000000	0.425072
1810.000000	0.424257
1811.000000	0.424318
1812.000000	0.424936
1813.000000	0.425472
1814.000000	0.426647
1815.000000	0.426853
1816.000000	0.426505
1817.000000	0.426318
1818.000000	0.425746
1819.000000	0.425229
1820.000000	0.425438
1821.000000	0.426478
1822.000000	0.426576
1823.000000	0.426518
1824.000000	0.426090
1825.000000	0.424389
1826.000000	0.424024
1827.000000	0.423919
1828.000000	0.424227
1829.000000	0.424069
1830.000000	0.424039
1831.000000	0.424003
1832.000000	0.423053
1833.000000	0.423161
1834.000000	0.424702
1835.000000	0.424975
1836.000000	0.425131
1837.000000	0.424634
1838.000000	0.423274
1839.000000	0.421175
1840.000000	0.419624
1841.000000	0.419421
1842.000000	0.419004
1843.000000	0.419528
1844.000000	0.419435
1845.000000	0.418527
1846.000000	0.418375
1847.000000	0.418800
1848.000000	0.418586
1849.000000	0.417763
1850.000000	0.417234
1851.000000	0.416265
1852.000000	0.414105
1853.000000	0.412719
1854.000000	0.411349
1855.000000	0.410365
1856.000000	0.409290
1857.000000	0.408638
1858.000000	0.408451
1859.000000	0.407030
1860.000000	0.405222
1861.000000	0.403075
1862.000000	0.400627
1863.000000	0.397829
1864.000000	0.395272
1865.000000	0.392303
1866.000000	0.389639
1867.000000	0.387594
1868.000000	0.384477
1869.000000	0.380813
1870.000000	0.377420
1871.000000	0.373890
1872.000000	0.370746
1873.000000	0.367502
1874.000000	0.364813
1875.000000	0.361398
1876.000000	0.357633
1877.000000	0.352823
1878.000000	0.347589
1879.000000	0.343180
1880.000000	0.338419
1881.000000	0.333937
1882.000000	0.329737
1883.000000	0.324773
1884.000000	0.319702
1885.000000	0.313838
1886.000000	0.307956
1887.000000	0.301703
1888.000000	0.295899
1889.000000	0.289333
1890.000000	0.283693
1891.000000	0.278534
1892.000000	0.271994
1893.000000	0.265576
1894.000000	0.259776
1895.000000	0.253442
1896.000000	0.246722
1897.000000	0.240348
1898.000000	0.234673
1899.000000	0.229202
1900.000000	0.224006
1901.000000	0.219426
1902.000000	0.214975
1903.000000	0.209635
1904.000000	0.204243
1905.000000	0.199244
1906.000000	0.194542
1907.000000	0.189719
1908.000000	0.185814
1909.000000	0.182859
1910.000000	0.180179
1911.000000	0.177400
1912.000000	0.174731
1913.000000	0.171416
1914.000000	0.168143
1915.000000	0.165345
1916.000000	0.162006
1917.000000	0.159617
1918.000000	0.157930
1919.000000	0.156818
1920.000000	0.155490
1921.000000	0.154867
1922.000000	0.153914
1923.000000	0.152534
1924.000000	0.151758
1925.000000	0.150873
1926.000000	0.150211
1927.000000	0.150224
1928.000000	0.150202
1929.000000	0.150152
1930.000000	0.150873
1931.000000	0.151665
1932.000000	0.151830
1933.000000	0.152213
1934.000000	0.152118
1935.000000	0.151505
1936.000000	0.151115
1937.000000	0.150722
1938.000000	0.150346
1939.000000	0.150221
1940.000000	0.150520
1941.000000	0.150617
1942.000000	0.150623
1943.000000	0.150906
1944.000000	0.150517
1945.000000	0.150006
1946.000000	0.149511
1947.000000	0.148492
1948.000000	0.148176
1949.000000	0.148218
1950.000000	0.147985
1951.000000	0.147927
1952.000000	0.148335
1953.000000	0.147952
1954.000000	0.147309
1955.000000	0.147173
1956.000000	0.146499
1957.000000	0.145915
1958.000000	0.145274
1959.000000	0.144727
1960.000000	0.144262
1961.000000	0.143670
1962.000000	0.143352
1963.000000	0.143416
1964.000000	0.143286
1965.000000	0.143264
1966.000000	0.143622
1967.000000	0.143776
1968.000000	0.143898
1969.000000	0.143779
1970.000000	0.143248
1971.000000	0.143091
1972.000000	0.143008
1973.000000	0.142825
1974.000000	0.142625
1975.000000	0.142893
1976.000000	0.143172
1977.000000	0.143839
1978.000000	0.145078
1979.000000	0.146261
1980.000000	0.146916
1981.000000	0.147212
1982.000000	0.147519
1983.000000	0.147639
1984.000000	0.147854
1985.000000	0.148267
1986.000000	0.148561
1987.000000	0.148663
1988.000000	0.149164
1989.000000	0.149478
1990.000000	0.150108
1991.000000	0.151176
1992.000000	0.152318
1993.000000	0.154019
1994.000000	0.155463
1995.000000	0.156895
1996.000000	0.158037
1997.000000	0.159014
1998.000000	0.159804
1999.000000	0.160783
2000.000000	0.161591
2001.000000	0.162484
2002.000000	0.163533
2003.000000	0.164617
2004.000000	0.166210
2005.000000	0.167371
2006.000000	0.168293
2007.000000	0.169536
2008.000000	0.170668
2009.000000	0.171520
2010.000000	0.172423
2011.000000	0.173408
2012.000000	0.174241
2013.000000	0.174555
2014.000000	0.175377
2015.000000	0.176793
2016.000000	0.178067
2017.000000	0.179940
2018.000000	0.181976
2019.000000	0.183583
2020.000000	0.185461
2021.000000	0.186843
2022.000000	0.187703
2023.000000	0.188780
2024.000000	0.189464
2025.000000	0.190524
2026.000000	0.191781
2027.000000	0.192887
2028.000000	0.194129
2029.000000	0.195776
2030.000000	0.196898
2031.000000	0.198006
2032.000000	0.199392
2033.000000	0.201130
2034.000000	0.203003
2035.000000	0.205705
2036.000000	0.207558
2037.000000	0.209511
2038.000000	0.210904
2039.000000	0.211847
2040.000000	0.212603
2041.000000	0.213104
2042.000000	0.213321
2043.000000	0.214003
2044.000000	0.214862
2045.000000	0.215686
2046.000000	0.216706
2047.000000	0.217772
2048.000000	0.218588
2049.000000	0.219929
2050.000000	0.221745
2051.000000	0.222963
2052.000000	0.224148
2053.000000	0.224948
2054.000000	0.225418
2055.000000	0.225728
2056.000000	0.226451
2057.000000	0.227596
2058.000000	0.228692
2059.000000	0.230055
2060.000000	0.231025
2061.000000	0.231600
2062.000000	0.232319
2063.000000	0.232591
2064.000000	0.233574
2065.000000	0.235408
2066.000000	0.236861
2067.000000	0.238668
2068.000000	0.240812
2069.000000	0.242278
2070.000000	0.243323
2071.000000	0.244407
2072.000000	0.245380
2073.000000	0.245755
2074.000000	0.245610
2075.000000	0.246244
2076.000000	0.246653
2077.000000	0.247791
2078.000000	0.250199
2079.000000	0.251669
2080.000000	0.253070
2081.000000	0.254409
2082.000000	0.255558
2083.000000	0.256382
2084.000000	0.257310
2085.000000	0.258255
2086.000000	0.258618
2087.000000	0.259577
2088.000000	0.261070
2089.000000	0.262495
2090.000000	0.264155
2091.000000	0.266376
2092.000000	0.268184
2093.000000	0.270099
2094.000000	0.271654
2095.000000	0.273112
2096.000000	0.274485
2097.000000	0.275523
2098.000000	0.276314
2099.000000	0.277654
2100.000000	0.278893
2101.000000	0.279595
2102.000000	0.280127
2103.000000	0.280497
2104.000000	0.280217
2105.000000	0.280497
2106.000000	0.281014
2107.000000	0.281859
2108.000000	0.283152
2109.000000	0.284088
2110.000000	0.284896
2111.000000	0.285786
2112.000000	0.286422
2113.000000	0.286796
2114.000000	0.288044
2115.000000	0.289670
2116.000000	0.290977
2117.000000	0.292391
2118.000000	0.293420
2119.000000	0.293567
2120.000000	0.293733
2121.000000	0.293067
2122.000000	0.293480
2123.000000	0.294106
2124.000000	0.294986
2125.000000	0.297301
2126.000000	0.297889
2127.000000	0.297487
2128.000000	0.297473
2129.000000	0.296533
2130.000000	0.296017
2131.000000	0.296043
2132.000000	0.296747
2133.000000	0.297753
2134.000000	0.298583
2135.000000	0.299839
2136.000000	0.300113
2137.000000	0.300775
2138.000000	0.301578
2139.000000	0.301897
2140.000000	0.302210
2141.000000	0.302420
2142.000000	0.301996
2143.000000	0.301520
2144.000000	0.300739
2145.000000	0.300781
2146.000000	0.301157
2147.000000	0.302041
2148.000000	0.302925
2149.000000	0.303457
2150.000000	0.303774
2151.000000	0.303437
2152.000000	0.303820
2153.000000	0.304724
2154.000000	0.304824
2155.000000	0.304418
2156.000000	0.304498
2157.000000	0.304388
2158.000000	0.304523
2159.000000	0.305292
2160.000000	0.305653
2161.000000	0.305798
2162.000000	0.305891
2163.000000	0.305112
2164.000000	0.305362
2165.000000	0.306400
2166.000000	0.307266
2167.000000	0.307647
2168.000000	0.308147
2169.000000	0.307926
2170.000000	0.306817
2171.000000	0.306316
2172.000000	0.306209
2173.000000	0.306016
2174.000000	0.305649
2175.000000	0.305460
2176.000000	0.305425
2177.000000	0.305586
2178.000000	0.306113
2179.000000	0.306584
2180.000000	0.307399
2181.000000	0.307923
2182.000000	0.308353
2183.000000	0.306737
2184.000000	0.305642
2185.000000	0.305996
2186.000000	0.305030
2187.000000	0.306036
2188.000000	0.307615
2189.000000	0.306868
2190.000000	0.307593
2191.000000	0.308642
2192.000000	0.308993
2193.000000	0.309409
2194.000000	0.309083
2195.000000	0.307703
2196.000000	0.306651
2197.000000	0.304977
2198.000000	0.303823
2199.000000	0.302486
2200.000000	0.302339
2201.000000	0.303359
2202.000000	0.303567
2203.000000	0.304680
2204.000000	0.304701
2205.000000	0.302334
2206.000000	0.302175
2207.000000	0.303403
2208.000000	0.306002
2209.000000	0.309767
2210.000000	0.312229
2211.000000	0.311561
2212.000000	0.308461
2213.000000	0.307024
2214.000000	0.304372
2215.000000	0.304124
2216.000000	0.306152
2217.000000	0.307338
2218.000000	0.308386
2219.000000	0.309247
2220.000000	0.309337
2221.000000	0.311101
2222.000000	0.315922
2223.000000	0.317517
2224.000000	0.318537
2225.000000	0.319116
2226.000000	0.315029
2227.000000	0.311029
2228.000000	0.311760
2229.000000	0.310418
2230.000000	0.311009
2231.000000	0.311842
2232.000000	0.308809
2233.000000	0.308390
2234.000000	0.308927
2235.000000	0.310037
2236.000000	0.310775
2237.000000	0.312611
2238.000000	0.312553
2239.000000	0.311049
2240.000000	0.310260
2241.000000	0.308983
2242.000000	0.309170
2243.000000	0.310456
2244.000000	0.310371
2245.000000	0.310515
2246.000000	0.309629
2247.000000	0.306352
2248.000000	0.305675
2249.000000	0.305670
2250.000000	0.306919
2251.000000	0.309547
2252.000000	0.311949
2253.000000	0.311439
2254.000000	0.311018
2255.000000	0.311031
2256.000000	0.310027
2257.000000	0.311165
2258.000000	0.310221
2259.000000	0.307198
2260.000000	0.304761
2261.000000	0.303102
2262.000000	0.301051
2263.000000	0.301261
2264.000000	0.303696
2265.000000	0.304605
2266.000000	0.307297
2267.000000	0.306252
2268.000000	0.303005
2269.000000	0.299697
2270.000000	0.292968
2271.000000	0.289997
2272.000000	0.288410
2273.000000	0.286988
2274.000000	0.287199
2275.000000	0.287223
2276.000000	0.287096
2277.000000	0.288020
2278.000000	0.288072
2279.000000	0.287336
2280.000000	0.286053
2281.000000	0.283310
2282.000000	0.281309
2283.000000	0.279392
2284.000000	0.277705
2285.000000	0.276047
2286.000000	0.276064
2287.000000	0.276680
2288.000000	0.276818
2289.000000	0.277766
2290.000000	0.276906
2291.000000	0.276370
2292.000000	0.274834
2293.000000	0.272577
2294.000000	0.271080
2295.000000	0.269256
2296.000000	0.267999
2297.000000	0.266893
2298.000000	0.266830
2299.000000	0.267767
2300.000000	0.268566
2301.000000	0.270743
2302.000000	0.271360
2303.000000	0.271446
2304.000000	0.271389
2305.000000	0.271035
2306.000000	0.269560
2307.000000	0.266856
2308.000000	0.264528
2309.000000	0.263057
2310.000000	0.262677
2311.000000	0.266138
2312.000000	0.267883
2313.000000	0.266727
2314.000000	0.264934
2315.000000	0.261251
2316.000000	0.258469
2317.000000	0.256268
2318.000000	0.254890
2319.000000	0.255863
2320.000000	0.255473
2321.000000	0.255231
2322.000000	0.256208
2323.000000	0.253905
2324.000000	0.250827
2325.000000	0.250236
2326.000000	0.249069
2327.000000	0.249268
2328.000000	0.250530
2329.000000	0.248663
2330.000000	0.245525
2331.000000	0.241725
2332.000000	0.237400
2333.000000	0.236104
2334.000000	0.235268
2335.000000	0.234510
2336.000000	0.235875
2337.000000	0.234496
2338.000000	0.230902
2339.000000	0.229444
2340.000000	0.226607
2341.000000	0.225150
2342.000000	0.225551
2343.000000	0.224946
2344.000000	0.226373
2345.000000	0.224978
2346.000000	0.222475
2347.000000	0.219507
2348.000000	0.214666
2349.000000	0.207199
2350.000000	0.205412
2351.000000	0.204056
2352.000000	0.203864
2353.000000	0.207834
2354.000000	0.208233
2355.000000	0.208576
2356.000000	0.208833
2357.000000	0.205662
2358.000000	0.202798
2359.000000	0.197154
2360.000000	0.191117
2361.000000	0.189497
2362.000000	0.185766
2363.000000	0.185032
2364.000000	0.185367
2365.000000	0.180830
2366.000000	0.180457
2367.000000	0.178758
2368.000000	0.176586
2369.000000	0.176480
2370.000000	0.172369
2371.000000	0.171153
2372.000000	0.168984
2373.000000	0.168756
2374.000000	0.172441
2375.000000	0.173280
2376.000000	0.176490
2377.000000	0.175570
2378.000000	0.173211
2379.000000	0.171065
2380.000000	0.163993
2381.000000	0.161565
2382.000000	0.158871
2383.000000	0.155557
2384.000000	0.157954
2385.000000	0.157956
2386.000000	0.154326
2387.000000	0.150490
2388.000000	0.145817
2389.000000	0.141726
2390.000000	0.140917
2391.000000	0.143936
2392.000000	0.148021
2393.000000	0.155203
2394.000000	0.161809
2395.000000	0.161703
2396.000000	0.165648
2397.000000	0.166459
2398.000000	0.159929
2399.000000	0.153018
2400.000000	0.143601
2401.000000	0.137066
2402.000000	0.131750
2403.000000	0.133189
2404.000000	0.135906
2405.000000	0.131393
2406.000000	0.134435
2407.000000	0.140960
2408.000000	0.144472
2409.000000	0.145172
2410.000000	0.136393
2411.000000	0.130709
2412.000000	0.127459
2413.000000	0.126529
2414.000000	0.136899
2415.000000	0.141307
2416.000000	0.140862
2417.000000	0.137369
2418.000000	0.136900
2419.000000	0.144782
2420.000000	0.148773
2421.000000	0.149838
2422.000000	0.139500
2423.000000	0.130937
2424.000000	0.132882
2425.000000	0.139302
2426.000000	0.161036
2427.000000	0.171753
2428.000000	0.164224
2429.000000	0.154263
2430.000000	0.134254
2431.000000	0.116062
2432.000000	0.108984
2433.000000	0.104221
2434.000000	0.111030
2435.000000	0.132394
2436.000000	0.142193
2437.000000	0.154572
2438.000000	0.168858
2439.000000	0.159998
2440.000000	0.152396
2441.000000	0.137266
2442.000000	0.117803
2443.000000	0.112123
2444.000000	0.106174
2445.000000	0.113014
2446.000000	0.123087
2447.000000	0.117250
2448.000000	0.119681
2449.000000	0.126507
2450.000000	0.123244
2451.000000	0.123318
2452.000000	0.116885
2453.000000	0.099563
2454.000000	0.096540
2455.000000	0.111146
2456.000000	0.120852
2457.000000	0.136446
2458.000000	0.154660
2459.000000	0.145305
2460.000000	0.155848
2461.000000	0.162650
2462.000000	0.125686
2463.000000	0.125404
2464.000000	0.109043
2465.000000	0.089713
2466.000000	0.116546
2467.000000	0.109077
2468.000000	0.111498
2469.000000	0.115473
2470.000000	0.105306
2471.000000	0.121484
2472.000000	0.124890
2473.000000	0.122512
2474.000000	0.122910
2475.000000	0.128069
2476.000000	0.126669
2477.000000	0.138676
2478.000000	0.153446
2479.000000	0.151071
2480.000000	0.143135
2481.000000	0.108695
2482.000000	0.091265
2483.000000	0.074393
2484.000000	0.074345
2485.000000	0.105499
2486.000000	0.133626
2487.000000	0.170766
2488.000000	0.195035
2489.000000	0.223022
2490.000000	0.207955
2491.000000	0.158779
2492.000000	0.118252
2493.000000	0.054149
2494.000000	0.024209
2495.000000	-0.009514
2496.000000	-0.006498
2497.000000	0.062954
2498.000000	0.090661
2499.000000	0.136670
2500.000000	0.136713
