# Wavelength	NAu-1-70_HEX-10_FV7-20_00001.asd.rts.txt
350.000000	0.127448
351.000000	0.103328
352.000000	0.106444
353.000000	0.121187
354.000000	0.129651
355.000000	0.108049
356.000000	0.095572
357.000000	0.098276
358.000000	0.097590
359.000000	0.105667
360.000000	0.114867
361.000000	0.114353
362.000000	0.099042
363.000000	0.091872
364.000000	0.102666
365.000000	0.107737
366.000000	0.104764
367.000000	0.098179
368.000000	0.099342
369.000000	0.098074
370.000000	0.098364
371.000000	0.105679
372.000000	0.103055
373.000000	0.102788
374.000000	0.110297
375.000000	0.103987
376.000000	0.099818
377.000000	0.102984
378.000000	0.109718
379.000000	0.111801
380.000000	0.110733
381.000000	0.111586
382.000000	0.114373
383.000000	0.115522
384.000000	0.113655
385.000000	0.113576
386.000000	0.114062
387.000000	0.115131
388.000000	0.118169
389.000000	0.120198
390.000000	0.121096
391.000000	0.121761
392.000000	0.124029
393.000000	0.126356
394.000000	0.127515
395.000000	0.128728
396.000000	0.130269
397.000000	0.131923
398.000000	0.132966
399.000000	0.133446
400.000000	0.134417
401.000000	0.137135
402.000000	0.138373
403.000000	0.139371
404.000000	0.141273
405.000000	0.140519
406.000000	0.141714
407.000000	0.145828
408.000000	0.147588
409.000000	0.148964
410.000000	0.150024
411.000000	0.149957
412.000000	0.150636
413.000000	0.152126
414.000000	0.153894
415.000000	0.154769
416.000000	0.155146
417.000000	0.155581
418.000000	0.156890
419.000000	0.157399
420.000000	0.157067
421.000000	0.157188
422.000000	0.157858
423.000000	0.158399
424.000000	0.158077
425.000000	0.158158
426.000000	0.157911
427.000000	0.157090
428.000000	0.157845
429.000000	0.158430
430.000000	0.158316
431.000000	0.158518
432.000000	0.158679
433.000000	0.158632
434.000000	0.158352
435.000000	0.158463
436.000000	0.158471
437.000000	0.157919
438.000000	0.157613
439.000000	0.157315
440.000000	0.156913
441.000000	0.156387
442.000000	0.155882
443.000000	0.155459
444.000000	0.155236
445.000000	0.154486
446.000000	0.153990
447.000000	0.154620
448.000000	0.155395
449.000000	0.156605
450.000000	0.158419
451.000000	0.160320
452.000000	0.162246
453.000000	0.164210
454.000000	0.166468
455.000000	0.169262
456.000000	0.172335
457.000000	0.175120
458.000000	0.177953
459.000000	0.180742
460.000000	0.183337
461.000000	0.185399
462.000000	0.187400
463.000000	0.189298
464.000000	0.190347
465.000000	0.191742
466.000000	0.193501
467.000000	0.194993
468.000000	0.195920
469.000000	0.196545
470.000000	0.197397
471.000000	0.198433
472.000000	0.199504
473.000000	0.200456
474.000000	0.201036
475.000000	0.201496
476.000000	0.202149
477.000000	0.203177
478.000000	0.203942
479.000000	0.204500
480.000000	0.204922
481.000000	0.205375
482.000000	0.206018
483.000000	0.206743
484.000000	0.207397
485.000000	0.207978
486.000000	0.208601
487.000000	0.209077
488.000000	0.209627
489.000000	0.210289
490.000000	0.210966
491.000000	0.211646
492.000000	0.212343
493.000000	0.212975
494.000000	0.213678
495.000000	0.214334
496.000000	0.214909
497.000000	0.215880
498.000000	0.216714
499.000000	0.217344
500.000000	0.218095
501.000000	0.218811
502.000000	0.219539
503.000000	0.220329
504.000000	0.221154
505.000000	0.221952
506.000000	0.222699
507.000000	0.223543
508.000000	0.224387
509.000000	0.225165
510.000000	0.225989
511.000000	0.226967
512.000000	0.228041
513.000000	0.228955
514.000000	0.229796
515.000000	0.230692
516.000000	0.231711
517.000000	0.232692
518.000000	0.233744
519.000000	0.234851
520.000000	0.235805
521.000000	0.236765
522.000000	0.237822
523.000000	0.238986
524.000000	0.240124
525.000000	0.241207
526.000000	0.242299
527.000000	0.243482
528.000000	0.244624
529.000000	0.245658
530.000000	0.246911
531.000000	0.248218
532.000000	0.249397
533.000000	0.250630
534.000000	0.251935
535.000000	0.253256
536.000000	0.254479
537.000000	0.255766
538.000000	0.257120
539.000000	0.258465
540.000000	0.259742
541.000000	0.260976
542.000000	0.262246
543.000000	0.263625
544.000000	0.265015
545.000000	0.266311
546.000000	0.267641
547.000000	0.268946
548.000000	0.270230
549.000000	0.271449
550.000000	0.272723
551.000000	0.274068
552.000000	0.275404
553.000000	0.276672
554.000000	0.277922
555.000000	0.279200
556.000000	0.280510
557.000000	0.281642
558.000000	0.282715
559.000000	0.283914
560.000000	0.285029
561.000000	0.286133
562.000000	0.287266
563.000000	0.288360
564.000000	0.289448
565.000000	0.290473
566.000000	0.291518
567.000000	0.292524
568.000000	0.293441
569.000000	0.294352
570.000000	0.295172
571.000000	0.295926
572.000000	0.296773
573.000000	0.297505
574.000000	0.298151
575.000000	0.298868
576.000000	0.299568
577.000000	0.300207
578.000000	0.300831
579.000000	0.301451
580.000000	0.302070
581.000000	0.302655
582.000000	0.303110
583.000000	0.303532
584.000000	0.303973
585.000000	0.304466
586.000000	0.304778
587.000000	0.305034
588.000000	0.305407
589.000000	0.305757
590.000000	0.306044
591.000000	0.306261
592.000000	0.306443
593.000000	0.306687
594.000000	0.306976
595.000000	0.307177
596.000000	0.307372
597.000000	0.307568
598.000000	0.307651
599.000000	0.307720
600.000000	0.307834
601.000000	0.307940
602.000000	0.308034
603.000000	0.308084
604.000000	0.308111
605.000000	0.308197
606.000000	0.308250
607.000000	0.308282
608.000000	0.308370
609.000000	0.308374
610.000000	0.308378
611.000000	0.308490
612.000000	0.308543
613.000000	0.308552
614.000000	0.308580
615.000000	0.308617
616.000000	0.308625
617.000000	0.308589
618.000000	0.308616
619.000000	0.308705
620.000000	0.308729
621.000000	0.308603
622.000000	0.308605
623.000000	0.308662
624.000000	0.308681
625.000000	0.308734
626.000000	0.308865
627.000000	0.309053
628.000000	0.309175
629.000000	0.309304
630.000000	0.309326
631.000000	0.309334
632.000000	0.309399
633.000000	0.309492
634.000000	0.309560
635.000000	0.309713
636.000000	0.309869
637.000000	0.309965
638.000000	0.310069
639.000000	0.310199
640.000000	0.310375
641.000000	0.310447
642.000000	0.310572
643.000000	0.310737
644.000000	0.310887
645.000000	0.311049
646.000000	0.311217
647.000000	0.311355
648.000000	0.311458
649.000000	0.311625
650.000000	0.311834
651.000000	0.311966
652.000000	0.312162
653.000000	0.312446
654.000000	0.312701
655.000000	0.312973
656.000000	0.313264
657.000000	0.313517
658.000000	0.313791
659.000000	0.314028
660.000000	0.314213
661.000000	0.314488
662.000000	0.314714
663.000000	0.314938
664.000000	0.315204
665.000000	0.315575
666.000000	0.315937
667.000000	0.316149
668.000000	0.316432
669.000000	0.316800
670.000000	0.317213
671.000000	0.317513
672.000000	0.317867
673.000000	0.318275
674.000000	0.318631
675.000000	0.318955
676.000000	0.319291
677.000000	0.319695
678.000000	0.320094
679.000000	0.320496
680.000000	0.320926
681.000000	0.321398
682.000000	0.321877
683.000000	0.322287
684.000000	0.322744
685.000000	0.323172
686.000000	0.323606
687.000000	0.324059
688.000000	0.324573
689.000000	0.325056
690.000000	0.325504
691.000000	0.326080
692.000000	0.326581
693.000000	0.327042
694.000000	0.327593
695.000000	0.328094
696.000000	0.328559
697.000000	0.329065
698.000000	0.329614
699.000000	0.330183
700.000000	0.330758
701.000000	0.331346
702.000000	0.331890
703.000000	0.332378
704.000000	0.332920
705.000000	0.333476
706.000000	0.334007
707.000000	0.334573
708.000000	0.335143
709.000000	0.335664
710.000000	0.336144
711.000000	0.336739
712.000000	0.337299
713.000000	0.337812
714.000000	0.338401
715.000000	0.339064
716.000000	0.339756
717.000000	0.340372
718.000000	0.340943
719.000000	0.341468
720.000000	0.341974
721.000000	0.342534
722.000000	0.343031
723.000000	0.343508
724.000000	0.344031
725.000000	0.344509
726.000000	0.345022
727.000000	0.345529
728.000000	0.346038
729.000000	0.346546
730.000000	0.347009
731.000000	0.347544
732.000000	0.348086
733.000000	0.348622
734.000000	0.349071
735.000000	0.349450
736.000000	0.349903
737.000000	0.350331
738.000000	0.350702
739.000000	0.351156
740.000000	0.351582
741.000000	0.351940
742.000000	0.352394
743.000000	0.352885
744.000000	0.353206
745.000000	0.353461
746.000000	0.353746
747.000000	0.354025
748.000000	0.354267
749.000000	0.354515
750.000000	0.354756
751.000000	0.354965
752.000000	0.355240
753.000000	0.355573
754.000000	0.355836
755.000000	0.356090
756.000000	0.356338
757.000000	0.356514
758.000000	0.356645
759.000000	0.356787
760.000000	0.356904
761.000000	0.357098
762.000000	0.357262
763.000000	0.357347
764.000000	0.357431
765.000000	0.357545
766.000000	0.357650
767.000000	0.357698
768.000000	0.357733
769.000000	0.357736
770.000000	0.357738
771.000000	0.357829
772.000000	0.357895
773.000000	0.357859
774.000000	0.357823
775.000000	0.357799
776.000000	0.357728
777.000000	0.357573
778.000000	0.357483
779.000000	0.357371
780.000000	0.357209
781.000000	0.357002
782.000000	0.356834
783.000000	0.356786
784.000000	0.356701
785.000000	0.356535
786.000000	0.356329
787.000000	0.356117
788.000000	0.355931
789.000000	0.355690
790.000000	0.355388
791.000000	0.355110
792.000000	0.354842
793.000000	0.354577
794.000000	0.354314
795.000000	0.354022
796.000000	0.353740
797.000000	0.353451
798.000000	0.353091
799.000000	0.352784
800.000000	0.352551
801.000000	0.352364
802.000000	0.352077
803.000000	0.351773
804.000000	0.351532
805.000000	0.351257
806.000000	0.350920
807.000000	0.350579
808.000000	0.350179
809.000000	0.349871
810.000000	0.349635
811.000000	0.349382
812.000000	0.348971
813.000000	0.348535
814.000000	0.348141
815.000000	0.347821
816.000000	0.347394
817.000000	0.346957
818.000000	0.346551
819.000000	0.346150
820.000000	0.345811
821.000000	0.345477
822.000000	0.345099
823.000000	0.344740
824.000000	0.344326
825.000000	0.343899
826.000000	0.343565
827.000000	0.343234
828.000000	0.342889
829.000000	0.342525
830.000000	0.342137
831.000000	0.341788
832.000000	0.341389
833.000000	0.340992
834.000000	0.340646
835.000000	0.340368
836.000000	0.339914
837.000000	0.339470
838.000000	0.339090
839.000000	0.338677
840.000000	0.338305
841.000000	0.337949
842.000000	0.337558
843.000000	0.337336
844.000000	0.336988
845.000000	0.336511
846.000000	0.336311
847.000000	0.335887
848.000000	0.335368
849.000000	0.335049
850.000000	0.334866
851.000000	0.334633
852.000000	0.334302
853.000000	0.333897
854.000000	0.333436
855.000000	0.333093
856.000000	0.332821
857.000000	0.332413
858.000000	0.331996
859.000000	0.331593
860.000000	0.331283
861.000000	0.331008
862.000000	0.330725
863.000000	0.330337
864.000000	0.330004
865.000000	0.329705
866.000000	0.329431
867.000000	0.329145
868.000000	0.328828
869.000000	0.328425
870.000000	0.328021
871.000000	0.327774
872.000000	0.327576
873.000000	0.327303
874.000000	0.327095
875.000000	0.326871
876.000000	0.326640
877.000000	0.326357
878.000000	0.325916
879.000000	0.325535
880.000000	0.325222
881.000000	0.325071
882.000000	0.324814
883.000000	0.324525
884.000000	0.324339
885.000000	0.324182
886.000000	0.323989
887.000000	0.323745
888.000000	0.323424
889.000000	0.323095
890.000000	0.322652
891.000000	0.322188
892.000000	0.321753
893.000000	0.321446
894.000000	0.321372
895.000000	0.321216
896.000000	0.321114
897.000000	0.321010
898.000000	0.320801
899.000000	0.320463
900.000000	0.320171
901.000000	0.319967
902.000000	0.319833
903.000000	0.319626
904.000000	0.319420
905.000000	0.319246
906.000000	0.319254
907.000000	0.319234
908.000000	0.319156
909.000000	0.319018
910.000000	0.318846
911.000000	0.318643
912.000000	0.318435
913.000000	0.318238
914.000000	0.318132
915.000000	0.318122
916.000000	0.317990
917.000000	0.317765
918.000000	0.317516
919.000000	0.317299
920.000000	0.317223
921.000000	0.317121
922.000000	0.316963
923.000000	0.316771
924.000000	0.316666
925.000000	0.316546
926.000000	0.316395
927.000000	0.316274
928.000000	0.316286
929.000000	0.316278
930.000000	0.316080
931.000000	0.315938
932.000000	0.315771
933.000000	0.315650
934.000000	0.315705
935.000000	0.315592
936.000000	0.315494
937.000000	0.315473
938.000000	0.315262
939.000000	0.315232
940.000000	0.315279
941.000000	0.315188
942.000000	0.314899
943.000000	0.314895
944.000000	0.315147
945.000000	0.315042
946.000000	0.315020
947.000000	0.315064
948.000000	0.314975
949.000000	0.314866
950.000000	0.314867
951.000000	0.314905
952.000000	0.314846
953.000000	0.314667
954.000000	0.314437
955.000000	0.314213
956.000000	0.314274
957.000000	0.314343
958.000000	0.314299
959.000000	0.314240
960.000000	0.314222
961.000000	0.314297
962.000000	0.314358
963.000000	0.314195
964.000000	0.314242
965.000000	0.314406
966.000000	0.314409
967.000000	0.314360
968.000000	0.314423
969.000000	0.314530
970.000000	0.314603
971.000000	0.314355
972.000000	0.314147
973.000000	0.314209
974.000000	0.314705
975.000000	0.314669
976.000000	0.314503
977.000000	0.314642
978.000000	0.314686
979.000000	0.315065
980.000000	0.315314
981.000000	0.315234
982.000000	0.315450
983.000000	0.315582
984.000000	0.315574
985.000000	0.315623
986.000000	0.315770
987.000000	0.316013
988.000000	0.316095
989.000000	0.315622
990.000000	0.315652
991.000000	0.316131
992.000000	0.316607
993.000000	0.316686
994.000000	0.316646
995.000000	0.316817
996.000000	0.317065
997.000000	0.317039
998.000000	0.317107
999.000000	0.317507
1000.000000	0.317864
1001.000000	0.317599
1002.000000	0.317335
1003.000000	0.317545
1004.000000	0.317627
1005.000000	0.317322
1006.000000	0.317501
1007.000000	0.318254
1008.000000	0.318492
1009.000000	0.318693
1010.000000	0.318536
1011.000000	0.318501
1012.000000	0.318988
1013.000000	0.319131
1014.000000	0.319533
1015.000000	0.320239
1016.000000	0.320093
1017.000000	0.319925
1018.000000	0.320288
1019.000000	0.320500
1020.000000	0.321014
1021.000000	0.320907
1022.000000	0.320411
1023.000000	0.320657
1024.000000	0.320871
1025.000000	0.321108
1026.000000	0.321714
1027.000000	0.322621
1028.000000	0.322661
1029.000000	0.322360
1030.000000	0.322683
1031.000000	0.322921
1032.000000	0.323477
1033.000000	0.324540
1034.000000	0.325183
1035.000000	0.325812
1036.000000	0.326018
1037.000000	0.325506
1038.000000	0.325735
1039.000000	0.326159
1040.000000	0.326949
1041.000000	0.327541
1042.000000	0.327976
1043.000000	0.327769
1044.000000	0.327951
1045.000000	0.328779
1046.000000	0.329206
1047.000000	0.329924
1048.000000	0.330985
1049.000000	0.331485
1050.000000	0.331730
1051.000000	0.332319
1052.000000	0.332901
1053.000000	0.333153
1054.000000	0.333561
1055.000000	0.333989
1056.000000	0.334184
1057.000000	0.334521
1058.000000	0.334837
1059.000000	0.335067
1060.000000	0.335333
1061.000000	0.335797
1062.000000	0.336460
1063.000000	0.337418
1064.000000	0.338110
1065.000000	0.338743
1066.000000	0.339186
1067.000000	0.339337
1068.000000	0.339684
1069.000000	0.339874
1070.000000	0.340240
1071.000000	0.341018
1072.000000	0.341461
1073.000000	0.341802
1074.000000	0.342197
1075.000000	0.342496
1076.000000	0.342894
1077.000000	0.343416
1078.000000	0.344198
1079.000000	0.344916
1080.000000	0.345838
1081.000000	0.346345
1082.000000	0.346719
1083.000000	0.347294
1084.000000	0.347858
1085.000000	0.348398
1086.000000	0.349136
1087.000000	0.349656
1088.000000	0.349584
1089.000000	0.349937
1090.000000	0.350393
1091.000000	0.351078
1092.000000	0.351636
1093.000000	0.352213
1094.000000	0.352646
1095.000000	0.352694
1096.000000	0.353153
1097.000000	0.353739
1098.000000	0.354401
1099.000000	0.355228
1100.000000	0.355955
1101.000000	0.356591
1102.000000	0.357283
1103.000000	0.358037
1104.000000	0.358667
1105.000000	0.359222
1106.000000	0.359869
1107.000000	0.360513
1108.000000	0.360922
1109.000000	0.361192
1110.000000	0.361728
1111.000000	0.362101
1112.000000	0.362171
1113.000000	0.362673
1114.000000	0.363485
1115.000000	0.364069
1116.000000	0.364695
1117.000000	0.365296
1118.000000	0.365769
1119.000000	0.366285
1120.000000	0.366895
1121.000000	0.367420
1122.000000	0.368085
1123.000000	0.368740
1124.000000	0.369029
1125.000000	0.369448
1126.000000	0.369657
1127.000000	0.369982
1128.000000	0.370369
1129.000000	0.370861
1130.000000	0.371441
1131.000000	0.372274
1132.000000	0.372668
1133.000000	0.372881
1134.000000	0.373418
1135.000000	0.373795
1136.000000	0.374267
1137.000000	0.375266
1138.000000	0.375651
1139.000000	0.375562
1140.000000	0.375916
1141.000000	0.376267
1142.000000	0.376563
1143.000000	0.376860
1144.000000	0.377396
1145.000000	0.377729
1146.000000	0.378052
1147.000000	0.378417
1148.000000	0.378866
1149.000000	0.379224
1150.000000	0.379439
1151.000000	0.379854
1152.000000	0.380370
1153.000000	0.380774
1154.000000	0.381089
1155.000000	0.381503
1156.000000	0.381916
1157.000000	0.382345
1158.000000	0.382818
1159.000000	0.383244
1160.000000	0.383586
1161.000000	0.383951
1162.000000	0.384368
1163.000000	0.385028
1164.000000	0.385285
1165.000000	0.385615
1166.000000	0.385994
1167.000000	0.386247
1168.000000	0.386550
1169.000000	0.387047
1170.000000	0.387362
1171.000000	0.387568
1172.000000	0.387914
1173.000000	0.388206
1174.000000	0.388575
1175.000000	0.389064
1176.000000	0.389376
1177.000000	0.389747
1178.000000	0.390052
1179.000000	0.390157
1180.000000	0.390378
1181.000000	0.390792
1182.000000	0.391084
1183.000000	0.391575
1184.000000	0.392012
1185.000000	0.392393
1186.000000	0.392796
1187.000000	0.393032
1188.000000	0.393122
1189.000000	0.393279
1190.000000	0.393349
1191.000000	0.393564
1192.000000	0.394054
1193.000000	0.394498
1194.000000	0.394840
1195.000000	0.395165
1196.000000	0.395403
1197.000000	0.395629
1198.000000	0.395810
1199.000000	0.396076
1200.000000	0.396430
1201.000000	0.396633
1202.000000	0.396799
1203.000000	0.397053
1204.000000	0.397199
1205.000000	0.397381
1206.000000	0.397570
1207.000000	0.398004
1208.000000	0.398162
1209.000000	0.398243
1210.000000	0.398397
1211.000000	0.398481
1212.000000	0.398609
1213.000000	0.398847
1214.000000	0.399091
1215.000000	0.399324
1216.000000	0.399531
1217.000000	0.399702
1218.000000	0.399896
1219.000000	0.400127
1220.000000	0.400356
1221.000000	0.400589
1222.000000	0.400805
1223.000000	0.400982
1224.000000	0.401099
1225.000000	0.401275
1226.000000	0.401428
1227.000000	0.401446
1228.000000	0.401670
1229.000000	0.401756
1230.000000	0.401721
1231.000000	0.401794
1232.000000	0.401996
1233.000000	0.402282
1234.000000	0.402692
1235.000000	0.402959
1236.000000	0.403158
1237.000000	0.403372
1238.000000	0.403391
1239.000000	0.403505
1240.000000	0.403633
1241.000000	0.403817
1242.000000	0.403945
1243.000000	0.404149
1244.000000	0.404349
1245.000000	0.404454
1246.000000	0.404546
1247.000000	0.404724
1248.000000	0.404912
1249.000000	0.405136
1250.000000	0.405389
1251.000000	0.405534
1252.000000	0.405605
1253.000000	0.405579
1254.000000	0.405640
1255.000000	0.405644
1256.000000	0.405738
1257.000000	0.406006
1258.000000	0.406150
1259.000000	0.406081
1260.000000	0.406247
1261.000000	0.406415
1262.000000	0.406527
1263.000000	0.406720
1264.000000	0.407019
1265.000000	0.407053
1266.000000	0.406995
1267.000000	0.406980
1268.000000	0.406977
1269.000000	0.406954
1270.000000	0.407004
1271.000000	0.407242
1272.000000	0.407501
1273.000000	0.407584
1274.000000	0.407689
1275.000000	0.407686
1276.000000	0.407445
1277.000000	0.407456
1278.000000	0.407480
1279.000000	0.407480
1280.000000	0.407415
1281.000000	0.407415
1282.000000	0.407506
1283.000000	0.407652
1284.000000	0.407858
1285.000000	0.407931
1286.000000	0.407933
1287.000000	0.407820
1288.000000	0.407798
1289.000000	0.407813
1290.000000	0.407709
1291.000000	0.407786
1292.000000	0.407824
1293.000000	0.407726
1294.000000	0.407874
1295.000000	0.408039
1296.000000	0.408094
1297.000000	0.408272
1298.000000	0.408389
1299.000000	0.408294
1300.000000	0.408334
1301.000000	0.408448
1302.000000	0.408399
1303.000000	0.408413
1304.000000	0.408446
1305.000000	0.408531
1306.000000	0.408537
1307.000000	0.408682
1308.000000	0.408725
1309.000000	0.408654
1310.000000	0.408604
1311.000000	0.408576
1312.000000	0.408465
1313.000000	0.408335
1314.000000	0.408111
1315.000000	0.407931
1316.000000	0.407823
1317.000000	0.407742
1318.000000	0.407712
1319.000000	0.407448
1320.000000	0.407222
1321.000000	0.407031
1322.000000	0.406783
1323.000000	0.406858
1324.000000	0.407085
1325.000000	0.407118
1326.000000	0.407168
1327.000000	0.407149
1328.000000	0.406902
1329.000000	0.406674
1330.000000	0.406411
1331.000000	0.406318
1332.000000	0.406370
1333.000000	0.406321
1334.000000	0.406407
1335.000000	0.406439
1336.000000	0.406302
1337.000000	0.406246
1338.000000	0.406212
1339.000000	0.406221
1340.000000	0.406027
1341.000000	0.405961
1342.000000	0.405884
1343.000000	0.405620
1344.000000	0.405552
1345.000000	0.405469
1346.000000	0.405246
1347.000000	0.405044
1348.000000	0.404970
1349.000000	0.404814
1350.000000	0.404747
1351.000000	0.404709
1352.000000	0.404416
1353.000000	0.404018
1354.000000	0.403922
1355.000000	0.403785
1356.000000	0.403673
1357.000000	0.403593
1358.000000	0.403487
1359.000000	0.403425
1360.000000	0.403270
1361.000000	0.403175
1362.000000	0.403007
1363.000000	0.402649
1364.000000	0.402461
1365.000000	0.402367
1366.000000	0.402179
1367.000000	0.402015
1368.000000	0.401694
1369.000000	0.401516
1370.000000	0.401287
1371.000000	0.400870
1372.000000	0.400507
1373.000000	0.400075
1374.000000	0.399585
1375.000000	0.399361
1376.000000	0.399176
1377.000000	0.398797
1378.000000	0.398384
1379.000000	0.397570
1380.000000	0.396647
1381.000000	0.395813
1382.000000	0.394780
1383.000000	0.393906
1384.000000	0.392920
1385.000000	0.391610
1386.000000	0.390506
1387.000000	0.389454
1388.000000	0.388092
1389.000000	0.386651
1390.000000	0.385193
1391.000000	0.383593
1392.000000	0.382126
1393.000000	0.380629
1394.000000	0.379294
1395.000000	0.377863
1396.000000	0.376428
1397.000000	0.374813
1398.000000	0.373111
1399.000000	0.371409
1400.000000	0.369485
1401.000000	0.367639
1402.000000	0.365887
1403.000000	0.364115
1404.000000	0.362483
1405.000000	0.360859
1406.000000	0.359249
1407.000000	0.357800
1408.000000	0.356216
1409.000000	0.354713
1410.000000	0.353548
1411.000000	0.352382
1412.000000	0.351215
1413.000000	0.350365
1414.000000	0.349481
1415.000000	0.348623
1416.000000	0.348130
1417.000000	0.347834
1418.000000	0.347591
1419.000000	0.347531
1420.000000	0.347466
1421.000000	0.347359
1422.000000	0.347151
1423.000000	0.346966
1424.000000	0.346619
1425.000000	0.346207
1426.000000	0.345801
1427.000000	0.345356
1428.000000	0.344902
1429.000000	0.344423
1430.000000	0.344035
1431.000000	0.343824
1432.000000	0.343657
1433.000000	0.343575
1434.000000	0.343720
1435.000000	0.343977
1436.000000	0.344549
1437.000000	0.345427
1438.000000	0.346389
1439.000000	0.347632
1440.000000	0.348928
1441.000000	0.350404
1442.000000	0.351927
1443.000000	0.353478
1444.000000	0.355131
1445.000000	0.356762
1446.000000	0.358293
1447.000000	0.359652
1448.000000	0.360860
1449.000000	0.361960
1450.000000	0.362848
1451.000000	0.363587
1452.000000	0.364132
1453.000000	0.364455
1454.000000	0.364663
1455.000000	0.364984
1456.000000	0.365313
1457.000000	0.365438
1458.000000	0.365568
1459.000000	0.365661
1460.000000	0.365698
1461.000000	0.365861
1462.000000	0.366014
1463.000000	0.366083
1464.000000	0.366258
1465.000000	0.366598
1466.000000	0.366963
1467.000000	0.367337
1468.000000	0.367696
1469.000000	0.368088
1470.000000	0.368440
1471.000000	0.368899
1472.000000	0.369368
1473.000000	0.369817
1474.000000	0.370265
1475.000000	0.370813
1476.000000	0.371372
1477.000000	0.371871
1478.000000	0.372389
1479.000000	0.372735
1480.000000	0.373053
1481.000000	0.373433
1482.000000	0.373857
1483.000000	0.374360
1484.000000	0.375009
1485.000000	0.375508
1486.000000	0.375941
1487.000000	0.376447
1488.000000	0.376917
1489.000000	0.377485
1490.000000	0.378095
1491.000000	0.378616
1492.000000	0.378998
1493.000000	0.379453
1494.000000	0.379859
1495.000000	0.380216
1496.000000	0.380590
1497.000000	0.380988
1498.000000	0.381383
1499.000000	0.381661
1500.000000	0.382105
1501.000000	0.382471
1502.000000	0.382765
1503.000000	0.383148
1504.000000	0.383451
1505.000000	0.383727
1506.000000	0.383892
1507.000000	0.384035
1508.000000	0.384352
1509.000000	0.384591
1510.000000	0.384915
1511.000000	0.385290
1512.000000	0.385442
1513.000000	0.385679
1514.000000	0.385877
1515.000000	0.385962
1516.000000	0.386270
1517.000000	0.386507
1518.000000	0.386680
1519.000000	0.386835
1520.000000	0.387012
1521.000000	0.387137
1522.000000	0.387389
1523.000000	0.387766
1524.000000	0.387924
1525.000000	0.388107
1526.000000	0.388191
1527.000000	0.388262
1528.000000	0.388528
1529.000000	0.388604
1530.000000	0.388607
1531.000000	0.388797
1532.000000	0.388959
1533.000000	0.389186
1534.000000	0.389527
1535.000000	0.389854
1536.000000	0.390064
1537.000000	0.390332
1538.000000	0.390635
1539.000000	0.390767
1540.000000	0.390851
1541.000000	0.391087
1542.000000	0.391331
1543.000000	0.391516
1544.000000	0.391744
1545.000000	0.391979
1546.000000	0.392166
1547.000000	0.392393
1548.000000	0.392605
1549.000000	0.392667
1550.000000	0.392629
1551.000000	0.392648
1552.000000	0.392796
1553.000000	0.392938
1554.000000	0.393008
1555.000000	0.393114
1556.000000	0.393296
1557.000000	0.393378
1558.000000	0.393480
1559.000000	0.393625
1560.000000	0.393647
1561.000000	0.393563
1562.000000	0.393577
1563.000000	0.393627
1564.000000	0.393704
1565.000000	0.393843
1566.000000	0.393859
1567.000000	0.393963
1568.000000	0.394101
1569.000000	0.394286
1570.000000	0.394399
1571.000000	0.394550
1572.000000	0.394589
1573.000000	0.394560
1574.000000	0.394550
1575.000000	0.394449
1576.000000	0.394512
1577.000000	0.394646
1578.000000	0.394679
1579.000000	0.394855
1580.000000	0.394968
1581.000000	0.395058
1582.000000	0.395096
1583.000000	0.395111
1584.000000	0.395108
1585.000000	0.395161
1586.000000	0.395235
1587.000000	0.395309
1588.000000	0.395411
1589.000000	0.395550
1590.000000	0.395585
1591.000000	0.395646
1592.000000	0.395729
1593.000000	0.395784
1594.000000	0.395805
1595.000000	0.395916
1596.000000	0.395977
1597.000000	0.395974
1598.000000	0.396037
1599.000000	0.396177
1600.000000	0.396256
1601.000000	0.396468
1602.000000	0.396496
1603.000000	0.396457
1604.000000	0.396488
1605.000000	0.396497
1606.000000	0.396459
1607.000000	0.396545
1608.000000	0.396531
1609.000000	0.396423
1610.000000	0.396391
1611.000000	0.396414
1612.000000	0.396415
1613.000000	0.396552
1614.000000	0.396624
1615.000000	0.396776
1616.000000	0.396904
1617.000000	0.396937
1618.000000	0.396948
1619.000000	0.396902
1620.000000	0.396938
1621.000000	0.397085
1622.000000	0.397164
1623.000000	0.397109
1624.000000	0.397213
1625.000000	0.397151
1626.000000	0.397130
1627.000000	0.397329
1628.000000	0.397482
1629.000000	0.397541
1630.000000	0.397688
1631.000000	0.397849
1632.000000	0.397905
1633.000000	0.397917
1634.000000	0.397970
1635.000000	0.398106
1636.000000	0.398148
1637.000000	0.398131
1638.000000	0.398116
1639.000000	0.398113
1640.000000	0.398075
1641.000000	0.398189
1642.000000	0.398222
1643.000000	0.398189
1644.000000	0.398189
1645.000000	0.398173
1646.000000	0.398120
1647.000000	0.398104
1648.000000	0.398071
1649.000000	0.398106
1650.000000	0.398154
1651.000000	0.398354
1652.000000	0.398373
1653.000000	0.398201
1654.000000	0.398231
1655.000000	0.398152
1656.000000	0.398030
1657.000000	0.398117
1658.000000	0.398101
1659.000000	0.398091
1660.000000	0.398135
1661.000000	0.398112
1662.000000	0.398175
1663.000000	0.398240
1664.000000	0.398264
1665.000000	0.398313
1666.000000	0.398490
1667.000000	0.398563
1668.000000	0.398645
1669.000000	0.398853
1670.000000	0.398823
1671.000000	0.398753
1672.000000	0.398750
1673.000000	0.398679
1674.000000	0.398624
1675.000000	0.398594
1676.000000	0.398575
1677.000000	0.398486
1678.000000	0.398463
1679.000000	0.398496
1680.000000	0.398339
1681.000000	0.398202
1682.000000	0.398255
1683.000000	0.398302
1684.000000	0.398418
1685.000000	0.398689
1686.000000	0.398630
1687.000000	0.398437
1688.000000	0.398377
1689.000000	0.398348
1690.000000	0.398380
1691.000000	0.398688
1692.000000	0.398819
1693.000000	0.398861
1694.000000	0.399005
1695.000000	0.399026
1696.000000	0.399273
1697.000000	0.399306
1698.000000	0.399284
1699.000000	0.399303
1700.000000	0.399166
1701.000000	0.399205
1702.000000	0.399173
1703.000000	0.399100
1704.000000	0.399128
1705.000000	0.399139
1706.000000	0.399200
1707.000000	0.399235
1708.000000	0.399244
1709.000000	0.399162
1710.000000	0.399131
1711.000000	0.399116
1712.000000	0.399095
1713.000000	0.399072
1714.000000	0.399105
1715.000000	0.399132
1716.000000	0.399184
1717.000000	0.399201
1718.000000	0.399161
1719.000000	0.399153
1720.000000	0.399217
1721.000000	0.399230
1722.000000	0.399227
1723.000000	0.399273
1724.000000	0.399379
1725.000000	0.399414
1726.000000	0.399376
1727.000000	0.399314
1728.000000	0.399047
1729.000000	0.398850
1730.000000	0.398839
1731.000000	0.398807
1732.000000	0.398818
1733.000000	0.398855
1734.000000	0.398782
1735.000000	0.398697
1736.000000	0.398526
1737.000000	0.398429
1738.000000	0.398382
1739.000000	0.398280
1740.000000	0.398134
1741.000000	0.398087
1742.000000	0.398046
1743.000000	0.398113
1744.000000	0.398330
1745.000000	0.398294
1746.000000	0.398169
1747.000000	0.397863
1748.000000	0.397714
1749.000000	0.397837
1750.000000	0.397726
1751.000000	0.397743
1752.000000	0.397825
1753.000000	0.397481
1754.000000	0.397377
1755.000000	0.397512
1756.000000	0.397469
1757.000000	0.397397
1758.000000	0.397358
1759.000000	0.397173
1760.000000	0.397088
1761.000000	0.397089
1762.000000	0.397024
1763.000000	0.396958
1764.000000	0.396904
1765.000000	0.396815
1766.000000	0.396705
1767.000000	0.396444
1768.000000	0.396284
1769.000000	0.396280
1770.000000	0.396250
1771.000000	0.396239
1772.000000	0.396160
1773.000000	0.395890
1774.000000	0.395824
1775.000000	0.395996
1776.000000	0.395928
1777.000000	0.395786
1778.000000	0.395635
1779.000000	0.395307
1780.000000	0.395098
1781.000000	0.394880
1782.000000	0.394840
1783.000000	0.394925
1784.000000	0.395127
1785.000000	0.395111
1786.000000	0.395052
1787.000000	0.395225
1788.000000	0.395469
1789.000000	0.395700
1790.000000	0.395822
1791.000000	0.395824
1792.000000	0.395760
1793.000000	0.395763
1794.000000	0.395803
1795.000000	0.395844
1796.000000	0.395960
1797.000000	0.395898
1798.000000	0.395589
1799.000000	0.395524
1800.000000	0.395646
1801.000000	0.395837
1802.000000	0.395353
1803.000000	0.395570
1804.000000	0.395981
1805.000000	0.396615
1806.000000	0.396966
1807.000000	0.398404
1808.000000	0.398672
1809.000000	0.397906
1810.000000	0.397008
1811.000000	0.396491
1812.000000	0.395552
1813.000000	0.395499
1814.000000	0.396037
1815.000000	0.396405
1816.000000	0.397693
1817.000000	0.397769
1818.000000	0.396952
1819.000000	0.397175
1820.000000	0.396622
1821.000000	0.394909
1822.000000	0.394693
1823.000000	0.395261
1824.000000	0.395084
1825.000000	0.395468
1826.000000	0.395378
1827.000000	0.394569
1828.000000	0.393269
1829.000000	0.393177
1830.000000	0.393497
1831.000000	0.393847
1832.000000	0.395119
1833.000000	0.395274
1834.000000	0.394682
1835.000000	0.394608
1836.000000	0.394172
1837.000000	0.394258
1838.000000	0.394720
1839.000000	0.395364
1840.000000	0.395774
1841.000000	0.394955
1842.000000	0.394527
1843.000000	0.393535
1844.000000	0.393165
1845.000000	0.392656
1846.000000	0.392836
1847.000000	0.393688
1848.000000	0.393842
1849.000000	0.394184
1850.000000	0.394615
1851.000000	0.394402
1852.000000	0.393481
1853.000000	0.392801
1854.000000	0.391405
1855.000000	0.390495
1856.000000	0.389577
1857.000000	0.388681
1858.000000	0.388021
1859.000000	0.388100
1860.000000	0.387397
1861.000000	0.386541
1862.000000	0.385675
1863.000000	0.384474
1864.000000	0.383411
1865.000000	0.382471
1866.000000	0.381637
1867.000000	0.380767
1868.000000	0.380133
1869.000000	0.379514
1870.000000	0.377953
1871.000000	0.376066
1872.000000	0.374197
1873.000000	0.372463
1874.000000	0.370774
1875.000000	0.369165
1876.000000	0.367584
1877.000000	0.365347
1878.000000	0.363036
1879.000000	0.359747
1880.000000	0.356938
1881.000000	0.353977
1882.000000	0.350792
1883.000000	0.347886
1884.000000	0.344477
1885.000000	0.340439
1886.000000	0.336338
1887.000000	0.332185
1888.000000	0.327157
1889.000000	0.321620
1890.000000	0.316286
1891.000000	0.310757
1892.000000	0.305133
1893.000000	0.300430
1894.000000	0.296263
1895.000000	0.291652
1896.000000	0.287160
1897.000000	0.282985
1898.000000	0.278606
1899.000000	0.273225
1900.000000	0.268577
1901.000000	0.264810
1902.000000	0.261002
1903.000000	0.258286
1904.000000	0.255914
1905.000000	0.253318
1906.000000	0.251129
1907.000000	0.249182
1908.000000	0.247647
1909.000000	0.246847
1910.000000	0.246413
1911.000000	0.246334
1912.000000	0.246749
1913.000000	0.246875
1914.000000	0.247024
1915.000000	0.247163
1916.000000	0.247286
1917.000000	0.247514
1918.000000	0.247922
1919.000000	0.248345
1920.000000	0.249124
1921.000000	0.249815
1922.000000	0.250599
1923.000000	0.251596
1924.000000	0.252250
1925.000000	0.253523
1926.000000	0.254522
1927.000000	0.255324
1928.000000	0.256275
1929.000000	0.257475
1930.000000	0.258013
1931.000000	0.259070
1932.000000	0.260709
1933.000000	0.261809
1934.000000	0.262705
1935.000000	0.263122
1936.000000	0.263172
1937.000000	0.263510
1938.000000	0.264210
1939.000000	0.264876
1940.000000	0.265942
1941.000000	0.266368
1942.000000	0.266605
1943.000000	0.266819
1944.000000	0.266742
1945.000000	0.266986
1946.000000	0.267715
1947.000000	0.268582
1948.000000	0.268929
1949.000000	0.269316
1950.000000	0.269419
1951.000000	0.269483
1952.000000	0.269176
1953.000000	0.269343
1954.000000	0.269728
1955.000000	0.270496
1956.000000	0.271069
1957.000000	0.271215
1958.000000	0.271631
1959.000000	0.272168
1960.000000	0.272488
1961.000000	0.273474
1962.000000	0.274185
1963.000000	0.274971
1964.000000	0.275248
1965.000000	0.276133
1966.000000	0.276724
1967.000000	0.277567
1968.000000	0.278675
1969.000000	0.278970
1970.000000	0.279631
1971.000000	0.279729
1972.000000	0.279594
1973.000000	0.280103
1974.000000	0.281270
1975.000000	0.281858
1976.000000	0.282437
1977.000000	0.283964
1978.000000	0.284229
1979.000000	0.284632
1980.000000	0.285575
1981.000000	0.285684
1982.000000	0.286174
1983.000000	0.287352
1984.000000	0.288279
1985.000000	0.289529
1986.000000	0.290319
1987.000000	0.291141
1988.000000	0.291468
1989.000000	0.291325
1990.000000	0.292050
1991.000000	0.292781
1992.000000	0.293344
1993.000000	0.294440
1994.000000	0.295073
1995.000000	0.295481
1996.000000	0.296197
1997.000000	0.296646
1998.000000	0.296857
1999.000000	0.297415
2000.000000	0.298008
2001.000000	0.298531
2002.000000	0.299485
2003.000000	0.300892
2004.000000	0.302310
2005.000000	0.303704
2006.000000	0.305215
2007.000000	0.306679
2008.000000	0.307974
2009.000000	0.309102
2010.000000	0.310141
2011.000000	0.310990
2012.000000	0.311658
2013.000000	0.311867
2014.000000	0.312334
2015.000000	0.313354
2016.000000	0.314402
2017.000000	0.315614
2018.000000	0.316868
2019.000000	0.317193
2020.000000	0.317400
2021.000000	0.317928
2022.000000	0.318178
2023.000000	0.318799
2024.000000	0.320104
2025.000000	0.321026
2026.000000	0.321514
2027.000000	0.322573
2028.000000	0.323806
2029.000000	0.324354
2030.000000	0.325117
2031.000000	0.325560
2032.000000	0.325284
2033.000000	0.325759
2034.000000	0.326153
2035.000000	0.326570
2036.000000	0.327135
2037.000000	0.328211
2038.000000	0.328718
2039.000000	0.329075
2040.000000	0.329853
2041.000000	0.329696
2042.000000	0.330248
2043.000000	0.330992
2044.000000	0.331526
2045.000000	0.331976
2046.000000	0.331967
2047.000000	0.332145
2048.000000	0.331767
2049.000000	0.332034
2050.000000	0.332265
2051.000000	0.332765
2052.000000	0.333607
2053.000000	0.334086
2054.000000	0.334855
2055.000000	0.335628
2056.000000	0.336126
2057.000000	0.336654
2058.000000	0.337166
2059.000000	0.337620
2060.000000	0.338107
2061.000000	0.338477
2062.000000	0.338949
2063.000000	0.339628
2064.000000	0.340100
2065.000000	0.341014
2066.000000	0.341205
2067.000000	0.341104
2068.000000	0.341447
2069.000000	0.341545
2070.000000	0.341877
2071.000000	0.342960
2072.000000	0.343370
2073.000000	0.343147
2074.000000	0.342897
2075.000000	0.342731
2076.000000	0.342145
2077.000000	0.342162
2078.000000	0.342351
2079.000000	0.342800
2080.000000	0.343885
2081.000000	0.344426
2082.000000	0.344834
2083.000000	0.345746
2084.000000	0.346005
2085.000000	0.346285
2086.000000	0.346790
2087.000000	0.347225
2088.000000	0.347949
2089.000000	0.348495
2090.000000	0.348865
2091.000000	0.349260
2092.000000	0.349687
2093.000000	0.349800
2094.000000	0.350234
2095.000000	0.351016
2096.000000	0.351570
2097.000000	0.352048
2098.000000	0.352439
2099.000000	0.352592
2100.000000	0.353190
2101.000000	0.353602
2102.000000	0.353424
2103.000000	0.353563
2104.000000	0.353466
2105.000000	0.353635
2106.000000	0.354299
2107.000000	0.354505
2108.000000	0.354383
2109.000000	0.354493
2110.000000	0.354148
2111.000000	0.353933
2112.000000	0.353733
2113.000000	0.353691
2114.000000	0.353409
2115.000000	0.353276
2116.000000	0.353410
2117.000000	0.354087
2118.000000	0.354843
2119.000000	0.356096
2120.000000	0.356456
2121.000000	0.356196
2122.000000	0.356162
2123.000000	0.355384
2124.000000	0.355394
2125.000000	0.356284
2126.000000	0.356605
2127.000000	0.357002
2128.000000	0.357351
2129.000000	0.357294
2130.000000	0.357412
2131.000000	0.357349
2132.000000	0.356616
2133.000000	0.356037
2134.000000	0.355334
2135.000000	0.354769
2136.000000	0.355246
2137.000000	0.355219
2138.000000	0.355351
2139.000000	0.355074
2140.000000	0.354557
2141.000000	0.354120
2142.000000	0.353181
2143.000000	0.352681
2144.000000	0.352588
2145.000000	0.352600
2146.000000	0.353142
2147.000000	0.354107
2148.000000	0.353370
2149.000000	0.352802
2150.000000	0.351656
2151.000000	0.350242
2152.000000	0.351105
2153.000000	0.351954
2154.000000	0.352097
2155.000000	0.352715
2156.000000	0.352568
2157.000000	0.350968
2158.000000	0.350543
2159.000000	0.350492
2160.000000	0.350386
2161.000000	0.350916
2162.000000	0.351117
2163.000000	0.351005
2164.000000	0.350863
2165.000000	0.350570
2166.000000	0.350322
2167.000000	0.349756
2168.000000	0.349072
2169.000000	0.348651
2170.000000	0.347658
2171.000000	0.347334
2172.000000	0.347416
2173.000000	0.347576
2174.000000	0.347913
2175.000000	0.348689
2176.000000	0.350155
2177.000000	0.350630
2178.000000	0.351282
2179.000000	0.351428
2180.000000	0.349892
2181.000000	0.350425
2182.000000	0.351821
2183.000000	0.352066
2184.000000	0.353036
2185.000000	0.353127
2186.000000	0.351617
2187.000000	0.350799
2188.000000	0.350460
2189.000000	0.349910
2190.000000	0.350581
2191.000000	0.352344
2192.000000	0.352289
2193.000000	0.352096
2194.000000	0.350987
2195.000000	0.347073
2196.000000	0.345673
2197.000000	0.345799
2198.000000	0.344791
2199.000000	0.344119
2200.000000	0.343305
2201.000000	0.341211
2202.000000	0.340128
2203.000000	0.339317
2204.000000	0.339927
2205.000000	0.340795
2206.000000	0.340236
2207.000000	0.338869
2208.000000	0.338642
2209.000000	0.337598
2210.000000	0.338545
2211.000000	0.340645
2212.000000	0.341704
2213.000000	0.341406
2214.000000	0.339344
2215.000000	0.338090
2216.000000	0.334678
2217.000000	0.335160
2218.000000	0.338391
2219.000000	0.340306
2220.000000	0.344665
2221.000000	0.346489
2222.000000	0.345914
2223.000000	0.346397
2224.000000	0.346317
2225.000000	0.346999
2226.000000	0.347525
2227.000000	0.348170
2228.000000	0.350389
2229.000000	0.349344
2230.000000	0.347692
2231.000000	0.347984
2232.000000	0.346081
2233.000000	0.344262
2234.000000	0.344806
2235.000000	0.344156
2236.000000	0.344119
2237.000000	0.346175
2238.000000	0.344883
2239.000000	0.340865
2240.000000	0.339541
2241.000000	0.337203
2242.000000	0.336378
2243.000000	0.337995
2244.000000	0.338659
2245.000000	0.338314
2246.000000	0.339320
2247.000000	0.342178
2248.000000	0.343780
2249.000000	0.345666
2250.000000	0.347433
2251.000000	0.346453
2252.000000	0.345161
2253.000000	0.343358
2254.000000	0.341343
2255.000000	0.339404
2256.000000	0.338028
2257.000000	0.338921
2258.000000	0.338790
2259.000000	0.338318
2260.000000	0.338636
2261.000000	0.336897
2262.000000	0.332774
2263.000000	0.330603
2264.000000	0.327812
2265.000000	0.327157
2266.000000	0.329507
2267.000000	0.328072
2268.000000	0.325459
2269.000000	0.323279
2270.000000	0.317733
2271.000000	0.315935
2272.000000	0.318914
2273.000000	0.318077
2274.000000	0.316994
2275.000000	0.314698
2276.000000	0.310934
2277.000000	0.304577
2278.000000	0.297721
2279.000000	0.292527
2280.000000	0.288160
2281.000000	0.283480
2282.000000	0.283398
2283.000000	0.285155
2284.000000	0.286218
2285.000000	0.287827
2286.000000	0.287261
2287.000000	0.285576
2288.000000	0.284648
2289.000000	0.284376
2290.000000	0.283527
2291.000000	0.283971
2292.000000	0.283319
2293.000000	0.283174
2294.000000	0.285808
2295.000000	0.291839
2296.000000	0.294879
2297.000000	0.298924
2298.000000	0.301421
2299.000000	0.300531
2300.000000	0.302781
2301.000000	0.307774
2302.000000	0.310443
2303.000000	0.313654
2304.000000	0.315101
2305.000000	0.313918
2306.000000	0.313098
2307.000000	0.311836
2308.000000	0.309966
2309.000000	0.308653
2310.000000	0.309830
2311.000000	0.309646
2312.000000	0.312058
2313.000000	0.313911
2314.000000	0.312685
2315.000000	0.315529
2316.000000	0.317523
2317.000000	0.317279
2318.000000	0.318982
2319.000000	0.319394
2320.000000	0.318614
2321.000000	0.320304
2322.000000	0.320661
2323.000000	0.318538
2324.000000	0.317335
2325.000000	0.315459
2326.000000	0.314235
2327.000000	0.314350
2328.000000	0.312873
2329.000000	0.311685
2330.000000	0.311018
2331.000000	0.309718
2332.000000	0.309300
2333.000000	0.308652
2334.000000	0.307247
2335.000000	0.306219
2336.000000	0.305088
2337.000000	0.303362
2338.000000	0.300579
2339.000000	0.298316
2340.000000	0.295367
2341.000000	0.293906
2342.000000	0.293125
2343.000000	0.294342
2344.000000	0.299319
2345.000000	0.299730
2346.000000	0.298980
2347.000000	0.298707
2348.000000	0.296098
2349.000000	0.293563
2350.000000	0.292804
2351.000000	0.292019
2352.000000	0.291058
2353.000000	0.288821
2354.000000	0.289401
2355.000000	0.292044
2356.000000	0.292637
2357.000000	0.293180
2358.000000	0.292444
2359.000000	0.289223
2360.000000	0.285437
2361.000000	0.283769
2362.000000	0.283312
2363.000000	0.284538
2364.000000	0.287613
2365.000000	0.288652
2366.000000	0.290236
2367.000000	0.289658
2368.000000	0.283947
2369.000000	0.281632
2370.000000	0.276655
2371.000000	0.272389
2372.000000	0.276638
2373.000000	0.275171
2374.000000	0.273628
2375.000000	0.272683
2376.000000	0.264255
2377.000000	0.262382
2378.000000	0.267437
2379.000000	0.272031
2380.000000	0.277168
2381.000000	0.277444
2382.000000	0.275301
2383.000000	0.272168
2384.000000	0.267743
2385.000000	0.269638
2386.000000	0.266736
2387.000000	0.264283
2388.000000	0.267909
2389.000000	0.262769
2390.000000	0.258005
2391.000000	0.252228
2392.000000	0.239750
2393.000000	0.233313
2394.000000	0.233425
2395.000000	0.236527
2396.000000	0.244728
2397.000000	0.252537
2398.000000	0.252564
2399.000000	0.250233
2400.000000	0.247200
2401.000000	0.239612
2402.000000	0.236300
2403.000000	0.236996
2404.000000	0.235874
2405.000000	0.237953
2406.000000	0.243873
2407.000000	0.244455
2408.000000	0.246879
2409.000000	0.253812
2410.000000	0.255206
2411.000000	0.258832
2412.000000	0.254346
2413.000000	0.243712
2414.000000	0.233705
2415.000000	0.220679
2416.000000	0.219122
2417.000000	0.223016
2418.000000	0.229213
2419.000000	0.240507
2420.000000	0.248029
2421.000000	0.255969
2422.000000	0.263564
2423.000000	0.265840
2424.000000	0.265971
2425.000000	0.256299
2426.000000	0.238677
2427.000000	0.230485
2428.000000	0.231619
2429.000000	0.232472
2430.000000	0.240048
2431.000000	0.253029
2432.000000	0.250641
2433.000000	0.250868
2434.000000	0.262615
2435.000000	0.260498
2436.000000	0.254401
2437.000000	0.247059
2438.000000	0.236279
2439.000000	0.221183
2440.000000	0.208390
2441.000000	0.215501
2442.000000	0.218990
2443.000000	0.222267
2444.000000	0.231600
2445.000000	0.225133
2446.000000	0.219090
2447.000000	0.215852
2448.000000	0.207423
2449.000000	0.201592
2450.000000	0.195958
2451.000000	0.189957
2452.000000	0.198331
2453.000000	0.220041
2454.000000	0.228304
2455.000000	0.231671
2456.000000	0.235498
2457.000000	0.230092
2458.000000	0.234306
2459.000000	0.245579
2460.000000	0.244078
2461.000000	0.243433
2462.000000	0.241291
2463.000000	0.235343
2464.000000	0.241059
2465.000000	0.246456
2466.000000	0.237474
2467.000000	0.220550
2468.000000	0.217904
2469.000000	0.220788
2470.000000	0.218928
2471.000000	0.216621
2472.000000	0.195852
2473.000000	0.170935
2474.000000	0.169413
2475.000000	0.180424
2476.000000	0.197973
2477.000000	0.207083
2478.000000	0.203091
2479.000000	0.208458
2480.000000	0.210181
2481.000000	0.213558
2482.000000	0.218554
2483.000000	0.224365
2484.000000	0.216246
2485.000000	0.218392
2486.000000	0.228895
2487.000000	0.181847
2488.000000	0.175488
2489.000000	0.165157
2490.000000	0.110504
2491.000000	0.194886
2492.000000	0.200818
2493.000000	0.199276
2494.000000	0.201096
2495.000000	0.120001
2496.000000	0.110018
2497.000000	0.152654
2498.000000	0.161216
2499.000000	0.212369
2500.000000	0.227697
