# Wavelength	Nau-2_20_FV7_80_00000.asd.rts.txt
350.000000	0.162015
351.000000	0.180517
352.000000	0.176552
353.000000	0.175702
354.000000	0.187448
355.000000	0.177670
356.000000	0.171091
357.000000	0.172658
358.000000	0.171700
359.000000	0.172970
360.000000	0.174540
361.000000	0.173661
362.000000	0.174919
363.000000	0.174587
364.000000	0.171707
365.000000	0.175245
366.000000	0.179063
367.000000	0.178984
368.000000	0.172170
369.000000	0.170181
370.000000	0.173403
371.000000	0.177564
372.000000	0.173973
373.000000	0.168351
374.000000	0.167937
375.000000	0.180586
376.000000	0.185524
377.000000	0.179971
378.000000	0.177372
379.000000	0.177803
380.000000	0.179156
381.000000	0.179296
382.000000	0.181219
383.000000	0.183378
384.000000	0.184293
385.000000	0.182426
386.000000	0.184033
387.000000	0.188843
388.000000	0.189472
389.000000	0.189143
390.000000	0.188380
391.000000	0.186943
392.000000	0.186948
393.000000	0.187653
394.000000	0.188072
395.000000	0.187702
396.000000	0.187682
397.000000	0.188251
398.000000	0.188550
399.000000	0.189255
400.000000	0.190420
401.000000	0.191672
402.000000	0.191336
403.000000	0.191031
404.000000	0.192129
405.000000	0.191972
406.000000	0.191920
407.000000	0.192475
408.000000	0.192306
409.000000	0.192750
410.000000	0.193622
411.000000	0.193878
412.000000	0.194054
413.000000	0.194254
414.000000	0.194525
415.000000	0.194913
416.000000	0.195600
417.000000	0.196399
418.000000	0.196238
419.000000	0.195671
420.000000	0.195514
421.000000	0.196985
422.000000	0.197613
423.000000	0.197487
424.000000	0.197604
425.000000	0.198426
426.000000	0.199216
427.000000	0.199375
428.000000	0.199094
429.000000	0.199254
430.000000	0.199954
431.000000	0.200296
432.000000	0.200311
433.000000	0.200408
434.000000	0.201235
435.000000	0.201343
436.000000	0.201012
437.000000	0.200917
438.000000	0.202100
439.000000	0.202566
440.000000	0.201754
441.000000	0.201628
442.000000	0.202244
443.000000	0.203151
444.000000	0.203529
445.000000	0.203443
446.000000	0.203326
447.000000	0.203539
448.000000	0.204041
449.000000	0.204706
450.000000	0.205349
451.000000	0.205574
452.000000	0.205827
453.000000	0.206109
454.000000	0.206069
455.000000	0.206465
456.000000	0.207146
457.000000	0.207443
458.000000	0.207547
459.000000	0.207688
460.000000	0.208046
461.000000	0.208326
462.000000	0.208622
463.000000	0.208897
464.000000	0.209316
465.000000	0.209645
466.000000	0.209914
467.000000	0.210431
468.000000	0.210761
469.000000	0.210900
470.000000	0.211078
471.000000	0.211074
472.000000	0.211124
473.000000	0.211418
474.000000	0.211874
475.000000	0.212192
476.000000	0.212437
477.000000	0.212777
478.000000	0.213080
479.000000	0.213447
480.000000	0.213762
481.000000	0.213920
482.000000	0.214078
483.000000	0.214261
484.000000	0.214822
485.000000	0.215106
486.000000	0.215067
487.000000	0.215310
488.000000	0.215504
489.000000	0.215672
490.000000	0.216032
491.000000	0.216319
492.000000	0.216445
493.000000	0.216352
494.000000	0.216843
495.000000	0.217292
496.000000	0.217307
497.000000	0.217736
498.000000	0.218031
499.000000	0.218122
500.000000	0.218327
501.000000	0.218692
502.000000	0.219045
503.000000	0.219048
504.000000	0.219264
505.000000	0.219594
506.000000	0.219848
507.000000	0.220015
508.000000	0.220279
509.000000	0.220655
510.000000	0.220941
511.000000	0.221204
512.000000	0.221539
513.000000	0.222046
514.000000	0.222313
515.000000	0.222580
516.000000	0.223158
517.000000	0.223473
518.000000	0.223741
519.000000	0.224082
520.000000	0.224279
521.000000	0.224529
522.000000	0.224901
523.000000	0.225261
524.000000	0.225698
525.000000	0.226168
526.000000	0.226608
527.000000	0.227139
528.000000	0.227680
529.000000	0.228190
530.000000	0.228856
531.000000	0.229575
532.000000	0.230189
533.000000	0.230719
534.000000	0.231356
535.000000	0.232069
536.000000	0.232624
537.000000	0.233197
538.000000	0.233810
539.000000	0.234417
540.000000	0.235045
541.000000	0.235644
542.000000	0.236202
543.000000	0.236743
544.000000	0.237311
545.000000	0.237858
546.000000	0.238373
547.000000	0.238882
548.000000	0.239428
549.000000	0.239988
550.000000	0.240604
551.000000	0.241243
552.000000	0.241823
553.000000	0.242503
554.000000	0.243254
555.000000	0.244017
556.000000	0.244674
557.000000	0.245404
558.000000	0.246323
559.000000	0.247149
560.000000	0.247923
561.000000	0.248719
562.000000	0.249506
563.000000	0.250289
564.000000	0.251043
565.000000	0.251673
566.000000	0.252399
567.000000	0.253105
568.000000	0.253696
569.000000	0.254233
570.000000	0.254769
571.000000	0.255300
572.000000	0.255795
573.000000	0.256228
574.000000	0.256634
575.000000	0.257114
576.000000	0.257577
577.000000	0.257916
578.000000	0.258160
579.000000	0.258531
580.000000	0.258843
581.000000	0.259045
582.000000	0.259302
583.000000	0.259532
584.000000	0.259729
585.000000	0.259927
586.000000	0.260055
587.000000	0.260155
588.000000	0.260285
589.000000	0.260443
590.000000	0.260586
591.000000	0.260698
592.000000	0.260846
593.000000	0.260891
594.000000	0.260836
595.000000	0.260839
596.000000	0.260844
597.000000	0.260893
598.000000	0.260951
599.000000	0.260891
600.000000	0.260844
601.000000	0.260853
602.000000	0.260836
603.000000	0.260708
604.000000	0.260519
605.000000	0.260549
606.000000	0.260471
607.000000	0.260307
608.000000	0.260284
609.000000	0.260173
610.000000	0.260075
611.000000	0.260122
612.000000	0.260112
613.000000	0.260029
614.000000	0.259931
615.000000	0.259879
616.000000	0.259803
617.000000	0.259699
618.000000	0.259721
619.000000	0.259668
620.000000	0.259578
621.000000	0.259613
622.000000	0.259577
623.000000	0.259506
624.000000	0.259458
625.000000	0.259438
626.000000	0.259399
627.000000	0.259332
628.000000	0.259272
629.000000	0.259383
630.000000	0.259473
631.000000	0.259411
632.000000	0.259401
633.000000	0.259478
634.000000	0.259602
635.000000	0.259654
636.000000	0.259693
637.000000	0.259741
638.000000	0.259751
639.000000	0.259824
640.000000	0.259985
641.000000	0.260047
642.000000	0.260096
643.000000	0.260183
644.000000	0.260348
645.000000	0.260494
646.000000	0.260669
647.000000	0.260860
648.000000	0.260910
649.000000	0.261011
650.000000	0.261199
651.000000	0.261355
652.000000	0.261564
653.000000	0.261805
654.000000	0.261952
655.000000	0.262190
656.000000	0.262461
657.000000	0.262656
658.000000	0.262923
659.000000	0.263178
660.000000	0.263387
661.000000	0.263663
662.000000	0.263901
663.000000	0.264141
664.000000	0.264410
665.000000	0.264661
666.000000	0.264944
667.000000	0.265285
668.000000	0.265651
669.000000	0.266027
670.000000	0.266397
671.000000	0.266708
672.000000	0.267107
673.000000	0.267554
674.000000	0.267873
675.000000	0.268206
676.000000	0.268550
677.000000	0.268892
678.000000	0.269323
679.000000	0.269774
680.000000	0.270211
681.000000	0.270716
682.000000	0.271240
683.000000	0.271694
684.000000	0.272152
685.000000	0.272603
686.000000	0.273075
687.000000	0.273567
688.000000	0.274122
689.000000	0.274688
690.000000	0.275255
691.000000	0.275839
692.000000	0.276376
693.000000	0.276920
694.000000	0.277508
695.000000	0.278100
696.000000	0.278709
697.000000	0.279360
698.000000	0.279972
699.000000	0.280555
700.000000	0.281142
701.000000	0.281768
702.000000	0.282381
703.000000	0.282947
704.000000	0.283500
705.000000	0.284126
706.000000	0.284780
707.000000	0.285446
708.000000	0.286117
709.000000	0.286775
710.000000	0.287435
711.000000	0.288137
712.000000	0.288861
713.000000	0.289598
714.000000	0.290299
715.000000	0.290957
716.000000	0.291615
717.000000	0.292313
718.000000	0.292968
719.000000	0.293578
720.000000	0.294182
721.000000	0.294829
722.000000	0.295445
723.000000	0.296059
724.000000	0.296670
725.000000	0.297282
726.000000	0.297948
727.000000	0.298573
728.000000	0.299149
729.000000	0.299700
730.000000	0.300208
731.000000	0.300762
732.000000	0.301295
733.000000	0.301833
734.000000	0.302413
735.000000	0.302933
736.000000	0.303496
737.000000	0.304027
738.000000	0.304528
739.000000	0.305048
740.000000	0.305466
741.000000	0.305909
742.000000	0.306359
743.000000	0.306785
744.000000	0.307221
745.000000	0.307648
746.000000	0.308133
747.000000	0.308648
748.000000	0.309078
749.000000	0.309448
750.000000	0.309768
751.000000	0.310103
752.000000	0.310451
753.000000	0.310817
754.000000	0.311192
755.000000	0.311558
756.000000	0.311904
757.000000	0.312190
758.000000	0.312537
759.000000	0.312882
760.000000	0.313126
761.000000	0.313390
762.000000	0.313631
763.000000	0.313837
764.000000	0.314089
765.000000	0.314268
766.000000	0.314444
767.000000	0.314685
768.000000	0.314914
769.000000	0.315155
770.000000	0.315405
771.000000	0.315607
772.000000	0.315846
773.000000	0.316050
774.000000	0.316226
775.000000	0.316375
776.000000	0.316506
777.000000	0.316614
778.000000	0.316740
779.000000	0.316917
780.000000	0.317095
781.000000	0.317124
782.000000	0.317110
783.000000	0.317171
784.000000	0.317232
785.000000	0.317314
786.000000	0.317425
787.000000	0.317549
788.000000	0.317658
789.000000	0.317755
790.000000	0.317805
791.000000	0.317815
792.000000	0.317877
793.000000	0.317977
794.000000	0.318092
795.000000	0.318240
796.000000	0.318294
797.000000	0.318232
798.000000	0.318158
799.000000	0.318176
800.000000	0.318217
801.000000	0.318183
802.000000	0.318195
803.000000	0.318178
804.000000	0.318141
805.000000	0.318139
806.000000	0.318074
807.000000	0.318049
808.000000	0.318103
809.000000	0.318180
810.000000	0.318230
811.000000	0.318201
812.000000	0.318060
813.000000	0.318023
814.000000	0.318102
815.000000	0.318144
816.000000	0.318105
817.000000	0.318012
818.000000	0.317855
819.000000	0.317827
820.000000	0.317906
821.000000	0.317993
822.000000	0.318039
823.000000	0.318089
824.000000	0.318056
825.000000	0.317961
826.000000	0.317942
827.000000	0.317853
828.000000	0.317696
829.000000	0.317697
830.000000	0.317651
831.000000	0.317569
832.000000	0.317409
833.000000	0.317315
834.000000	0.317255
835.000000	0.317211
836.000000	0.317155
837.000000	0.317079
838.000000	0.317021
839.000000	0.317006
840.000000	0.317024
841.000000	0.317021
842.000000	0.316922
843.000000	0.316840
844.000000	0.316820
845.000000	0.316768
846.000000	0.316523
847.000000	0.316321
848.000000	0.316102
849.000000	0.315822
850.000000	0.315714
851.000000	0.315675
852.000000	0.315667
853.000000	0.315639
854.000000	0.315574
855.000000	0.315555
856.000000	0.315489
857.000000	0.315338
858.000000	0.315249
859.000000	0.315182
860.000000	0.315023
861.000000	0.314913
862.000000	0.314834
863.000000	0.314655
864.000000	0.314538
865.000000	0.314399
866.000000	0.314227
867.000000	0.314102
868.000000	0.313948
869.000000	0.313769
870.000000	0.313698
871.000000	0.313590
872.000000	0.313439
873.000000	0.313241
874.000000	0.313199
875.000000	0.313019
876.000000	0.312728
877.000000	0.312427
878.000000	0.312210
879.000000	0.312058
880.000000	0.311813
881.000000	0.311584
882.000000	0.311411
883.000000	0.311246
884.000000	0.310961
885.000000	0.310797
886.000000	0.310658
887.000000	0.310522
888.000000	0.310489
889.000000	0.310345
890.000000	0.309982
891.000000	0.309599
892.000000	0.309319
893.000000	0.308989
894.000000	0.308676
895.000000	0.308441
896.000000	0.308191
897.000000	0.307946
898.000000	0.307773
899.000000	0.307749
900.000000	0.307639
901.000000	0.307373
902.000000	0.307265
903.000000	0.307143
904.000000	0.307007
905.000000	0.306780
906.000000	0.306444
907.000000	0.306284
908.000000	0.306282
909.000000	0.305916
910.000000	0.305722
911.000000	0.305532
912.000000	0.305161
913.000000	0.304885
914.000000	0.304597
915.000000	0.304323
916.000000	0.304033
917.000000	0.303906
918.000000	0.303752
919.000000	0.303445
920.000000	0.303276
921.000000	0.303102
922.000000	0.302856
923.000000	0.302494
924.000000	0.302119
925.000000	0.301732
926.000000	0.301388
927.000000	0.301144
928.000000	0.301016
929.000000	0.300884
930.000000	0.300625
931.000000	0.300367
932.000000	0.300025
933.000000	0.299681
934.000000	0.299506
935.000000	0.299316
936.000000	0.299107
937.000000	0.298801
938.000000	0.298408
939.000000	0.298135
940.000000	0.297910
941.000000	0.297647
942.000000	0.297193
943.000000	0.296940
944.000000	0.296942
945.000000	0.296977
946.000000	0.296746
947.000000	0.296420
948.000000	0.296204
949.000000	0.295932
950.000000	0.295635
951.000000	0.295351
952.000000	0.295223
953.000000	0.295046
954.000000	0.294690
955.000000	0.294139
956.000000	0.293921
957.000000	0.293499
958.000000	0.293082
959.000000	0.293166
960.000000	0.292974
961.000000	0.292706
962.000000	0.292522
963.000000	0.292501
964.000000	0.292377
965.000000	0.292194
966.000000	0.291932
967.000000	0.291645
968.000000	0.291615
969.000000	0.291569
970.000000	0.291157
971.000000	0.290586
972.000000	0.290309
973.000000	0.290189
974.000000	0.289565
975.000000	0.289168
976.000000	0.288900
977.000000	0.288564
978.000000	0.288264
979.000000	0.288062
980.000000	0.287862
981.000000	0.287912
982.000000	0.287793
983.000000	0.287685
984.000000	0.287604
985.000000	0.287223
986.000000	0.286898
987.000000	0.286618
988.000000	0.286297
989.000000	0.286265
990.000000	0.286303
991.000000	0.286182
992.000000	0.285868
993.000000	0.286015
994.000000	0.285923
995.000000	0.285620
996.000000	0.285326
997.000000	0.285220
998.000000	0.284864
999.000000	0.284434
1000.000000	0.284833
1001.000000	0.284529
1002.000000	0.284677
1003.000000	0.284926
1004.000000	0.284918
1005.000000	0.284688
1006.000000	0.284245
1007.000000	0.283477
1008.000000	0.283119
1009.000000	0.283110
1010.000000	0.282805
1011.000000	0.282808
1012.000000	0.283163
1013.000000	0.283105
1014.000000	0.283092
1015.000000	0.283424
1016.000000	0.283305
1017.000000	0.283396
1018.000000	0.283595
1019.000000	0.283620
1020.000000	0.284197
1021.000000	0.283883
1022.000000	0.282657
1023.000000	0.282404
1024.000000	0.282119
1025.000000	0.281833
1026.000000	0.282515
1027.000000	0.283153
1028.000000	0.283154
1029.000000	0.283392
1030.000000	0.283127
1031.000000	0.282642
1032.000000	0.282824
1033.000000	0.283079
1034.000000	0.283148
1035.000000	0.283550
1036.000000	0.283605
1037.000000	0.282896
1038.000000	0.282778
1039.000000	0.283087
1040.000000	0.283218
1041.000000	0.283257
1042.000000	0.283731
1043.000000	0.283570
1044.000000	0.283052
1045.000000	0.282480
1046.000000	0.281995
1047.000000	0.282044
1048.000000	0.282391
1049.000000	0.282614
1050.000000	0.283255
1051.000000	0.283545
1052.000000	0.283391
1053.000000	0.283549
1054.000000	0.284220
1055.000000	0.284594
1056.000000	0.284963
1057.000000	0.285148
1058.000000	0.285274
1059.000000	0.285408
1060.000000	0.285726
1061.000000	0.285906
1062.000000	0.285875
1063.000000	0.285769
1064.000000	0.285984
1065.000000	0.286324
1066.000000	0.286545
1067.000000	0.287054
1068.000000	0.287226
1069.000000	0.286730
1070.000000	0.286945
1071.000000	0.287672
1072.000000	0.287990
1073.000000	0.288413
1074.000000	0.289082
1075.000000	0.289037
1076.000000	0.288785
1077.000000	0.288835
1078.000000	0.288878
1079.000000	0.288990
1080.000000	0.289287
1081.000000	0.289503
1082.000000	0.289844
1083.000000	0.289952
1084.000000	0.289924
1085.000000	0.290059
1086.000000	0.290093
1087.000000	0.290264
1088.000000	0.290397
1089.000000	0.290724
1090.000000	0.291323
1091.000000	0.291681
1092.000000	0.291722
1093.000000	0.291967
1094.000000	0.292353
1095.000000	0.292499
1096.000000	0.292821
1097.000000	0.293638
1098.000000	0.294048
1099.000000	0.294006
1100.000000	0.294284
1101.000000	0.294748
1102.000000	0.294956
1103.000000	0.294988
1104.000000	0.295170
1105.000000	0.295272
1106.000000	0.295433
1107.000000	0.295660
1108.000000	0.295890
1109.000000	0.296180
1110.000000	0.296441
1111.000000	0.296680
1112.000000	0.297095
1113.000000	0.297097
1114.000000	0.296680
1115.000000	0.296824
1116.000000	0.297092
1117.000000	0.297192
1118.000000	0.297532
1119.000000	0.297707
1120.000000	0.297596
1121.000000	0.297595
1122.000000	0.297767
1123.000000	0.298106
1124.000000	0.298207
1125.000000	0.298419
1126.000000	0.298837
1127.000000	0.299070
1128.000000	0.299220
1129.000000	0.299256
1130.000000	0.299460
1131.000000	0.299656
1132.000000	0.299865
1133.000000	0.300344
1134.000000	0.300486
1135.000000	0.300351
1136.000000	0.300368
1137.000000	0.300233
1138.000000	0.300230
1139.000000	0.300400
1140.000000	0.300659
1141.000000	0.301066
1142.000000	0.301289
1143.000000	0.301457
1144.000000	0.301681
1145.000000	0.301727
1146.000000	0.301475
1147.000000	0.301496
1148.000000	0.301501
1149.000000	0.301568
1150.000000	0.301706
1151.000000	0.301890
1152.000000	0.302119
1153.000000	0.302253
1154.000000	0.302328
1155.000000	0.302453
1156.000000	0.302571
1157.000000	0.302631
1158.000000	0.302653
1159.000000	0.302714
1160.000000	0.302689
1161.000000	0.302710
1162.000000	0.302899
1163.000000	0.303123
1164.000000	0.303106
1165.000000	0.303147
1166.000000	0.303193
1167.000000	0.303137
1168.000000	0.303149
1169.000000	0.303296
1170.000000	0.303291
1171.000000	0.303245
1172.000000	0.303272
1173.000000	0.303167
1174.000000	0.303192
1175.000000	0.303410
1176.000000	0.303391
1177.000000	0.303325
1178.000000	0.303323
1179.000000	0.303203
1180.000000	0.303100
1181.000000	0.303080
1182.000000	0.303206
1183.000000	0.303284
1184.000000	0.303331
1185.000000	0.303373
1186.000000	0.303416
1187.000000	0.303444
1188.000000	0.303463
1189.000000	0.303470
1190.000000	0.303503
1191.000000	0.303539
1192.000000	0.303620
1193.000000	0.303812
1194.000000	0.304030
1195.000000	0.304162
1196.000000	0.304213
1197.000000	0.304299
1198.000000	0.304305
1199.000000	0.304405
1200.000000	0.304645
1201.000000	0.304779
1202.000000	0.304862
1203.000000	0.304921
1204.000000	0.304773
1205.000000	0.304671
1206.000000	0.304550
1207.000000	0.304417
1208.000000	0.304409
1209.000000	0.304574
1210.000000	0.304622
1211.000000	0.304743
1212.000000	0.304754
1213.000000	0.304708
1214.000000	0.304643
1215.000000	0.304495
1216.000000	0.304400
1217.000000	0.304181
1218.000000	0.304100
1219.000000	0.304136
1220.000000	0.304237
1221.000000	0.304331
1222.000000	0.304408
1223.000000	0.304561
1224.000000	0.304696
1225.000000	0.304715
1226.000000	0.304765
1227.000000	0.304691
1228.000000	0.304684
1229.000000	0.304628
1230.000000	0.304571
1231.000000	0.304471
1232.000000	0.304396
1233.000000	0.304441
1234.000000	0.304596
1235.000000	0.304615
1236.000000	0.304499
1237.000000	0.304489
1238.000000	0.304351
1239.000000	0.304330
1240.000000	0.304443
1241.000000	0.304560
1242.000000	0.304561
1243.000000	0.304566
1244.000000	0.304515
1245.000000	0.304412
1246.000000	0.304276
1247.000000	0.304251
1248.000000	0.304452
1249.000000	0.304592
1250.000000	0.304635
1251.000000	0.304758
1252.000000	0.304748
1253.000000	0.304556
1254.000000	0.304462
1255.000000	0.304355
1256.000000	0.304296
1257.000000	0.304248
1258.000000	0.304273
1259.000000	0.304368
1260.000000	0.304416
1261.000000	0.304372
1262.000000	0.304399
1263.000000	0.304457
1264.000000	0.304506
1265.000000	0.304626
1266.000000	0.304554
1267.000000	0.304532
1268.000000	0.304742
1269.000000	0.304939
1270.000000	0.305166
1271.000000	0.305195
1272.000000	0.305199
1273.000000	0.305309
1274.000000	0.305306
1275.000000	0.305343
1276.000000	0.305583
1277.000000	0.305588
1278.000000	0.305291
1279.000000	0.305178
1280.000000	0.304923
1281.000000	0.304811
1282.000000	0.304935
1283.000000	0.305003
1284.000000	0.305090
1285.000000	0.305076
1286.000000	0.304965
1287.000000	0.304777
1288.000000	0.304748
1289.000000	0.304741
1290.000000	0.304611
1291.000000	0.304679
1292.000000	0.304823
1293.000000	0.304739
1294.000000	0.304789
1295.000000	0.304978
1296.000000	0.304953
1297.000000	0.304911
1298.000000	0.304939
1299.000000	0.304885
1300.000000	0.305002
1301.000000	0.305181
1302.000000	0.305193
1303.000000	0.305281
1304.000000	0.305270
1305.000000	0.305237
1306.000000	0.305165
1307.000000	0.305065
1308.000000	0.305038
1309.000000	0.304967
1310.000000	0.304904
1311.000000	0.304901
1312.000000	0.304959
1313.000000	0.304952
1314.000000	0.304858
1315.000000	0.304729
1316.000000	0.304580
1317.000000	0.304448
1318.000000	0.304473
1319.000000	0.304573
1320.000000	0.304834
1321.000000	0.305000
1322.000000	0.304881
1323.000000	0.304644
1324.000000	0.304546
1325.000000	0.304585
1326.000000	0.304648
1327.000000	0.304855
1328.000000	0.304947
1329.000000	0.304850
1330.000000	0.304492
1331.000000	0.304409
1332.000000	0.304399
1333.000000	0.304367
1334.000000	0.304547
1335.000000	0.304598
1336.000000	0.304484
1337.000000	0.304433
1338.000000	0.304355
1339.000000	0.304288
1340.000000	0.304197
1341.000000	0.304131
1342.000000	0.304199
1343.000000	0.304353
1344.000000	0.304387
1345.000000	0.304353
1346.000000	0.304288
1347.000000	0.303995
1348.000000	0.303846
1349.000000	0.303862
1350.000000	0.304034
1351.000000	0.304225
1352.000000	0.304278
1353.000000	0.304143
1354.000000	0.303907
1355.000000	0.303748
1356.000000	0.303751
1357.000000	0.303806
1358.000000	0.303863
1359.000000	0.303819
1360.000000	0.303803
1361.000000	0.303792
1362.000000	0.303775
1363.000000	0.303736
1364.000000	0.303765
1365.000000	0.303806
1366.000000	0.303876
1367.000000	0.304030
1368.000000	0.304030
1369.000000	0.304120
1370.000000	0.303976
1371.000000	0.303652
1372.000000	0.303458
1373.000000	0.303386
1374.000000	0.303371
1375.000000	0.303446
1376.000000	0.303630
1377.000000	0.303550
1378.000000	0.303448
1379.000000	0.303411
1380.000000	0.303170
1381.000000	0.303001
1382.000000	0.302945
1383.000000	0.302875
1384.000000	0.302755
1385.000000	0.302574
1386.000000	0.302359
1387.000000	0.302169
1388.000000	0.301989
1389.000000	0.301872
1390.000000	0.301835
1391.000000	0.301539
1392.000000	0.301193
1393.000000	0.301000
1394.000000	0.300897
1395.000000	0.300729
1396.000000	0.300764
1397.000000	0.300597
1398.000000	0.300187
1399.000000	0.299855
1400.000000	0.299451
1401.000000	0.299023
1402.000000	0.298621
1403.000000	0.298243
1404.000000	0.297873
1405.000000	0.297631
1406.000000	0.297413
1407.000000	0.297356
1408.000000	0.297208
1409.000000	0.297016
1410.000000	0.296983
1411.000000	0.296779
1412.000000	0.296590
1413.000000	0.296580
1414.000000	0.296535
1415.000000	0.296453
1416.000000	0.296341
1417.000000	0.296323
1418.000000	0.296176
1419.000000	0.296040
1420.000000	0.296078
1421.000000	0.296146
1422.000000	0.296259
1423.000000	0.296443
1424.000000	0.296419
1425.000000	0.296348
1426.000000	0.296271
1427.000000	0.296232
1428.000000	0.296223
1429.000000	0.296340
1430.000000	0.296420
1431.000000	0.296374
1432.000000	0.296395
1433.000000	0.296513
1434.000000	0.296560
1435.000000	0.296690
1436.000000	0.296725
1437.000000	0.296709
1438.000000	0.296634
1439.000000	0.296465
1440.000000	0.296465
1441.000000	0.296502
1442.000000	0.296598
1443.000000	0.296734
1444.000000	0.296892
1445.000000	0.297101
1446.000000	0.297395
1447.000000	0.297645
1448.000000	0.297899
1449.000000	0.298061
1450.000000	0.298159
1451.000000	0.298357
1452.000000	0.298477
1453.000000	0.298575
1454.000000	0.298714
1455.000000	0.298898
1456.000000	0.299196
1457.000000	0.299502
1458.000000	0.299737
1459.000000	0.299845
1460.000000	0.299814
1461.000000	0.299722
1462.000000	0.299693
1463.000000	0.299700
1464.000000	0.299756
1465.000000	0.299961
1466.000000	0.300162
1467.000000	0.300257
1468.000000	0.300373
1469.000000	0.300535
1470.000000	0.300562
1471.000000	0.300666
1472.000000	0.300755
1473.000000	0.300806
1474.000000	0.300842
1475.000000	0.300940
1476.000000	0.301045
1477.000000	0.301099
1478.000000	0.301137
1479.000000	0.301060
1480.000000	0.300980
1481.000000	0.301029
1482.000000	0.301303
1483.000000	0.301411
1484.000000	0.301501
1485.000000	0.301610
1486.000000	0.301595
1487.000000	0.301649
1488.000000	0.301899
1489.000000	0.301990
1490.000000	0.301793
1491.000000	0.301788
1492.000000	0.301796
1493.000000	0.301779
1494.000000	0.301751
1495.000000	0.301772
1496.000000	0.301757
1497.000000	0.301805
1498.000000	0.301968
1499.000000	0.302089
1500.000000	0.302198
1501.000000	0.302249
1502.000000	0.302250
1503.000000	0.302373
1504.000000	0.302449
1505.000000	0.302404
1506.000000	0.302375
1507.000000	0.302324
1508.000000	0.302284
1509.000000	0.302319
1510.000000	0.302402
1511.000000	0.302511
1512.000000	0.302531
1513.000000	0.302521
1514.000000	0.302537
1515.000000	0.302451
1516.000000	0.302473
1517.000000	0.302486
1518.000000	0.302434
1519.000000	0.302337
1520.000000	0.302165
1521.000000	0.302084
1522.000000	0.302130
1523.000000	0.302171
1524.000000	0.302223
1525.000000	0.302252
1526.000000	0.302110
1527.000000	0.301985
1528.000000	0.302031
1529.000000	0.302102
1530.000000	0.302113
1531.000000	0.302153
1532.000000	0.302096
1533.000000	0.301937
1534.000000	0.301933
1535.000000	0.302024
1536.000000	0.302045
1537.000000	0.302232
1538.000000	0.302266
1539.000000	0.302163
1540.000000	0.302248
1541.000000	0.302272
1542.000000	0.302320
1543.000000	0.302432
1544.000000	0.302388
1545.000000	0.302363
1546.000000	0.302465
1547.000000	0.302489
1548.000000	0.302535
1549.000000	0.302709
1550.000000	0.302784
1551.000000	0.302923
1552.000000	0.303081
1553.000000	0.303090
1554.000000	0.303089
1555.000000	0.303041
1556.000000	0.303039
1557.000000	0.302993
1558.000000	0.302999
1559.000000	0.302960
1560.000000	0.303008
1561.000000	0.303219
1562.000000	0.303212
1563.000000	0.303170
1564.000000	0.303130
1565.000000	0.302938
1566.000000	0.302817
1567.000000	0.302888
1568.000000	0.302807
1569.000000	0.302675
1570.000000	0.302617
1571.000000	0.302544
1572.000000	0.302523
1573.000000	0.302613
1574.000000	0.302637
1575.000000	0.302617
1576.000000	0.302627
1577.000000	0.302605
1578.000000	0.302659
1579.000000	0.302889
1580.000000	0.302972
1581.000000	0.303096
1582.000000	0.303133
1583.000000	0.302978
1584.000000	0.302902
1585.000000	0.302990
1586.000000	0.303007
1587.000000	0.303063
1588.000000	0.302959
1589.000000	0.302693
1590.000000	0.302516
1591.000000	0.302270
1592.000000	0.302199
1593.000000	0.302308
1594.000000	0.302287
1595.000000	0.302309
1596.000000	0.302338
1597.000000	0.302409
1598.000000	0.302418
1599.000000	0.302448
1600.000000	0.302381
1601.000000	0.302287
1602.000000	0.302215
1603.000000	0.302136
1604.000000	0.302080
1605.000000	0.302077
1606.000000	0.302019
1607.000000	0.301989
1608.000000	0.301997
1609.000000	0.302005
1610.000000	0.302010
1611.000000	0.302125
1612.000000	0.302171
1613.000000	0.302288
1614.000000	0.302300
1615.000000	0.302295
1616.000000	0.302364
1617.000000	0.302342
1618.000000	0.302336
1619.000000	0.302379
1620.000000	0.302390
1621.000000	0.302393
1622.000000	0.302463
1623.000000	0.302528
1624.000000	0.302581
1625.000000	0.302564
1626.000000	0.302464
1627.000000	0.302327
1628.000000	0.302288
1629.000000	0.302130
1630.000000	0.302098
1631.000000	0.302200
1632.000000	0.302153
1633.000000	0.302054
1634.000000	0.302055
1635.000000	0.302114
1636.000000	0.302095
1637.000000	0.302102
1638.000000	0.302077
1639.000000	0.302070
1640.000000	0.301929
1641.000000	0.301766
1642.000000	0.301743
1643.000000	0.301673
1644.000000	0.301727
1645.000000	0.302081
1646.000000	0.302070
1647.000000	0.301854
1648.000000	0.301763
1649.000000	0.301681
1650.000000	0.301655
1651.000000	0.301794
1652.000000	0.301870
1653.000000	0.301825
1654.000000	0.301883
1655.000000	0.301950
1656.000000	0.301912
1657.000000	0.301943
1658.000000	0.301927
1659.000000	0.301926
1660.000000	0.301992
1661.000000	0.302038
1662.000000	0.302027
1663.000000	0.302000
1664.000000	0.301902
1665.000000	0.301692
1666.000000	0.301650
1667.000000	0.301526
1668.000000	0.301523
1669.000000	0.301641
1670.000000	0.301581
1671.000000	0.301611
1672.000000	0.301643
1673.000000	0.301587
1674.000000	0.301597
1675.000000	0.301617
1676.000000	0.301659
1677.000000	0.301545
1678.000000	0.301594
1679.000000	0.301570
1680.000000	0.301388
1681.000000	0.301407
1682.000000	0.301340
1683.000000	0.301241
1684.000000	0.301252
1685.000000	0.301218
1686.000000	0.301136
1687.000000	0.301078
1688.000000	0.301025
1689.000000	0.301055
1690.000000	0.301212
1691.000000	0.301494
1692.000000	0.301537
1693.000000	0.301489
1694.000000	0.301417
1695.000000	0.301363
1696.000000	0.301449
1697.000000	0.301445
1698.000000	0.301431
1699.000000	0.301424
1700.000000	0.301406
1701.000000	0.301456
1702.000000	0.301322
1703.000000	0.301243
1704.000000	0.301317
1705.000000	0.301332
1706.000000	0.301457
1707.000000	0.301450
1708.000000	0.301283
1709.000000	0.301104
1710.000000	0.300849
1711.000000	0.300769
1712.000000	0.300853
1713.000000	0.300836
1714.000000	0.300937
1715.000000	0.300958
1716.000000	0.300879
1717.000000	0.300825
1718.000000	0.300709
1719.000000	0.300668
1720.000000	0.300754
1721.000000	0.300711
1722.000000	0.300721
1723.000000	0.300594
1724.000000	0.300227
1725.000000	0.300138
1726.000000	0.300106
1727.000000	0.299977
1728.000000	0.299867
1729.000000	0.299682
1730.000000	0.299448
1731.000000	0.299332
1732.000000	0.299326
1733.000000	0.299337
1734.000000	0.299268
1735.000000	0.299198
1736.000000	0.299123
1737.000000	0.299041
1738.000000	0.298917
1739.000000	0.298894
1740.000000	0.298920
1741.000000	0.298892
1742.000000	0.298888
1743.000000	0.298955
1744.000000	0.298989
1745.000000	0.299070
1746.000000	0.299226
1747.000000	0.299293
1748.000000	0.299401
1749.000000	0.299689
1750.000000	0.299781
1751.000000	0.299950
1752.000000	0.300095
1753.000000	0.299789
1754.000000	0.299783
1755.000000	0.299941
1756.000000	0.300013
1757.000000	0.300329
1758.000000	0.300389
1759.000000	0.300083
1760.000000	0.300028
1761.000000	0.299960
1762.000000	0.299909
1763.000000	0.300065
1764.000000	0.300100
1765.000000	0.299928
1766.000000	0.299955
1767.000000	0.300053
1768.000000	0.300025
1769.000000	0.300118
1770.000000	0.300177
1771.000000	0.300064
1772.000000	0.300059
1773.000000	0.300133
1774.000000	0.300067
1775.000000	0.299971
1776.000000	0.299939
1777.000000	0.299850
1778.000000	0.299724
1779.000000	0.299630
1780.000000	0.299500
1781.000000	0.299217
1782.000000	0.299058
1783.000000	0.298998
1784.000000	0.298935
1785.000000	0.298963
1786.000000	0.299018
1787.000000	0.299021
1788.000000	0.298918
1789.000000	0.298750
1790.000000	0.298672
1791.000000	0.298627
1792.000000	0.298823
1793.000000	0.298921
1794.000000	0.299028
1795.000000	0.299092
1796.000000	0.299120
1797.000000	0.299031
1798.000000	0.298732
1799.000000	0.298675
1800.000000	0.298694
1801.000000	0.298351
1802.000000	0.298779
1803.000000	0.298971
1804.000000	0.299440
1805.000000	0.301266
1806.000000	0.301422
1807.000000	0.300113
1808.000000	0.299871
1809.000000	0.299895
1810.000000	0.299002
1811.000000	0.298750
1812.000000	0.299136
1813.000000	0.299473
1814.000000	0.299580
1815.000000	0.299984
1816.000000	0.301340
1817.000000	0.301672
1818.000000	0.301435
1819.000000	0.301738
1820.000000	0.301385
1821.000000	0.299965
1822.000000	0.299153
1823.000000	0.297868
1824.000000	0.297213
1825.000000	0.296650
1826.000000	0.296718
1827.000000	0.297408
1828.000000	0.297687
1829.000000	0.298743
1830.000000	0.299479
1831.000000	0.299668
1832.000000	0.299209
1833.000000	0.299374
1834.000000	0.299562
1835.000000	0.299617
1836.000000	0.300300
1837.000000	0.300163
1838.000000	0.299443
1839.000000	0.297773
1840.000000	0.296783
1841.000000	0.296428
1842.000000	0.296235
1843.000000	0.296858
1844.000000	0.297085
1845.000000	0.296965
1846.000000	0.297210
1847.000000	0.297632
1848.000000	0.297757
1849.000000	0.297982
1850.000000	0.298506
1851.000000	0.298362
1852.000000	0.297337
1853.000000	0.297004
1854.000000	0.296325
1855.000000	0.296093
1856.000000	0.295884
1857.000000	0.296639
1858.000000	0.297156
1859.000000	0.297420
1860.000000	0.297173
1861.000000	0.297089
1862.000000	0.296873
1863.000000	0.296085
1864.000000	0.295918
1865.000000	0.296249
1866.000000	0.296156
1867.000000	0.295834
1868.000000	0.296342
1869.000000	0.295837
1870.000000	0.295518
1871.000000	0.295434
1872.000000	0.294519
1873.000000	0.294215
1874.000000	0.294019
1875.000000	0.293956
1876.000000	0.293918
1877.000000	0.294102
1878.000000	0.293166
1879.000000	0.292344
1880.000000	0.291390
1881.000000	0.289911
1882.000000	0.289667
1883.000000	0.289662
1884.000000	0.289445
1885.000000	0.289298
1886.000000	0.289005
1887.000000	0.288591
1888.000000	0.287812
1889.000000	0.287229
1890.000000	0.286549
1891.000000	0.285648
1892.000000	0.284273
1893.000000	0.282563
1894.000000	0.281216
1895.000000	0.279708
1896.000000	0.278105
1897.000000	0.276959
1898.000000	0.276053
1899.000000	0.275144
1900.000000	0.275000
1901.000000	0.274880
1902.000000	0.274266
1903.000000	0.273821
1904.000000	0.273802
1905.000000	0.273653
1906.000000	0.273440
1907.000000	0.273578
1908.000000	0.273802
1909.000000	0.273532
1910.000000	0.272959
1911.000000	0.272970
1912.000000	0.273125
1913.000000	0.273035
1914.000000	0.274161
1915.000000	0.274792
1916.000000	0.275095
1917.000000	0.275718
1918.000000	0.276829
1919.000000	0.276921
1920.000000	0.277309
1921.000000	0.278427
1922.000000	0.278987
1923.000000	0.279256
1924.000000	0.279729
1925.000000	0.279491
1926.000000	0.278881
1927.000000	0.279262
1928.000000	0.279517
1929.000000	0.279977
1930.000000	0.280523
1931.000000	0.280951
1932.000000	0.280677
1933.000000	0.280088
1934.000000	0.279733
1935.000000	0.280182
1936.000000	0.280784
1937.000000	0.280780
1938.000000	0.280710
1939.000000	0.280719
1940.000000	0.280277
1941.000000	0.279941
1942.000000	0.280435
1943.000000	0.280760
1944.000000	0.281209
1945.000000	0.281537
1946.000000	0.281689
1947.000000	0.282248
1948.000000	0.282468
1949.000000	0.282639
1950.000000	0.283036
1951.000000	0.283174
1952.000000	0.283108
1953.000000	0.283278
1954.000000	0.283886
1955.000000	0.284188
1956.000000	0.284207
1957.000000	0.284234
1958.000000	0.283773
1959.000000	0.283152
1960.000000	0.282777
1961.000000	0.282113
1962.000000	0.281910
1963.000000	0.281942
1964.000000	0.281968
1965.000000	0.282487
1966.000000	0.283502
1967.000000	0.283402
1968.000000	0.283945
1969.000000	0.284546
1970.000000	0.284069
1971.000000	0.284174
1972.000000	0.284781
1973.000000	0.284896
1974.000000	0.285192
1975.000000	0.285270
1976.000000	0.285374
1977.000000	0.284341
1978.000000	0.283992
1979.000000	0.283756
1980.000000	0.283758
1981.000000	0.284866
1982.000000	0.285390
1983.000000	0.285462
1984.000000	0.285469
1985.000000	0.285105
1986.000000	0.284805
1987.000000	0.284440
1988.000000	0.284370
1989.000000	0.283992
1990.000000	0.284043
1991.000000	0.284180
1992.000000	0.283979
1993.000000	0.284041
1994.000000	0.284303
1995.000000	0.284819
1996.000000	0.285671
1997.000000	0.286121
1998.000000	0.286874
1999.000000	0.287180
2000.000000	0.286966
2001.000000	0.286732
2002.000000	0.286825
2003.000000	0.286904
2004.000000	0.286586
2005.000000	0.285800
2006.000000	0.284876
2007.000000	0.283891
2008.000000	0.283749
2009.000000	0.284235
2010.000000	0.284588
2011.000000	0.285499
2012.000000	0.286058
2013.000000	0.286233
2014.000000	0.286705
2015.000000	0.287279
2016.000000	0.287888
2017.000000	0.288460
2018.000000	0.288755
2019.000000	0.289029
2020.000000	0.288549
2021.000000	0.288478
2022.000000	0.288660
2023.000000	0.288351
2024.000000	0.287579
2025.000000	0.287591
2026.000000	0.287696
2027.000000	0.287151
2028.000000	0.287693
2029.000000	0.288758
2030.000000	0.289187
2031.000000	0.289477
2032.000000	0.289513
2033.000000	0.289387
2034.000000	0.289466
2035.000000	0.289698
2036.000000	0.289668
2037.000000	0.289995
2038.000000	0.289978
2039.000000	0.289564
2040.000000	0.289290
2041.000000	0.289313
2042.000000	0.289285
2043.000000	0.289566
2044.000000	0.289323
2045.000000	0.289052
2046.000000	0.288709
2047.000000	0.288617
2048.000000	0.288631
2049.000000	0.288731
2050.000000	0.288764
2051.000000	0.288735
2052.000000	0.288205
2053.000000	0.288160
2054.000000	0.288951
2055.000000	0.289112
2056.000000	0.288759
2057.000000	0.289277
2058.000000	0.289309
2059.000000	0.289055
2060.000000	0.289187
2061.000000	0.289883
2062.000000	0.289903
2063.000000	0.289953
2064.000000	0.289630
2065.000000	0.288844
2066.000000	0.288541
2067.000000	0.288722
2068.000000	0.288284
2069.000000	0.288231
2070.000000	0.288588
2071.000000	0.288846
2072.000000	0.289185
2073.000000	0.289612
2074.000000	0.289774
2075.000000	0.289430
2076.000000	0.288205
2077.000000	0.287702
2078.000000	0.286860
2079.000000	0.286746
2080.000000	0.287194
2081.000000	0.287620
2082.000000	0.288667
2083.000000	0.289395
2084.000000	0.289653
2085.000000	0.290504
2086.000000	0.289940
2087.000000	0.289370
2088.000000	0.289139
2089.000000	0.288454
2090.000000	0.288308
2091.000000	0.288668
2092.000000	0.289043
2093.000000	0.289765
2094.000000	0.290135
2095.000000	0.290800
2096.000000	0.291052
2097.000000	0.290721
2098.000000	0.290532
2099.000000	0.290439
2100.000000	0.290271
2101.000000	0.290085
2102.000000	0.290063
2103.000000	0.289316
2104.000000	0.289062
2105.000000	0.288953
2106.000000	0.288831
2107.000000	0.288697
2108.000000	0.289052
2109.000000	0.289058
2110.000000	0.288366
2111.000000	0.288373
2112.000000	0.288838
2113.000000	0.288558
2114.000000	0.288746
2115.000000	0.289414
2116.000000	0.289393
2117.000000	0.289104
2118.000000	0.288860
2119.000000	0.288617
2120.000000	0.288478
2121.000000	0.288454
2122.000000	0.288503
2123.000000	0.288674
2124.000000	0.288687
2125.000000	0.288635
2126.000000	0.288616
2127.000000	0.288430
2128.000000	0.288589
2129.000000	0.288734
2130.000000	0.289622
2131.000000	0.289824
2132.000000	0.289363
2133.000000	0.289192
2134.000000	0.288634
2135.000000	0.287816
2136.000000	0.287506
2137.000000	0.287233
2138.000000	0.286480
2139.000000	0.286652
2140.000000	0.288148
2141.000000	0.288563
2142.000000	0.288825
2143.000000	0.288922
2144.000000	0.288448
2145.000000	0.288112
2146.000000	0.287809
2147.000000	0.288378
2148.000000	0.287832
2149.000000	0.287943
2150.000000	0.287457
2151.000000	0.286687
2152.000000	0.286789
2153.000000	0.286398
2154.000000	0.286363
2155.000000	0.286837
2156.000000	0.287182
2157.000000	0.287713
2158.000000	0.287999
2159.000000	0.288433
2160.000000	0.288733
2161.000000	0.288280
2162.000000	0.288482
2163.000000	0.289368
2164.000000	0.289606
2165.000000	0.289549
2166.000000	0.289959
2167.000000	0.289717
2168.000000	0.289505
2169.000000	0.290380
2170.000000	0.290503
2171.000000	0.289970
2172.000000	0.289015
2173.000000	0.288237
2174.000000	0.285973
2175.000000	0.285808
2176.000000	0.286967
2177.000000	0.287757
2178.000000	0.290161
2179.000000	0.291166
2180.000000	0.291198
2181.000000	0.291589
2182.000000	0.291204
2183.000000	0.290253
2184.000000	0.290858
2185.000000	0.290500
2186.000000	0.288976
2187.000000	0.288296
2188.000000	0.286181
2189.000000	0.285331
2190.000000	0.285345
2191.000000	0.285422
2192.000000	0.285421
2193.000000	0.285498
2194.000000	0.284970
2195.000000	0.284274
2196.000000	0.283821
2197.000000	0.282553
2198.000000	0.282577
2199.000000	0.284163
2200.000000	0.284840
2201.000000	0.285964
2202.000000	0.286551
2203.000000	0.286615
2204.000000	0.285476
2205.000000	0.284773
2206.000000	0.283838
2207.000000	0.283351
2208.000000	0.283723
2209.000000	0.283016
2210.000000	0.283254
2211.000000	0.283889
2212.000000	0.283371
2213.000000	0.283710
2214.000000	0.284326
2215.000000	0.285561
2216.000000	0.288274
2217.000000	0.289378
2218.000000	0.290525
2219.000000	0.291187
2220.000000	0.289793
2221.000000	0.289181
2222.000000	0.289230
2223.000000	0.289023
2224.000000	0.289067
2225.000000	0.288756
2226.000000	0.286597
2227.000000	0.284270
2228.000000	0.282636
2229.000000	0.282035
2230.000000	0.284117
2231.000000	0.286417
2232.000000	0.285571
2233.000000	0.286176
2234.000000	0.284969
2235.000000	0.282396
2236.000000	0.281917
2237.000000	0.282009
2238.000000	0.282093
2239.000000	0.284155
2240.000000	0.284576
2241.000000	0.284505
2242.000000	0.284507
2243.000000	0.283082
2244.000000	0.282752
2245.000000	0.283159
2246.000000	0.283258
2247.000000	0.283641
2248.000000	0.283968
2249.000000	0.284050
2250.000000	0.284308
2251.000000	0.285403
2252.000000	0.285973
2253.000000	0.287019
2254.000000	0.288111
2255.000000	0.288668
2256.000000	0.290041
2257.000000	0.289449
2258.000000	0.287294
2259.000000	0.284289
2260.000000	0.281418
2261.000000	0.279546
2262.000000	0.277952
2263.000000	0.278287
2264.000000	0.279466
2265.000000	0.281021
2266.000000	0.285876
2267.000000	0.286832
2268.000000	0.286695
2269.000000	0.286061
2270.000000	0.282050
2271.000000	0.280780
2272.000000	0.280954
2273.000000	0.280640
2274.000000	0.279882
2275.000000	0.280672
2276.000000	0.282693
2277.000000	0.283716
2278.000000	0.284953
2279.000000	0.286813
2280.000000	0.283025
2281.000000	0.278047
2282.000000	0.275984
2283.000000	0.273800
2284.000000	0.274335
2285.000000	0.277720
2286.000000	0.279015
2287.000000	0.278572
2288.000000	0.277508
2289.000000	0.275817
2290.000000	0.275371
2291.000000	0.276767
2292.000000	0.277855
2293.000000	0.276815
2294.000000	0.276563
2295.000000	0.275626
2296.000000	0.274214
2297.000000	0.272518
2298.000000	0.272648
2299.000000	0.271927
2300.000000	0.272453
2301.000000	0.276350
2302.000000	0.277442
2303.000000	0.277375
2304.000000	0.277486
2305.000000	0.276705
2306.000000	0.275978
2307.000000	0.274644
2308.000000	0.274388
2309.000000	0.274433
2310.000000	0.274062
2311.000000	0.276154
2312.000000	0.276402
2313.000000	0.274785
2314.000000	0.273399
2315.000000	0.271655
2316.000000	0.271818
2317.000000	0.273592
2318.000000	0.277091
2319.000000	0.279175
2320.000000	0.277506
2321.000000	0.276680
2322.000000	0.272465
2323.000000	0.268616
2324.000000	0.271427
2325.000000	0.271879
2326.000000	0.272795
2327.000000	0.275895
2328.000000	0.274487
2329.000000	0.273071
2330.000000	0.274747
2331.000000	0.277018
2332.000000	0.279688
2333.000000	0.281846
2334.000000	0.283347
2335.000000	0.284527
2336.000000	0.282715
2337.000000	0.282576
2338.000000	0.284371
2339.000000	0.282639
2340.000000	0.279771
2341.000000	0.277913
2342.000000	0.272987
2343.000000	0.272782
2344.000000	0.274196
2345.000000	0.274809
2346.000000	0.277637
2347.000000	0.280351
2348.000000	0.283168
2349.000000	0.288408
2350.000000	0.288252
2351.000000	0.288462
2352.000000	0.285318
2353.000000	0.282079
2354.000000	0.282396
2355.000000	0.280720
2356.000000	0.279253
2357.000000	0.279133
2358.000000	0.280238
2359.000000	0.279200
2360.000000	0.278076
2361.000000	0.277548
2362.000000	0.274383
2363.000000	0.273772
2364.000000	0.271148
2365.000000	0.267073
2366.000000	0.267504
2367.000000	0.266096
2368.000000	0.267847
2369.000000	0.269906
2370.000000	0.268914
2371.000000	0.272917
2372.000000	0.276488
2373.000000	0.279893
2374.000000	0.280681
2375.000000	0.276611
2376.000000	0.273980
2377.000000	0.272663
2378.000000	0.271865
2379.000000	0.273618
2380.000000	0.273072
2381.000000	0.270908
2382.000000	0.270976
2383.000000	0.268022
2384.000000	0.266556
2385.000000	0.269000
2386.000000	0.268300
2387.000000	0.266541
2388.000000	0.266199
2389.000000	0.260724
2390.000000	0.257676
2391.000000	0.262720
2392.000000	0.270371
2393.000000	0.278495
2394.000000	0.281000
2395.000000	0.276009
2396.000000	0.272119
2397.000000	0.269325
2398.000000	0.264366
2399.000000	0.267890
2400.000000	0.265666
2401.000000	0.256811
2402.000000	0.255559
2403.000000	0.255814
2404.000000	0.260209
2405.000000	0.262860
2406.000000	0.263318
2407.000000	0.261312
2408.000000	0.256369
2409.000000	0.258808
2410.000000	0.270085
2411.000000	0.277344
2412.000000	0.278509
2413.000000	0.283835
2414.000000	0.283110
2415.000000	0.285431
2416.000000	0.297769
2417.000000	0.302386
2418.000000	0.301521
2419.000000	0.296045
2420.000000	0.287497
2421.000000	0.280122
2422.000000	0.281429
2423.000000	0.288360
2424.000000	0.290975
2425.000000	0.290764
2426.000000	0.286401
2427.000000	0.284361
2428.000000	0.278468
2429.000000	0.273160
2430.000000	0.264528
2431.000000	0.255981
2432.000000	0.258147
2433.000000	0.260685
2434.000000	0.266549
2435.000000	0.266622
2436.000000	0.265369
2437.000000	0.258270
2438.000000	0.253311
2439.000000	0.261855
2440.000000	0.262315
2441.000000	0.272804
2442.000000	0.289446
2443.000000	0.290270
2444.000000	0.299263
2445.000000	0.312334
2446.000000	0.322043
2447.000000	0.337945
2448.000000	0.340710
2449.000000	0.325631
2450.000000	0.304213
2451.000000	0.282123
2452.000000	0.258637
2453.000000	0.252982
2454.000000	0.253050
2455.000000	0.242345
2456.000000	0.261972
2457.000000	0.272899
2458.000000	0.266070
2459.000000	0.274759
2460.000000	0.274404
2461.000000	0.263517
2462.000000	0.261972
2463.000000	0.278398
2464.000000	0.279819
2465.000000	0.290159
2466.000000	0.303919
2467.000000	0.280986
2468.000000	0.256167
2469.000000	0.222534
2470.000000	0.223580
2471.000000	0.257955
2472.000000	0.290260
2473.000000	0.330169
2474.000000	0.333368
2475.000000	0.312173
2476.000000	0.277380
2477.000000	0.249014
2478.000000	0.233673
2479.000000	0.239481
2480.000000	0.266449
2481.000000	0.264747
2482.000000	0.260199
2483.000000	0.251737
2484.000000	0.238476
2485.000000	0.279334
2486.000000	0.315158
2487.000000	0.344410
2488.000000	0.384644
2489.000000	0.342127
2490.000000	0.300958
2491.000000	0.186442
2492.000000	0.126055
2493.000000	0.113641
2494.000000	0.092685
2495.000000	0.099973
2496.000000	0.135364
2497.000000	0.184096
2498.000000	0.209988
2499.000000	0.303490
2500.000000	0.326062
