# Wavelength	Nau-1_60_FV7_40_00001.asd.rts.txt
350.000000	0.111502
351.000000	0.135502
352.000000	0.119178
353.000000	0.113689
354.000000	0.136749
355.000000	0.133785
356.000000	0.122038
357.000000	0.115555
358.000000	0.125957
359.000000	0.127262
360.000000	0.122800
361.000000	0.122141
362.000000	0.126256
363.000000	0.127194
364.000000	0.121443
365.000000	0.117444
366.000000	0.116462
367.000000	0.118046
368.000000	0.120559
369.000000	0.125903
370.000000	0.129032
371.000000	0.125472
372.000000	0.132786
373.000000	0.132627
374.000000	0.119501
375.000000	0.131224
376.000000	0.136606
377.000000	0.131360
378.000000	0.136277
379.000000	0.135548
380.000000	0.130983
381.000000	0.129669
382.000000	0.131909
383.000000	0.133452
384.000000	0.132274
385.000000	0.132447
386.000000	0.134892
387.000000	0.137965
388.000000	0.136356
389.000000	0.139305
390.000000	0.143604
391.000000	0.142518
392.000000	0.143864
393.000000	0.145685
394.000000	0.146181
395.000000	0.148816
396.000000	0.150949
397.000000	0.151710
398.000000	0.152520
399.000000	0.153347
400.000000	0.154380
401.000000	0.155771
402.000000	0.158282
403.000000	0.160065
404.000000	0.160086
405.000000	0.161763
406.000000	0.163287
407.000000	0.163911
408.000000	0.164770
409.000000	0.165682
410.000000	0.166767
411.000000	0.168246
412.000000	0.168729
413.000000	0.169296
414.000000	0.171141
415.000000	0.172712
416.000000	0.173420
417.000000	0.173377
418.000000	0.174009
419.000000	0.174268
420.000000	0.174086
421.000000	0.174163
422.000000	0.174527
423.000000	0.175014
424.000000	0.175412
425.000000	0.175460
426.000000	0.175320
427.000000	0.175181
428.000000	0.175167
429.000000	0.175336
430.000000	0.175640
431.000000	0.175879
432.000000	0.176220
433.000000	0.176313
434.000000	0.175707
435.000000	0.175369
436.000000	0.175381
437.000000	0.175540
438.000000	0.175428
439.000000	0.175004
440.000000	0.174440
441.000000	0.174007
442.000000	0.173813
443.000000	0.173725
444.000000	0.173518
445.000000	0.173022
446.000000	0.172942
447.000000	0.173824
448.000000	0.174058
449.000000	0.174674
450.000000	0.176309
451.000000	0.177795
452.000000	0.179540
453.000000	0.181518
454.000000	0.183365
455.000000	0.185490
456.000000	0.187746
457.000000	0.189698
458.000000	0.192277
459.000000	0.195053
460.000000	0.197458
461.000000	0.199131
462.000000	0.200850
463.000000	0.202733
464.000000	0.204100
465.000000	0.205277
466.000000	0.206375
467.000000	0.207519
468.000000	0.208212
469.000000	0.208773
470.000000	0.209748
471.000000	0.210524
472.000000	0.211145
473.000000	0.211753
474.000000	0.212519
475.000000	0.213046
476.000000	0.213453
477.000000	0.214165
478.000000	0.214440
479.000000	0.214678
480.000000	0.215385
481.000000	0.215832
482.000000	0.216430
483.000000	0.217322
484.000000	0.217745
485.000000	0.218277
486.000000	0.219153
487.000000	0.219362
488.000000	0.219786
489.000000	0.220507
490.000000	0.221091
491.000000	0.221646
492.000000	0.222310
493.000000	0.223050
494.000000	0.223465
495.000000	0.223968
496.000000	0.224746
497.000000	0.225300
498.000000	0.225867
499.000000	0.226562
500.000000	0.227203
501.000000	0.227826
502.000000	0.228471
503.000000	0.229109
504.000000	0.229700
505.000000	0.230301
506.000000	0.230984
507.000000	0.231754
508.000000	0.232508
509.000000	0.233176
510.000000	0.233871
511.000000	0.234760
512.000000	0.235725
513.000000	0.236329
514.000000	0.237055
515.000000	0.237924
516.000000	0.238760
517.000000	0.239547
518.000000	0.240321
519.000000	0.241085
520.000000	0.242079
521.000000	0.243035
522.000000	0.243860
523.000000	0.244684
524.000000	0.245623
525.000000	0.246624
526.000000	0.247575
527.000000	0.248430
528.000000	0.249310
529.000000	0.250371
530.000000	0.251356
531.000000	0.252337
532.000000	0.253304
533.000000	0.254307
534.000000	0.255372
535.000000	0.256456
536.000000	0.257474
537.000000	0.258490
538.000000	0.259541
539.000000	0.260637
540.000000	0.261702
541.000000	0.262759
542.000000	0.263850
543.000000	0.264831
544.000000	0.265840
545.000000	0.266887
546.000000	0.267997
547.000000	0.268985
548.000000	0.269929
549.000000	0.271007
550.000000	0.272028
551.000000	0.273042
552.000000	0.274098
553.000000	0.275135
554.000000	0.276181
555.000000	0.277253
556.000000	0.278274
557.000000	0.279251
558.000000	0.280278
559.000000	0.281188
560.000000	0.282009
561.000000	0.282844
562.000000	0.283689
563.000000	0.284548
564.000000	0.285449
565.000000	0.286303
566.000000	0.287124
567.000000	0.287895
568.000000	0.288601
569.000000	0.289316
570.000000	0.290005
571.000000	0.290673
572.000000	0.291390
573.000000	0.292024
574.000000	0.292585
575.000000	0.293183
576.000000	0.293730
577.000000	0.294223
578.000000	0.294727
579.000000	0.295175
580.000000	0.295623
581.000000	0.296069
582.000000	0.296424
583.000000	0.296787
584.000000	0.297167
585.000000	0.297531
586.000000	0.297858
587.000000	0.298134
588.000000	0.298380
589.000000	0.298794
590.000000	0.299105
591.000000	0.299198
592.000000	0.299421
593.000000	0.299693
594.000000	0.299963
595.000000	0.300201
596.000000	0.300401
597.000000	0.300602
598.000000	0.300760
599.000000	0.300925
600.000000	0.301092
601.000000	0.301177
602.000000	0.301241
603.000000	0.301360
604.000000	0.301530
605.000000	0.301564
606.000000	0.301552
607.000000	0.301557
608.000000	0.301631
609.000000	0.301680
610.000000	0.301686
611.000000	0.301658
612.000000	0.301630
613.000000	0.301719
614.000000	0.301971
615.000000	0.302123
616.000000	0.302117
617.000000	0.302024
618.000000	0.302171
619.000000	0.302324
620.000000	0.302399
621.000000	0.302437
622.000000	0.302529
623.000000	0.302594
624.000000	0.302583
625.000000	0.302700
626.000000	0.302811
627.000000	0.302880
628.000000	0.303030
629.000000	0.303288
630.000000	0.303448
631.000000	0.303466
632.000000	0.303438
633.000000	0.303443
634.000000	0.303514
635.000000	0.303599
636.000000	0.303688
637.000000	0.303755
638.000000	0.303795
639.000000	0.303856
640.000000	0.303981
641.000000	0.304040
642.000000	0.304169
643.000000	0.304338
644.000000	0.304478
645.000000	0.304647
646.000000	0.304792
647.000000	0.304864
648.000000	0.304980
649.000000	0.305179
650.000000	0.305405
651.000000	0.305534
652.000000	0.305684
653.000000	0.305876
654.000000	0.306019
655.000000	0.306239
656.000000	0.306503
657.000000	0.306711
658.000000	0.306967
659.000000	0.307222
660.000000	0.307439
661.000000	0.307655
662.000000	0.307848
663.000000	0.308076
664.000000	0.308339
665.000000	0.308664
666.000000	0.309003
667.000000	0.309267
668.000000	0.309477
669.000000	0.309748
670.000000	0.310101
671.000000	0.310320
672.000000	0.310530
673.000000	0.310788
674.000000	0.311133
675.000000	0.311415
676.000000	0.311693
677.000000	0.312083
678.000000	0.312474
679.000000	0.312782
680.000000	0.313007
681.000000	0.313291
682.000000	0.313671
683.000000	0.314051
684.000000	0.314427
685.000000	0.314754
686.000000	0.315100
687.000000	0.315496
688.000000	0.315840
689.000000	0.316176
690.000000	0.316576
691.000000	0.316962
692.000000	0.317392
693.000000	0.317902
694.000000	0.318309
695.000000	0.318698
696.000000	0.319084
697.000000	0.319470
698.000000	0.319892
699.000000	0.320304
700.000000	0.320693
701.000000	0.321141
702.000000	0.321631
703.000000	0.322091
704.000000	0.322421
705.000000	0.322821
706.000000	0.323251
707.000000	0.323669
708.000000	0.324086
709.000000	0.324512
710.000000	0.324978
711.000000	0.325488
712.000000	0.325944
713.000000	0.326350
714.000000	0.326792
715.000000	0.327191
716.000000	0.327568
717.000000	0.327958
718.000000	0.328331
719.000000	0.328708
720.000000	0.329123
721.000000	0.329554
722.000000	0.329960
723.000000	0.330397
724.000000	0.330854
725.000000	0.331241
726.000000	0.331642
727.000000	0.332031
728.000000	0.332372
729.000000	0.332773
730.000000	0.333233
731.000000	0.333578
732.000000	0.333930
733.000000	0.334352
734.000000	0.334691
735.000000	0.335000
736.000000	0.335410
737.000000	0.335794
738.000000	0.336062
739.000000	0.336382
740.000000	0.336686
741.000000	0.336950
742.000000	0.337274
743.000000	0.337597
744.000000	0.337767
745.000000	0.338002
746.000000	0.338297
747.000000	0.338476
748.000000	0.338686
749.000000	0.338893
750.000000	0.339043
751.000000	0.339238
752.000000	0.339460
753.000000	0.339685
754.000000	0.339846
755.000000	0.340006
756.000000	0.340165
757.000000	0.340269
758.000000	0.340454
759.000000	0.340635
760.000000	0.340705
761.000000	0.340851
762.000000	0.341010
763.000000	0.341103
764.000000	0.341130
765.000000	0.341188
766.000000	0.341282
767.000000	0.341390
768.000000	0.341553
769.000000	0.341704
770.000000	0.341759
771.000000	0.341571
772.000000	0.341448
773.000000	0.341360
774.000000	0.341285
775.000000	0.341173
776.000000	0.341108
777.000000	0.341096
778.000000	0.340958
779.000000	0.340799
780.000000	0.340663
781.000000	0.340512
782.000000	0.340345
783.000000	0.340301
784.000000	0.340305
785.000000	0.340190
786.000000	0.340058
787.000000	0.339960
788.000000	0.339820
789.000000	0.339741
790.000000	0.339677
791.000000	0.339563
792.000000	0.339399
793.000000	0.339241
794.000000	0.339126
795.000000	0.338950
796.000000	0.338700
797.000000	0.338413
798.000000	0.338196
799.000000	0.337993
800.000000	0.337794
801.000000	0.337600
802.000000	0.337387
803.000000	0.337167
804.000000	0.336977
805.000000	0.336760
806.000000	0.336430
807.000000	0.336134
808.000000	0.335952
809.000000	0.335708
810.000000	0.335410
811.000000	0.335089
812.000000	0.334809
813.000000	0.334548
814.000000	0.334312
815.000000	0.334160
816.000000	0.333964
817.000000	0.333719
818.000000	0.333372
819.000000	0.333095
820.000000	0.332817
821.000000	0.332479
822.000000	0.332224
823.000000	0.331982
824.000000	0.331719
825.000000	0.331530
826.000000	0.331255
827.000000	0.330985
828.000000	0.330798
829.000000	0.330530
830.000000	0.330251
831.000000	0.330011
832.000000	0.329675
833.000000	0.329337
834.000000	0.329078
835.000000	0.328926
836.000000	0.328599
837.000000	0.328270
838.000000	0.328043
839.000000	0.327912
840.000000	0.327679
841.000000	0.327370
842.000000	0.327015
843.000000	0.326671
844.000000	0.326356
845.000000	0.326046
846.000000	0.325743
847.000000	0.325471
848.000000	0.325216
849.000000	0.324979
850.000000	0.324638
851.000000	0.324305
852.000000	0.324077
853.000000	0.323900
854.000000	0.323642
855.000000	0.323390
856.000000	0.323095
857.000000	0.322793
858.000000	0.322538
859.000000	0.322270
860.000000	0.322012
861.000000	0.321673
862.000000	0.321305
863.000000	0.320935
864.000000	0.320658
865.000000	0.320375
866.000000	0.320112
867.000000	0.320109
868.000000	0.319892
869.000000	0.319493
870.000000	0.319244
871.000000	0.318874
872.000000	0.318573
873.000000	0.318386
874.000000	0.318216
875.000000	0.318085
876.000000	0.317875
877.000000	0.317395
878.000000	0.317077
879.000000	0.316772
880.000000	0.316316
881.000000	0.316192
882.000000	0.315998
883.000000	0.315717
884.000000	0.315412
885.000000	0.315083
886.000000	0.314820
887.000000	0.314661
888.000000	0.314440
889.000000	0.314312
890.000000	0.314111
891.000000	0.313821
892.000000	0.313578
893.000000	0.313391
894.000000	0.313347
895.000000	0.313282
896.000000	0.313024
897.000000	0.312738
898.000000	0.312659
899.000000	0.312581
900.000000	0.312413
901.000000	0.312150
902.000000	0.312036
903.000000	0.311876
904.000000	0.311683
905.000000	0.311423
906.000000	0.311259
907.000000	0.311025
908.000000	0.310719
909.000000	0.310341
910.000000	0.310085
911.000000	0.309935
912.000000	0.309836
913.000000	0.309735
914.000000	0.309525
915.000000	0.309273
916.000000	0.309013
917.000000	0.308835
918.000000	0.308789
919.000000	0.308792
920.000000	0.308523
921.000000	0.308371
922.000000	0.308363
923.000000	0.308299
924.000000	0.308093
925.000000	0.307844
926.000000	0.307632
927.000000	0.307335
928.000000	0.307112
929.000000	0.306965
930.000000	0.306863
931.000000	0.306926
932.000000	0.306815
933.000000	0.306567
934.000000	0.306527
935.000000	0.306378
936.000000	0.306206
937.000000	0.306033
938.000000	0.305853
939.000000	0.305839
940.000000	0.305805
941.000000	0.305545
942.000000	0.305307
943.000000	0.305147
944.000000	0.304989
945.000000	0.305028
946.000000	0.304844
947.000000	0.304663
948.000000	0.304689
949.000000	0.304278
950.000000	0.303978
951.000000	0.303859
952.000000	0.303625
953.000000	0.303413
954.000000	0.303381
955.000000	0.303506
956.000000	0.303618
957.000000	0.303694
958.000000	0.303600
959.000000	0.303353
960.000000	0.303217
961.000000	0.303165
962.000000	0.303085
963.000000	0.302867
964.000000	0.302918
965.000000	0.302969
966.000000	0.302709
967.000000	0.302689
968.000000	0.302734
969.000000	0.302727
970.000000	0.302703
971.000000	0.302605
972.000000	0.302527
973.000000	0.302459
974.000000	0.302438
975.000000	0.302172
976.000000	0.302041
977.000000	0.302263
978.000000	0.302208
979.000000	0.302218
980.000000	0.302149
981.000000	0.302165
982.000000	0.302250
983.000000	0.302268
984.000000	0.302248
985.000000	0.302232
986.000000	0.302147
987.000000	0.302215
988.000000	0.302337
989.000000	0.301996
990.000000	0.301892
991.000000	0.302075
992.000000	0.302336
993.000000	0.302216
994.000000	0.302291
995.000000	0.302553
996.000000	0.302266
997.000000	0.302782
998.000000	0.303124
999.000000	0.303018
1000.000000	0.303360
1001.000000	0.302923
1002.000000	0.303319
1003.000000	0.303259
1004.000000	0.303318
1005.000000	0.303030
1006.000000	0.303214
1007.000000	0.303678
1008.000000	0.304267
1009.000000	0.304553
1010.000000	0.304072
1011.000000	0.303486
1012.000000	0.303178
1013.000000	0.302932
1014.000000	0.302299
1015.000000	0.301788
1016.000000	0.302173
1017.000000	0.302682
1018.000000	0.303702
1019.000000	0.304339
1020.000000	0.305360
1021.000000	0.305210
1022.000000	0.303868
1023.000000	0.303977
1024.000000	0.304382
1025.000000	0.304727
1026.000000	0.304854
1027.000000	0.305390
1028.000000	0.305264
1029.000000	0.304850
1030.000000	0.305528
1031.000000	0.306152
1032.000000	0.306439
1033.000000	0.306773
1034.000000	0.306982
1035.000000	0.307090
1036.000000	0.307278
1037.000000	0.307273
1038.000000	0.307356
1039.000000	0.307783
1040.000000	0.307854
1041.000000	0.307301
1042.000000	0.307352
1043.000000	0.307876
1044.000000	0.308203
1045.000000	0.308932
1046.000000	0.309592
1047.000000	0.310087
1048.000000	0.310053
1049.000000	0.310475
1050.000000	0.311402
1051.000000	0.311804
1052.000000	0.311787
1053.000000	0.311851
1054.000000	0.311982
1055.000000	0.312060
1056.000000	0.311898
1057.000000	0.312398
1058.000000	0.313143
1059.000000	0.313267
1060.000000	0.313523
1061.000000	0.314095
1062.000000	0.314309
1063.000000	0.314866
1064.000000	0.315436
1065.000000	0.316286
1066.000000	0.317016
1067.000000	0.317818
1068.000000	0.318105
1069.000000	0.318009
1070.000000	0.318358
1071.000000	0.318683
1072.000000	0.318960
1073.000000	0.319661
1074.000000	0.320078
1075.000000	0.320524
1076.000000	0.320874
1077.000000	0.320941
1078.000000	0.321279
1079.000000	0.321637
1080.000000	0.321749
1081.000000	0.322067
1082.000000	0.322959
1083.000000	0.323287
1084.000000	0.323186
1085.000000	0.323461
1086.000000	0.323544
1087.000000	0.324127
1088.000000	0.325263
1089.000000	0.325882
1090.000000	0.326434
1091.000000	0.327124
1092.000000	0.327196
1093.000000	0.327142
1094.000000	0.327346
1095.000000	0.327418
1096.000000	0.327900
1097.000000	0.328704
1098.000000	0.329339
1099.000000	0.330117
1100.000000	0.330774
1101.000000	0.331272
1102.000000	0.331781
1103.000000	0.332399
1104.000000	0.332781
1105.000000	0.332653
1106.000000	0.333056
1107.000000	0.333715
1108.000000	0.334130
1109.000000	0.334679
1110.000000	0.335518
1111.000000	0.335858
1112.000000	0.335703
1113.000000	0.336009
1114.000000	0.336378
1115.000000	0.336790
1116.000000	0.337452
1117.000000	0.337847
1118.000000	0.338039
1119.000000	0.338357
1120.000000	0.338574
1121.000000	0.338955
1122.000000	0.339787
1123.000000	0.340396
1124.000000	0.340623
1125.000000	0.340987
1126.000000	0.341034
1127.000000	0.341266
1128.000000	0.341600
1129.000000	0.342184
1130.000000	0.342594
1131.000000	0.343086
1132.000000	0.343374
1133.000000	0.343535
1134.000000	0.343849
1135.000000	0.344082
1136.000000	0.344351
1137.000000	0.344774
1138.000000	0.344993
1139.000000	0.345088
1140.000000	0.345417
1141.000000	0.345780
1142.000000	0.346086
1143.000000	0.346393
1144.000000	0.346816
1145.000000	0.347036
1146.000000	0.347172
1147.000000	0.347453
1148.000000	0.347708
1149.000000	0.348042
1150.000000	0.348475
1151.000000	0.348882
1152.000000	0.349274
1153.000000	0.349689
1154.000000	0.350149
1155.000000	0.350407
1156.000000	0.350521
1157.000000	0.350765
1158.000000	0.350853
1159.000000	0.351049
1160.000000	0.351454
1161.000000	0.351717
1162.000000	0.351973
1163.000000	0.352297
1164.000000	0.352584
1165.000000	0.352757
1166.000000	0.352978
1167.000000	0.353108
1168.000000	0.353335
1169.000000	0.353602
1170.000000	0.353931
1171.000000	0.354451
1172.000000	0.354845
1173.000000	0.355140
1174.000000	0.355460
1175.000000	0.355779
1176.000000	0.355978
1177.000000	0.356215
1178.000000	0.356433
1179.000000	0.356520
1180.000000	0.356622
1181.000000	0.356784
1182.000000	0.357056
1183.000000	0.357385
1184.000000	0.357481
1185.000000	0.357642
1186.000000	0.357797
1187.000000	0.357887
1188.000000	0.357913
1189.000000	0.357972
1190.000000	0.358012
1191.000000	0.358127
1192.000000	0.358435
1193.000000	0.358765
1194.000000	0.359030
1195.000000	0.359288
1196.000000	0.359471
1197.000000	0.359628
1198.000000	0.359732
1199.000000	0.359919
1200.000000	0.360065
1201.000000	0.360406
1202.000000	0.360644
1203.000000	0.360808
1204.000000	0.360877
1205.000000	0.360916
1206.000000	0.360965
1207.000000	0.361146
1208.000000	0.361209
1209.000000	0.361248
1210.000000	0.361344
1211.000000	0.361433
1212.000000	0.361526
1213.000000	0.361700
1214.000000	0.361887
1215.000000	0.362071
1216.000000	0.362264
1217.000000	0.362444
1218.000000	0.362638
1219.000000	0.362978
1220.000000	0.363097
1221.000000	0.363110
1222.000000	0.363211
1223.000000	0.363268
1224.000000	0.363288
1225.000000	0.363451
1226.000000	0.363602
1227.000000	0.363495
1228.000000	0.363519
1229.000000	0.363503
1230.000000	0.363346
1231.000000	0.363332
1232.000000	0.363613
1233.000000	0.363784
1234.000000	0.363970
1235.000000	0.364074
1236.000000	0.363936
1237.000000	0.364018
1238.000000	0.364144
1239.000000	0.364215
1240.000000	0.364387
1241.000000	0.364416
1242.000000	0.364481
1243.000000	0.364546
1244.000000	0.364453
1245.000000	0.364633
1246.000000	0.364715
1247.000000	0.364679
1248.000000	0.364996
1249.000000	0.365339
1250.000000	0.365393
1251.000000	0.365596
1252.000000	0.365731
1253.000000	0.365736
1254.000000	0.365798
1255.000000	0.365950
1256.000000	0.366005
1257.000000	0.366075
1258.000000	0.366074
1259.000000	0.365901
1260.000000	0.365871
1261.000000	0.365713
1262.000000	0.365641
1263.000000	0.365674
1264.000000	0.365780
1265.000000	0.365770
1266.000000	0.365586
1267.000000	0.365643
1268.000000	0.365533
1269.000000	0.365337
1270.000000	0.365601
1271.000000	0.365724
1272.000000	0.365819
1273.000000	0.366143
1274.000000	0.366201
1275.000000	0.366265
1276.000000	0.366304
1277.000000	0.366443
1278.000000	0.366468
1279.000000	0.366526
1280.000000	0.366485
1281.000000	0.366501
1282.000000	0.366648
1283.000000	0.366782
1284.000000	0.366927
1285.000000	0.366984
1286.000000	0.366914
1287.000000	0.366862
1288.000000	0.366894
1289.000000	0.366884
1290.000000	0.366801
1291.000000	0.366686
1292.000000	0.366533
1293.000000	0.366477
1294.000000	0.366576
1295.000000	0.366700
1296.000000	0.366755
1297.000000	0.366723
1298.000000	0.366635
1299.000000	0.366576
1300.000000	0.366684
1301.000000	0.366821
1302.000000	0.366876
1303.000000	0.367193
1304.000000	0.367125
1305.000000	0.366857
1306.000000	0.366707
1307.000000	0.366430
1308.000000	0.366387
1309.000000	0.366586
1310.000000	0.366670
1311.000000	0.366882
1312.000000	0.366784
1313.000000	0.366708
1314.000000	0.366778
1315.000000	0.366729
1316.000000	0.366697
1317.000000	0.366606
1318.000000	0.366545
1319.000000	0.366440
1320.000000	0.366369
1321.000000	0.366381
1322.000000	0.366107
1323.000000	0.365894
1324.000000	0.365912
1325.000000	0.365691
1326.000000	0.365626
1327.000000	0.365759
1328.000000	0.365748
1329.000000	0.365735
1330.000000	0.365937
1331.000000	0.365905
1332.000000	0.365683
1333.000000	0.365651
1334.000000	0.365701
1335.000000	0.365732
1336.000000	0.365870
1337.000000	0.365841
1338.000000	0.365625
1339.000000	0.365488
1340.000000	0.365422
1341.000000	0.365442
1342.000000	0.365428
1343.000000	0.365299
1344.000000	0.365130
1345.000000	0.364973
1346.000000	0.365023
1347.000000	0.364945
1348.000000	0.364711
1349.000000	0.364561
1350.000000	0.364403
1351.000000	0.364138
1352.000000	0.364097
1353.000000	0.363992
1354.000000	0.363841
1355.000000	0.363796
1356.000000	0.363651
1357.000000	0.363421
1358.000000	0.363282
1359.000000	0.363146
1360.000000	0.363012
1361.000000	0.362987
1362.000000	0.362917
1363.000000	0.362767
1364.000000	0.362711
1365.000000	0.362738
1366.000000	0.362677
1367.000000	0.362580
1368.000000	0.362450
1369.000000	0.362404
1370.000000	0.362315
1371.000000	0.362160
1372.000000	0.361873
1373.000000	0.361540
1374.000000	0.361143
1375.000000	0.360717
1376.000000	0.360610
1377.000000	0.360518
1378.000000	0.360245
1379.000000	0.359891
1380.000000	0.359396
1381.000000	0.358817
1382.000000	0.358282
1383.000000	0.357949
1384.000000	0.357497
1385.000000	0.356787
1386.000000	0.356092
1387.000000	0.355306
1388.000000	0.354446
1389.000000	0.353598
1390.000000	0.352754
1391.000000	0.351768
1392.000000	0.350803
1393.000000	0.349959
1394.000000	0.349336
1395.000000	0.348578
1396.000000	0.347834
1397.000000	0.346911
1398.000000	0.345803
1399.000000	0.344796
1400.000000	0.343750
1401.000000	0.342770
1402.000000	0.341928
1403.000000	0.340902
1404.000000	0.339966
1405.000000	0.339065
1406.000000	0.338182
1407.000000	0.337279
1408.000000	0.336235
1409.000000	0.335414
1410.000000	0.334708
1411.000000	0.333954
1412.000000	0.333475
1413.000000	0.333126
1414.000000	0.332627
1415.000000	0.332374
1416.000000	0.332214
1417.000000	0.331976
1418.000000	0.332031
1419.000000	0.332159
1420.000000	0.332126
1421.000000	0.332322
1422.000000	0.332433
1423.000000	0.332371
1424.000000	0.332229
1425.000000	0.332065
1426.000000	0.331801
1427.000000	0.331600
1428.000000	0.331444
1429.000000	0.331177
1430.000000	0.330926
1431.000000	0.330784
1432.000000	0.330685
1433.000000	0.330627
1434.000000	0.330768
1435.000000	0.331082
1436.000000	0.331531
1437.000000	0.332166
1438.000000	0.332850
1439.000000	0.333641
1440.000000	0.334585
1441.000000	0.335750
1442.000000	0.336907
1443.000000	0.338113
1444.000000	0.339380
1445.000000	0.340447
1446.000000	0.341469
1447.000000	0.342516
1448.000000	0.343376
1449.000000	0.344243
1450.000000	0.345082
1451.000000	0.345802
1452.000000	0.346330
1453.000000	0.346731
1454.000000	0.347025
1455.000000	0.347150
1456.000000	0.347323
1457.000000	0.347475
1458.000000	0.347560
1459.000000	0.347616
1460.000000	0.347700
1461.000000	0.347849
1462.000000	0.347927
1463.000000	0.347994
1464.000000	0.348090
1465.000000	0.348201
1466.000000	0.348374
1467.000000	0.348616
1468.000000	0.348847
1469.000000	0.349079
1470.000000	0.349259
1471.000000	0.349482
1472.000000	0.349685
1473.000000	0.349951
1474.000000	0.350270
1475.000000	0.350558
1476.000000	0.350692
1477.000000	0.350891
1478.000000	0.351127
1479.000000	0.351311
1480.000000	0.351667
1481.000000	0.351924
1482.000000	0.352207
1483.000000	0.352455
1484.000000	0.352660
1485.000000	0.352858
1486.000000	0.352987
1487.000000	0.353232
1488.000000	0.353564
1489.000000	0.353874
1490.000000	0.354111
1491.000000	0.354381
1492.000000	0.354577
1493.000000	0.354762
1494.000000	0.354968
1495.000000	0.355084
1496.000000	0.355032
1497.000000	0.355177
1498.000000	0.355404
1499.000000	0.355593
1500.000000	0.355885
1501.000000	0.356131
1502.000000	0.356166
1503.000000	0.356327
1504.000000	0.356646
1505.000000	0.356905
1506.000000	0.357196
1507.000000	0.357408
1508.000000	0.357572
1509.000000	0.357749
1510.000000	0.358027
1511.000000	0.358364
1512.000000	0.358450
1513.000000	0.358455
1514.000000	0.358495
1515.000000	0.358520
1516.000000	0.358761
1517.000000	0.359013
1518.000000	0.359138
1519.000000	0.359093
1520.000000	0.359020
1521.000000	0.358934
1522.000000	0.358957
1523.000000	0.359191
1524.000000	0.359288
1525.000000	0.359391
1526.000000	0.359564
1527.000000	0.359545
1528.000000	0.359583
1529.000000	0.359624
1530.000000	0.359483
1531.000000	0.359620
1532.000000	0.359864
1533.000000	0.359935
1534.000000	0.360050
1535.000000	0.360138
1536.000000	0.360038
1537.000000	0.360167
1538.000000	0.360368
1539.000000	0.360355
1540.000000	0.360449
1541.000000	0.360563
1542.000000	0.360659
1543.000000	0.360846
1544.000000	0.360975
1545.000000	0.361148
1546.000000	0.361383
1547.000000	0.361526
1548.000000	0.361561
1549.000000	0.361623
1550.000000	0.361684
1551.000000	0.361802
1552.000000	0.362069
1553.000000	0.362212
1554.000000	0.362291
1555.000000	0.362328
1556.000000	0.362389
1557.000000	0.362622
1558.000000	0.362789
1559.000000	0.362939
1560.000000	0.363030
1561.000000	0.363085
1562.000000	0.363149
1563.000000	0.363236
1564.000000	0.363309
1565.000000	0.363376
1566.000000	0.363378
1567.000000	0.363478
1568.000000	0.363491
1569.000000	0.363572
1570.000000	0.363545
1571.000000	0.363366
1572.000000	0.363301
1573.000000	0.363211
1574.000000	0.363211
1575.000000	0.363337
1576.000000	0.363382
1577.000000	0.363434
1578.000000	0.363453
1579.000000	0.363510
1580.000000	0.363531
1581.000000	0.363599
1582.000000	0.363602
1583.000000	0.363518
1584.000000	0.363489
1585.000000	0.363605
1586.000000	0.363626
1587.000000	0.363589
1588.000000	0.363598
1589.000000	0.363597
1590.000000	0.363623
1591.000000	0.363771
1592.000000	0.363828
1593.000000	0.363859
1594.000000	0.363827
1595.000000	0.363777
1596.000000	0.363783
1597.000000	0.363819
1598.000000	0.363806
1599.000000	0.363884
1600.000000	0.363822
1601.000000	0.363709
1602.000000	0.363644
1603.000000	0.363593
1604.000000	0.363564
1605.000000	0.363593
1606.000000	0.363569
1607.000000	0.363571
1608.000000	0.363589
1609.000000	0.363702
1610.000000	0.363678
1611.000000	0.363653
1612.000000	0.363619
1613.000000	0.363561
1614.000000	0.363543
1615.000000	0.363662
1616.000000	0.363710
1617.000000	0.363703
1618.000000	0.363678
1619.000000	0.363610
1620.000000	0.363507
1621.000000	0.363356
1622.000000	0.363339
1623.000000	0.363266
1624.000000	0.363279
1625.000000	0.363308
1626.000000	0.363228
1627.000000	0.363145
1628.000000	0.363133
1629.000000	0.363026
1630.000000	0.363056
1631.000000	0.363162
1632.000000	0.363135
1633.000000	0.363207
1634.000000	0.363120
1635.000000	0.362839
1636.000000	0.362734
1637.000000	0.362608
1638.000000	0.362537
1639.000000	0.362704
1640.000000	0.362736
1641.000000	0.362780
1642.000000	0.362842
1643.000000	0.362903
1644.000000	0.362999
1645.000000	0.363214
1646.000000	0.363197
1647.000000	0.363138
1648.000000	0.363004
1649.000000	0.362723
1650.000000	0.362670
1651.000000	0.362762
1652.000000	0.362839
1653.000000	0.362970
1654.000000	0.363076
1655.000000	0.363072
1656.000000	0.363034
1657.000000	0.363091
1658.000000	0.363080
1659.000000	0.363167
1660.000000	0.363185
1661.000000	0.363076
1662.000000	0.362952
1663.000000	0.362654
1664.000000	0.362592
1665.000000	0.362625
1666.000000	0.362703
1667.000000	0.362863
1668.000000	0.362859
1669.000000	0.362735
1670.000000	0.362629
1671.000000	0.362598
1672.000000	0.362563
1673.000000	0.362495
1674.000000	0.362346
1675.000000	0.362358
1676.000000	0.362315
1677.000000	0.362296
1678.000000	0.362383
1679.000000	0.362407
1680.000000	0.362495
1681.000000	0.362629
1682.000000	0.362721
1683.000000	0.362757
1684.000000	0.362632
1685.000000	0.362626
1686.000000	0.362643
1687.000000	0.362667
1688.000000	0.362722
1689.000000	0.362657
1690.000000	0.362479
1691.000000	0.362398
1692.000000	0.362287
1693.000000	0.362278
1694.000000	0.362285
1695.000000	0.362335
1696.000000	0.362496
1697.000000	0.362472
1698.000000	0.362467
1699.000000	0.362401
1700.000000	0.362097
1701.000000	0.362044
1702.000000	0.361840
1703.000000	0.361718
1704.000000	0.361947
1705.000000	0.361969
1706.000000	0.361863
1707.000000	0.361928
1708.000000	0.362027
1709.000000	0.361991
1710.000000	0.362174
1711.000000	0.362240
1712.000000	0.362043
1713.000000	0.362047
1714.000000	0.362251
1715.000000	0.362365
1716.000000	0.362646
1717.000000	0.362640
1718.000000	0.362345
1719.000000	0.362185
1720.000000	0.361964
1721.000000	0.361819
1722.000000	0.361861
1723.000000	0.361729
1724.000000	0.361467
1725.000000	0.361382
1726.000000	0.361236
1727.000000	0.361115
1728.000000	0.361083
1729.000000	0.360848
1730.000000	0.360632
1731.000000	0.360409
1732.000000	0.360083
1733.000000	0.359987
1734.000000	0.359809
1735.000000	0.359759
1736.000000	0.359871
1737.000000	0.359825
1738.000000	0.359755
1739.000000	0.359754
1740.000000	0.359710
1741.000000	0.359682
1742.000000	0.359710
1743.000000	0.359844
1744.000000	0.360003
1745.000000	0.360006
1746.000000	0.360035
1747.000000	0.360040
1748.000000	0.359918
1749.000000	0.359790
1750.000000	0.359704
1751.000000	0.359749
1752.000000	0.359733
1753.000000	0.359501
1754.000000	0.359452
1755.000000	0.359374
1756.000000	0.359218
1757.000000	0.359141
1758.000000	0.359154
1759.000000	0.359091
1760.000000	0.359015
1761.000000	0.359054
1762.000000	0.359011
1763.000000	0.358811
1764.000000	0.358730
1765.000000	0.358729
1766.000000	0.358699
1767.000000	0.358567
1768.000000	0.358434
1769.000000	0.358380
1770.000000	0.358398
1771.000000	0.358440
1772.000000	0.358408
1773.000000	0.358325
1774.000000	0.358270
1775.000000	0.358215
1776.000000	0.358191
1777.000000	0.358158
1778.000000	0.358187
1779.000000	0.358203
1780.000000	0.358289
1781.000000	0.358467
1782.000000	0.358478
1783.000000	0.358549
1784.000000	0.358489
1785.000000	0.358104
1786.000000	0.357940
1787.000000	0.357840
1788.000000	0.357932
1789.000000	0.358178
1790.000000	0.358011
1791.000000	0.357883
1792.000000	0.357556
1793.000000	0.357456
1794.000000	0.357693
1795.000000	0.357832
1796.000000	0.358060
1797.000000	0.358124
1798.000000	0.358035
1799.000000	0.357967
1800.000000	0.357797
1801.000000	0.357992
1802.000000	0.358047
1803.000000	0.357761
1804.000000	0.357773
1805.000000	0.357616
1806.000000	0.357918
1807.000000	0.358922
1808.000000	0.359246
1809.000000	0.359582
1810.000000	0.359746
1811.000000	0.359635
1812.000000	0.358767
1813.000000	0.358522
1814.000000	0.358477
1815.000000	0.358507
1816.000000	0.358888
1817.000000	0.358796
1818.000000	0.358527
1819.000000	0.358404
1820.000000	0.358938
1821.000000	0.358648
1822.000000	0.358795
1823.000000	0.359792
1824.000000	0.359586
1825.000000	0.358036
1826.000000	0.357908
1827.000000	0.358396
1828.000000	0.357644
1829.000000	0.357570
1830.000000	0.358509
1831.000000	0.358820
1832.000000	0.358591
1833.000000	0.358556
1834.000000	0.358923
1835.000000	0.358844
1836.000000	0.358348
1837.000000	0.358023
1838.000000	0.357423
1839.000000	0.356779
1840.000000	0.356907
1841.000000	0.356764
1842.000000	0.356652
1843.000000	0.356856
1844.000000	0.356995
1845.000000	0.356736
1846.000000	0.356719
1847.000000	0.356927
1848.000000	0.357096
1849.000000	0.356457
1850.000000	0.356015
1851.000000	0.355917
1852.000000	0.355829
1853.000000	0.355702
1854.000000	0.355875
1855.000000	0.355498
1856.000000	0.354585
1857.000000	0.353822
1858.000000	0.353126
1859.000000	0.352521
1860.000000	0.351956
1861.000000	0.351699
1862.000000	0.351270
1863.000000	0.350786
1864.000000	0.350505
1865.000000	0.350263
1866.000000	0.350224
1867.000000	0.350767
1868.000000	0.350402
1869.000000	0.349844
1870.000000	0.349202
1871.000000	0.347805
1872.000000	0.346978
1873.000000	0.346056
1874.000000	0.345449
1875.000000	0.344331
1876.000000	0.342613
1877.000000	0.340801
1878.000000	0.339528
1879.000000	0.337649
1880.000000	0.336171
1881.000000	0.334771
1882.000000	0.332715
1883.000000	0.330849
1884.000000	0.328921
1885.000000	0.326951
1886.000000	0.324418
1887.000000	0.321568
1888.000000	0.318407
1889.000000	0.314965
1890.000000	0.312071
1891.000000	0.309631
1892.000000	0.306621
1893.000000	0.303443
1894.000000	0.299872
1895.000000	0.296429
1896.000000	0.292776
1897.000000	0.289680
1898.000000	0.286617
1899.000000	0.283996
1900.000000	0.281192
1901.000000	0.278584
1902.000000	0.276242
1903.000000	0.274241
1904.000000	0.272710
1905.000000	0.271080
1906.000000	0.269568
1907.000000	0.268293
1908.000000	0.266870
1909.000000	0.266106
1910.000000	0.265887
1911.000000	0.265532
1912.000000	0.265884
1913.000000	0.266006
1914.000000	0.266404
1915.000000	0.267543
1916.000000	0.268684
1917.000000	0.269743
1918.000000	0.271214
1919.000000	0.272279
1920.000000	0.272983
1921.000000	0.273628
1922.000000	0.274172
1923.000000	0.275155
1924.000000	0.276204
1925.000000	0.277490
1926.000000	0.279200
1927.000000	0.280424
1928.000000	0.281298
1929.000000	0.282035
1930.000000	0.282497
1931.000000	0.282390
1932.000000	0.282982
1933.000000	0.283727
1934.000000	0.284462
1935.000000	0.285384
1936.000000	0.286052
1937.000000	0.287027
1938.000000	0.287712
1939.000000	0.288225
1940.000000	0.288789
1941.000000	0.289096
1942.000000	0.288979
1943.000000	0.289417
1944.000000	0.289875
1945.000000	0.290432
1946.000000	0.291550
1947.000000	0.292353
1948.000000	0.293160
1949.000000	0.293988
1950.000000	0.293916
1951.000000	0.293842
1952.000000	0.293409
1953.000000	0.293138
1954.000000	0.293290
1955.000000	0.293959
1956.000000	0.294800
1957.000000	0.295647
1958.000000	0.296144
1959.000000	0.296405
1960.000000	0.296599
1961.000000	0.297048
1962.000000	0.297202
1963.000000	0.297154
1964.000000	0.297458
1965.000000	0.297625
1966.000000	0.297250
1967.000000	0.298070
1968.000000	0.298890
1969.000000	0.299981
1970.000000	0.301337
1971.000000	0.301486
1972.000000	0.301408
1973.000000	0.301462
1974.000000	0.301041
1975.000000	0.301466
1976.000000	0.302543
1977.000000	0.303568
1978.000000	0.304574
1979.000000	0.304981
1980.000000	0.305099
1981.000000	0.305551
1982.000000	0.306078
1983.000000	0.307434
1984.000000	0.308378
1985.000000	0.309751
1986.000000	0.310091
1987.000000	0.309980
1988.000000	0.309750
1989.000000	0.309228
1990.000000	0.309297
1991.000000	0.310161
1992.000000	0.310573
1993.000000	0.311191
1994.000000	0.312091
1995.000000	0.313130
1996.000000	0.314087
1997.000000	0.314766
1998.000000	0.315461
1999.000000	0.316143
2000.000000	0.316544
2001.000000	0.317003
2002.000000	0.317196
2003.000000	0.317217
2004.000000	0.317719
2005.000000	0.317615
2006.000000	0.318291
2007.000000	0.319070
2008.000000	0.319308
2009.000000	0.318856
2010.000000	0.319027
2011.000000	0.318996
2012.000000	0.319170
2013.000000	0.319529
2014.000000	0.319975
2015.000000	0.320177
2016.000000	0.320450
2017.000000	0.320680
2018.000000	0.321452
2019.000000	0.322599
2020.000000	0.323242
2021.000000	0.323861
2022.000000	0.324447
2023.000000	0.324708
2024.000000	0.324711
2025.000000	0.324962
2026.000000	0.324872
2027.000000	0.324855
2028.000000	0.325758
2029.000000	0.326202
2030.000000	0.326594
2031.000000	0.327164
2032.000000	0.327375
2033.000000	0.328014
2034.000000	0.328444
2035.000000	0.329377
2036.000000	0.329487
2037.000000	0.328931
2038.000000	0.328985
2039.000000	0.328939
2040.000000	0.329408
2041.000000	0.330466
2042.000000	0.331314
2043.000000	0.331437
2044.000000	0.330955
2045.000000	0.330759
2046.000000	0.330638
2047.000000	0.330551
2048.000000	0.330854
2049.000000	0.331228
2050.000000	0.330859
2051.000000	0.331039
2052.000000	0.331850
2053.000000	0.332011
2054.000000	0.332260
2055.000000	0.332504
2056.000000	0.332445
2057.000000	0.332620
2058.000000	0.333280
2059.000000	0.333711
2060.000000	0.333872
2061.000000	0.333958
2062.000000	0.333762
2063.000000	0.333127
2064.000000	0.332818
2065.000000	0.332835
2066.000000	0.332629
2067.000000	0.332839
2068.000000	0.332720
2069.000000	0.332288
2070.000000	0.332761
2071.000000	0.333348
2072.000000	0.333656
2073.000000	0.333802
2074.000000	0.333661
2075.000000	0.333824
2076.000000	0.333763
2077.000000	0.334072
2078.000000	0.335056
2079.000000	0.335271
2080.000000	0.335176
2081.000000	0.335166
2082.000000	0.334675
2083.000000	0.334832
2084.000000	0.335099
2085.000000	0.335248
2086.000000	0.335488
2087.000000	0.335693
2088.000000	0.336304
2089.000000	0.336809
2090.000000	0.337130
2091.000000	0.337454
2092.000000	0.337874
2093.000000	0.338350
2094.000000	0.338641
2095.000000	0.339178
2096.000000	0.339413
2097.000000	0.339377
2098.000000	0.338651
2099.000000	0.338198
2100.000000	0.337806
2101.000000	0.337135
2102.000000	0.336250
2103.000000	0.335901
2104.000000	0.335719
2105.000000	0.335395
2106.000000	0.335227
2107.000000	0.335308
2108.000000	0.335249
2109.000000	0.335469
2110.000000	0.335917
2111.000000	0.336246
2112.000000	0.336774
2113.000000	0.336423
2114.000000	0.336354
2115.000000	0.337168
2116.000000	0.337281
2117.000000	0.337274
2118.000000	0.337642
2119.000000	0.337229
2120.000000	0.337202
2121.000000	0.337412
2122.000000	0.337478
2123.000000	0.337350
2124.000000	0.337573
2125.000000	0.337833
2126.000000	0.338053
2127.000000	0.338562
2128.000000	0.339016
2129.000000	0.339331
2130.000000	0.339826
2131.000000	0.339899
2132.000000	0.339317
2133.000000	0.338620
2134.000000	0.338218
2135.000000	0.337650
2136.000000	0.337891
2137.000000	0.338332
2138.000000	0.339492
2139.000000	0.339737
2140.000000	0.340289
2141.000000	0.340096
2142.000000	0.338514
2143.000000	0.337637
2144.000000	0.336988
2145.000000	0.336609
2146.000000	0.336766
2147.000000	0.337192
2148.000000	0.336776
2149.000000	0.335854
2150.000000	0.335232
2151.000000	0.334187
2152.000000	0.333332
2153.000000	0.333596
2154.000000	0.333642
2155.000000	0.333881
2156.000000	0.334075
2157.000000	0.334738
2158.000000	0.334738
2159.000000	0.334256
2160.000000	0.334132
2161.000000	0.333880
2162.000000	0.333816
2163.000000	0.333654
2164.000000	0.333620
2165.000000	0.333375
2166.000000	0.334098
2167.000000	0.334547
2168.000000	0.335350
2169.000000	0.335180
2170.000000	0.334089
2171.000000	0.333936
2172.000000	0.333524
2173.000000	0.333682
2174.000000	0.335160
2175.000000	0.335213
2176.000000	0.334789
2177.000000	0.334128
2178.000000	0.331833
2179.000000	0.331702
2180.000000	0.332555
2181.000000	0.333495
2182.000000	0.335049
2183.000000	0.337117
2184.000000	0.337161
2185.000000	0.336181
2186.000000	0.334709
2187.000000	0.332792
2188.000000	0.331974
2189.000000	0.330378
2190.000000	0.328490
2191.000000	0.328609
2192.000000	0.328036
2193.000000	0.327182
2194.000000	0.327200
2195.000000	0.327829
2196.000000	0.327905
2197.000000	0.328389
2198.000000	0.328600
2199.000000	0.329544
2200.000000	0.329531
2201.000000	0.328363
2202.000000	0.327689
2203.000000	0.326057
2204.000000	0.324237
2205.000000	0.324136
2206.000000	0.324281
2207.000000	0.324089
2208.000000	0.322539
2209.000000	0.321463
2210.000000	0.320577
2211.000000	0.320010
2212.000000	0.321275
2213.000000	0.322245
2214.000000	0.324101
2215.000000	0.324869
2216.000000	0.324777
2217.000000	0.326363
2218.000000	0.328304
2219.000000	0.329454
2220.000000	0.332506
2221.000000	0.333447
2222.000000	0.332687
2223.000000	0.331926
2224.000000	0.330507
2225.000000	0.328702
2226.000000	0.326088
2227.000000	0.324461
2228.000000	0.325984
2229.000000	0.327106
2230.000000	0.330154
2231.000000	0.332251
2232.000000	0.331552
2233.000000	0.330449
2234.000000	0.327769
2235.000000	0.326505
2236.000000	0.325145
2237.000000	0.323986
2238.000000	0.323599
2239.000000	0.322543
2240.000000	0.323307
2241.000000	0.327027
2242.000000	0.327783
2243.000000	0.327562
2244.000000	0.328748
2245.000000	0.329497
2246.000000	0.329382
2247.000000	0.330688
2248.000000	0.330851
2249.000000	0.329257
2250.000000	0.327323
2251.000000	0.326119
2252.000000	0.324783
2253.000000	0.322341
2254.000000	0.318880
2255.000000	0.318092
2256.000000	0.319394
2257.000000	0.320486
2258.000000	0.323464
2259.000000	0.325192
2260.000000	0.324289
2261.000000	0.323765
2262.000000	0.322972
2263.000000	0.321771
2264.000000	0.319795
2265.000000	0.318017
2266.000000	0.316613
2267.000000	0.314135
2268.000000	0.310417
2269.000000	0.307935
2270.000000	0.305690
2271.000000	0.303045
2272.000000	0.300637
2273.000000	0.298779
2274.000000	0.295629
2275.000000	0.294070
2276.000000	0.294415
2277.000000	0.294026
2278.000000	0.292364
2279.000000	0.293674
2280.000000	0.294787
2281.000000	0.294316
2282.000000	0.294457
2283.000000	0.292645
2284.000000	0.290526
2285.000000	0.289756
2286.000000	0.290491
2287.000000	0.292744
2288.000000	0.292533
2289.000000	0.291692
2290.000000	0.290816
2291.000000	0.289250
2292.000000	0.290582
2293.000000	0.293446
2294.000000	0.295535
2295.000000	0.299087
2296.000000	0.300276
2297.000000	0.299329
2298.000000	0.299853
2299.000000	0.300046
2300.000000	0.300698
2301.000000	0.302005
2302.000000	0.303723
2303.000000	0.306056
2304.000000	0.307418
2305.000000	0.309528
2306.000000	0.310394
2307.000000	0.310271
2308.000000	0.308551
2309.000000	0.307594
2310.000000	0.306295
2311.000000	0.304997
2312.000000	0.305204
2313.000000	0.304408
2314.000000	0.304457
2315.000000	0.304505
2316.000000	0.303580
2317.000000	0.306093
2318.000000	0.307918
2319.000000	0.309906
2320.000000	0.313793
2321.000000	0.314365
2322.000000	0.315211
2323.000000	0.315975
2324.000000	0.316465
2325.000000	0.316330
2326.000000	0.314501
2327.000000	0.315795
2328.000000	0.314761
2329.000000	0.313489
2330.000000	0.314755
2331.000000	0.313299
2332.000000	0.313851
2333.000000	0.316893
2334.000000	0.317645
2335.000000	0.316863
2336.000000	0.312902
2337.000000	0.311144
2338.000000	0.308133
2339.000000	0.308184
2340.000000	0.313223
2341.000000	0.312388
2342.000000	0.308167
2343.000000	0.305232
2344.000000	0.298379
2345.000000	0.296706
2346.000000	0.299884
2347.000000	0.300857
2348.000000	0.303202
2349.000000	0.304172
2350.000000	0.302405
2351.000000	0.301758
2352.000000	0.300141
2353.000000	0.300213
2354.000000	0.303040
2355.000000	0.305735
2356.000000	0.306617
2357.000000	0.305713
2358.000000	0.302738
2359.000000	0.297810
2360.000000	0.295606
2361.000000	0.295910
2362.000000	0.295747
2363.000000	0.297824
2364.000000	0.299381
2365.000000	0.297007
2366.000000	0.293582
2367.000000	0.290133
2368.000000	0.286377
2369.000000	0.288042
2370.000000	0.290200
2371.000000	0.290093
2372.000000	0.291999
2373.000000	0.291461
2374.000000	0.291418
2375.000000	0.290774
2376.000000	0.290310
2377.000000	0.290687
2378.000000	0.291044
2379.000000	0.297365
2380.000000	0.301650
2381.000000	0.302771
2382.000000	0.302501
2383.000000	0.297753
2384.000000	0.292789
2385.000000	0.287306
2386.000000	0.281863
2387.000000	0.278131
2388.000000	0.275781
2389.000000	0.275522
2390.000000	0.274762
2391.000000	0.270881
2392.000000	0.269550
2393.000000	0.272851
2394.000000	0.279246
2395.000000	0.289447
2396.000000	0.293541
2397.000000	0.289866
2398.000000	0.286892
2399.000000	0.277586
2400.000000	0.269537
2401.000000	0.270736
2402.000000	0.266437
2403.000000	0.261171
2404.000000	0.257322
2405.000000	0.250858
2406.000000	0.252048
2407.000000	0.256582
2408.000000	0.264703
2409.000000	0.276460
2410.000000	0.278598
2411.000000	0.272694
2412.000000	0.264073
2413.000000	0.252581
2414.000000	0.248111
2415.000000	0.256070
2416.000000	0.266858
2417.000000	0.278717
2418.000000	0.281813
2419.000000	0.277046
2420.000000	0.272878
2421.000000	0.263922
2422.000000	0.258005
2423.000000	0.249777
2424.000000	0.251105
2425.000000	0.258271
2426.000000	0.252373
2427.000000	0.258862
2428.000000	0.265249
2429.000000	0.265254
2430.000000	0.278225
2431.000000	0.280064
2432.000000	0.267469
2433.000000	0.264307
2434.000000	0.263580
2435.000000	0.271742
2436.000000	0.283929
2437.000000	0.282016
2438.000000	0.281801
2439.000000	0.266406
2440.000000	0.253374
2441.000000	0.258107
2442.000000	0.249865
2443.000000	0.258355
2444.000000	0.271530
2445.000000	0.260442
2446.000000	0.266082
2447.000000	0.270591
2448.000000	0.268624
2449.000000	0.280674
2450.000000	0.280903
2451.000000	0.266116
2452.000000	0.245268
2453.000000	0.224758
2454.000000	0.204580
2455.000000	0.186597
2456.000000	0.186641
2457.000000	0.210182
2458.000000	0.235391
2459.000000	0.266693
2460.000000	0.295877
2461.000000	0.292639
2462.000000	0.286670
2463.000000	0.268258
2464.000000	0.245932
2465.000000	0.245654
2466.000000	0.254234
2467.000000	0.261157
2468.000000	0.276947
2469.000000	0.291487
2470.000000	0.271369
2471.000000	0.258158
2472.000000	0.254464
2473.000000	0.244417
2474.000000	0.238827
2475.000000	0.227944
2476.000000	0.225068
2477.000000	0.227435
2478.000000	0.237380
2479.000000	0.260188
2480.000000	0.276464
2481.000000	0.253182
2482.000000	0.214090
2483.000000	0.194907
2484.000000	0.175693
2485.000000	0.159346
2486.000000	0.175510
2487.000000	0.192297
2488.000000	0.176120
2489.000000	0.219611
2490.000000	0.258230
2491.000000	0.287048
2492.000000	0.292556
2493.000000	0.262284
2494.000000	0.252028
2495.000000	0.213259
2496.000000	0.204551
2497.000000	0.228339
2498.000000	0.227918
2499.000000	0.251351
2500.000000	0.261009
