# Wavelength	NAu-2-40_HEX-50_FV7-10_00002.asd.rts.txt
350.000000	0.169894
351.000000	0.136303
352.000000	0.121922
353.000000	0.134884
354.000000	0.162912
355.000000	0.163647
356.000000	0.150788
357.000000	0.140987
358.000000	0.154079
359.000000	0.159768
360.000000	0.158989
361.000000	0.158719
362.000000	0.153039
363.000000	0.148591
364.000000	0.148737
365.000000	0.149397
366.000000	0.148048
367.000000	0.146465
368.000000	0.150887
369.000000	0.149489
370.000000	0.147166
371.000000	0.151361
372.000000	0.145721
373.000000	0.143724
374.000000	0.152252
375.000000	0.153370
376.000000	0.149953
377.000000	0.146933
378.000000	0.152307
379.000000	0.153774
380.000000	0.152132
381.000000	0.152474
382.000000	0.152427
383.000000	0.152022
384.000000	0.151726
385.000000	0.151894
386.000000	0.152466
387.000000	0.152838
388.000000	0.151366
389.000000	0.150516
390.000000	0.151274
391.000000	0.153627
392.000000	0.154642
393.000000	0.154855
394.000000	0.155008
395.000000	0.154609
396.000000	0.154389
397.000000	0.154452
398.000000	0.154144
399.000000	0.154021
400.000000	0.154207
401.000000	0.154543
402.000000	0.154486
403.000000	0.154622
404.000000	0.155336
405.000000	0.154683
406.000000	0.155266
407.000000	0.157218
408.000000	0.156083
409.000000	0.155444
410.000000	0.155812
411.000000	0.156073
412.000000	0.156598
413.000000	0.157050
414.000000	0.157162
415.000000	0.157787
416.000000	0.158204
417.000000	0.158180
418.000000	0.158742
419.000000	0.159757
420.000000	0.160609
421.000000	0.160130
422.000000	0.159812
423.000000	0.160093
424.000000	0.161009
425.000000	0.161733
426.000000	0.161998
427.000000	0.161863
428.000000	0.162066
429.000000	0.162384
430.000000	0.162789
431.000000	0.163596
432.000000	0.163911
433.000000	0.163854
434.000000	0.164085
435.000000	0.164382
436.000000	0.164543
437.000000	0.164540
438.000000	0.165320
439.000000	0.165816
440.000000	0.165768
441.000000	0.166467
442.000000	0.166666
443.000000	0.166543
444.000000	0.167379
445.000000	0.167415
446.000000	0.167448
447.000000	0.168505
448.000000	0.168684
449.000000	0.168707
450.000000	0.169239
451.000000	0.170113
452.000000	0.170619
453.000000	0.170776
454.000000	0.171654
455.000000	0.171744
456.000000	0.171602
457.000000	0.172404
458.000000	0.172976
459.000000	0.173533
460.000000	0.174302
461.000000	0.174336
462.000000	0.174467
463.000000	0.174940
464.000000	0.175248
465.000000	0.175623
466.000000	0.176069
467.000000	0.176562
468.000000	0.177009
469.000000	0.177337
470.000000	0.177618
471.000000	0.177952
472.000000	0.178222
473.000000	0.178440
474.000000	0.178980
475.000000	0.179297
476.000000	0.179440
477.000000	0.179859
478.000000	0.180421
479.000000	0.180908
480.000000	0.180874
481.000000	0.181272
482.000000	0.181887
483.000000	0.182236
484.000000	0.182492
485.000000	0.182598
486.000000	0.182736
487.000000	0.183163
488.000000	0.183518
489.000000	0.183770
490.000000	0.184079
491.000000	0.184159
492.000000	0.184228
493.000000	0.184468
494.000000	0.184509
495.000000	0.184613
496.000000	0.184873
497.000000	0.184851
498.000000	0.184842
499.000000	0.184992
500.000000	0.185145
501.000000	0.185246
502.000000	0.185345
503.000000	0.185488
504.000000	0.185670
505.000000	0.185918
506.000000	0.186243
507.000000	0.186539
508.000000	0.186824
509.000000	0.187121
510.000000	0.187565
511.000000	0.188019
512.000000	0.188425
513.000000	0.188739
514.000000	0.189076
515.000000	0.189459
516.000000	0.189842
517.000000	0.190346
518.000000	0.190800
519.000000	0.191065
520.000000	0.191483
521.000000	0.191998
522.000000	0.192584
523.000000	0.193273
524.000000	0.193924
525.000000	0.194585
526.000000	0.195443
527.000000	0.196361
528.000000	0.197363
529.000000	0.198519
530.000000	0.199678
531.000000	0.200910
532.000000	0.202205
533.000000	0.203579
534.000000	0.204977
535.000000	0.206378
536.000000	0.207817
537.000000	0.209192
538.000000	0.210530
539.000000	0.211890
540.000000	0.213213
541.000000	0.214424
542.000000	0.215520
543.000000	0.216634
544.000000	0.217743
545.000000	0.218799
546.000000	0.219911
547.000000	0.221054
548.000000	0.222254
549.000000	0.223496
550.000000	0.224777
551.000000	0.226195
552.000000	0.227794
553.000000	0.229384
554.000000	0.231005
555.000000	0.232723
556.000000	0.234595
557.000000	0.236470
558.000000	0.238405
559.000000	0.240424
560.000000	0.242442
561.000000	0.244462
562.000000	0.246393
563.000000	0.248292
564.000000	0.250127
565.000000	0.251788
566.000000	0.253506
567.000000	0.255144
568.000000	0.256611
569.000000	0.258026
570.000000	0.259289
571.000000	0.260397
572.000000	0.261462
573.000000	0.262406
574.000000	0.263224
575.000000	0.263979
576.000000	0.264596
577.000000	0.265146
578.000000	0.265716
579.000000	0.266106
580.000000	0.266408
581.000000	0.266659
582.000000	0.266802
583.000000	0.266933
584.000000	0.267016
585.000000	0.266948
586.000000	0.266842
587.000000	0.266690
588.000000	0.266471
589.000000	0.266220
590.000000	0.265943
591.000000	0.265625
592.000000	0.265204
593.000000	0.264688
594.000000	0.264107
595.000000	0.263528
596.000000	0.262848
597.000000	0.262192
598.000000	0.261656
599.000000	0.261019
600.000000	0.260333
601.000000	0.259614
602.000000	0.258921
603.000000	0.258263
604.000000	0.257625
605.000000	0.256930
606.000000	0.256226
607.000000	0.255533
608.000000	0.254858
609.000000	0.254241
610.000000	0.253645
611.000000	0.253018
612.000000	0.252403
613.000000	0.251761
614.000000	0.251110
615.000000	0.250523
616.000000	0.249944
617.000000	0.249319
618.000000	0.248667
619.000000	0.248149
620.000000	0.247663
621.000000	0.247071
622.000000	0.246482
623.000000	0.245947
624.000000	0.245493
625.000000	0.245109
626.000000	0.244668
627.000000	0.244169
628.000000	0.243812
629.000000	0.243541
630.000000	0.243224
631.000000	0.242915
632.000000	0.242682
633.000000	0.242477
634.000000	0.242244
635.000000	0.242108
636.000000	0.241987
637.000000	0.241819
638.000000	0.241649
639.000000	0.241539
640.000000	0.241508
641.000000	0.241404
642.000000	0.241364
643.000000	0.241375
644.000000	0.241385
645.000000	0.241398
646.000000	0.241463
647.000000	0.241584
648.000000	0.241716
649.000000	0.241844
650.000000	0.241991
651.000000	0.242298
652.000000	0.242531
653.000000	0.242733
654.000000	0.243005
655.000000	0.243354
656.000000	0.243749
657.000000	0.244124
658.000000	0.244566
659.000000	0.245048
660.000000	0.245542
661.000000	0.246060
662.000000	0.246575
663.000000	0.247132
664.000000	0.247742
665.000000	0.248379
666.000000	0.249034
667.000000	0.249685
668.000000	0.250424
669.000000	0.251202
670.000000	0.252002
671.000000	0.252897
672.000000	0.253812
673.000000	0.254729
674.000000	0.255688
675.000000	0.256752
676.000000	0.257831
677.000000	0.258838
678.000000	0.259949
679.000000	0.261105
680.000000	0.262261
681.000000	0.263432
682.000000	0.264715
683.000000	0.266040
684.000000	0.267358
685.000000	0.268757
686.000000	0.270201
687.000000	0.271585
688.000000	0.273116
689.000000	0.274655
690.000000	0.276146
691.000000	0.277763
692.000000	0.279381
693.000000	0.281047
694.000000	0.282857
695.000000	0.284622
696.000000	0.286388
697.000000	0.288279
698.000000	0.290149
699.000000	0.292068
700.000000	0.294090
701.000000	0.296071
702.000000	0.298073
703.000000	0.300114
704.000000	0.302203
705.000000	0.304349
706.000000	0.306517
707.000000	0.308739
708.000000	0.310934
709.000000	0.313113
710.000000	0.315327
711.000000	0.317658
712.000000	0.320027
713.000000	0.322397
714.000000	0.324714
715.000000	0.327100
716.000000	0.329556
717.000000	0.332004
718.000000	0.334453
719.000000	0.336938
720.000000	0.339484
721.000000	0.341982
722.000000	0.344433
723.000000	0.346902
724.000000	0.349350
725.000000	0.351772
726.000000	0.354239
727.000000	0.356663
728.000000	0.359092
729.000000	0.361532
730.000000	0.363931
731.000000	0.366377
732.000000	0.368782
733.000000	0.371168
734.000000	0.373556
735.000000	0.375939
736.000000	0.378386
737.000000	0.380688
738.000000	0.382899
739.000000	0.385167
740.000000	0.387356
741.000000	0.389411
742.000000	0.391534
743.000000	0.393718
744.000000	0.395852
745.000000	0.397903
746.000000	0.399903
747.000000	0.401795
748.000000	0.403694
749.000000	0.405560
750.000000	0.407312
751.000000	0.408980
752.000000	0.410667
753.000000	0.412396
754.000000	0.414087
755.000000	0.415750
756.000000	0.417361
757.000000	0.418843
758.000000	0.420332
759.000000	0.421798
760.000000	0.423126
761.000000	0.424416
762.000000	0.425679
763.000000	0.426902
764.000000	0.428158
765.000000	0.429282
766.000000	0.430339
767.000000	0.431396
768.000000	0.432338
769.000000	0.433303
770.000000	0.434303
771.000000	0.435135
772.000000	0.435968
773.000000	0.436770
774.000000	0.437615
775.000000	0.438398
776.000000	0.439107
777.000000	0.439732
778.000000	0.440316
779.000000	0.440925
780.000000	0.441559
781.000000	0.442119
782.000000	0.442562
783.000000	0.443080
784.000000	0.443633
785.000000	0.444193
786.000000	0.444704
787.000000	0.445118
788.000000	0.445414
789.000000	0.445740
790.000000	0.446060
791.000000	0.446317
792.000000	0.446580
793.000000	0.446809
794.000000	0.446988
795.000000	0.447206
796.000000	0.447427
797.000000	0.447591
798.000000	0.447628
799.000000	0.447746
800.000000	0.447882
801.000000	0.447932
802.000000	0.448052
803.000000	0.448205
804.000000	0.448387
805.000000	0.448492
806.000000	0.448464
807.000000	0.448468
808.000000	0.448551
809.000000	0.448637
810.000000	0.448697
811.000000	0.448677
812.000000	0.448476
813.000000	0.448407
814.000000	0.448457
815.000000	0.448355
816.000000	0.448256
817.000000	0.448213
818.000000	0.448115
819.000000	0.447990
820.000000	0.447897
821.000000	0.447777
822.000000	0.447612
823.000000	0.447505
824.000000	0.447343
825.000000	0.447143
826.000000	0.447048
827.000000	0.446903
828.000000	0.446709
829.000000	0.446632
830.000000	0.446553
831.000000	0.446427
832.000000	0.446027
833.000000	0.445754
834.000000	0.445566
835.000000	0.445416
836.000000	0.445248
837.000000	0.445006
838.000000	0.444733
839.000000	0.444487
840.000000	0.444135
841.000000	0.443753
842.000000	0.443413
843.000000	0.443294
844.000000	0.443168
845.000000	0.442930
846.000000	0.442728
847.000000	0.442464
848.000000	0.442185
849.000000	0.441996
850.000000	0.441775
851.000000	0.441457
852.000000	0.441147
853.000000	0.441031
854.000000	0.440672
855.000000	0.440359
856.000000	0.440244
857.000000	0.439938
858.000000	0.439645
859.000000	0.439344
860.000000	0.438926
861.000000	0.438600
862.000000	0.438366
863.000000	0.438040
864.000000	0.437678
865.000000	0.437405
866.000000	0.437254
867.000000	0.436972
868.000000	0.436713
869.000000	0.436338
870.000000	0.435815
871.000000	0.435474
872.000000	0.435207
873.000000	0.434875
874.000000	0.434688
875.000000	0.434292
876.000000	0.433807
877.000000	0.433427
878.000000	0.432949
879.000000	0.432628
880.000000	0.432408
881.000000	0.432267
882.000000	0.432025
883.000000	0.431684
884.000000	0.431268
885.000000	0.431054
886.000000	0.430763
887.000000	0.430283
888.000000	0.429773
889.000000	0.429395
890.000000	0.428979
891.000000	0.428560
892.000000	0.428209
893.000000	0.427864
894.000000	0.427611
895.000000	0.427226
896.000000	0.426902
897.000000	0.426627
898.000000	0.426315
899.000000	0.425880
900.000000	0.425492
901.000000	0.425182
902.000000	0.424970
903.000000	0.424653
904.000000	0.424379
905.000000	0.424172
906.000000	0.423872
907.000000	0.423521
908.000000	0.423214
909.000000	0.422851
910.000000	0.422497
911.000000	0.422182
912.000000	0.421930
913.000000	0.421643
914.000000	0.421417
915.000000	0.421276
916.000000	0.420961
917.000000	0.420514
918.000000	0.420084
919.000000	0.419751
920.000000	0.419507
921.000000	0.419314
922.000000	0.419070
923.000000	0.418642
924.000000	0.418341
925.000000	0.418026
926.000000	0.417663
927.000000	0.417327
928.000000	0.416984
929.000000	0.416581
930.000000	0.416125
931.000000	0.415930
932.000000	0.415751
933.000000	0.415536
934.000000	0.415319
935.000000	0.414921
936.000000	0.414557
937.000000	0.414268
938.000000	0.413875
939.000000	0.413649
940.000000	0.413489
941.000000	0.413289
942.000000	0.412906
943.000000	0.412773
944.000000	0.412820
945.000000	0.412541
946.000000	0.412073
947.000000	0.411698
948.000000	0.411550
949.000000	0.411322
950.000000	0.411036
951.000000	0.410674
952.000000	0.410337
953.000000	0.409901
954.000000	0.409554
955.000000	0.409312
956.000000	0.409004
957.000000	0.408810
958.000000	0.408608
959.000000	0.408360
960.000000	0.408179
961.000000	0.408195
962.000000	0.408225
963.000000	0.407831
964.000000	0.407533
965.000000	0.407335
966.000000	0.406986
967.000000	0.406501
968.000000	0.406572
969.000000	0.406759
970.000000	0.406386
971.000000	0.406184
972.000000	0.406042
973.000000	0.405804
974.000000	0.405608
975.000000	0.405614
976.000000	0.405469
977.000000	0.404981
978.000000	0.404736
979.000000	0.404978
980.000000	0.405033
981.000000	0.404664
982.000000	0.404674
983.000000	0.404476
984.000000	0.404188
985.000000	0.404492
986.000000	0.404335
987.000000	0.404008
988.000000	0.403755
989.000000	0.403704
990.000000	0.403671
991.000000	0.403702
992.000000	0.403918
993.000000	0.404122
994.000000	0.403877
995.000000	0.403554
996.000000	0.403523
997.000000	0.403464
998.000000	0.403501
999.000000	0.403676
1000.000000	0.403501
1001.000000	0.403857
1002.000000	0.403650
1003.000000	0.403171
1004.000000	0.402782
1005.000000	0.402609
1006.000000	0.402610
1007.000000	0.402626
1008.000000	0.402520
1009.000000	0.403093
1010.000000	0.403161
1011.000000	0.402902
1012.000000	0.402730
1013.000000	0.402661
1014.000000	0.402916
1015.000000	0.403342
1016.000000	0.403333
1017.000000	0.403667
1018.000000	0.404595
1019.000000	0.404591
1020.000000	0.404502
1021.000000	0.404042
1022.000000	0.402544
1023.000000	0.402185
1024.000000	0.401972
1025.000000	0.402538
1026.000000	0.403167
1027.000000	0.403433
1028.000000	0.403956
1029.000000	0.404433
1030.000000	0.404325
1031.000000	0.404143
1032.000000	0.403980
1033.000000	0.404316
1034.000000	0.404617
1035.000000	0.405643
1036.000000	0.405973
1037.000000	0.405860
1038.000000	0.405626
1039.000000	0.405161
1040.000000	0.405151
1041.000000	0.404898
1042.000000	0.404978
1043.000000	0.405556
1044.000000	0.406060
1045.000000	0.406163
1046.000000	0.406012
1047.000000	0.406134
1048.000000	0.405844
1049.000000	0.405938
1050.000000	0.406573
1051.000000	0.406793
1052.000000	0.406759
1053.000000	0.406856
1054.000000	0.407185
1055.000000	0.407514
1056.000000	0.408061
1057.000000	0.408266
1058.000000	0.408428
1059.000000	0.408308
1060.000000	0.408425
1061.000000	0.408882
1062.000000	0.409155
1063.000000	0.409756
1064.000000	0.410234
1065.000000	0.410678
1066.000000	0.410885
1067.000000	0.411018
1068.000000	0.411079
1069.000000	0.410530
1070.000000	0.410662
1071.000000	0.411449
1072.000000	0.411784
1073.000000	0.412210
1074.000000	0.412863
1075.000000	0.412725
1076.000000	0.412404
1077.000000	0.412565
1078.000000	0.412912
1079.000000	0.413054
1080.000000	0.413335
1081.000000	0.413640
1082.000000	0.413958
1083.000000	0.414155
1084.000000	0.414579
1085.000000	0.414858
1086.000000	0.414704
1087.000000	0.414927
1088.000000	0.415353
1089.000000	0.415609
1090.000000	0.415978
1091.000000	0.415986
1092.000000	0.415979
1093.000000	0.416485
1094.000000	0.416692
1095.000000	0.416814
1096.000000	0.417065
1097.000000	0.417270
1098.000000	0.417534
1099.000000	0.417880
1100.000000	0.418280
1101.000000	0.418683
1102.000000	0.418916
1103.000000	0.419170
1104.000000	0.419306
1105.000000	0.419104
1106.000000	0.419148
1107.000000	0.419014
1108.000000	0.419192
1109.000000	0.419754
1110.000000	0.420431
1111.000000	0.420646
1112.000000	0.420762
1113.000000	0.421083
1114.000000	0.421220
1115.000000	0.421377
1116.000000	0.421872
1117.000000	0.422084
1118.000000	0.421785
1119.000000	0.421842
1120.000000	0.422245
1121.000000	0.422358
1122.000000	0.422474
1123.000000	0.422847
1124.000000	0.422791
1125.000000	0.422997
1126.000000	0.423526
1127.000000	0.423727
1128.000000	0.423816
1129.000000	0.423852
1130.000000	0.423979
1131.000000	0.423925
1132.000000	0.424062
1133.000000	0.424524
1134.000000	0.424756
1135.000000	0.424923
1136.000000	0.424924
1137.000000	0.424754
1138.000000	0.424596
1139.000000	0.424342
1140.000000	0.424352
1141.000000	0.424443
1142.000000	0.424528
1143.000000	0.424628
1144.000000	0.424863
1145.000000	0.424993
1146.000000	0.424917
1147.000000	0.424944
1148.000000	0.424834
1149.000000	0.424893
1150.000000	0.425061
1151.000000	0.425159
1152.000000	0.425209
1153.000000	0.425318
1154.000000	0.425415
1155.000000	0.425379
1156.000000	0.425332
1157.000000	0.425291
1158.000000	0.424976
1159.000000	0.424886
1160.000000	0.424942
1161.000000	0.424975
1162.000000	0.425208
1163.000000	0.425423
1164.000000	0.425586
1165.000000	0.425782
1166.000000	0.425916
1167.000000	0.425961
1168.000000	0.426003
1169.000000	0.426004
1170.000000	0.426109
1171.000000	0.426336
1172.000000	0.426524
1173.000000	0.426677
1174.000000	0.426832
1175.000000	0.426947
1176.000000	0.426992
1177.000000	0.427170
1178.000000	0.427261
1179.000000	0.427221
1180.000000	0.427177
1181.000000	0.427274
1182.000000	0.427180
1183.000000	0.427305
1184.000000	0.427527
1185.000000	0.427603
1186.000000	0.427700
1187.000000	0.427746
1188.000000	0.427677
1189.000000	0.427608
1190.000000	0.427542
1191.000000	0.427595
1192.000000	0.427785
1193.000000	0.428082
1194.000000	0.428449
1195.000000	0.428663
1196.000000	0.428709
1197.000000	0.428825
1198.000000	0.428917
1199.000000	0.429055
1200.000000	0.429205
1201.000000	0.429411
1202.000000	0.429625
1203.000000	0.429748
1204.000000	0.429760
1205.000000	0.429815
1206.000000	0.429838
1207.000000	0.429887
1208.000000	0.429954
1209.000000	0.430184
1210.000000	0.430284
1211.000000	0.430267
1212.000000	0.430417
1213.000000	0.430690
1214.000000	0.430892
1215.000000	0.431187
1216.000000	0.431362
1217.000000	0.431363
1218.000000	0.431415
1219.000000	0.431435
1220.000000	0.431597
1221.000000	0.431867
1222.000000	0.432023
1223.000000	0.432195
1224.000000	0.432388
1225.000000	0.432524
1226.000000	0.432740
1227.000000	0.433019
1228.000000	0.433307
1229.000000	0.433500
1230.000000	0.433614
1231.000000	0.433673
1232.000000	0.433824
1233.000000	0.434014
1234.000000	0.434083
1235.000000	0.434243
1236.000000	0.434355
1237.000000	0.434582
1238.000000	0.434904
1239.000000	0.435040
1240.000000	0.435079
1241.000000	0.435205
1242.000000	0.435227
1243.000000	0.435262
1244.000000	0.435559
1245.000000	0.435767
1246.000000	0.435752
1247.000000	0.436066
1248.000000	0.436369
1249.000000	0.436633
1250.000000	0.436955
1251.000000	0.437112
1252.000000	0.437359
1253.000000	0.437618
1254.000000	0.437829
1255.000000	0.438112
1256.000000	0.438319
1257.000000	0.438364
1258.000000	0.438616
1259.000000	0.438940
1260.000000	0.439209
1261.000000	0.439501
1262.000000	0.439661
1263.000000	0.439674
1264.000000	0.439732
1265.000000	0.439961
1266.000000	0.440051
1267.000000	0.440395
1268.000000	0.440751
1269.000000	0.440720
1270.000000	0.440801
1271.000000	0.440765
1272.000000	0.440706
1273.000000	0.441004
1274.000000	0.441299
1275.000000	0.441483
1276.000000	0.441715
1277.000000	0.442026
1278.000000	0.442119
1279.000000	0.442286
1280.000000	0.442520
1281.000000	0.442632
1282.000000	0.442703
1283.000000	0.442939
1284.000000	0.443161
1285.000000	0.443319
1286.000000	0.443424
1287.000000	0.443584
1288.000000	0.443740
1289.000000	0.443826
1290.000000	0.443890
1291.000000	0.443969
1292.000000	0.444173
1293.000000	0.444417
1294.000000	0.444565
1295.000000	0.444769
1296.000000	0.444864
1297.000000	0.444862
1298.000000	0.445011
1299.000000	0.445065
1300.000000	0.445114
1301.000000	0.445165
1302.000000	0.445153
1303.000000	0.445328
1304.000000	0.445332
1305.000000	0.445377
1306.000000	0.445352
1307.000000	0.445243
1308.000000	0.445193
1309.000000	0.445153
1310.000000	0.445134
1311.000000	0.445147
1312.000000	0.445186
1313.000000	0.445207
1314.000000	0.445237
1315.000000	0.445105
1316.000000	0.445022
1317.000000	0.445034
1318.000000	0.444870
1319.000000	0.444729
1320.000000	0.444640
1321.000000	0.444401
1322.000000	0.444289
1323.000000	0.444202
1324.000000	0.444117
1325.000000	0.443966
1326.000000	0.443687
1327.000000	0.443665
1328.000000	0.443798
1329.000000	0.443631
1330.000000	0.443435
1331.000000	0.443316
1332.000000	0.443072
1333.000000	0.442850
1334.000000	0.442890
1335.000000	0.442840
1336.000000	0.442595
1337.000000	0.442439
1338.000000	0.442276
1339.000000	0.442197
1340.000000	0.442019
1341.000000	0.441781
1342.000000	0.441667
1343.000000	0.441402
1344.000000	0.441036
1345.000000	0.440863
1346.000000	0.440766
1347.000000	0.440500
1348.000000	0.440356
1349.000000	0.440049
1350.000000	0.439543
1351.000000	0.439088
1352.000000	0.438790
1353.000000	0.438589
1354.000000	0.438440
1355.000000	0.438184
1356.000000	0.437867
1357.000000	0.437402
1358.000000	0.437013
1359.000000	0.436752
1360.000000	0.436432
1361.000000	0.436161
1362.000000	0.435818
1363.000000	0.435414
1364.000000	0.435087
1365.000000	0.434701
1366.000000	0.434383
1367.000000	0.434138
1368.000000	0.433800
1369.000000	0.433541
1370.000000	0.433281
1371.000000	0.432998
1372.000000	0.432577
1373.000000	0.432106
1374.000000	0.431659
1375.000000	0.431068
1376.000000	0.430504
1377.000000	0.429880
1378.000000	0.429120
1379.000000	0.428301
1380.000000	0.427522
1381.000000	0.426571
1382.000000	0.425490
1383.000000	0.424449
1384.000000	0.423107
1385.000000	0.421583
1386.000000	0.420148
1387.000000	0.418672
1388.000000	0.416994
1389.000000	0.415239
1390.000000	0.413414
1391.000000	0.411348
1392.000000	0.409342
1393.000000	0.407178
1394.000000	0.405006
1395.000000	0.402699
1396.000000	0.400281
1397.000000	0.397626
1398.000000	0.394796
1399.000000	0.392010
1400.000000	0.388965
1401.000000	0.386096
1402.000000	0.383378
1403.000000	0.380537
1404.000000	0.377898
1405.000000	0.375383
1406.000000	0.372894
1407.000000	0.370599
1408.000000	0.368282
1409.000000	0.366120
1410.000000	0.364302
1411.000000	0.362445
1412.000000	0.360551
1413.000000	0.358836
1414.000000	0.357081
1415.000000	0.355443
1416.000000	0.354004
1417.000000	0.352542
1418.000000	0.350924
1419.000000	0.349381
1420.000000	0.347908
1421.000000	0.346564
1422.000000	0.345225
1423.000000	0.343961
1424.000000	0.342742
1425.000000	0.341545
1426.000000	0.340371
1427.000000	0.339320
1428.000000	0.338254
1429.000000	0.337133
1430.000000	0.336134
1431.000000	0.335101
1432.000000	0.334063
1433.000000	0.333028
1434.000000	0.332077
1435.000000	0.331223
1436.000000	0.330427
1437.000000	0.329693
1438.000000	0.328945
1439.000000	0.328199
1440.000000	0.327658
1441.000000	0.327201
1442.000000	0.326923
1443.000000	0.326783
1444.000000	0.326699
1445.000000	0.326704
1446.000000	0.326804
1447.000000	0.326898
1448.000000	0.327024
1449.000000	0.327179
1450.000000	0.327378
1451.000000	0.327645
1452.000000	0.327883
1453.000000	0.328067
1454.000000	0.328131
1455.000000	0.328148
1456.000000	0.328236
1457.000000	0.328297
1458.000000	0.328303
1459.000000	0.328299
1460.000000	0.328272
1461.000000	0.328362
1462.000000	0.328556
1463.000000	0.328590
1464.000000	0.328645
1465.000000	0.328755
1466.000000	0.328762
1467.000000	0.329001
1468.000000	0.329384
1469.000000	0.329663
1470.000000	0.329927
1471.000000	0.330374
1472.000000	0.330811
1473.000000	0.331381
1474.000000	0.332015
1475.000000	0.332485
1476.000000	0.332898
1477.000000	0.333464
1478.000000	0.334118
1479.000000	0.334771
1480.000000	0.335505
1481.000000	0.336200
1482.000000	0.336893
1483.000000	0.337635
1484.000000	0.338423
1485.000000	0.339221
1486.000000	0.339993
1487.000000	0.340825
1488.000000	0.341760
1489.000000	0.342644
1490.000000	0.343412
1491.000000	0.344220
1492.000000	0.344995
1493.000000	0.345723
1494.000000	0.346386
1495.000000	0.347054
1496.000000	0.347623
1497.000000	0.348305
1498.000000	0.349096
1499.000000	0.349765
1500.000000	0.350450
1501.000000	0.351118
1502.000000	0.351599
1503.000000	0.352246
1504.000000	0.353008
1505.000000	0.353604
1506.000000	0.354205
1507.000000	0.354774
1508.000000	0.355268
1509.000000	0.355826
1510.000000	0.356393
1511.000000	0.356981
1512.000000	0.357532
1513.000000	0.357902
1514.000000	0.358289
1515.000000	0.358646
1516.000000	0.358949
1517.000000	0.359326
1518.000000	0.359726
1519.000000	0.360002
1520.000000	0.360365
1521.000000	0.360654
1522.000000	0.360980
1523.000000	0.361423
1524.000000	0.361618
1525.000000	0.361865
1526.000000	0.362115
1527.000000	0.362257
1528.000000	0.362564
1529.000000	0.362906
1530.000000	0.363149
1531.000000	0.363490
1532.000000	0.363778
1533.000000	0.364006
1534.000000	0.364291
1535.000000	0.364441
1536.000000	0.364615
1537.000000	0.365082
1538.000000	0.365439
1539.000000	0.365658
1540.000000	0.365948
1541.000000	0.366162
1542.000000	0.366385
1543.000000	0.366667
1544.000000	0.366860
1545.000000	0.367065
1546.000000	0.367227
1547.000000	0.367401
1548.000000	0.367753
1549.000000	0.368009
1550.000000	0.368088
1551.000000	0.368282
1552.000000	0.368386
1553.000000	0.368380
1554.000000	0.368535
1555.000000	0.368633
1556.000000	0.368706
1557.000000	0.368762
1558.000000	0.368858
1559.000000	0.368943
1560.000000	0.368939
1561.000000	0.368937
1562.000000	0.368952
1563.000000	0.368926
1564.000000	0.368952
1565.000000	0.369030
1566.000000	0.369018
1567.000000	0.369109
1568.000000	0.369119
1569.000000	0.369163
1570.000000	0.369204
1571.000000	0.369151
1572.000000	0.369181
1573.000000	0.369290
1574.000000	0.369350
1575.000000	0.369419
1576.000000	0.369536
1577.000000	0.369674
1578.000000	0.369734
1579.000000	0.369898
1580.000000	0.369955
1581.000000	0.369955
1582.000000	0.369984
1583.000000	0.369986
1584.000000	0.369935
1585.000000	0.369962
1586.000000	0.369983
1587.000000	0.369935
1588.000000	0.369976
1589.000000	0.370112
1590.000000	0.370195
1591.000000	0.370289
1592.000000	0.370437
1593.000000	0.370629
1594.000000	0.370782
1595.000000	0.371091
1596.000000	0.371261
1597.000000	0.371384
1598.000000	0.371372
1599.000000	0.371240
1600.000000	0.371171
1601.000000	0.371105
1602.000000	0.371092
1603.000000	0.371201
1604.000000	0.371270
1605.000000	0.371322
1606.000000	0.371468
1607.000000	0.371787
1608.000000	0.371908
1609.000000	0.372066
1610.000000	0.372171
1611.000000	0.372122
1612.000000	0.372232
1613.000000	0.372536
1614.000000	0.372774
1615.000000	0.373160
1616.000000	0.373407
1617.000000	0.373515
1618.000000	0.373694
1619.000000	0.373746
1620.000000	0.373985
1621.000000	0.374430
1622.000000	0.374831
1623.000000	0.375262
1624.000000	0.375585
1625.000000	0.375684
1626.000000	0.375802
1627.000000	0.375842
1628.000000	0.376130
1629.000000	0.376538
1630.000000	0.376900
1631.000000	0.377301
1632.000000	0.377580
1633.000000	0.377774
1634.000000	0.378064
1635.000000	0.378404
1636.000000	0.378734
1637.000000	0.379129
1638.000000	0.379408
1639.000000	0.379706
1640.000000	0.380009
1641.000000	0.380317
1642.000000	0.380680
1643.000000	0.381195
1644.000000	0.381505
1645.000000	0.381698
1646.000000	0.381909
1647.000000	0.382042
1648.000000	0.382269
1649.000000	0.382714
1650.000000	0.383081
1651.000000	0.383430
1652.000000	0.383883
1653.000000	0.384339
1654.000000	0.384796
1655.000000	0.385310
1656.000000	0.385569
1657.000000	0.385758
1658.000000	0.385971
1659.000000	0.386203
1660.000000	0.386512
1661.000000	0.386736
1662.000000	0.387047
1663.000000	0.387406
1664.000000	0.387635
1665.000000	0.387844
1666.000000	0.388242
1667.000000	0.388527
1668.000000	0.388854
1669.000000	0.389282
1670.000000	0.389647
1671.000000	0.390060
1672.000000	0.390496
1673.000000	0.391042
1674.000000	0.391257
1675.000000	0.391454
1676.000000	0.391803
1677.000000	0.392088
1678.000000	0.392239
1679.000000	0.392571
1680.000000	0.392896
1681.000000	0.393124
1682.000000	0.393382
1683.000000	0.393593
1684.000000	0.393644
1685.000000	0.393772
1686.000000	0.394052
1687.000000	0.394249
1688.000000	0.394335
1689.000000	0.394363
1690.000000	0.394272
1691.000000	0.394458
1692.000000	0.394829
1693.000000	0.395131
1694.000000	0.395196
1695.000000	0.395362
1696.000000	0.395249
1697.000000	0.395235
1698.000000	0.395474
1699.000000	0.395699
1700.000000	0.395970
1701.000000	0.396285
1702.000000	0.396424
1703.000000	0.396553
1704.000000	0.396715
1705.000000	0.396908
1706.000000	0.397246
1707.000000	0.397475
1708.000000	0.397608
1709.000000	0.397718
1710.000000	0.397838
1711.000000	0.398032
1712.000000	0.398367
1713.000000	0.398571
1714.000000	0.398736
1715.000000	0.398991
1716.000000	0.399309
1717.000000	0.399520
1718.000000	0.399686
1719.000000	0.399859
1720.000000	0.400036
1721.000000	0.400141
1722.000000	0.400293
1723.000000	0.400387
1724.000000	0.400300
1725.000000	0.400445
1726.000000	0.400649
1727.000000	0.400771
1728.000000	0.400884
1729.000000	0.400899
1730.000000	0.400961
1731.000000	0.401038
1732.000000	0.401140
1733.000000	0.401282
1734.000000	0.401243
1735.000000	0.401339
1736.000000	0.401465
1737.000000	0.401566
1738.000000	0.401669
1739.000000	0.401935
1740.000000	0.402284
1741.000000	0.402453
1742.000000	0.402700
1743.000000	0.402931
1744.000000	0.402958
1745.000000	0.403119
1746.000000	0.403388
1747.000000	0.403787
1748.000000	0.403894
1749.000000	0.403844
1750.000000	0.403864
1751.000000	0.403750
1752.000000	0.403944
1753.000000	0.404394
1754.000000	0.404641
1755.000000	0.404854
1756.000000	0.404933
1757.000000	0.404746
1758.000000	0.404728
1759.000000	0.404677
1760.000000	0.404705
1761.000000	0.404866
1762.000000	0.404889
1763.000000	0.404871
1764.000000	0.404889
1765.000000	0.404767
1766.000000	0.404797
1767.000000	0.404846
1768.000000	0.404864
1769.000000	0.405039
1770.000000	0.405224
1771.000000	0.405383
1772.000000	0.405491
1773.000000	0.405482
1774.000000	0.405632
1775.000000	0.405907
1776.000000	0.406116
1777.000000	0.406401
1778.000000	0.406510
1779.000000	0.406403
1780.000000	0.406536
1781.000000	0.406666
1782.000000	0.406828
1783.000000	0.407181
1784.000000	0.407296
1785.000000	0.407499
1786.000000	0.407766
1787.000000	0.407919
1788.000000	0.408148
1789.000000	0.408293
1790.000000	0.408449
1791.000000	0.408591
1792.000000	0.408980
1793.000000	0.409107
1794.000000	0.409018
1795.000000	0.409095
1796.000000	0.409035
1797.000000	0.409065
1798.000000	0.409259
1799.000000	0.409431
1800.000000	0.409725
1801.000000	0.409196
1802.000000	0.409456
1803.000000	0.409763
1804.000000	0.409812
1805.000000	0.409100
1806.000000	0.408767
1807.000000	0.408376
1808.000000	0.408267
1809.000000	0.407698
1810.000000	0.408278
1811.000000	0.408692
1812.000000	0.410013
1813.000000	0.409843
1814.000000	0.408730
1815.000000	0.408659
1816.000000	0.408171
1817.000000	0.407962
1818.000000	0.408532
1819.000000	0.409738
1820.000000	0.409639
1821.000000	0.409482
1822.000000	0.409431
1823.000000	0.409102
1824.000000	0.409090
1825.000000	0.409311
1826.000000	0.409275
1827.000000	0.409160
1828.000000	0.408911
1829.000000	0.408724
1830.000000	0.408690
1831.000000	0.408296
1832.000000	0.407915
1833.000000	0.407460
1834.000000	0.406339
1835.000000	0.405914
1836.000000	0.405824
1837.000000	0.405759
1838.000000	0.405822
1839.000000	0.406074
1840.000000	0.405515
1841.000000	0.404992
1842.000000	0.404550
1843.000000	0.403520
1844.000000	0.403102
1845.000000	0.403565
1846.000000	0.403158
1847.000000	0.402350
1848.000000	0.401120
1849.000000	0.400228
1850.000000	0.398534
1851.000000	0.397515
1852.000000	0.396849
1853.000000	0.396416
1854.000000	0.396193
1855.000000	0.395557
1856.000000	0.395287
1857.000000	0.393948
1858.000000	0.392564
1859.000000	0.390170
1860.000000	0.387396
1861.000000	0.386168
1862.000000	0.384331
1863.000000	0.382485
1864.000000	0.380621
1865.000000	0.379055
1866.000000	0.376620
1867.000000	0.373603
1868.000000	0.370912
1869.000000	0.367270
1870.000000	0.363379
1871.000000	0.359672
1872.000000	0.356187
1873.000000	0.352880
1874.000000	0.350381
1875.000000	0.346936
1876.000000	0.343260
1877.000000	0.338389
1878.000000	0.333421
1879.000000	0.328184
1880.000000	0.322809
1881.000000	0.317635
1882.000000	0.312349
1883.000000	0.307391
1884.000000	0.301891
1885.000000	0.295936
1886.000000	0.289850
1887.000000	0.283593
1888.000000	0.276256
1889.000000	0.269653
1890.000000	0.263784
1891.000000	0.257216
1892.000000	0.251266
1893.000000	0.244674
1894.000000	0.237072
1895.000000	0.230419
1896.000000	0.224461
1897.000000	0.218001
1898.000000	0.211578
1899.000000	0.206480
1900.000000	0.201104
1901.000000	0.195786
1902.000000	0.190635
1903.000000	0.185919
1904.000000	0.182082
1905.000000	0.178651
1906.000000	0.175527
1907.000000	0.173250
1908.000000	0.171400
1909.000000	0.169102
1910.000000	0.166582
1911.000000	0.164636
1912.000000	0.162676
1913.000000	0.160706
1914.000000	0.159665
1915.000000	0.158755
1916.000000	0.158111
1917.000000	0.157395
1918.000000	0.157013
1919.000000	0.156083
1920.000000	0.155657
1921.000000	0.155400
1922.000000	0.155401
1923.000000	0.156021
1924.000000	0.156241
1925.000000	0.156070
1926.000000	0.155591
1927.000000	0.155190
1928.000000	0.154927
1929.000000	0.154711
1930.000000	0.154572
1931.000000	0.154778
1932.000000	0.155030
1933.000000	0.155212
1934.000000	0.155574
1935.000000	0.155816
1936.000000	0.155582
1937.000000	0.155386
1938.000000	0.155516
1939.000000	0.155738
1940.000000	0.156148
1941.000000	0.156706
1942.000000	0.156849
1943.000000	0.156994
1944.000000	0.156935
1945.000000	0.156796
1946.000000	0.157335
1947.000000	0.157052
1948.000000	0.156562
1949.000000	0.156318
1950.000000	0.155575
1951.000000	0.154938
1952.000000	0.154433
1953.000000	0.153802
1954.000000	0.153363
1955.000000	0.153172
1956.000000	0.153241
1957.000000	0.153422
1958.000000	0.153078
1959.000000	0.152687
1960.000000	0.152262
1961.000000	0.151951
1962.000000	0.151754
1963.000000	0.151857
1964.000000	0.151913
1965.000000	0.151487
1966.000000	0.151452
1967.000000	0.151703
1968.000000	0.151503
1969.000000	0.151794
1970.000000	0.152078
1971.000000	0.151547
1972.000000	0.151077
1973.000000	0.151372
1974.000000	0.152456
1975.000000	0.153031
1976.000000	0.153918
1977.000000	0.154971
1978.000000	0.155358
1979.000000	0.155459
1980.000000	0.155515
1981.000000	0.156484
1982.000000	0.157270
1983.000000	0.157387
1984.000000	0.157974
1985.000000	0.158899
1986.000000	0.159367
1987.000000	0.159599
1988.000000	0.160462
1989.000000	0.161093
1990.000000	0.162169
1991.000000	0.163595
1992.000000	0.164753
1993.000000	0.165767
1994.000000	0.166373
1995.000000	0.166585
1996.000000	0.166825
1997.000000	0.167469
1998.000000	0.168320
1999.000000	0.169290
2000.000000	0.170554
2001.000000	0.172011
2002.000000	0.173344
2003.000000	0.174459
2004.000000	0.175316
2005.000000	0.176271
2006.000000	0.177217
2007.000000	0.178218
2008.000000	0.179611
2009.000000	0.181405
2010.000000	0.183101
2011.000000	0.185127
2012.000000	0.186550
2013.000000	0.187541
2014.000000	0.188969
2015.000000	0.189879
2016.000000	0.191279
2017.000000	0.192758
2018.000000	0.193579
2019.000000	0.194291
2020.000000	0.194685
2021.000000	0.195550
2022.000000	0.196611
2023.000000	0.197756
2024.000000	0.199103
2025.000000	0.200680
2026.000000	0.202520
2027.000000	0.203750
2028.000000	0.205535
2029.000000	0.207565
2030.000000	0.209019
2031.000000	0.210526
2032.000000	0.211556
2033.000000	0.212364
2034.000000	0.213325
2035.000000	0.214231
2036.000000	0.215074
2037.000000	0.216102
2038.000000	0.217099
2039.000000	0.217976
2040.000000	0.219090
2041.000000	0.220241
2042.000000	0.220877
2043.000000	0.221728
2044.000000	0.222684
2045.000000	0.223066
2046.000000	0.223720
2047.000000	0.224602
2048.000000	0.225123
2049.000000	0.226365
2050.000000	0.228355
2051.000000	0.229630
2052.000000	0.230617
2053.000000	0.231807
2054.000000	0.232953
2055.000000	0.234280
2056.000000	0.235766
2057.000000	0.237347
2058.000000	0.238711
2059.000000	0.239745
2060.000000	0.240488
2061.000000	0.240748
2062.000000	0.241337
2063.000000	0.241623
2064.000000	0.242306
2065.000000	0.243881
2066.000000	0.244870
2067.000000	0.245833
2068.000000	0.246872
2069.000000	0.247676
2070.000000	0.248944
2071.000000	0.250510
2072.000000	0.252107
2073.000000	0.253657
2074.000000	0.254431
2075.000000	0.255290
2076.000000	0.255589
2077.000000	0.256450
2078.000000	0.257558
2079.000000	0.258492
2080.000000	0.259713
2081.000000	0.260729
2082.000000	0.261385
2083.000000	0.262366
2084.000000	0.263389
2085.000000	0.264256
2086.000000	0.265365
2087.000000	0.266327
2088.000000	0.267391
2089.000000	0.267974
2090.000000	0.268945
2091.000000	0.269906
2092.000000	0.271181
2093.000000	0.273094
2094.000000	0.274524
2095.000000	0.276063
2096.000000	0.277109
2097.000000	0.277477
2098.000000	0.278088
2099.000000	0.278759
2100.000000	0.279576
2101.000000	0.280765
2102.000000	0.282183
2103.000000	0.283126
2104.000000	0.283713
2105.000000	0.284561
2106.000000	0.285171
2107.000000	0.286025
2108.000000	0.287344
2109.000000	0.288208
2110.000000	0.288784
2111.000000	0.289436
2112.000000	0.289578
2113.000000	0.290023
2114.000000	0.290971
2115.000000	0.291455
2116.000000	0.292475
2117.000000	0.293086
2118.000000	0.293388
2119.000000	0.294455
2120.000000	0.295150
2121.000000	0.295624
2122.000000	0.296345
2123.000000	0.297062
2124.000000	0.297771
2125.000000	0.298920
2126.000000	0.299499
2127.000000	0.299748
2128.000000	0.300203
2129.000000	0.300565
2130.000000	0.300370
2131.000000	0.300355
2132.000000	0.300748
2133.000000	0.300865
2134.000000	0.301198
2135.000000	0.301477
2136.000000	0.302025
2137.000000	0.302457
2138.000000	0.302937
2139.000000	0.303247
2140.000000	0.303377
2141.000000	0.303791
2142.000000	0.304174
2143.000000	0.304461
2144.000000	0.305073
2145.000000	0.305697
2146.000000	0.306428
2147.000000	0.307305
2148.000000	0.307790
2149.000000	0.308706
2150.000000	0.308797
2151.000000	0.308334
2152.000000	0.308129
2153.000000	0.307648
2154.000000	0.307291
2155.000000	0.306561
2156.000000	0.306742
2157.000000	0.307382
2158.000000	0.308246
2159.000000	0.310359
2160.000000	0.311699
2161.000000	0.312734
2162.000000	0.313617
2163.000000	0.314058
2164.000000	0.314336
2165.000000	0.314339
2166.000000	0.314884
2167.000000	0.314219
2168.000000	0.313399
2169.000000	0.312270
2170.000000	0.310418
2171.000000	0.309973
2172.000000	0.310335
2173.000000	0.310454
2174.000000	0.311546
2175.000000	0.311806
2176.000000	0.311470
2177.000000	0.311172
2178.000000	0.310794
2179.000000	0.310602
2180.000000	0.310478
2181.000000	0.310443
2182.000000	0.309711
2183.000000	0.309210
2184.000000	0.309518
2185.000000	0.309161
2186.000000	0.310197
2187.000000	0.311305
2188.000000	0.311888
2189.000000	0.312785
2190.000000	0.313394
2191.000000	0.313456
2192.000000	0.312895
2193.000000	0.311165
2194.000000	0.310139
2195.000000	0.308566
2196.000000	0.308254
2197.000000	0.309043
2198.000000	0.309113
2199.000000	0.309226
2200.000000	0.309495
2201.000000	0.309732
2202.000000	0.310475
2203.000000	0.311947
2204.000000	0.313449
2205.000000	0.313434
2206.000000	0.311762
2207.000000	0.309088
2208.000000	0.309932
2209.000000	0.311070
2210.000000	0.312815
2211.000000	0.316624
2212.000000	0.315368
2213.000000	0.314319
2214.000000	0.311786
2215.000000	0.310338
2216.000000	0.308009
2217.000000	0.306780
2218.000000	0.306019
2219.000000	0.305612
2220.000000	0.305199
2221.000000	0.305526
2222.000000	0.307204
2223.000000	0.308584
2224.000000	0.310386
2225.000000	0.311600
2226.000000	0.312694
2227.000000	0.312038
2228.000000	0.309830
2229.000000	0.307033
2230.000000	0.303266
2231.000000	0.299615
2232.000000	0.300088
2233.000000	0.301941
2234.000000	0.302830
2235.000000	0.304928
2236.000000	0.305338
2237.000000	0.302557
2238.000000	0.302382
2239.000000	0.303817
2240.000000	0.304029
2241.000000	0.304377
2242.000000	0.304842
2243.000000	0.304087
2244.000000	0.304698
2245.000000	0.306966
2246.000000	0.307756
2247.000000	0.308923
2248.000000	0.308722
2249.000000	0.306758
2250.000000	0.305662
2251.000000	0.303665
2252.000000	0.302643
2253.000000	0.302275
2254.000000	0.300904
2255.000000	0.301164
2256.000000	0.300970
2257.000000	0.299825
2258.000000	0.299820
2259.000000	0.301214
2260.000000	0.302531
2261.000000	0.303050
2262.000000	0.305733
2263.000000	0.304470
2264.000000	0.299642
2265.000000	0.297112
2266.000000	0.293818
2267.000000	0.291791
2268.000000	0.290557
2269.000000	0.289681
2270.000000	0.290068
2271.000000	0.288729
2272.000000	0.286905
2273.000000	0.285542
2274.000000	0.282573
2275.000000	0.281521
2276.000000	0.282723
2277.000000	0.281885
2278.000000	0.282002
2279.000000	0.281431
2280.000000	0.277454
2281.000000	0.275226
2282.000000	0.273133
2283.000000	0.270302
2284.000000	0.269967
2285.000000	0.269870
2286.000000	0.267568
2287.000000	0.265836
2288.000000	0.262979
2289.000000	0.258169
2290.000000	0.255057
2291.000000	0.252819
2292.000000	0.249392
2293.000000	0.248080
2294.000000	0.247397
2295.000000	0.246704
2296.000000	0.247010
2297.000000	0.250261
2298.000000	0.250346
2299.000000	0.249319
2300.000000	0.248648
2301.000000	0.245447
2302.000000	0.245048
2303.000000	0.246519
2304.000000	0.247917
2305.000000	0.251407
2306.000000	0.252960
2307.000000	0.254007
2308.000000	0.254244
2309.000000	0.253026
2310.000000	0.253243
2311.000000	0.252789
2312.000000	0.253066
2313.000000	0.254479
2314.000000	0.253195
2315.000000	0.252470
2316.000000	0.251380
2317.000000	0.249537
2318.000000	0.249697
2319.000000	0.251315
2320.000000	0.251016
2321.000000	0.250033
2322.000000	0.248839
2323.000000	0.245989
2324.000000	0.244894
2325.000000	0.243386
2326.000000	0.241819
2327.000000	0.241536
2328.000000	0.239743
2329.000000	0.238676
2330.000000	0.237879
2331.000000	0.235134
2332.000000	0.233605
2333.000000	0.234315
2334.000000	0.233898
2335.000000	0.234492
2336.000000	0.237252
2337.000000	0.236523
2338.000000	0.234025
2339.000000	0.232083
2340.000000	0.227613
2341.000000	0.226564
2342.000000	0.227767
2343.000000	0.228146
2344.000000	0.229518
2345.000000	0.229434
2346.000000	0.228848
2347.000000	0.227618
2348.000000	0.225191
2349.000000	0.225221
2350.000000	0.222586
2351.000000	0.219162
2352.000000	0.216690
2353.000000	0.212035
2354.000000	0.208364
2355.000000	0.206625
2356.000000	0.207759
2357.000000	0.209469
2358.000000	0.210284
2359.000000	0.211541
2360.000000	0.210067
2361.000000	0.207540
2362.000000	0.204854
2363.000000	0.200532
2364.000000	0.196158
2365.000000	0.193160
2366.000000	0.192264
2367.000000	0.193992
2368.000000	0.195422
2369.000000	0.198597
2370.000000	0.203417
2371.000000	0.202590
2372.000000	0.198886
2373.000000	0.194495
2374.000000	0.187639
2375.000000	0.184036
2376.000000	0.186870
2377.000000	0.184708
2378.000000	0.177364
2379.000000	0.173748
2380.000000	0.169883
2381.000000	0.170317
2382.000000	0.175569
2383.000000	0.179488
2384.000000	0.179586
2385.000000	0.179804
2386.000000	0.181567
2387.000000	0.179046
2388.000000	0.178572
2389.000000	0.173955
2390.000000	0.168184
2391.000000	0.169367
2392.000000	0.164118
2393.000000	0.159572
2394.000000	0.156392
2395.000000	0.147067
2396.000000	0.141118
2397.000000	0.138796
2398.000000	0.137265
2399.000000	0.140161
2400.000000	0.145740
2401.000000	0.151152
2402.000000	0.158719
2403.000000	0.167155
2404.000000	0.173320
2405.000000	0.172287
2406.000000	0.165710
2407.000000	0.156304
2408.000000	0.145128
2409.000000	0.141764
2410.000000	0.148192
2411.000000	0.158947
2412.000000	0.167173
2413.000000	0.173545
2414.000000	0.174214
2415.000000	0.166878
2416.000000	0.169228
2417.000000	0.174088
2418.000000	0.181257
2419.000000	0.197197
2420.000000	0.197955
2421.000000	0.190511
2422.000000	0.184322
2423.000000	0.169131
2424.000000	0.156165
2425.000000	0.152802
2426.000000	0.151537
2427.000000	0.155427
2428.000000	0.163252
2429.000000	0.163418
2430.000000	0.162966
2431.000000	0.162971
2432.000000	0.156893
2433.000000	0.158276
2434.000000	0.157181
2435.000000	0.150142
2436.000000	0.156388
2437.000000	0.156725
2438.000000	0.157661
2439.000000	0.162663
2440.000000	0.158096
2441.000000	0.156393
2442.000000	0.154986
2443.000000	0.140468
2444.000000	0.123464
2445.000000	0.128184
2446.000000	0.132142
2447.000000	0.146396
2448.000000	0.163935
2449.000000	0.157437
2450.000000	0.156713
2451.000000	0.159369
2452.000000	0.165610
2453.000000	0.164165
2454.000000	0.147850
2455.000000	0.143560
2456.000000	0.144203
2457.000000	0.145022
2458.000000	0.158347
2459.000000	0.167030
2460.000000	0.177566
2461.000000	0.191159
2462.000000	0.192887
2463.000000	0.180369
2464.000000	0.159056
2465.000000	0.146340
2466.000000	0.139884
2467.000000	0.140145
2468.000000	0.135462
2469.000000	0.122941
2470.000000	0.125512
2471.000000	0.132992
2472.000000	0.141756
2473.000000	0.149734
2474.000000	0.130715
2475.000000	0.117682
2476.000000	0.103748
2477.000000	0.085533
2478.000000	0.088961
2479.000000	0.091730
2480.000000	0.090554
2481.000000	0.089875
2482.000000	0.117403
2483.000000	0.161534
2484.000000	0.172169
2485.000000	0.183089
2486.000000	0.194351
2487.000000	0.143131
2488.000000	0.108479
2489.000000	0.106569
2490.000000	0.074204
2491.000000	0.086691
2492.000000	0.082813
2493.000000	0.066485
2494.000000	0.084829
2495.000000	0.132945
2496.000000	0.170884
2497.000000	0.235303
2498.000000	0.260270
2499.000000	0.252439
2500.000000	0.219656
