# Wavelength	NAu-2-30_HEX-30_FV7-40_00001.asd.rts.txt
350.000000	0.149368
351.000000	0.148716
352.000000	0.135788
353.000000	0.131971
354.000000	0.144143
355.000000	0.148141
356.000000	0.139011
357.000000	0.125975
358.000000	0.127813
359.000000	0.128232
360.000000	0.130294
361.000000	0.138966
362.000000	0.141627
363.000000	0.141696
364.000000	0.142507
365.000000	0.146197
366.000000	0.142476
367.000000	0.134251
368.000000	0.136222
369.000000	0.142398
370.000000	0.147679
371.000000	0.148074
372.000000	0.147655
373.000000	0.142636
374.000000	0.134584
375.000000	0.141734
376.000000	0.145281
377.000000	0.142240
378.000000	0.144361
379.000000	0.145744
380.000000	0.145299
381.000000	0.144273
382.000000	0.147923
383.000000	0.150128
384.000000	0.148106
385.000000	0.150948
386.000000	0.152324
387.000000	0.150715
388.000000	0.149113
389.000000	0.148541
390.000000	0.148624
391.000000	0.148322
392.000000	0.149279
393.000000	0.150456
394.000000	0.150691
395.000000	0.149246
396.000000	0.148911
397.000000	0.150345
398.000000	0.151875
399.000000	0.151727
400.000000	0.150618
401.000000	0.150391
402.000000	0.152533
403.000000	0.154199
404.000000	0.153362
405.000000	0.153739
406.000000	0.153896
407.000000	0.153327
408.000000	0.153244
409.000000	0.153276
410.000000	0.153536
411.000000	0.154340
412.000000	0.154581
413.000000	0.154744
414.000000	0.155418
415.000000	0.155428
416.000000	0.155202
417.000000	0.155217
418.000000	0.155859
419.000000	0.156660
420.000000	0.157397
421.000000	0.158034
422.000000	0.158058
423.000000	0.157748
424.000000	0.157698
425.000000	0.158139
426.000000	0.158603
427.000000	0.158798
428.000000	0.159321
429.000000	0.159513
430.000000	0.159498
431.000000	0.160547
432.000000	0.161166
433.000000	0.161206
434.000000	0.161197
435.000000	0.161459
436.000000	0.161834
437.000000	0.162056
438.000000	0.161962
439.000000	0.162021
440.000000	0.162448
441.000000	0.162734
442.000000	0.162926
443.000000	0.163164
444.000000	0.163796
445.000000	0.164055
446.000000	0.164078
447.000000	0.164136
448.000000	0.164345
449.000000	0.164603
450.000000	0.164937
451.000000	0.165890
452.000000	0.166537
453.000000	0.166629
454.000000	0.166773
455.000000	0.167246
456.000000	0.167771
457.000000	0.167756
458.000000	0.168275
459.000000	0.168901
460.000000	0.169150
461.000000	0.169198
462.000000	0.169435
463.000000	0.169848
464.000000	0.170076
465.000000	0.170311
466.000000	0.170570
467.000000	0.170874
468.000000	0.171355
469.000000	0.171886
470.000000	0.172361
471.000000	0.172425
472.000000	0.172605
473.000000	0.173133
474.000000	0.173167
475.000000	0.173190
476.000000	0.173412
477.000000	0.173518
478.000000	0.173728
479.000000	0.174164
480.000000	0.174646
481.000000	0.174897
482.000000	0.175084
483.000000	0.175277
484.000000	0.175573
485.000000	0.175979
486.000000	0.176484
487.000000	0.176623
488.000000	0.176805
489.000000	0.177107
490.000000	0.177388
491.000000	0.177485
492.000000	0.177631
493.000000	0.177976
494.000000	0.177978
495.000000	0.177979
496.000000	0.178222
497.000000	0.178620
498.000000	0.178773
499.000000	0.178728
500.000000	0.178939
501.000000	0.179194
502.000000	0.179415
503.000000	0.179504
504.000000	0.179618
505.000000	0.179836
506.000000	0.180170
507.000000	0.180370
508.000000	0.180596
509.000000	0.180922
510.000000	0.181316
511.000000	0.181754
512.000000	0.182139
513.000000	0.182260
514.000000	0.182481
515.000000	0.182841
516.000000	0.183229
517.000000	0.183658
518.000000	0.184034
519.000000	0.184290
520.000000	0.184771
521.000000	0.185260
522.000000	0.185652
523.000000	0.185967
524.000000	0.186399
525.000000	0.186946
526.000000	0.187530
527.000000	0.188235
528.000000	0.188937
529.000000	0.189570
530.000000	0.190420
531.000000	0.191384
532.000000	0.192298
533.000000	0.193138
534.000000	0.194056
535.000000	0.195045
536.000000	0.195969
537.000000	0.196846
538.000000	0.197710
539.000000	0.198586
540.000000	0.199408
541.000000	0.200159
542.000000	0.200877
543.000000	0.201631
544.000000	0.202404
545.000000	0.203130
546.000000	0.203822
547.000000	0.204532
548.000000	0.205312
549.000000	0.206142
550.000000	0.206943
551.000000	0.207777
552.000000	0.208708
553.000000	0.209777
554.000000	0.210860
555.000000	0.211911
556.000000	0.213186
557.000000	0.214384
558.000000	0.215542
559.000000	0.216877
560.000000	0.218075
561.000000	0.219227
562.000000	0.220485
563.000000	0.221690
564.000000	0.222840
565.000000	0.223879
566.000000	0.224872
567.000000	0.225802
568.000000	0.226670
569.000000	0.227610
570.000000	0.228459
571.000000	0.229200
572.000000	0.229971
573.000000	0.230576
574.000000	0.231054
575.000000	0.231566
576.000000	0.232045
577.000000	0.232465
578.000000	0.232855
579.000000	0.233151
580.000000	0.233378
581.000000	0.233563
582.000000	0.233750
583.000000	0.233931
584.000000	0.234067
585.000000	0.234101
586.000000	0.234209
587.000000	0.234339
588.000000	0.234391
589.000000	0.234366
590.000000	0.234287
591.000000	0.234188
592.000000	0.234136
593.000000	0.234007
594.000000	0.233814
595.000000	0.233711
596.000000	0.233548
597.000000	0.233394
598.000000	0.233299
599.000000	0.233057
600.000000	0.232739
601.000000	0.232391
602.000000	0.232096
603.000000	0.231765
604.000000	0.231402
605.000000	0.231163
606.000000	0.230844
607.000000	0.230458
608.000000	0.230152
609.000000	0.229859
610.000000	0.229574
611.000000	0.229303
612.000000	0.229063
613.000000	0.228799
614.000000	0.228511
615.000000	0.228227
616.000000	0.228006
617.000000	0.227825
618.000000	0.227663
619.000000	0.227436
620.000000	0.227142
621.000000	0.226864
622.000000	0.226601
623.000000	0.226420
624.000000	0.226332
625.000000	0.226123
626.000000	0.225945
627.000000	0.225862
628.000000	0.225780
629.000000	0.225751
630.000000	0.225668
631.000000	0.225561
632.000000	0.225443
633.000000	0.225355
634.000000	0.225306
635.000000	0.225187
636.000000	0.225061
637.000000	0.224962
638.000000	0.224890
639.000000	0.224831
640.000000	0.224835
641.000000	0.224891
642.000000	0.224923
643.000000	0.224958
644.000000	0.225053
645.000000	0.225156
646.000000	0.225281
647.000000	0.225412
648.000000	0.225509
649.000000	0.225664
650.000000	0.225891
651.000000	0.226161
652.000000	0.226368
653.000000	0.226580
654.000000	0.226871
655.000000	0.227136
656.000000	0.227406
657.000000	0.227691
658.000000	0.228035
659.000000	0.228418
660.000000	0.228788
661.000000	0.229066
662.000000	0.229371
663.000000	0.229746
664.000000	0.230117
665.000000	0.230524
666.000000	0.230976
667.000000	0.231446
668.000000	0.231932
669.000000	0.232434
670.000000	0.232966
671.000000	0.233561
672.000000	0.234158
673.000000	0.234747
674.000000	0.235372
675.000000	0.235978
676.000000	0.236590
677.000000	0.237258
678.000000	0.237921
679.000000	0.238595
680.000000	0.239310
681.000000	0.240090
682.000000	0.240914
683.000000	0.241704
684.000000	0.242502
685.000000	0.243291
686.000000	0.244101
687.000000	0.244934
688.000000	0.245822
689.000000	0.246753
690.000000	0.247731
691.000000	0.248698
692.000000	0.249653
693.000000	0.250632
694.000000	0.251558
695.000000	0.252559
696.000000	0.253625
697.000000	0.254691
698.000000	0.255789
699.000000	0.256924
700.000000	0.258081
701.000000	0.259190
702.000000	0.260304
703.000000	0.261423
704.000000	0.262520
705.000000	0.263666
706.000000	0.264844
707.000000	0.266065
708.000000	0.267227
709.000000	0.268348
710.000000	0.269489
711.000000	0.270693
712.000000	0.271921
713.000000	0.273160
714.000000	0.274371
715.000000	0.275635
716.000000	0.276924
717.000000	0.278141
718.000000	0.279342
719.000000	0.280567
720.000000	0.281845
721.000000	0.283132
722.000000	0.284385
723.000000	0.285640
724.000000	0.286880
725.000000	0.288049
726.000000	0.289218
727.000000	0.290360
728.000000	0.291444
729.000000	0.292551
730.000000	0.293700
731.000000	0.294896
732.000000	0.296073
733.000000	0.297230
734.000000	0.298336
735.000000	0.299378
736.000000	0.300466
737.000000	0.301507
738.000000	0.302471
739.000000	0.303450
740.000000	0.304361
741.000000	0.305330
742.000000	0.306292
743.000000	0.307201
744.000000	0.308124
745.000000	0.308991
746.000000	0.309850
747.000000	0.310688
748.000000	0.311575
749.000000	0.312462
750.000000	0.313285
751.000000	0.314112
752.000000	0.314891
753.000000	0.315611
754.000000	0.316268
755.000000	0.316859
756.000000	0.317447
757.000000	0.318049
758.000000	0.318629
759.000000	0.319261
760.000000	0.319898
761.000000	0.320518
762.000000	0.321042
763.000000	0.321498
764.000000	0.322061
765.000000	0.322560
766.000000	0.323052
767.000000	0.323589
768.000000	0.324046
769.000000	0.324390
770.000000	0.324656
771.000000	0.324966
772.000000	0.325314
773.000000	0.325651
774.000000	0.326047
775.000000	0.326475
776.000000	0.326846
777.000000	0.327095
778.000000	0.327311
779.000000	0.327533
780.000000	0.327756
781.000000	0.327913
782.000000	0.328140
783.000000	0.328452
784.000000	0.328646
785.000000	0.328812
786.000000	0.328964
787.000000	0.329103
788.000000	0.329243
789.000000	0.329358
790.000000	0.329436
791.000000	0.329530
792.000000	0.329663
793.000000	0.329797
794.000000	0.329893
795.000000	0.329916
796.000000	0.329952
797.000000	0.330030
798.000000	0.330128
799.000000	0.330267
800.000000	0.330381
801.000000	0.330407
802.000000	0.330410
803.000000	0.330445
804.000000	0.330538
805.000000	0.330524
806.000000	0.330485
807.000000	0.330507
808.000000	0.330502
809.000000	0.330375
810.000000	0.330275
811.000000	0.330285
812.000000	0.330241
813.000000	0.330187
814.000000	0.330152
815.000000	0.330182
816.000000	0.330225
817.000000	0.330281
818.000000	0.330268
819.000000	0.330267
820.000000	0.330185
821.000000	0.329992
822.000000	0.329927
823.000000	0.329851
824.000000	0.329765
825.000000	0.329827
826.000000	0.329879
827.000000	0.329839
828.000000	0.329740
829.000000	0.329669
830.000000	0.329537
831.000000	0.329428
832.000000	0.329327
833.000000	0.329248
834.000000	0.329174
835.000000	0.329104
836.000000	0.328944
837.000000	0.328796
838.000000	0.328709
839.000000	0.328642
840.000000	0.328579
841.000000	0.328553
842.000000	0.328528
843.000000	0.328369
844.000000	0.328202
845.000000	0.328047
846.000000	0.327882
847.000000	0.327691
848.000000	0.327546
849.000000	0.327535
850.000000	0.327497
851.000000	0.327300
852.000000	0.327015
853.000000	0.326871
854.000000	0.326706
855.000000	0.326606
856.000000	0.326513
857.000000	0.326400
858.000000	0.326298
859.000000	0.326129
860.000000	0.325886
861.000000	0.325644
862.000000	0.325461
863.000000	0.325301
864.000000	0.325179
865.000000	0.325033
866.000000	0.324872
867.000000	0.324753
868.000000	0.324689
869.000000	0.324524
870.000000	0.324198
871.000000	0.323938
872.000000	0.323664
873.000000	0.323296
874.000000	0.323051
875.000000	0.322786
876.000000	0.322501
877.000000	0.322184
878.000000	0.321879
879.000000	0.321706
880.000000	0.321559
881.000000	0.321423
882.000000	0.321230
883.000000	0.321029
884.000000	0.320856
885.000000	0.320794
886.000000	0.320667
887.000000	0.320434
888.000000	0.320253
889.000000	0.320082
890.000000	0.319849
891.000000	0.319680
892.000000	0.319345
893.000000	0.319009
894.000000	0.318864
895.000000	0.318679
896.000000	0.318456
897.000000	0.318223
898.000000	0.318010
899.000000	0.317732
900.000000	0.317388
901.000000	0.317007
902.000000	0.316800
903.000000	0.316556
904.000000	0.316357
905.000000	0.316198
906.000000	0.315930
907.000000	0.315645
908.000000	0.315452
909.000000	0.315275
910.000000	0.315015
911.000000	0.314761
912.000000	0.314603
913.000000	0.314371
914.000000	0.314139
915.000000	0.313918
916.000000	0.313515
917.000000	0.313277
918.000000	0.313138
919.000000	0.312972
920.000000	0.312786
921.000000	0.312447
922.000000	0.312084
923.000000	0.311880
924.000000	0.311465
925.000000	0.311153
926.000000	0.311074
927.000000	0.310789
928.000000	0.310512
929.000000	0.310254
930.000000	0.309984
931.000000	0.309744
932.000000	0.309568
933.000000	0.309405
934.000000	0.309017
935.000000	0.308763
936.000000	0.308624
937.000000	0.308372
938.000000	0.307856
939.000000	0.307699
940.000000	0.307718
941.000000	0.307439
942.000000	0.307163
943.000000	0.306909
944.000000	0.306613
945.000000	0.306567
946.000000	0.306378
947.000000	0.306123
948.000000	0.305907
949.000000	0.305534
950.000000	0.305281
951.000000	0.305104
952.000000	0.304776
953.000000	0.304712
954.000000	0.304617
955.000000	0.304214
956.000000	0.303883
957.000000	0.303688
958.000000	0.303425
959.000000	0.303002
960.000000	0.303005
961.000000	0.302975
962.000000	0.302693
963.000000	0.302376
964.000000	0.302256
965.000000	0.302225
966.000000	0.302017
967.000000	0.301699
968.000000	0.301337
969.000000	0.300950
970.000000	0.300661
971.000000	0.300476
972.000000	0.300483
973.000000	0.300460
974.000000	0.300035
975.000000	0.299977
976.000000	0.299864
977.000000	0.299388
978.000000	0.299353
979.000000	0.299445
980.000000	0.299310
981.000000	0.299101
982.000000	0.298857
983.000000	0.298476
984.000000	0.298176
985.000000	0.298296
986.000000	0.297972
987.000000	0.297666
988.000000	0.297630
989.000000	0.297489
990.000000	0.297386
991.000000	0.297127
992.000000	0.296648
993.000000	0.296725
994.000000	0.296672
995.000000	0.296535
996.000000	0.296517
997.000000	0.296539
998.000000	0.296666
999.000000	0.296904
1000.000000	0.296899
1001.000000	0.297174
1002.000000	0.296833
1003.000000	0.296460
1004.000000	0.296097
1005.000000	0.294965
1006.000000	0.294657
1007.000000	0.294987
1008.000000	0.295122
1009.000000	0.295211
1010.000000	0.295024
1011.000000	0.294662
1012.000000	0.295206
1013.000000	0.295901
1014.000000	0.295666
1015.000000	0.295678
1016.000000	0.295485
1017.000000	0.294574
1018.000000	0.294471
1019.000000	0.294296
1020.000000	0.294020
1021.000000	0.293888
1022.000000	0.294435
1023.000000	0.294718
1024.000000	0.294766
1025.000000	0.295214
1026.000000	0.295814
1027.000000	0.295822
1028.000000	0.295758
1029.000000	0.295930
1030.000000	0.295642
1031.000000	0.294832
1032.000000	0.294719
1033.000000	0.294708
1034.000000	0.294712
1035.000000	0.295118
1036.000000	0.295355
1037.000000	0.295261
1038.000000	0.295339
1039.000000	0.295804
1040.000000	0.295686
1041.000000	0.295568
1042.000000	0.296165
1043.000000	0.296588
1044.000000	0.296266
1045.000000	0.295779
1046.000000	0.295603
1047.000000	0.295842
1048.000000	0.296419
1049.000000	0.296542
1050.000000	0.296797
1051.000000	0.297046
1052.000000	0.296785
1053.000000	0.296882
1054.000000	0.297675
1055.000000	0.298155
1056.000000	0.298687
1057.000000	0.298758
1058.000000	0.298783
1059.000000	0.298950
1060.000000	0.299097
1061.000000	0.299542
1062.000000	0.299688
1063.000000	0.299687
1064.000000	0.299889
1065.000000	0.299903
1066.000000	0.299956
1067.000000	0.300211
1068.000000	0.300445
1069.000000	0.300443
1070.000000	0.300540
1071.000000	0.300956
1072.000000	0.301163
1073.000000	0.301201
1074.000000	0.301370
1075.000000	0.301673
1076.000000	0.302040
1077.000000	0.302308
1078.000000	0.302447
1079.000000	0.302450
1080.000000	0.302202
1081.000000	0.302156
1082.000000	0.301982
1083.000000	0.302281
1084.000000	0.303141
1085.000000	0.303470
1086.000000	0.303729
1087.000000	0.304072
1088.000000	0.303812
1089.000000	0.304115
1090.000000	0.304915
1091.000000	0.305803
1092.000000	0.305985
1093.000000	0.306115
1094.000000	0.306019
1095.000000	0.304933
1096.000000	0.305123
1097.000000	0.306124
1098.000000	0.306378
1099.000000	0.306678
1100.000000	0.307024
1101.000000	0.306860
1102.000000	0.306982
1103.000000	0.307513
1104.000000	0.307887
1105.000000	0.308145
1106.000000	0.308367
1107.000000	0.308605
1108.000000	0.308762
1109.000000	0.308901
1110.000000	0.308801
1111.000000	0.308985
1112.000000	0.309244
1113.000000	0.309547
1114.000000	0.310115
1115.000000	0.310304
1116.000000	0.310354
1117.000000	0.310427
1118.000000	0.310245
1119.000000	0.310199
1120.000000	0.310140
1121.000000	0.310287
1122.000000	0.310721
1123.000000	0.311136
1124.000000	0.311548
1125.000000	0.311848
1126.000000	0.311842
1127.000000	0.311917
1128.000000	0.311997
1129.000000	0.312157
1130.000000	0.312204
1131.000000	0.312165
1132.000000	0.312276
1133.000000	0.312437
1134.000000	0.312623
1135.000000	0.312925
1136.000000	0.313094
1137.000000	0.313202
1138.000000	0.313236
1139.000000	0.313238
1140.000000	0.313384
1141.000000	0.313401
1142.000000	0.313584
1143.000000	0.314032
1144.000000	0.314331
1145.000000	0.314438
1146.000000	0.314443
1147.000000	0.314504
1148.000000	0.314278
1149.000000	0.314365
1150.000000	0.314737
1151.000000	0.314838
1152.000000	0.314827
1153.000000	0.314867
1154.000000	0.314702
1155.000000	0.314742
1156.000000	0.315025
1157.000000	0.315099
1158.000000	0.315091
1159.000000	0.315069
1160.000000	0.314771
1161.000000	0.314738
1162.000000	0.314858
1163.000000	0.315239
1164.000000	0.315483
1165.000000	0.315786
1166.000000	0.315893
1167.000000	0.315707
1168.000000	0.315778
1169.000000	0.315981
1170.000000	0.316041
1171.000000	0.316106
1172.000000	0.316311
1173.000000	0.316525
1174.000000	0.316568
1175.000000	0.316649
1176.000000	0.316682
1177.000000	0.316550
1178.000000	0.316491
1179.000000	0.316514
1180.000000	0.316500
1181.000000	0.316550
1182.000000	0.316503
1183.000000	0.316585
1184.000000	0.316825
1185.000000	0.316912
1186.000000	0.316988
1187.000000	0.316951
1188.000000	0.316781
1189.000000	0.316715
1190.000000	0.316632
1191.000000	0.316652
1192.000000	0.316901
1193.000000	0.317129
1194.000000	0.317361
1195.000000	0.317406
1196.000000	0.317256
1197.000000	0.317188
1198.000000	0.316915
1199.000000	0.316928
1200.000000	0.317186
1201.000000	0.317388
1202.000000	0.317578
1203.000000	0.317663
1204.000000	0.317698
1205.000000	0.317776
1206.000000	0.317731
1207.000000	0.317769
1208.000000	0.317729
1209.000000	0.317583
1210.000000	0.317553
1211.000000	0.317581
1212.000000	0.317626
1213.000000	0.317719
1214.000000	0.317838
1215.000000	0.318068
1216.000000	0.318154
1217.000000	0.318201
1218.000000	0.318176
1219.000000	0.318025
1220.000000	0.317904
1221.000000	0.318046
1222.000000	0.318102
1223.000000	0.318145
1224.000000	0.318286
1225.000000	0.318301
1226.000000	0.318382
1227.000000	0.318517
1228.000000	0.318684
1229.000000	0.318736
1230.000000	0.318620
1231.000000	0.318587
1232.000000	0.318696
1233.000000	0.318799
1234.000000	0.318874
1235.000000	0.318991
1236.000000	0.319139
1237.000000	0.319166
1238.000000	0.318999
1239.000000	0.319038
1240.000000	0.319119
1241.000000	0.319086
1242.000000	0.319245
1243.000000	0.319445
1244.000000	0.319351
1245.000000	0.319345
1246.000000	0.319512
1247.000000	0.319591
1248.000000	0.319688
1249.000000	0.319907
1250.000000	0.320026
1251.000000	0.320150
1252.000000	0.320157
1253.000000	0.320103
1254.000000	0.320074
1255.000000	0.319900
1256.000000	0.319880
1257.000000	0.320079
1258.000000	0.320182
1259.000000	0.320191
1260.000000	0.320245
1261.000000	0.320159
1262.000000	0.320163
1263.000000	0.320167
1264.000000	0.320397
1265.000000	0.320629
1266.000000	0.320698
1267.000000	0.320678
1268.000000	0.320629
1269.000000	0.320469
1270.000000	0.320409
1271.000000	0.320504
1272.000000	0.320518
1273.000000	0.320520
1274.000000	0.320611
1275.000000	0.320611
1276.000000	0.320559
1277.000000	0.320583
1278.000000	0.320534
1279.000000	0.320499
1280.000000	0.320414
1281.000000	0.320333
1282.000000	0.320224
1283.000000	0.320257
1284.000000	0.320332
1285.000000	0.320418
1286.000000	0.320506
1287.000000	0.320717
1288.000000	0.320891
1289.000000	0.320914
1290.000000	0.320971
1291.000000	0.320969
1292.000000	0.320984
1293.000000	0.320959
1294.000000	0.320864
1295.000000	0.320822
1296.000000	0.320758
1297.000000	0.320820
1298.000000	0.320898
1299.000000	0.320976
1300.000000	0.321204
1301.000000	0.321260
1302.000000	0.321183
1303.000000	0.321109
1304.000000	0.321011
1305.000000	0.320800
1306.000000	0.320739
1307.000000	0.320893
1308.000000	0.320948
1309.000000	0.320984
1310.000000	0.321009
1311.000000	0.321080
1312.000000	0.320989
1313.000000	0.320793
1314.000000	0.320686
1315.000000	0.320596
1316.000000	0.320631
1317.000000	0.320713
1318.000000	0.320781
1319.000000	0.320821
1320.000000	0.320677
1321.000000	0.320615
1322.000000	0.320652
1323.000000	0.320534
1324.000000	0.320551
1325.000000	0.320574
1326.000000	0.320511
1327.000000	0.320581
1328.000000	0.320621
1329.000000	0.320571
1330.000000	0.320538
1331.000000	0.320495
1332.000000	0.320433
1333.000000	0.320341
1334.000000	0.320268
1335.000000	0.320243
1336.000000	0.320175
1337.000000	0.320155
1338.000000	0.320210
1339.000000	0.320110
1340.000000	0.319918
1341.000000	0.319874
1342.000000	0.319872
1343.000000	0.319844
1344.000000	0.319861
1345.000000	0.319784
1346.000000	0.319644
1347.000000	0.319509
1348.000000	0.319458
1349.000000	0.319425
1350.000000	0.319420
1351.000000	0.319346
1352.000000	0.319278
1353.000000	0.319111
1354.000000	0.318901
1355.000000	0.318776
1356.000000	0.318793
1357.000000	0.318816
1358.000000	0.318843
1359.000000	0.318879
1360.000000	0.318881
1361.000000	0.318929
1362.000000	0.318800
1363.000000	0.318530
1364.000000	0.318350
1365.000000	0.318009
1366.000000	0.317839
1367.000000	0.317773
1368.000000	0.317772
1369.000000	0.317723
1370.000000	0.317651
1371.000000	0.317628
1372.000000	0.317439
1373.000000	0.317337
1374.000000	0.317205
1375.000000	0.316918
1376.000000	0.316728
1377.000000	0.316529
1378.000000	0.316276
1379.000000	0.315904
1380.000000	0.315648
1381.000000	0.315361
1382.000000	0.314878
1383.000000	0.314577
1384.000000	0.314128
1385.000000	0.313533
1386.000000	0.313237
1387.000000	0.312872
1388.000000	0.312364
1389.000000	0.311866
1390.000000	0.311204
1391.000000	0.310474
1392.000000	0.309906
1393.000000	0.309210
1394.000000	0.308559
1395.000000	0.307752
1396.000000	0.306787
1397.000000	0.305861
1398.000000	0.304835
1399.000000	0.303894
1400.000000	0.303017
1401.000000	0.302012
1402.000000	0.300966
1403.000000	0.299971
1404.000000	0.298977
1405.000000	0.298075
1406.000000	0.297305
1407.000000	0.296628
1408.000000	0.295858
1409.000000	0.295088
1410.000000	0.294434
1411.000000	0.293643
1412.000000	0.292940
1413.000000	0.292404
1414.000000	0.291878
1415.000000	0.291448
1416.000000	0.291141
1417.000000	0.290796
1418.000000	0.290330
1419.000000	0.290034
1420.000000	0.289536
1421.000000	0.289137
1422.000000	0.288841
1423.000000	0.288414
1424.000000	0.288104
1425.000000	0.287868
1426.000000	0.287474
1427.000000	0.287147
1428.000000	0.286832
1429.000000	0.286445
1430.000000	0.286251
1431.000000	0.286091
1432.000000	0.285830
1433.000000	0.285597
1434.000000	0.285325
1435.000000	0.285002
1436.000000	0.284736
1437.000000	0.284485
1438.000000	0.284260
1439.000000	0.284099
1440.000000	0.283969
1441.000000	0.283823
1442.000000	0.283832
1443.000000	0.283882
1444.000000	0.283970
1445.000000	0.284130
1446.000000	0.284310
1447.000000	0.284472
1448.000000	0.284661
1449.000000	0.284901
1450.000000	0.285169
1451.000000	0.285399
1452.000000	0.285547
1453.000000	0.285600
1454.000000	0.285655
1455.000000	0.285790
1456.000000	0.285928
1457.000000	0.286091
1458.000000	0.286337
1459.000000	0.286466
1460.000000	0.286483
1461.000000	0.286574
1462.000000	0.286575
1463.000000	0.286594
1464.000000	0.286795
1465.000000	0.286951
1466.000000	0.287003
1467.000000	0.287039
1468.000000	0.287101
1469.000000	0.287173
1470.000000	0.287248
1471.000000	0.287444
1472.000000	0.287473
1473.000000	0.287611
1474.000000	0.287865
1475.000000	0.288036
1476.000000	0.288270
1477.000000	0.288456
1478.000000	0.288575
1479.000000	0.288770
1480.000000	0.289063
1481.000000	0.289299
1482.000000	0.289612
1483.000000	0.289890
1484.000000	0.290118
1485.000000	0.290360
1486.000000	0.290592
1487.000000	0.290898
1488.000000	0.291301
1489.000000	0.291606
1490.000000	0.291758
1491.000000	0.292030
1492.000000	0.292223
1493.000000	0.292459
1494.000000	0.292774
1495.000000	0.293063
1496.000000	0.293344
1497.000000	0.293585
1498.000000	0.293839
1499.000000	0.294088
1500.000000	0.294261
1501.000000	0.294387
1502.000000	0.294624
1503.000000	0.294844
1504.000000	0.294978
1505.000000	0.295226
1506.000000	0.295497
1507.000000	0.295614
1508.000000	0.295786
1509.000000	0.295959
1510.000000	0.296000
1511.000000	0.296147
1512.000000	0.296278
1513.000000	0.296380
1514.000000	0.296619
1515.000000	0.296793
1516.000000	0.297034
1517.000000	0.297275
1518.000000	0.297338
1519.000000	0.297275
1520.000000	0.297322
1521.000000	0.297420
1522.000000	0.297543
1523.000000	0.297726
1524.000000	0.297811
1525.000000	0.297791
1526.000000	0.297780
1527.000000	0.298022
1528.000000	0.298326
1529.000000	0.298475
1530.000000	0.298479
1531.000000	0.298431
1532.000000	0.298415
1533.000000	0.298486
1534.000000	0.298661
1535.000000	0.298811
1536.000000	0.298814
1537.000000	0.298864
1538.000000	0.299066
1539.000000	0.299288
1540.000000	0.299478
1541.000000	0.299664
1542.000000	0.299744
1543.000000	0.299749
1544.000000	0.299747
1545.000000	0.299827
1546.000000	0.299921
1547.000000	0.299917
1548.000000	0.299988
1549.000000	0.300061
1550.000000	0.300076
1551.000000	0.300156
1552.000000	0.300134
1553.000000	0.300091
1554.000000	0.300061
1555.000000	0.299999
1556.000000	0.300079
1557.000000	0.300105
1558.000000	0.300119
1559.000000	0.300087
1560.000000	0.300044
1561.000000	0.299954
1562.000000	0.299941
1563.000000	0.300029
1564.000000	0.300057
1565.000000	0.300066
1566.000000	0.300074
1567.000000	0.300154
1568.000000	0.300196
1569.000000	0.300339
1570.000000	0.300405
1571.000000	0.300393
1572.000000	0.300422
1573.000000	0.300449
1574.000000	0.300478
1575.000000	0.300536
1576.000000	0.300534
1577.000000	0.300495
1578.000000	0.300491
1579.000000	0.300556
1580.000000	0.300577
1581.000000	0.300629
1582.000000	0.300649
1583.000000	0.300647
1584.000000	0.300571
1585.000000	0.300525
1586.000000	0.300521
1587.000000	0.300484
1588.000000	0.300424
1589.000000	0.300391
1590.000000	0.300396
1591.000000	0.300421
1592.000000	0.300470
1593.000000	0.300616
1594.000000	0.300644
1595.000000	0.300631
1596.000000	0.300650
1597.000000	0.300682
1598.000000	0.300737
1599.000000	0.300902
1600.000000	0.300880
1601.000000	0.300815
1602.000000	0.300781
1603.000000	0.300664
1604.000000	0.300632
1605.000000	0.300717
1606.000000	0.300769
1607.000000	0.300927
1608.000000	0.300957
1609.000000	0.300972
1610.000000	0.300947
1611.000000	0.300792
1612.000000	0.300791
1613.000000	0.300990
1614.000000	0.301093
1615.000000	0.301319
1616.000000	0.301430
1617.000000	0.301336
1618.000000	0.301384
1619.000000	0.301489
1620.000000	0.301506
1621.000000	0.301601
1622.000000	0.301666
1623.000000	0.301470
1624.000000	0.301571
1625.000000	0.301817
1626.000000	0.301818
1627.000000	0.301855
1628.000000	0.301879
1629.000000	0.301664
1630.000000	0.301669
1631.000000	0.301777
1632.000000	0.301838
1633.000000	0.301957
1634.000000	0.302014
1635.000000	0.302114
1636.000000	0.302132
1637.000000	0.302058
1638.000000	0.302049
1639.000000	0.302052
1640.000000	0.302103
1641.000000	0.302335
1642.000000	0.302451
1643.000000	0.302581
1644.000000	0.302678
1645.000000	0.302672
1646.000000	0.302717
1647.000000	0.302856
1648.000000	0.302855
1649.000000	0.302888
1650.000000	0.302947
1651.000000	0.302965
1652.000000	0.303033
1653.000000	0.303104
1654.000000	0.303189
1655.000000	0.303218
1656.000000	0.303240
1657.000000	0.303355
1658.000000	0.303428
1659.000000	0.303578
1660.000000	0.303703
1661.000000	0.303765
1662.000000	0.303816
1663.000000	0.303748
1664.000000	0.303866
1665.000000	0.304076
1666.000000	0.304292
1667.000000	0.304566
1668.000000	0.304709
1669.000000	0.304702
1670.000000	0.304765
1671.000000	0.304941
1672.000000	0.305080
1673.000000	0.305216
1674.000000	0.305301
1675.000000	0.305373
1676.000000	0.305526
1677.000000	0.305635
1678.000000	0.305815
1679.000000	0.305942
1680.000000	0.305832
1681.000000	0.305715
1682.000000	0.305626
1683.000000	0.305681
1684.000000	0.305918
1685.000000	0.306093
1686.000000	0.306075
1687.000000	0.306066
1688.000000	0.306044
1689.000000	0.306092
1690.000000	0.306160
1691.000000	0.306190
1692.000000	0.306187
1693.000000	0.306170
1694.000000	0.306172
1695.000000	0.306277
1696.000000	0.306280
1697.000000	0.306180
1698.000000	0.306003
1699.000000	0.305937
1700.000000	0.305826
1701.000000	0.305882
1702.000000	0.305985
1703.000000	0.305984
1704.000000	0.306050
1705.000000	0.306113
1706.000000	0.306208
1707.000000	0.306255
1708.000000	0.306194
1709.000000	0.306220
1710.000000	0.306441
1711.000000	0.306460
1712.000000	0.306476
1713.000000	0.306475
1714.000000	0.306313
1715.000000	0.306233
1716.000000	0.306242
1717.000000	0.306258
1718.000000	0.306198
1719.000000	0.306217
1720.000000	0.306449
1721.000000	0.306514
1722.000000	0.306511
1723.000000	0.306531
1724.000000	0.306479
1725.000000	0.306542
1726.000000	0.306594
1727.000000	0.306653
1728.000000	0.306746
1729.000000	0.306690
1730.000000	0.306643
1731.000000	0.306689
1732.000000	0.306740
1733.000000	0.306828
1734.000000	0.306864
1735.000000	0.306948
1736.000000	0.306944
1737.000000	0.307098
1738.000000	0.307450
1739.000000	0.307618
1740.000000	0.307779
1741.000000	0.307810
1742.000000	0.307717
1743.000000	0.307711
1744.000000	0.307680
1745.000000	0.307555
1746.000000	0.307363
1747.000000	0.307265
1748.000000	0.307151
1749.000000	0.307201
1750.000000	0.307151
1751.000000	0.307141
1752.000000	0.307190
1753.000000	0.306968
1754.000000	0.307006
1755.000000	0.307276
1756.000000	0.307340
1757.000000	0.307453
1758.000000	0.307557
1759.000000	0.307450
1760.000000	0.307424
1761.000000	0.307504
1762.000000	0.307493
1763.000000	0.307379
1764.000000	0.307364
1765.000000	0.307374
1766.000000	0.307377
1767.000000	0.307372
1768.000000	0.307274
1769.000000	0.307104
1770.000000	0.307158
1771.000000	0.307266
1772.000000	0.307346
1773.000000	0.307577
1774.000000	0.307597
1775.000000	0.307473
1776.000000	0.307480
1777.000000	0.307377
1778.000000	0.307485
1779.000000	0.307792
1780.000000	0.307921
1781.000000	0.308055
1782.000000	0.308105
1783.000000	0.308066
1784.000000	0.308048
1785.000000	0.308060
1786.000000	0.307880
1787.000000	0.307843
1788.000000	0.308019
1789.000000	0.308138
1790.000000	0.308330
1791.000000	0.308365
1792.000000	0.308168
1793.000000	0.308122
1794.000000	0.308267
1795.000000	0.308262
1796.000000	0.308111
1797.000000	0.308117
1798.000000	0.308124
1799.000000	0.308098
1800.000000	0.308312
1801.000000	0.308198
1802.000000	0.308271
1803.000000	0.308064
1804.000000	0.307931
1805.000000	0.307672
1806.000000	0.307570
1807.000000	0.306995
1808.000000	0.307242
1809.000000	0.308269
1810.000000	0.309103
1811.000000	0.309497
1812.000000	0.310499
1813.000000	0.310265
1814.000000	0.308507
1815.000000	0.308100
1816.000000	0.307635
1817.000000	0.307366
1818.000000	0.307997
1819.000000	0.308473
1820.000000	0.307900
1821.000000	0.307988
1822.000000	0.307892
1823.000000	0.307390
1824.000000	0.307172
1825.000000	0.307257
1826.000000	0.307125
1827.000000	0.306358
1828.000000	0.306622
1829.000000	0.306580
1830.000000	0.306577
1831.000000	0.306746
1832.000000	0.307074
1833.000000	0.307279
1834.000000	0.307828
1835.000000	0.307873
1836.000000	0.307216
1837.000000	0.307111
1838.000000	0.307011
1839.000000	0.306954
1840.000000	0.306395
1841.000000	0.306634
1842.000000	0.306523
1843.000000	0.305853
1844.000000	0.305453
1845.000000	0.305545
1846.000000	0.305135
1847.000000	0.303915
1848.000000	0.303278
1849.000000	0.303350
1850.000000	0.303246
1851.000000	0.303392
1852.000000	0.304413
1853.000000	0.304686
1854.000000	0.304530
1855.000000	0.304115
1856.000000	0.303310
1857.000000	0.302586
1858.000000	0.301488
1859.000000	0.300123
1860.000000	0.299694
1861.000000	0.298712
1862.000000	0.297995
1863.000000	0.297796
1864.000000	0.297389
1865.000000	0.297072
1866.000000	0.296438
1867.000000	0.295723
1868.000000	0.294651
1869.000000	0.293133
1870.000000	0.291895
1871.000000	0.290937
1872.000000	0.289678
1873.000000	0.288677
1874.000000	0.288149
1875.000000	0.286910
1876.000000	0.285226
1877.000000	0.283344
1878.000000	0.281041
1879.000000	0.278819
1880.000000	0.276858
1881.000000	0.275080
1882.000000	0.273407
1883.000000	0.271367
1884.000000	0.269036
1885.000000	0.266041
1886.000000	0.263226
1887.000000	0.260177
1888.000000	0.257058
1889.000000	0.254118
1890.000000	0.251194
1891.000000	0.247985
1892.000000	0.244430
1893.000000	0.240785
1894.000000	0.237768
1895.000000	0.234786
1896.000000	0.232226
1897.000000	0.229827
1898.000000	0.226803
1899.000000	0.223828
1900.000000	0.221221
1901.000000	0.218077
1902.000000	0.215463
1903.000000	0.213231
1904.000000	0.210612
1905.000000	0.208608
1906.000000	0.206830
1907.000000	0.205436
1908.000000	0.204205
1909.000000	0.203843
1910.000000	0.203184
1911.000000	0.202810
1912.000000	0.202616
1913.000000	0.201842
1914.000000	0.201829
1915.000000	0.201938
1916.000000	0.201476
1917.000000	0.201206
1918.000000	0.201043
1919.000000	0.200928
1920.000000	0.200902
1921.000000	0.201602
1922.000000	0.202550
1923.000000	0.203050
1924.000000	0.203128
1925.000000	0.202961
1926.000000	0.202888
1927.000000	0.203053
1928.000000	0.203271
1929.000000	0.203941
1930.000000	0.204246
1931.000000	0.203656
1932.000000	0.203242
1933.000000	0.202462
1934.000000	0.202109
1935.000000	0.203060
1936.000000	0.203624
1937.000000	0.204166
1938.000000	0.204939
1939.000000	0.205244
1940.000000	0.205090
1941.000000	0.205196
1942.000000	0.205370
1943.000000	0.204990
1944.000000	0.204974
1945.000000	0.204670
1946.000000	0.204084
1947.000000	0.203921
1948.000000	0.203773
1949.000000	0.204010
1950.000000	0.204305
1951.000000	0.204159
1952.000000	0.203701
1953.000000	0.203409
1954.000000	0.203210
1955.000000	0.202547
1956.000000	0.202652
1957.000000	0.202767
1958.000000	0.202301
1959.000000	0.202428
1960.000000	0.202579
1961.000000	0.202429
1962.000000	0.202232
1963.000000	0.201970
1964.000000	0.201998
1965.000000	0.201674
1966.000000	0.201529
1967.000000	0.202297
1968.000000	0.202650
1969.000000	0.203209
1970.000000	0.203890
1971.000000	0.203807
1972.000000	0.203514
1973.000000	0.203197
1974.000000	0.202462
1975.000000	0.202297
1976.000000	0.202210
1977.000000	0.202757
1978.000000	0.203280
1979.000000	0.203960
1980.000000	0.204564
1981.000000	0.204362
1982.000000	0.204685
1983.000000	0.204974
1984.000000	0.205180
1985.000000	0.205541
1986.000000	0.206135
1987.000000	0.206824
1988.000000	0.207219
1989.000000	0.208251
1990.000000	0.209034
1991.000000	0.209460
1992.000000	0.210220
1993.000000	0.211219
1994.000000	0.211847
1995.000000	0.211924
1996.000000	0.212472
1997.000000	0.212910
1998.000000	0.212946
1999.000000	0.213304
2000.000000	0.214008
2001.000000	0.214612
2002.000000	0.215180
2003.000000	0.216100
2004.000000	0.217348
2005.000000	0.218057
2006.000000	0.218411
2007.000000	0.218801
2008.000000	0.219383
2009.000000	0.220004
2010.000000	0.220643
2011.000000	0.221190
2012.000000	0.221941
2013.000000	0.222772
2014.000000	0.223276
2015.000000	0.224113
2016.000000	0.225045
2017.000000	0.225248
2018.000000	0.225179
2019.000000	0.225175
2020.000000	0.225635
2021.000000	0.226354
2022.000000	0.227598
2023.000000	0.228533
2024.000000	0.229729
2025.000000	0.230546
2026.000000	0.231080
2027.000000	0.231436
2028.000000	0.231698
2029.000000	0.232602
2030.000000	0.232780
2031.000000	0.233384
2032.000000	0.234480
2033.000000	0.234960
2034.000000	0.235528
2035.000000	0.236298
2036.000000	0.236822
2037.000000	0.237361
2038.000000	0.237718
2039.000000	0.237835
2040.000000	0.238669
2041.000000	0.238900
2042.000000	0.238522
2043.000000	0.239032
2044.000000	0.239654
2045.000000	0.240272
2046.000000	0.241220
2047.000000	0.241980
2048.000000	0.242516
2049.000000	0.243409
2050.000000	0.244351
2051.000000	0.244978
2052.000000	0.245762
2053.000000	0.245791
2054.000000	0.245203
2055.000000	0.244995
2056.000000	0.244740
2057.000000	0.244824
2058.000000	0.245411
2059.000000	0.246508
2060.000000	0.247536
2061.000000	0.249039
2062.000000	0.249600
2063.000000	0.250134
2064.000000	0.250109
2065.000000	0.249105
2066.000000	0.248945
2067.000000	0.249317
2068.000000	0.249372
2069.000000	0.249871
2070.000000	0.250242
2071.000000	0.250345
2072.000000	0.251004
2073.000000	0.251816
2074.000000	0.252885
2075.000000	0.253707
2076.000000	0.254798
2077.000000	0.255145
2078.000000	0.254700
2079.000000	0.254816
2080.000000	0.255001
2081.000000	0.255225
2082.000000	0.255596
2083.000000	0.256253
2084.000000	0.256710
2085.000000	0.256487
2086.000000	0.256647
2087.000000	0.256737
2088.000000	0.256862
2089.000000	0.257365
2090.000000	0.257855
2091.000000	0.258887
2092.000000	0.259426
2093.000000	0.259667
2094.000000	0.259973
2095.000000	0.259999
2096.000000	0.260266
2097.000000	0.260690
2098.000000	0.261171
2099.000000	0.261157
2100.000000	0.261231
2101.000000	0.260855
2102.000000	0.261051
2103.000000	0.262069
2104.000000	0.262992
2105.000000	0.263749
2106.000000	0.264866
2107.000000	0.265304
2108.000000	0.264924
2109.000000	0.265228
2110.000000	0.265284
2111.000000	0.265730
2112.000000	0.266511
2113.000000	0.267560
2114.000000	0.267680
2115.000000	0.267519
2116.000000	0.267895
2117.000000	0.267487
2118.000000	0.268021
2119.000000	0.268749
2120.000000	0.268853
2121.000000	0.268621
2122.000000	0.268363
2123.000000	0.267359
2124.000000	0.267295
2125.000000	0.267819
2126.000000	0.267947
2127.000000	0.268305
2128.000000	0.268656
2129.000000	0.268939
2130.000000	0.268689
2131.000000	0.268626
2132.000000	0.269273
2133.000000	0.269437
2134.000000	0.269457
2135.000000	0.269331
2136.000000	0.269297
2137.000000	0.269429
2138.000000	0.269499
2139.000000	0.269729
2140.000000	0.270656
2141.000000	0.270751
2142.000000	0.270297
2143.000000	0.270100
2144.000000	0.269601
2145.000000	0.269363
2146.000000	0.269436
2147.000000	0.269960
2148.000000	0.270068
2149.000000	0.270422
2150.000000	0.270805
2151.000000	0.271834
2152.000000	0.272280
2153.000000	0.272308
2154.000000	0.272225
2155.000000	0.271659
2156.000000	0.271133
2157.000000	0.270349
2158.000000	0.269996
2159.000000	0.269492
2160.000000	0.269532
2161.000000	0.270289
2162.000000	0.270837
2163.000000	0.272217
2164.000000	0.272357
2165.000000	0.271456
2166.000000	0.270789
2167.000000	0.270703
2168.000000	0.269352
2169.000000	0.270052
2170.000000	0.271426
2171.000000	0.271624
2172.000000	0.271602
2173.000000	0.271648
2174.000000	0.271160
2175.000000	0.270480
2176.000000	0.269545
2177.000000	0.269056
2178.000000	0.268425
2179.000000	0.267867
2180.000000	0.267605
2181.000000	0.267691
2182.000000	0.266868
2183.000000	0.266919
2184.000000	0.267966
2185.000000	0.269203
2186.000000	0.270721
2187.000000	0.272429
2188.000000	0.273990
2189.000000	0.274447
2190.000000	0.273898
2191.000000	0.273118
2192.000000	0.272026
2193.000000	0.269439
2194.000000	0.268586
2195.000000	0.268611
2196.000000	0.268378
2197.000000	0.268699
2198.000000	0.269036
2199.000000	0.269465
2200.000000	0.270022
2201.000000	0.271578
2202.000000	0.272268
2203.000000	0.272394
2204.000000	0.272253
2205.000000	0.270790
2206.000000	0.267818
2207.000000	0.266258
2208.000000	0.265905
2209.000000	0.265292
2210.000000	0.267756
2211.000000	0.270781
2212.000000	0.270884
2213.000000	0.270652
2214.000000	0.269684
2215.000000	0.268915
2216.000000	0.266329
2217.000000	0.265850
2218.000000	0.266825
2219.000000	0.267481
2220.000000	0.269678
2221.000000	0.269407
2222.000000	0.266809
2223.000000	0.266200
2224.000000	0.264554
2225.000000	0.264931
2226.000000	0.267214
2227.000000	0.269279
2228.000000	0.271178
2229.000000	0.270254
2230.000000	0.268809
2231.000000	0.268309
2232.000000	0.266850
2233.000000	0.266031
2234.000000	0.265877
2235.000000	0.267604
2236.000000	0.267709
2237.000000	0.267645
2238.000000	0.267511
2239.000000	0.266238
2240.000000	0.265436
2241.000000	0.266088
2242.000000	0.264750
2243.000000	0.260788
2244.000000	0.259953
2245.000000	0.259074
2246.000000	0.259929
2247.000000	0.265312
2248.000000	0.266960
2249.000000	0.267915
2250.000000	0.266838
2251.000000	0.266222
2252.000000	0.266218
2253.000000	0.264305
2254.000000	0.264761
2255.000000	0.263075
2256.000000	0.261458
2257.000000	0.263299
2258.000000	0.262598
2259.000000	0.261228
2260.000000	0.259686
2261.000000	0.259102
2262.000000	0.258334
2263.000000	0.258407
2264.000000	0.259977
2265.000000	0.261302
2266.000000	0.262971
2267.000000	0.263374
2268.000000	0.264337
2269.000000	0.263188
2270.000000	0.259871
2271.000000	0.257208
2272.000000	0.253168
2273.000000	0.251136
2274.000000	0.248908
2275.000000	0.248340
2276.000000	0.250198
2277.000000	0.250732
2278.000000	0.252406
2279.000000	0.254329
2280.000000	0.253462
2281.000000	0.254038
2282.000000	0.253705
2283.000000	0.253325
2284.000000	0.252450
2285.000000	0.249580
2286.000000	0.248591
2287.000000	0.247261
2288.000000	0.247418
2289.000000	0.248081
2290.000000	0.246926
2291.000000	0.245929
2292.000000	0.243813
2293.000000	0.241608
2294.000000	0.240076
2295.000000	0.237877
2296.000000	0.236782
2297.000000	0.236583
2298.000000	0.237235
2299.000000	0.239691
2300.000000	0.240469
2301.000000	0.241281
2302.000000	0.241567
2303.000000	0.239954
2304.000000	0.239454
2305.000000	0.239623
2306.000000	0.239894
2307.000000	0.240741
2308.000000	0.240564
2309.000000	0.241413
2310.000000	0.241506
2311.000000	0.241124
2312.000000	0.241738
2313.000000	0.240221
2314.000000	0.239405
2315.000000	0.239375
2316.000000	0.240360
2317.000000	0.242144
2318.000000	0.243698
2319.000000	0.244858
2320.000000	0.242073
2321.000000	0.239674
2322.000000	0.238091
2323.000000	0.236680
2324.000000	0.238181
2325.000000	0.239327
2326.000000	0.240458
2327.000000	0.241439
2328.000000	0.241537
2329.000000	0.241764
2330.000000	0.241796
2331.000000	0.242171
2332.000000	0.240665
2333.000000	0.238869
2334.000000	0.236665
2335.000000	0.234969
2336.000000	0.232622
2337.000000	0.231204
2338.000000	0.230878
2339.000000	0.229690
2340.000000	0.226473
2341.000000	0.226654
2342.000000	0.229319
2343.000000	0.230370
2344.000000	0.233249
2345.000000	0.233938
2346.000000	0.231958
2347.000000	0.231775
2348.000000	0.231988
2349.000000	0.232536
2350.000000	0.232938
2351.000000	0.229972
2352.000000	0.226711
2353.000000	0.225729
2354.000000	0.223008
2355.000000	0.220525
2356.000000	0.218387
2357.000000	0.215420
2358.000000	0.214382
2359.000000	0.214634
2360.000000	0.215085
2361.000000	0.216783
2362.000000	0.217548
2363.000000	0.218932
2364.000000	0.220986
2365.000000	0.221184
2366.000000	0.220318
2367.000000	0.218564
2368.000000	0.217483
2369.000000	0.217577
2370.000000	0.216851
2371.000000	0.216485
2372.000000	0.216207
2373.000000	0.212334
2374.000000	0.208861
2375.000000	0.208260
2376.000000	0.206541
2377.000000	0.204342
2378.000000	0.203364
2379.000000	0.201416
2380.000000	0.199425
2381.000000	0.198312
2382.000000	0.196879
2383.000000	0.196234
2384.000000	0.196122
2385.000000	0.194777
2386.000000	0.192229
2387.000000	0.189042
2388.000000	0.189210
2389.000000	0.190806
2390.000000	0.189633
2391.000000	0.191339
2392.000000	0.192113
2393.000000	0.195252
2394.000000	0.198944
2395.000000	0.199748
2396.000000	0.201954
2397.000000	0.196391
2398.000000	0.194843
2399.000000	0.197128
2400.000000	0.191209
2401.000000	0.187866
2402.000000	0.183677
2403.000000	0.178969
2404.000000	0.181895
2405.000000	0.183332
2406.000000	0.183171
2407.000000	0.183074
2408.000000	0.184012
2409.000000	0.188224
2410.000000	0.187604
2411.000000	0.187397
2412.000000	0.183362
2413.000000	0.173648
2414.000000	0.172102
2415.000000	0.174533
2416.000000	0.178950
2417.000000	0.183873
2418.000000	0.185133
2419.000000	0.185158
2420.000000	0.186141
2421.000000	0.182818
2422.000000	0.177945
2423.000000	0.174296
2424.000000	0.167800
2425.000000	0.168115
2426.000000	0.181497
2427.000000	0.194697
2428.000000	0.198807
2429.000000	0.200592
2430.000000	0.192801
2431.000000	0.177442
2432.000000	0.179625
2433.000000	0.188652
2434.000000	0.183875
2435.000000	0.175983
2436.000000	0.166635
2437.000000	0.164773
2438.000000	0.168939
2439.000000	0.174457
2440.000000	0.181328
2441.000000	0.171698
2442.000000	0.160872
2443.000000	0.162638
2444.000000	0.159782
2445.000000	0.160624
2446.000000	0.160850
2447.000000	0.152719
2448.000000	0.148986
2449.000000	0.140299
2450.000000	0.138190
2451.000000	0.145078
2452.000000	0.152392
2453.000000	0.171503
2454.000000	0.177822
2455.000000	0.172214
2456.000000	0.175014
2457.000000	0.169523
2458.000000	0.154818
2459.000000	0.145600
2460.000000	0.143470
2461.000000	0.150828
2462.000000	0.163497
2463.000000	0.160114
2464.000000	0.155859
2465.000000	0.142484
2466.000000	0.131389
2467.000000	0.155531
2468.000000	0.160080
2469.000000	0.165367
2470.000000	0.172858
2471.000000	0.146155
2472.000000	0.135546
2473.000000	0.136491
2474.000000	0.126773
2475.000000	0.136594
2476.000000	0.162710
2477.000000	0.168211
2478.000000	0.166373
2479.000000	0.163943
2480.000000	0.141232
2481.000000	0.117812
2482.000000	0.101494
2483.000000	0.094232
2484.000000	0.102264
2485.000000	0.098440
2486.000000	0.116689
2487.000000	0.151382
2488.000000	0.164634
2489.000000	0.181139
2490.000000	0.160444
2491.000000	0.145028
2492.000000	0.125411
2493.000000	0.109543
2494.000000	0.103025
2495.000000	0.071636
2496.000000	0.043126
2497.000000	0.041785
2498.000000	0.036774
2499.000000	0.004421
2500.000000	0.013401
