# Wavelength	NAu-2-30_HEX-40_FV7-30_00001.asd.rts.txt
350.000000	0.136259
351.000000	0.143620
352.000000	0.153002
353.000000	0.149332
354.000000	0.136257
355.000000	0.151764
356.000000	0.152903
357.000000	0.140354
358.000000	0.141536
359.000000	0.146508
360.000000	0.150102
361.000000	0.148426
362.000000	0.143438
363.000000	0.144106
364.000000	0.151184
365.000000	0.146421
366.000000	0.142308
367.000000	0.140826
368.000000	0.135731
369.000000	0.134850
370.000000	0.137497
371.000000	0.140271
372.000000	0.140104
373.000000	0.140545
374.000000	0.143750
375.000000	0.145723
376.000000	0.145574
377.000000	0.144657
378.000000	0.146886
379.000000	0.147978
380.000000	0.147499
381.000000	0.146868
382.000000	0.147426
383.000000	0.147488
384.000000	0.146713
385.000000	0.149098
386.000000	0.150745
387.000000	0.150574
388.000000	0.150003
389.000000	0.149728
390.000000	0.149777
391.000000	0.149798
392.000000	0.151399
393.000000	0.152366
394.000000	0.151548
395.000000	0.152922
396.000000	0.153653
397.000000	0.152586
398.000000	0.150398
399.000000	0.150016
400.000000	0.151076
401.000000	0.151629
402.000000	0.151269
403.000000	0.150900
404.000000	0.151424
405.000000	0.152269
406.000000	0.153209
407.000000	0.153764
408.000000	0.152499
409.000000	0.152296
410.000000	0.153140
411.000000	0.153361
412.000000	0.153843
413.000000	0.154412
414.000000	0.154800
415.000000	0.155389
416.000000	0.155912
417.000000	0.156191
418.000000	0.156287
419.000000	0.156511
420.000000	0.156874
421.000000	0.157128
422.000000	0.157202
423.000000	0.157388
424.000000	0.158029
425.000000	0.158181
426.000000	0.158272
427.000000	0.158621
428.000000	0.158694
429.000000	0.158930
430.000000	0.159480
431.000000	0.160198
432.000000	0.160232
433.000000	0.160135
434.000000	0.161115
435.000000	0.161329
436.000000	0.161194
437.000000	0.161412
438.000000	0.161990
439.000000	0.162189
440.000000	0.161994
441.000000	0.162666
442.000000	0.163173
443.000000	0.163190
444.000000	0.162937
445.000000	0.163319
446.000000	0.163905
447.000000	0.163925
448.000000	0.164400
449.000000	0.164874
450.000000	0.165108
451.000000	0.165904
452.000000	0.166501
453.000000	0.166696
454.000000	0.167054
455.000000	0.167189
456.000000	0.167254
457.000000	0.167481
458.000000	0.167883
459.000000	0.168462
460.000000	0.169126
461.000000	0.169232
462.000000	0.169344
463.000000	0.169687
464.000000	0.170246
465.000000	0.170658
466.000000	0.170855
467.000000	0.171052
468.000000	0.171241
469.000000	0.171537
470.000000	0.172106
471.000000	0.172455
472.000000	0.172779
473.000000	0.173163
474.000000	0.173094
475.000000	0.173104
476.000000	0.173437
477.000000	0.173812
478.000000	0.174139
479.000000	0.174542
480.000000	0.174988
481.000000	0.175184
482.000000	0.175467
483.000000	0.175954
484.000000	0.176263
485.000000	0.176489
486.000000	0.176771
487.000000	0.176868
488.000000	0.176945
489.000000	0.177123
490.000000	0.177494
491.000000	0.177753
492.000000	0.177905
493.000000	0.177977
494.000000	0.178325
495.000000	0.178490
496.000000	0.178272
497.000000	0.178555
498.000000	0.178823
499.000000	0.178951
500.000000	0.179130
501.000000	0.179312
502.000000	0.179542
503.000000	0.179827
504.000000	0.180008
505.000000	0.180228
506.000000	0.180583
507.000000	0.180614
508.000000	0.180709
509.000000	0.181031
510.000000	0.181323
511.000000	0.181761
512.000000	0.182259
513.000000	0.182469
514.000000	0.182769
515.000000	0.183181
516.000000	0.183570
517.000000	0.183908
518.000000	0.184258
519.000000	0.184625
520.000000	0.185045
521.000000	0.185482
522.000000	0.185924
523.000000	0.186370
524.000000	0.186854
525.000000	0.187381
526.000000	0.187975
527.000000	0.188751
528.000000	0.189583
529.000000	0.190356
530.000000	0.191140
531.000000	0.192088
532.000000	0.193168
533.000000	0.194154
534.000000	0.195107
535.000000	0.196079
536.000000	0.197170
537.000000	0.198167
538.000000	0.199076
539.000000	0.199981
540.000000	0.200985
541.000000	0.201869
542.000000	0.202516
543.000000	0.203302
544.000000	0.204159
545.000000	0.204979
546.000000	0.205779
547.000000	0.206606
548.000000	0.207514
549.000000	0.208496
550.000000	0.209384
551.000000	0.210315
552.000000	0.211434
553.000000	0.212484
554.000000	0.213618
555.000000	0.214922
556.000000	0.216143
557.000000	0.217370
558.000000	0.218723
559.000000	0.220088
560.000000	0.221422
561.000000	0.222738
562.000000	0.223970
563.000000	0.225309
564.000000	0.226687
565.000000	0.227912
566.000000	0.229067
567.000000	0.230132
568.000000	0.231096
569.000000	0.232033
570.000000	0.232921
571.000000	0.233748
572.000000	0.234532
573.000000	0.235221
574.000000	0.235818
575.000000	0.236390
576.000000	0.236926
577.000000	0.237368
578.000000	0.237738
579.000000	0.238122
580.000000	0.238420
581.000000	0.238624
582.000000	0.238893
583.000000	0.239055
584.000000	0.239128
585.000000	0.239232
586.000000	0.239249
587.000000	0.239205
588.000000	0.239165
589.000000	0.239196
590.000000	0.239198
591.000000	0.239108
592.000000	0.238968
593.000000	0.238828
594.000000	0.238666
595.000000	0.238388
596.000000	0.238077
597.000000	0.237804
598.000000	0.237543
599.000000	0.237175
600.000000	0.236777
601.000000	0.236383
602.000000	0.236074
603.000000	0.235739
604.000000	0.235361
605.000000	0.235075
606.000000	0.234735
607.000000	0.234346
608.000000	0.233996
609.000000	0.233676
610.000000	0.233365
611.000000	0.233041
612.000000	0.232695
613.000000	0.232357
614.000000	0.232067
615.000000	0.231775
616.000000	0.231472
617.000000	0.231121
618.000000	0.230725
619.000000	0.230424
620.000000	0.230171
621.000000	0.229896
622.000000	0.229644
623.000000	0.229427
624.000000	0.229232
625.000000	0.228976
626.000000	0.228689
627.000000	0.228435
628.000000	0.228346
629.000000	0.228238
630.000000	0.228028
631.000000	0.227905
632.000000	0.227763
633.000000	0.227649
634.000000	0.227604
635.000000	0.227537
636.000000	0.227482
637.000000	0.227446
638.000000	0.227422
639.000000	0.227358
640.000000	0.227315
641.000000	0.227333
642.000000	0.227323
643.000000	0.227352
644.000000	0.227511
645.000000	0.227590
646.000000	0.227706
647.000000	0.227913
648.000000	0.228044
649.000000	0.228215
650.000000	0.228448
651.000000	0.228708
652.000000	0.228944
653.000000	0.229174
654.000000	0.229393
655.000000	0.229681
656.000000	0.230010
657.000000	0.230300
658.000000	0.230571
659.000000	0.230880
660.000000	0.231252
661.000000	0.231717
662.000000	0.232114
663.000000	0.232499
664.000000	0.232985
665.000000	0.233475
666.000000	0.233968
667.000000	0.234459
668.000000	0.234988
669.000000	0.235513
670.000000	0.236029
671.000000	0.236604
672.000000	0.237247
673.000000	0.237924
674.000000	0.238582
675.000000	0.239246
676.000000	0.239946
677.000000	0.240711
678.000000	0.241420
679.000000	0.242158
680.000000	0.242994
681.000000	0.243871
682.000000	0.244735
683.000000	0.245558
684.000000	0.246518
685.000000	0.247473
686.000000	0.248430
687.000000	0.249395
688.000000	0.250373
689.000000	0.251370
690.000000	0.252408
691.000000	0.253421
692.000000	0.254423
693.000000	0.255477
694.000000	0.256549
695.000000	0.257711
696.000000	0.258903
697.000000	0.260024
698.000000	0.261198
699.000000	0.262390
700.000000	0.263579
701.000000	0.264852
702.000000	0.266153
703.000000	0.267444
704.000000	0.268760
705.000000	0.270057
706.000000	0.271335
707.000000	0.272693
708.000000	0.274029
709.000000	0.275346
710.000000	0.276680
711.000000	0.278054
712.000000	0.279450
713.000000	0.280870
714.000000	0.282291
715.000000	0.283676
716.000000	0.285075
717.000000	0.286548
718.000000	0.287935
719.000000	0.289272
720.000000	0.290634
721.000000	0.292006
722.000000	0.293354
723.000000	0.294721
724.000000	0.296096
725.000000	0.297414
726.000000	0.298772
727.000000	0.300176
728.000000	0.301659
729.000000	0.303092
730.000000	0.304351
731.000000	0.305674
732.000000	0.307018
733.000000	0.308363
734.000000	0.309593
735.000000	0.310764
736.000000	0.311986
737.000000	0.313132
738.000000	0.314216
739.000000	0.315352
740.000000	0.316445
741.000000	0.317553
742.000000	0.318667
743.000000	0.319750
744.000000	0.320830
745.000000	0.321850
746.000000	0.322841
747.000000	0.323764
748.000000	0.324683
749.000000	0.325574
750.000000	0.326399
751.000000	0.327233
752.000000	0.328076
753.000000	0.328926
754.000000	0.329750
755.000000	0.330565
756.000000	0.331337
757.000000	0.331987
758.000000	0.332647
759.000000	0.333333
760.000000	0.333981
761.000000	0.334691
762.000000	0.335353
763.000000	0.335967
764.000000	0.336676
765.000000	0.337282
766.000000	0.337806
767.000000	0.338304
768.000000	0.338803
769.000000	0.339279
770.000000	0.339737
771.000000	0.340213
772.000000	0.340688
773.000000	0.341085
774.000000	0.341464
775.000000	0.341870
776.000000	0.342260
777.000000	0.342589
778.000000	0.342932
779.000000	0.343225
780.000000	0.343465
781.000000	0.343679
782.000000	0.343814
783.000000	0.344030
784.000000	0.344295
785.000000	0.344495
786.000000	0.344653
787.000000	0.344796
788.000000	0.344952
789.000000	0.345122
790.000000	0.345284
791.000000	0.345453
792.000000	0.345579
793.000000	0.345666
794.000000	0.345747
795.000000	0.345876
796.000000	0.345976
797.000000	0.346019
798.000000	0.346033
799.000000	0.346161
800.000000	0.346301
801.000000	0.346318
802.000000	0.346341
803.000000	0.346405
804.000000	0.346531
805.000000	0.346584
806.000000	0.346606
807.000000	0.346676
808.000000	0.346718
809.000000	0.346695
810.000000	0.346680
811.000000	0.346685
812.000000	0.346555
813.000000	0.346404
814.000000	0.346285
815.000000	0.346225
816.000000	0.346282
817.000000	0.346368
818.000000	0.346311
819.000000	0.346347
820.000000	0.346391
821.000000	0.346349
822.000000	0.346314
823.000000	0.346227
824.000000	0.346118
825.000000	0.346145
826.000000	0.346043
827.000000	0.345841
828.000000	0.345666
829.000000	0.345620
830.000000	0.345534
831.000000	0.345454
832.000000	0.345356
833.000000	0.345323
834.000000	0.345272
835.000000	0.345179
836.000000	0.345106
837.000000	0.344993
838.000000	0.344844
839.000000	0.344670
840.000000	0.344486
841.000000	0.344342
842.000000	0.344218
843.000000	0.344041
844.000000	0.343929
845.000000	0.343880
846.000000	0.343843
847.000000	0.343779
848.000000	0.343635
849.000000	0.343429
850.000000	0.343240
851.000000	0.343121
852.000000	0.343069
853.000000	0.342875
854.000000	0.342671
855.000000	0.342553
856.000000	0.342389
857.000000	0.342206
858.000000	0.342130
859.000000	0.342048
860.000000	0.341704
861.000000	0.341531
862.000000	0.341459
863.000000	0.341188
864.000000	0.341082
865.000000	0.341001
866.000000	0.340857
867.000000	0.340636
868.000000	0.340475
869.000000	0.340288
870.000000	0.340037
871.000000	0.339722
872.000000	0.339464
873.000000	0.339247
874.000000	0.339008
875.000000	0.338777
876.000000	0.338552
877.000000	0.338260
878.000000	0.338090
879.000000	0.337940
880.000000	0.337621
881.000000	0.337398
882.000000	0.337189
883.000000	0.336976
884.000000	0.336699
885.000000	0.336502
886.000000	0.336324
887.000000	0.336115
888.000000	0.335760
889.000000	0.335538
890.000000	0.335327
891.000000	0.335102
892.000000	0.334752
893.000000	0.334453
894.000000	0.334348
895.000000	0.334051
896.000000	0.333735
897.000000	0.333474
898.000000	0.333307
899.000000	0.333219
900.000000	0.333017
901.000000	0.332686
902.000000	0.332620
903.000000	0.332425
904.000000	0.332174
905.000000	0.331940
906.000000	0.331831
907.000000	0.331573
908.000000	0.331229
909.000000	0.331039
910.000000	0.330716
911.000000	0.330397
912.000000	0.330221
913.000000	0.329879
914.000000	0.329537
915.000000	0.329272
916.000000	0.328911
917.000000	0.328672
918.000000	0.328467
919.000000	0.328207
920.000000	0.328055
921.000000	0.327819
922.000000	0.327527
923.000000	0.327282
924.000000	0.327057
925.000000	0.326773
926.000000	0.326424
927.000000	0.326012
928.000000	0.325730
929.000000	0.325476
930.000000	0.325100
931.000000	0.324748
932.000000	0.324507
933.000000	0.324450
934.000000	0.324515
935.000000	0.324303
936.000000	0.324053
937.000000	0.323888
938.000000	0.323570
939.000000	0.323247
940.000000	0.322938
941.000000	0.322734
942.000000	0.322405
943.000000	0.322082
944.000000	0.321757
945.000000	0.321564
946.000000	0.321200
947.000000	0.320959
948.000000	0.321045
949.000000	0.320653
950.000000	0.320290
951.000000	0.320056
952.000000	0.319747
953.000000	0.319440
954.000000	0.319164
955.000000	0.318865
956.000000	0.318597
957.000000	0.318459
958.000000	0.318367
959.000000	0.318287
960.000000	0.318112
961.000000	0.317836
962.000000	0.317491
963.000000	0.317206
964.000000	0.317012
965.000000	0.316842
966.000000	0.316513
967.000000	0.316115
968.000000	0.315823
969.000000	0.315671
970.000000	0.315703
971.000000	0.315584
972.000000	0.315307
973.000000	0.314952
974.000000	0.314843
975.000000	0.314786
976.000000	0.314579
977.000000	0.314209
978.000000	0.314217
979.000000	0.314192
980.000000	0.313864
981.000000	0.313583
982.000000	0.313458
983.000000	0.313260
984.000000	0.312992
985.000000	0.312780
986.000000	0.312865
987.000000	0.312954
988.000000	0.312710
989.000000	0.312374
990.000000	0.312097
991.000000	0.311929
992.000000	0.311889
993.000000	0.311823
994.000000	0.311780
995.000000	0.311790
996.000000	0.311504
997.000000	0.311559
998.000000	0.311418
999.000000	0.311173
1000.000000	0.311729
1001.000000	0.311598
1002.000000	0.311637
1003.000000	0.311084
1004.000000	0.310837
1005.000000	0.310948
1006.000000	0.310743
1007.000000	0.310372
1008.000000	0.310052
1009.000000	0.310081
1010.000000	0.310017
1011.000000	0.310102
1012.000000	0.310437
1013.000000	0.310350
1014.000000	0.310125
1015.000000	0.309894
1016.000000	0.310058
1017.000000	0.310420
1018.000000	0.310362
1019.000000	0.310267
1020.000000	0.310283
1021.000000	0.309836
1022.000000	0.308986
1023.000000	0.308871
1024.000000	0.308696
1025.000000	0.309028
1026.000000	0.309666
1027.000000	0.310105
1028.000000	0.310566
1029.000000	0.310692
1030.000000	0.310413
1031.000000	0.310714
1032.000000	0.311179
1033.000000	0.310844
1034.000000	0.310685
1035.000000	0.310392
1036.000000	0.310378
1037.000000	0.310310
1038.000000	0.310421
1039.000000	0.311045
1040.000000	0.311409
1041.000000	0.311310
1042.000000	0.311394
1043.000000	0.311619
1044.000000	0.311407
1045.000000	0.311363
1046.000000	0.311650
1047.000000	0.311841
1048.000000	0.312069
1049.000000	0.312102
1050.000000	0.311966
1051.000000	0.311956
1052.000000	0.311773
1053.000000	0.311862
1054.000000	0.312455
1055.000000	0.312846
1056.000000	0.313229
1057.000000	0.313596
1058.000000	0.314243
1059.000000	0.314757
1060.000000	0.315389
1061.000000	0.315833
1062.000000	0.315474
1063.000000	0.315266
1064.000000	0.315396
1065.000000	0.315648
1066.000000	0.315787
1067.000000	0.316200
1068.000000	0.316343
1069.000000	0.316009
1070.000000	0.316077
1071.000000	0.316465
1072.000000	0.316692
1073.000000	0.316999
1074.000000	0.317472
1075.000000	0.317383
1076.000000	0.317128
1077.000000	0.317732
1078.000000	0.318170
1079.000000	0.318340
1080.000000	0.318721
1081.000000	0.319069
1082.000000	0.319113
1083.000000	0.319259
1084.000000	0.319662
1085.000000	0.320094
1086.000000	0.320414
1087.000000	0.320631
1088.000000	0.320797
1089.000000	0.321164
1090.000000	0.321742
1091.000000	0.321624
1092.000000	0.321658
1093.000000	0.322271
1094.000000	0.322346
1095.000000	0.321730
1096.000000	0.321947
1097.000000	0.322660
1098.000000	0.322855
1099.000000	0.322982
1100.000000	0.323277
1101.000000	0.323244
1102.000000	0.323453
1103.000000	0.324089
1104.000000	0.324449
1105.000000	0.324606
1106.000000	0.324842
1107.000000	0.324958
1108.000000	0.325176
1109.000000	0.325513
1110.000000	0.325900
1111.000000	0.326144
1112.000000	0.326413
1113.000000	0.326591
1114.000000	0.326705
1115.000000	0.326695
1116.000000	0.326442
1117.000000	0.326577
1118.000000	0.326738
1119.000000	0.326914
1120.000000	0.327418
1121.000000	0.327742
1122.000000	0.328035
1123.000000	0.328461
1124.000000	0.328754
1125.000000	0.329023
1126.000000	0.329182
1127.000000	0.329264
1128.000000	0.329290
1129.000000	0.329226
1130.000000	0.329393
1131.000000	0.329632
1132.000000	0.329774
1133.000000	0.330137
1134.000000	0.330289
1135.000000	0.330201
1136.000000	0.330181
1137.000000	0.330082
1138.000000	0.330067
1139.000000	0.330029
1140.000000	0.330284
1141.000000	0.330882
1142.000000	0.331165
1143.000000	0.331403
1144.000000	0.331668
1145.000000	0.331488
1146.000000	0.331350
1147.000000	0.331402
1148.000000	0.331482
1149.000000	0.331575
1150.000000	0.331804
1151.000000	0.331926
1152.000000	0.331970
1153.000000	0.332029
1154.000000	0.332071
1155.000000	0.332030
1156.000000	0.331825
1157.000000	0.331810
1158.000000	0.331808
1159.000000	0.331789
1160.000000	0.331883
1161.000000	0.331938
1162.000000	0.331939
1163.000000	0.332081
1164.000000	0.332431
1165.000000	0.332649
1166.000000	0.332772
1167.000000	0.332848
1168.000000	0.332856
1169.000000	0.332686
1170.000000	0.332692
1171.000000	0.332804
1172.000000	0.332944
1173.000000	0.333124
1174.000000	0.333241
1175.000000	0.333345
1176.000000	0.333398
1177.000000	0.333494
1178.000000	0.333533
1179.000000	0.333540
1180.000000	0.333495
1181.000000	0.333444
1182.000000	0.333400
1183.000000	0.333482
1184.000000	0.333539
1185.000000	0.333604
1186.000000	0.333705
1187.000000	0.333774
1188.000000	0.333816
1189.000000	0.333861
1190.000000	0.334031
1191.000000	0.334034
1192.000000	0.334034
1193.000000	0.334121
1194.000000	0.333921
1195.000000	0.333971
1196.000000	0.334209
1197.000000	0.334297
1198.000000	0.334431
1199.000000	0.334557
1200.000000	0.334572
1201.000000	0.334601
1202.000000	0.334775
1203.000000	0.334904
1204.000000	0.334978
1205.000000	0.335055
1206.000000	0.335064
1207.000000	0.335087
1208.000000	0.335106
1209.000000	0.335166
1210.000000	0.335234
1211.000000	0.335381
1212.000000	0.335386
1213.000000	0.335308
1214.000000	0.335344
1215.000000	0.335340
1216.000000	0.335336
1217.000000	0.335317
1218.000000	0.335404
1219.000000	0.335550
1220.000000	0.335755
1221.000000	0.335917
1222.000000	0.336063
1223.000000	0.336079
1224.000000	0.335954
1225.000000	0.335950
1226.000000	0.336136
1227.000000	0.336298
1228.000000	0.336445
1229.000000	0.336469
1230.000000	0.336380
1231.000000	0.336326
1232.000000	0.336295
1233.000000	0.336395
1234.000000	0.336645
1235.000000	0.336681
1236.000000	0.336503
1237.000000	0.336527
1238.000000	0.336482
1239.000000	0.336458
1240.000000	0.336510
1241.000000	0.336592
1242.000000	0.336767
1243.000000	0.336851
1244.000000	0.336911
1245.000000	0.337263
1246.000000	0.337316
1247.000000	0.337333
1248.000000	0.337581
1249.000000	0.337582
1250.000000	0.337615
1251.000000	0.337765
1252.000000	0.337788
1253.000000	0.337763
1254.000000	0.337744
1255.000000	0.337663
1256.000000	0.337673
1257.000000	0.337780
1258.000000	0.337848
1259.000000	0.337778
1260.000000	0.337912
1261.000000	0.338135
1262.000000	0.338209
1263.000000	0.338365
1264.000000	0.338435
1265.000000	0.338328
1266.000000	0.338389
1267.000000	0.338625
1268.000000	0.338722
1269.000000	0.338854
1270.000000	0.338961
1271.000000	0.338786
1272.000000	0.338797
1273.000000	0.338855
1274.000000	0.338715
1275.000000	0.338700
1276.000000	0.338846
1277.000000	0.338975
1278.000000	0.338984
1279.000000	0.339095
1280.000000	0.339267
1281.000000	0.339284
1282.000000	0.339271
1283.000000	0.339416
1284.000000	0.339546
1285.000000	0.339615
1286.000000	0.339753
1287.000000	0.339685
1288.000000	0.339701
1289.000000	0.339719
1290.000000	0.339740
1291.000000	0.339932
1292.000000	0.339928
1293.000000	0.339782
1294.000000	0.339832
1295.000000	0.339853
1296.000000	0.339767
1297.000000	0.339852
1298.000000	0.339985
1299.000000	0.339953
1300.000000	0.339921
1301.000000	0.339891
1302.000000	0.339820
1303.000000	0.339706
1304.000000	0.339668
1305.000000	0.339930
1306.000000	0.339927
1307.000000	0.339792
1308.000000	0.339785
1309.000000	0.339679
1310.000000	0.339630
1311.000000	0.339730
1312.000000	0.339788
1313.000000	0.339599
1314.000000	0.339531
1315.000000	0.339417
1316.000000	0.339329
1317.000000	0.339513
1318.000000	0.339743
1319.000000	0.339719
1320.000000	0.339702
1321.000000	0.339612
1322.000000	0.339309
1323.000000	0.339158
1324.000000	0.339070
1325.000000	0.338859
1326.000000	0.338815
1327.000000	0.338905
1328.000000	0.339043
1329.000000	0.338990
1330.000000	0.338868
1331.000000	0.338825
1332.000000	0.338742
1333.000000	0.338664
1334.000000	0.338789
1335.000000	0.338842
1336.000000	0.338720
1337.000000	0.338711
1338.000000	0.338754
1339.000000	0.338727
1340.000000	0.338696
1341.000000	0.338598
1342.000000	0.338491
1343.000000	0.338412
1344.000000	0.338244
1345.000000	0.338088
1346.000000	0.338132
1347.000000	0.338073
1348.000000	0.338015
1349.000000	0.337960
1350.000000	0.337753
1351.000000	0.337559
1352.000000	0.337384
1353.000000	0.337219
1354.000000	0.337153
1355.000000	0.336940
1356.000000	0.336799
1357.000000	0.336681
1358.000000	0.336560
1359.000000	0.336508
1360.000000	0.336401
1361.000000	0.336300
1362.000000	0.336243
1363.000000	0.336161
1364.000000	0.336065
1365.000000	0.336000
1366.000000	0.335919
1367.000000	0.335776
1368.000000	0.335697
1369.000000	0.335609
1370.000000	0.335311
1371.000000	0.335022
1372.000000	0.334678
1373.000000	0.334466
1374.000000	0.334321
1375.000000	0.334022
1376.000000	0.333856
1377.000000	0.333648
1378.000000	0.333384
1379.000000	0.333223
1380.000000	0.332937
1381.000000	0.332336
1382.000000	0.331782
1383.000000	0.331313
1384.000000	0.330626
1385.000000	0.329940
1386.000000	0.329276
1387.000000	0.328597
1388.000000	0.327876
1389.000000	0.327182
1390.000000	0.326652
1391.000000	0.325834
1392.000000	0.324883
1393.000000	0.324030
1394.000000	0.323305
1395.000000	0.322332
1396.000000	0.321305
1397.000000	0.320192
1398.000000	0.318777
1399.000000	0.317545
1400.000000	0.316482
1401.000000	0.315234
1402.000000	0.313939
1403.000000	0.312613
1404.000000	0.311440
1405.000000	0.310296
1406.000000	0.309327
1407.000000	0.308429
1408.000000	0.307421
1409.000000	0.306370
1410.000000	0.305538
1411.000000	0.304778
1412.000000	0.303919
1413.000000	0.303255
1414.000000	0.302568
1415.000000	0.301838
1416.000000	0.301200
1417.000000	0.300538
1418.000000	0.299827
1419.000000	0.299192
1420.000000	0.298565
1421.000000	0.298088
1422.000000	0.297575
1423.000000	0.297008
1424.000000	0.296508
1425.000000	0.296069
1426.000000	0.295564
1427.000000	0.295164
1428.000000	0.294819
1429.000000	0.294310
1430.000000	0.293756
1431.000000	0.293221
1432.000000	0.292795
1433.000000	0.292467
1434.000000	0.292129
1435.000000	0.291987
1436.000000	0.291762
1437.000000	0.291484
1438.000000	0.291116
1439.000000	0.290694
1440.000000	0.290423
1441.000000	0.290076
1442.000000	0.289925
1443.000000	0.289887
1444.000000	0.290020
1445.000000	0.290058
1446.000000	0.290169
1447.000000	0.290339
1448.000000	0.290374
1449.000000	0.290432
1450.000000	0.290572
1451.000000	0.290694
1452.000000	0.290850
1453.000000	0.291054
1454.000000	0.291073
1455.000000	0.290958
1456.000000	0.291029
1457.000000	0.291186
1458.000000	0.291260
1459.000000	0.291442
1460.000000	0.291654
1461.000000	0.291673
1462.000000	0.291694
1463.000000	0.291714
1464.000000	0.291653
1465.000000	0.291653
1466.000000	0.291698
1467.000000	0.291845
1468.000000	0.292027
1469.000000	0.292226
1470.000000	0.292413
1471.000000	0.292600
1472.000000	0.292707
1473.000000	0.292878
1474.000000	0.293107
1475.000000	0.293232
1476.000000	0.293462
1477.000000	0.293893
1478.000000	0.294175
1479.000000	0.294551
1480.000000	0.294949
1481.000000	0.295221
1482.000000	0.295341
1483.000000	0.295690
1484.000000	0.296047
1485.000000	0.296499
1486.000000	0.297121
1487.000000	0.297577
1488.000000	0.298084
1489.000000	0.298491
1490.000000	0.298633
1491.000000	0.298940
1492.000000	0.299189
1493.000000	0.299491
1494.000000	0.299840
1495.000000	0.300139
1496.000000	0.300440
1497.000000	0.300734
1498.000000	0.301032
1499.000000	0.301319
1500.000000	0.301631
1501.000000	0.301864
1502.000000	0.302055
1503.000000	0.302335
1504.000000	0.302563
1505.000000	0.302751
1506.000000	0.303065
1507.000000	0.303351
1508.000000	0.303639
1509.000000	0.303995
1510.000000	0.304275
1511.000000	0.304427
1512.000000	0.304545
1513.000000	0.304636
1514.000000	0.304685
1515.000000	0.304859
1516.000000	0.305158
1517.000000	0.305339
1518.000000	0.305407
1519.000000	0.305376
1520.000000	0.305393
1521.000000	0.305477
1522.000000	0.305751
1523.000000	0.306106
1524.000000	0.306214
1525.000000	0.306314
1526.000000	0.306475
1527.000000	0.306611
1528.000000	0.306854
1529.000000	0.307055
1530.000000	0.307078
1531.000000	0.307156
1532.000000	0.307209
1533.000000	0.307228
1534.000000	0.307276
1535.000000	0.307289
1536.000000	0.307316
1537.000000	0.307418
1538.000000	0.307527
1539.000000	0.307686
1540.000000	0.307868
1541.000000	0.308024
1542.000000	0.308129
1543.000000	0.308195
1544.000000	0.308283
1545.000000	0.308419
1546.000000	0.308545
1547.000000	0.308719
1548.000000	0.308875
1549.000000	0.308932
1550.000000	0.308955
1551.000000	0.308875
1552.000000	0.308902
1553.000000	0.308958
1554.000000	0.308833
1555.000000	0.308884
1556.000000	0.309021
1557.000000	0.308987
1558.000000	0.309051
1559.000000	0.309263
1560.000000	0.309270
1561.000000	0.309152
1562.000000	0.309143
1563.000000	0.309161
1564.000000	0.309172
1565.000000	0.309251
1566.000000	0.309180
1567.000000	0.309082
1568.000000	0.309099
1569.000000	0.309199
1570.000000	0.309212
1571.000000	0.309208
1572.000000	0.309253
1573.000000	0.309257
1574.000000	0.309332
1575.000000	0.309636
1576.000000	0.309728
1577.000000	0.309655
1578.000000	0.309657
1579.000000	0.309656
1580.000000	0.309622
1581.000000	0.309695
1582.000000	0.309695
1583.000000	0.309594
1584.000000	0.309560
1585.000000	0.309620
1586.000000	0.309667
1587.000000	0.309755
1588.000000	0.309793
1589.000000	0.309787
1590.000000	0.309869
1591.000000	0.310038
1592.000000	0.310085
1593.000000	0.310189
1594.000000	0.310171
1595.000000	0.310032
1596.000000	0.309982
1597.000000	0.309953
1598.000000	0.309913
1599.000000	0.309926
1600.000000	0.309863
1601.000000	0.309804
1602.000000	0.309841
1603.000000	0.309956
1604.000000	0.309977
1605.000000	0.310094
1606.000000	0.310070
1607.000000	0.309879
1608.000000	0.309909
1609.000000	0.310072
1610.000000	0.310108
1611.000000	0.310276
1612.000000	0.310282
1613.000000	0.310164
1614.000000	0.310226
1615.000000	0.310382
1616.000000	0.310532
1617.000000	0.310779
1618.000000	0.310830
1619.000000	0.310737
1620.000000	0.310748
1621.000000	0.310745
1622.000000	0.310815
1623.000000	0.310908
1624.000000	0.311000
1625.000000	0.310948
1626.000000	0.310961
1627.000000	0.311061
1628.000000	0.311178
1629.000000	0.311254
1630.000000	0.311468
1631.000000	0.311812
1632.000000	0.311933
1633.000000	0.311997
1634.000000	0.312162
1635.000000	0.312241
1636.000000	0.312351
1637.000000	0.312660
1638.000000	0.312786
1639.000000	0.312787
1640.000000	0.312888
1641.000000	0.313070
1642.000000	0.313228
1643.000000	0.313483
1644.000000	0.313647
1645.000000	0.313785
1646.000000	0.313808
1647.000000	0.313725
1648.000000	0.313685
1649.000000	0.313685
1650.000000	0.313775
1651.000000	0.313968
1652.000000	0.314166
1653.000000	0.314326
1654.000000	0.314550
1655.000000	0.314814
1656.000000	0.314898
1657.000000	0.315019
1658.000000	0.315114
1659.000000	0.315192
1660.000000	0.315318
1661.000000	0.315386
1662.000000	0.315520
1663.000000	0.315644
1664.000000	0.315743
1665.000000	0.315919
1666.000000	0.316039
1667.000000	0.315933
1668.000000	0.316101
1669.000000	0.316329
1670.000000	0.316562
1671.000000	0.317135
1672.000000	0.317326
1673.000000	0.317289
1674.000000	0.317353
1675.000000	0.317445
1676.000000	0.317706
1677.000000	0.317919
1678.000000	0.317982
1679.000000	0.318037
1680.000000	0.317995
1681.000000	0.318054
1682.000000	0.318131
1683.000000	0.318099
1684.000000	0.318142
1685.000000	0.318180
1686.000000	0.318223
1687.000000	0.318343
1688.000000	0.318309
1689.000000	0.318286
1690.000000	0.318191
1691.000000	0.318231
1692.000000	0.318398
1693.000000	0.318474
1694.000000	0.318603
1695.000000	0.318754
1696.000000	0.318787
1697.000000	0.318771
1698.000000	0.318715
1699.000000	0.318731
1700.000000	0.318714
1701.000000	0.318866
1702.000000	0.319053
1703.000000	0.319102
1704.000000	0.319190
1705.000000	0.319279
1706.000000	0.319331
1707.000000	0.319421
1708.000000	0.319553
1709.000000	0.319598
1710.000000	0.319710
1711.000000	0.319762
1712.000000	0.319756
1713.000000	0.319814
1714.000000	0.319949
1715.000000	0.319985
1716.000000	0.319980
1717.000000	0.320049
1718.000000	0.320023
1719.000000	0.320075
1720.000000	0.320385
1721.000000	0.320468
1722.000000	0.320379
1723.000000	0.320438
1724.000000	0.320550
1725.000000	0.320592
1726.000000	0.320617
1727.000000	0.320601
1728.000000	0.320331
1729.000000	0.320257
1730.000000	0.320472
1731.000000	0.320503
1732.000000	0.320548
1733.000000	0.320622
1734.000000	0.320441
1735.000000	0.320488
1736.000000	0.320667
1737.000000	0.320735
1738.000000	0.320887
1739.000000	0.320858
1740.000000	0.320633
1741.000000	0.320623
1742.000000	0.320627
1743.000000	0.320714
1744.000000	0.320955
1745.000000	0.320993
1746.000000	0.320931
1747.000000	0.320896
1748.000000	0.320872
1749.000000	0.320904
1750.000000	0.320911
1751.000000	0.321075
1752.000000	0.321269
1753.000000	0.321286
1754.000000	0.321401
1755.000000	0.321615
1756.000000	0.321655
1757.000000	0.321607
1758.000000	0.321638
1759.000000	0.321531
1760.000000	0.321512
1761.000000	0.321630
1762.000000	0.321636
1763.000000	0.321634
1764.000000	0.321563
1765.000000	0.321301
1766.000000	0.321244
1767.000000	0.321114
1768.000000	0.321080
1769.000000	0.321392
1770.000000	0.321509
1771.000000	0.321498
1772.000000	0.321547
1773.000000	0.321439
1774.000000	0.321549
1775.000000	0.321891
1776.000000	0.322078
1777.000000	0.322341
1778.000000	0.322361
1779.000000	0.322119
1780.000000	0.322150
1781.000000	0.322195
1782.000000	0.322085
1783.000000	0.322048
1784.000000	0.321999
1785.000000	0.321916
1786.000000	0.322183
1787.000000	0.322462
1788.000000	0.322653
1789.000000	0.322830
1790.000000	0.322639
1791.000000	0.322522
1792.000000	0.322197
1793.000000	0.322162
1794.000000	0.322592
1795.000000	0.322781
1796.000000	0.322992
1797.000000	0.323095
1798.000000	0.322826
1799.000000	0.322858
1800.000000	0.323128
1801.000000	0.322813
1802.000000	0.322696
1803.000000	0.323302
1804.000000	0.323351
1805.000000	0.323225
1806.000000	0.323180
1807.000000	0.322920
1808.000000	0.322944
1809.000000	0.323377
1810.000000	0.323445
1811.000000	0.323239
1812.000000	0.322873
1813.000000	0.322899
1814.000000	0.322740
1815.000000	0.322737
1816.000000	0.323233
1817.000000	0.323240
1818.000000	0.322994
1819.000000	0.322864
1820.000000	0.322588
1821.000000	0.322914
1822.000000	0.322652
1823.000000	0.321704
1824.000000	0.321605
1825.000000	0.321498
1826.000000	0.321668
1827.000000	0.322225
1828.000000	0.323171
1829.000000	0.323690
1830.000000	0.323994
1831.000000	0.323967
1832.000000	0.323722
1833.000000	0.323350
1834.000000	0.322282
1835.000000	0.321846
1836.000000	0.321865
1837.000000	0.321406
1838.000000	0.320925
1839.000000	0.320051
1840.000000	0.318775
1841.000000	0.317837
1842.000000	0.317644
1843.000000	0.318236
1844.000000	0.318618
1845.000000	0.319591
1846.000000	0.319887
1847.000000	0.319621
1848.000000	0.319564
1849.000000	0.319210
1850.000000	0.318370
1851.000000	0.318092
1852.000000	0.317789
1853.000000	0.317635
1854.000000	0.317999
1855.000000	0.317769
1856.000000	0.317319
1857.000000	0.316289
1858.000000	0.315908
1859.000000	0.315620
1860.000000	0.315095
1861.000000	0.314633
1862.000000	0.313640
1863.000000	0.311646
1864.000000	0.310550
1865.000000	0.309653
1866.000000	0.308778
1867.000000	0.308259
1868.000000	0.307741
1869.000000	0.306252
1870.000000	0.304794
1871.000000	0.303859
1872.000000	0.302377
1873.000000	0.300926
1874.000000	0.300206
1875.000000	0.298457
1876.000000	0.295739
1877.000000	0.292821
1878.000000	0.289934
1879.000000	0.286692
1880.000000	0.284234
1881.000000	0.281445
1882.000000	0.278876
1883.000000	0.276409
1884.000000	0.273695
1885.000000	0.270858
1886.000000	0.267801
1887.000000	0.264463
1888.000000	0.260794
1889.000000	0.257184
1890.000000	0.253504
1891.000000	0.249655
1892.000000	0.245752
1893.000000	0.242198
1894.000000	0.238866
1895.000000	0.235274
1896.000000	0.232021
1897.000000	0.228451
1898.000000	0.224489
1899.000000	0.220603
1900.000000	0.216797
1901.000000	0.213408
1902.000000	0.210651
1903.000000	0.207593
1904.000000	0.204621
1905.000000	0.202657
1906.000000	0.200685
1907.000000	0.198823
1908.000000	0.197569
1909.000000	0.196818
1910.000000	0.195715
1911.000000	0.194885
1912.000000	0.194508
1913.000000	0.194585
1914.000000	0.194342
1915.000000	0.193942
1916.000000	0.193597
1917.000000	0.192995
1918.000000	0.191943
1919.000000	0.191359
1920.000000	0.190771
1921.000000	0.190322
1922.000000	0.190315
1923.000000	0.190111
1924.000000	0.190145
1925.000000	0.189790
1926.000000	0.189306
1927.000000	0.189239
1928.000000	0.188977
1929.000000	0.188625
1930.000000	0.188730
1931.000000	0.188922
1932.000000	0.189592
1933.000000	0.190721
1934.000000	0.191349
1935.000000	0.191771
1936.000000	0.191453
1937.000000	0.191235
1938.000000	0.191252
1939.000000	0.191192
1940.000000	0.191175
1941.000000	0.191519
1942.000000	0.191743
1943.000000	0.191681
1944.000000	0.191507
1945.000000	0.191293
1946.000000	0.191161
1947.000000	0.191936
1948.000000	0.192880
1949.000000	0.193245
1950.000000	0.193223
1951.000000	0.192821
1952.000000	0.191533
1953.000000	0.190369
1954.000000	0.189792
1955.000000	0.189806
1956.000000	0.190408
1957.000000	0.191162
1958.000000	0.191350
1959.000000	0.191063
1960.000000	0.190274
1961.000000	0.189411
1962.000000	0.188910
1963.000000	0.188867
1964.000000	0.188493
1965.000000	0.188363
1966.000000	0.188118
1967.000000	0.188084
1968.000000	0.188832
1969.000000	0.189097
1970.000000	0.189403
1971.000000	0.188902
1972.000000	0.188319
1973.000000	0.188279
1974.000000	0.188687
1975.000000	0.188985
1976.000000	0.189725
1977.000000	0.190333
1978.000000	0.190662
1979.000000	0.190338
1980.000000	0.190445
1981.000000	0.191171
1982.000000	0.191367
1983.000000	0.192250
1984.000000	0.192977
1985.000000	0.193724
1986.000000	0.194022
1987.000000	0.194312
1988.000000	0.194521
1989.000000	0.194430
1990.000000	0.194878
1991.000000	0.195606
1992.000000	0.196529
1993.000000	0.197045
1994.000000	0.197617
1995.000000	0.198164
1996.000000	0.198991
1997.000000	0.199892
1998.000000	0.201276
1999.000000	0.202232
2000.000000	0.203291
2001.000000	0.203799
2002.000000	0.203749
2003.000000	0.204328
2004.000000	0.205286
2005.000000	0.205492
2006.000000	0.205911
2007.000000	0.206363
2008.000000	0.206926
2009.000000	0.207104
2010.000000	0.208026
2011.000000	0.209621
2012.000000	0.210719
2013.000000	0.211868
2014.000000	0.212583
2015.000000	0.213290
2016.000000	0.214168
2017.000000	0.214864
2018.000000	0.215850
2019.000000	0.216259
2020.000000	0.216522
2021.000000	0.217578
2022.000000	0.219135
2023.000000	0.220167
2024.000000	0.221868
2025.000000	0.222853
2026.000000	0.222798
2027.000000	0.223212
2028.000000	0.224222
2029.000000	0.225551
2030.000000	0.226782
2031.000000	0.227742
2032.000000	0.228089
2033.000000	0.228106
2034.000000	0.228419
2035.000000	0.228880
2036.000000	0.228988
2037.000000	0.229241
2038.000000	0.229494
2039.000000	0.229420
2040.000000	0.229660
2041.000000	0.230696
2042.000000	0.231702
2043.000000	0.232809
2044.000000	0.234143
2045.000000	0.235074
2046.000000	0.235437
2047.000000	0.235958
2048.000000	0.236317
2049.000000	0.236894
2050.000000	0.237148
2051.000000	0.237666
2052.000000	0.238299
2053.000000	0.238724
2054.000000	0.239417
2055.000000	0.239882
2056.000000	0.240308
2057.000000	0.241250
2058.000000	0.241799
2059.000000	0.242621
2060.000000	0.243365
2061.000000	0.243927
2062.000000	0.244582
2063.000000	0.245572
2064.000000	0.246050
2065.000000	0.246553
2066.000000	0.246835
2067.000000	0.247017
2068.000000	0.247260
2069.000000	0.247234
2070.000000	0.247446
2071.000000	0.247428
2072.000000	0.247737
2073.000000	0.248485
2074.000000	0.248751
2075.000000	0.249497
2076.000000	0.250823
2077.000000	0.251330
2078.000000	0.251433
2079.000000	0.252058
2080.000000	0.252626
2081.000000	0.253340
2082.000000	0.254391
2083.000000	0.255604
2084.000000	0.256556
2085.000000	0.257133
2086.000000	0.257827
2087.000000	0.258044
2088.000000	0.259037
2089.000000	0.259965
2090.000000	0.260308
2091.000000	0.260808
2092.000000	0.261082
2093.000000	0.260247
2094.000000	0.260203
2095.000000	0.260784
2096.000000	0.261077
2097.000000	0.261237
2098.000000	0.261566
2099.000000	0.261901
2100.000000	0.262433
2101.000000	0.263324
2102.000000	0.264027
2103.000000	0.264511
2104.000000	0.264858
2105.000000	0.265153
2106.000000	0.265042
2107.000000	0.265547
2108.000000	0.266468
2109.000000	0.267014
2110.000000	0.267611
2111.000000	0.267894
2112.000000	0.267811
2113.000000	0.267220
2114.000000	0.267188
2115.000000	0.267698
2116.000000	0.268089
2117.000000	0.268862
2118.000000	0.269596
2119.000000	0.269716
2120.000000	0.270053
2121.000000	0.270370
2122.000000	0.270592
2123.000000	0.270737
2124.000000	0.270847
2125.000000	0.270599
2126.000000	0.270972
2127.000000	0.271617
2128.000000	0.272441
2129.000000	0.273945
2130.000000	0.275009
2131.000000	0.275188
2132.000000	0.275194
2133.000000	0.274568
2134.000000	0.273783
2135.000000	0.274279
2136.000000	0.274921
2137.000000	0.274917
2138.000000	0.275165
2139.000000	0.275036
2140.000000	0.273768
2141.000000	0.273378
2142.000000	0.273245
2143.000000	0.273310
2144.000000	0.274155
2145.000000	0.274427
2146.000000	0.274763
2147.000000	0.275586
2148.000000	0.274894
2149.000000	0.274818
2150.000000	0.274830
2151.000000	0.274355
2152.000000	0.273845
2153.000000	0.273406
2154.000000	0.273548
2155.000000	0.274002
2156.000000	0.274345
2157.000000	0.275218
2158.000000	0.275940
2159.000000	0.276815
2160.000000	0.277333
2161.000000	0.277976
2162.000000	0.278283
2163.000000	0.277611
2164.000000	0.277329
2165.000000	0.276986
2166.000000	0.277018
2167.000000	0.277490
2168.000000	0.277868
2169.000000	0.277272
2170.000000	0.276480
2171.000000	0.276251
2172.000000	0.275385
2173.000000	0.275695
2174.000000	0.277430
2175.000000	0.278271
2176.000000	0.279333
2177.000000	0.279786
2178.000000	0.280075
2179.000000	0.279930
2180.000000	0.279010
2181.000000	0.278450
2182.000000	0.277114
2183.000000	0.275632
2184.000000	0.275086
2185.000000	0.274763
2186.000000	0.274372
2187.000000	0.275453
2188.000000	0.276426
2189.000000	0.276219
2190.000000	0.275404
2191.000000	0.274765
2192.000000	0.274556
2193.000000	0.273909
2194.000000	0.273964
2195.000000	0.275377
2196.000000	0.275788
2197.000000	0.276108
2198.000000	0.276071
2199.000000	0.275646
2200.000000	0.275501
2201.000000	0.274654
2202.000000	0.274589
2203.000000	0.274825
2204.000000	0.275127
2205.000000	0.276983
2206.000000	0.276777
2207.000000	0.276403
2208.000000	0.277243
2209.000000	0.276282
2210.000000	0.275756
2211.000000	0.276152
2212.000000	0.274672
2213.000000	0.274736
2214.000000	0.275329
2215.000000	0.276808
2216.000000	0.279671
2217.000000	0.281539
2218.000000	0.283810
2219.000000	0.284757
2220.000000	0.285962
2221.000000	0.285312
2222.000000	0.282123
2223.000000	0.280500
2224.000000	0.278496
2225.000000	0.275519
2226.000000	0.274991
2227.000000	0.277279
2228.000000	0.280003
2229.000000	0.281810
2230.000000	0.283263
2231.000000	0.282333
2232.000000	0.278863
2233.000000	0.275050
2234.000000	0.272549
2235.000000	0.271258
2236.000000	0.270105
2237.000000	0.271440
2238.000000	0.270979
2239.000000	0.268098
2240.000000	0.268215
2241.000000	0.270105
2242.000000	0.269781
2243.000000	0.270465
2244.000000	0.270812
2245.000000	0.269131
2246.000000	0.268882
2247.000000	0.269340
2248.000000	0.269959
2249.000000	0.270701
2250.000000	0.271616
2251.000000	0.274747
2252.000000	0.276614
2253.000000	0.276368
2254.000000	0.273593
2255.000000	0.269720
2256.000000	0.269188
2257.000000	0.269360
2258.000000	0.270447
2259.000000	0.272245
2260.000000	0.271587
2261.000000	0.271380
2262.000000	0.271732
2263.000000	0.271302
2264.000000	0.269582
2265.000000	0.268714
2266.000000	0.267495
2267.000000	0.266511
2268.000000	0.266180
2269.000000	0.265582
2270.000000	0.264909
2271.000000	0.264246
2272.000000	0.263525
2273.000000	0.263301
2274.000000	0.263537
2275.000000	0.262973
2276.000000	0.262142
2277.000000	0.261435
2278.000000	0.260110
2279.000000	0.259106
2280.000000	0.260068
2281.000000	0.259380
2282.000000	0.257543
2283.000000	0.257446
2284.000000	0.254781
2285.000000	0.251661
2286.000000	0.250580
2287.000000	0.248584
2288.000000	0.247757
2289.000000	0.247936
2290.000000	0.249638
2291.000000	0.252046
2292.000000	0.251923
2293.000000	0.251870
2294.000000	0.250108
2295.000000	0.244315
2296.000000	0.241574
2297.000000	0.238521
2298.000000	0.238244
2299.000000	0.241401
2300.000000	0.241904
2301.000000	0.242595
2302.000000	0.243788
2303.000000	0.244286
2304.000000	0.244279
2305.000000	0.245231
2306.000000	0.245281
2307.000000	0.243676
2308.000000	0.242007
2309.000000	0.242265
2310.000000	0.242345
2311.000000	0.242218
2312.000000	0.242383
2313.000000	0.242210
2314.000000	0.242793
2315.000000	0.243847
2316.000000	0.244007
2317.000000	0.243389
2318.000000	0.243510
2319.000000	0.243702
2320.000000	0.243463
2321.000000	0.244959
2322.000000	0.246487
2323.000000	0.246220
2324.000000	0.246348
2325.000000	0.245465
2326.000000	0.243794
2327.000000	0.242358
2328.000000	0.240150
2329.000000	0.239461
2330.000000	0.236161
2331.000000	0.231491
2332.000000	0.229203
2333.000000	0.225406
2334.000000	0.224997
2335.000000	0.226681
2336.000000	0.231995
2337.000000	0.234193
2338.000000	0.238263
2339.000000	0.238030
2340.000000	0.233400
2341.000000	0.231728
2342.000000	0.229298
2343.000000	0.228164
2344.000000	0.229633
2345.000000	0.229092
2346.000000	0.227146
2347.000000	0.225873
2348.000000	0.225162
2349.000000	0.221479
2350.000000	0.220238
2351.000000	0.220743
2352.000000	0.219986
2353.000000	0.222031
2354.000000	0.220814
2355.000000	0.218527
2356.000000	0.219406
2357.000000	0.220260
2358.000000	0.223617
2359.000000	0.228953
2360.000000	0.230417
2361.000000	0.228715
2362.000000	0.226535
2363.000000	0.222091
2364.000000	0.216583
2365.000000	0.213625
2366.000000	0.210431
2367.000000	0.208507
2368.000000	0.209632
2369.000000	0.207957
2370.000000	0.208473
2371.000000	0.211111
2372.000000	0.209381
2373.000000	0.209764
2374.000000	0.209489
2375.000000	0.205762
2376.000000	0.202029
2377.000000	0.198301
2378.000000	0.196400
2379.000000	0.195869
2380.000000	0.197267
2381.000000	0.201463
2382.000000	0.200114
2383.000000	0.193448
2384.000000	0.191036
2385.000000	0.186736
2386.000000	0.183344
2387.000000	0.185940
2388.000000	0.182137
2389.000000	0.176118
2390.000000	0.175159
2391.000000	0.173436
2392.000000	0.174737
2393.000000	0.181998
2394.000000	0.182846
2395.000000	0.178394
2396.000000	0.179523
2397.000000	0.177702
2398.000000	0.174732
2399.000000	0.182043
2400.000000	0.187098
2401.000000	0.188622
2402.000000	0.197945
2403.000000	0.196527
2404.000000	0.188508
2405.000000	0.186441
2406.000000	0.177826
2407.000000	0.176911
2408.000000	0.179953
2409.000000	0.175259
2410.000000	0.176315
2411.000000	0.176719
2412.000000	0.177931
2413.000000	0.179040
2414.000000	0.177005
2415.000000	0.179080
2416.000000	0.180020
2417.000000	0.185700
2418.000000	0.187731
2419.000000	0.185237
2420.000000	0.181642
2421.000000	0.173173
2422.000000	0.175048
2423.000000	0.172052
2424.000000	0.162075
2425.000000	0.159293
2426.000000	0.152168
2427.000000	0.149566
2428.000000	0.165838
2429.000000	0.183584
2430.000000	0.191014
2431.000000	0.200807
2432.000000	0.199894
2433.000000	0.190950
2434.000000	0.188646
2435.000000	0.181006
2436.000000	0.176650
2437.000000	0.175735
2438.000000	0.179002
2439.000000	0.179347
2440.000000	0.180911
2441.000000	0.177282
2442.000000	0.159082
2443.000000	0.160733
2444.000000	0.161240
2445.000000	0.166093
2446.000000	0.185245
2447.000000	0.185861
2448.000000	0.177385
2449.000000	0.174052
2450.000000	0.169223
2451.000000	0.161618
2452.000000	0.167464
2453.000000	0.157792
2454.000000	0.144386
2455.000000	0.153194
2456.000000	0.149264
2457.000000	0.152528
2458.000000	0.161371
2459.000000	0.154140
2460.000000	0.166580
2461.000000	0.187550
2462.000000	0.191442
2463.000000	0.190874
2464.000000	0.165254
2465.000000	0.123924
2466.000000	0.116314
2467.000000	0.129408
2468.000000	0.147780
2469.000000	0.168710
2470.000000	0.169425
2471.000000	0.157801
2472.000000	0.135452
2473.000000	0.133246
2474.000000	0.147203
2475.000000	0.152617
2476.000000	0.171526
2477.000000	0.180064
2478.000000	0.172236
2479.000000	0.174457
2480.000000	0.180083
2481.000000	0.206912
2482.000000	0.228066
2483.000000	0.234139
2484.000000	0.223136
2485.000000	0.164376
2486.000000	0.135207
2487.000000	0.127254
2488.000000	0.121304
2489.000000	0.140178
2490.000000	0.133741
2491.000000	0.116705
2492.000000	0.110298
2493.000000	0.117070
2494.000000	0.132044
2495.000000	0.160467
2496.000000	0.152019
2497.000000	0.120661
2498.000000	0.097201
2499.000000	0.057501
2500.000000	0.032195
