# Wavelength	NAu-1-20_HEX-40_FV7-40_00002.asd.rts.txt
350.000000	0.197255
351.000000	0.179720
352.000000	0.149849
353.000000	0.145564
354.000000	0.171169
355.000000	0.170247
356.000000	0.167467
357.000000	0.169048
358.000000	0.167201
359.000000	0.167019
360.000000	0.170953
361.000000	0.178893
362.000000	0.181509
363.000000	0.178606
364.000000	0.173097
365.000000	0.174947
366.000000	0.175363
367.000000	0.172294
368.000000	0.169340
369.000000	0.169649
370.000000	0.173600
371.000000	0.179456
372.000000	0.179032
373.000000	0.177297
374.000000	0.178286
375.000000	0.178661
376.000000	0.179143
377.000000	0.179663
378.000000	0.179529
379.000000	0.181408
380.000000	0.183189
381.000000	0.182581
382.000000	0.183272
383.000000	0.184688
384.000000	0.186115
385.000000	0.187427
386.000000	0.187515
387.000000	0.187050
388.000000	0.188369
389.000000	0.190889
390.000000	0.192368
391.000000	0.190417
392.000000	0.192277
393.000000	0.195115
394.000000	0.195829
395.000000	0.194730
396.000000	0.195086
397.000000	0.197134
398.000000	0.197091
399.000000	0.198635
400.000000	0.200813
401.000000	0.200812
402.000000	0.200126
403.000000	0.200223
404.000000	0.201882
405.000000	0.202594
406.000000	0.204557
407.000000	0.207677
408.000000	0.207429
409.000000	0.207829
410.000000	0.209315
411.000000	0.210384
412.000000	0.210171
413.000000	0.210213
414.000000	0.211892
415.000000	0.212098
416.000000	0.212120
417.000000	0.212791
418.000000	0.213230
419.000000	0.214064
420.000000	0.215058
421.000000	0.215226
422.000000	0.215075
423.000000	0.214826
424.000000	0.214728
425.000000	0.215055
426.000000	0.215592
427.000000	0.216062
428.000000	0.216276
429.000000	0.216344
430.000000	0.216388
431.000000	0.216517
432.000000	0.217023
433.000000	0.217447
434.000000	0.217129
435.000000	0.217395
436.000000	0.217769
437.000000	0.217643
438.000000	0.217605
439.000000	0.217542
440.000000	0.217458
441.000000	0.217313
442.000000	0.217414
443.000000	0.217597
444.000000	0.217495
445.000000	0.217472
446.000000	0.217655
447.000000	0.217932
448.000000	0.218235
449.000000	0.218769
450.000000	0.219632
451.000000	0.220517
452.000000	0.221536
453.000000	0.222618
454.000000	0.223681
455.000000	0.224688
456.000000	0.225882
457.000000	0.227417
458.000000	0.228668
459.000000	0.229780
460.000000	0.230977
461.000000	0.231933
462.000000	0.232819
463.000000	0.233652
464.000000	0.234709
465.000000	0.235481
466.000000	0.235943
467.000000	0.236502
468.000000	0.237388
469.000000	0.238033
470.000000	0.238039
471.000000	0.238498
472.000000	0.238983
473.000000	0.239284
474.000000	0.240144
475.000000	0.240542
476.000000	0.240547
477.000000	0.241099
478.000000	0.241514
479.000000	0.241923
480.000000	0.242393
481.000000	0.242534
482.000000	0.242835
483.000000	0.243462
484.000000	0.243804
485.000000	0.244122
486.000000	0.244671
487.000000	0.245103
488.000000	0.245386
489.000000	0.245664
490.000000	0.246199
491.000000	0.246487
492.000000	0.246785
493.000000	0.247346
494.000000	0.247890
495.000000	0.248264
496.000000	0.248473
497.000000	0.249119
498.000000	0.249725
499.000000	0.250160
500.000000	0.250471
501.000000	0.250845
502.000000	0.251359
503.000000	0.251938
504.000000	0.252480
505.000000	0.252950
506.000000	0.253343
507.000000	0.253592
508.000000	0.254044
509.000000	0.254737
510.000000	0.255215
511.000000	0.255703
512.000000	0.256267
513.000000	0.256814
514.000000	0.257291
515.000000	0.257798
516.000000	0.258399
517.000000	0.258951
518.000000	0.259497
519.000000	0.260014
520.000000	0.260588
521.000000	0.261161
522.000000	0.261718
523.000000	0.262294
524.000000	0.262832
525.000000	0.263383
526.000000	0.264098
527.000000	0.264690
528.000000	0.265198
529.000000	0.265773
530.000000	0.266377
531.000000	0.266982
532.000000	0.267505
533.000000	0.268039
534.000000	0.268674
535.000000	0.269392
536.000000	0.270101
537.000000	0.270758
538.000000	0.271381
539.000000	0.272000
540.000000	0.272576
541.000000	0.273138
542.000000	0.273754
543.000000	0.274436
544.000000	0.275074
545.000000	0.275571
546.000000	0.276088
547.000000	0.276680
548.000000	0.277335
549.000000	0.277884
550.000000	0.278485
551.000000	0.279108
552.000000	0.279643
553.000000	0.280255
554.000000	0.280883
555.000000	0.281490
556.000000	0.282194
557.000000	0.282794
558.000000	0.283356
559.000000	0.283910
560.000000	0.284483
561.000000	0.285103
562.000000	0.285642
563.000000	0.286149
564.000000	0.286721
565.000000	0.287316
566.000000	0.287879
567.000000	0.288433
568.000000	0.288972
569.000000	0.289506
570.000000	0.289986
571.000000	0.290430
572.000000	0.290951
573.000000	0.291429
574.000000	0.291817
575.000000	0.292168
576.000000	0.292638
577.000000	0.293106
578.000000	0.293511
579.000000	0.293831
580.000000	0.294168
581.000000	0.294538
582.000000	0.294811
583.000000	0.295198
584.000000	0.295644
585.000000	0.295947
586.000000	0.296199
587.000000	0.296459
588.000000	0.296766
589.000000	0.297062
590.000000	0.297353
591.000000	0.297649
592.000000	0.297955
593.000000	0.298202
594.000000	0.298393
595.000000	0.298622
596.000000	0.298827
597.000000	0.299055
598.000000	0.299274
599.000000	0.299399
600.000000	0.299548
601.000000	0.299741
602.000000	0.299923
603.000000	0.300061
604.000000	0.300199
605.000000	0.300522
606.000000	0.300668
607.000000	0.300695
608.000000	0.300927
609.000000	0.301079
610.000000	0.301230
611.000000	0.301496
612.000000	0.301608
613.000000	0.301713
614.000000	0.301932
615.000000	0.302068
616.000000	0.302189
617.000000	0.302282
618.000000	0.302357
619.000000	0.302454
620.000000	0.302573
621.000000	0.302740
622.000000	0.302767
623.000000	0.302806
624.000000	0.302969
625.000000	0.303020
626.000000	0.303066
627.000000	0.303189
628.000000	0.303438
629.000000	0.303706
630.000000	0.303848
631.000000	0.303992
632.000000	0.304140
633.000000	0.304301
634.000000	0.304450
635.000000	0.304541
636.000000	0.304684
637.000000	0.304895
638.000000	0.305016
639.000000	0.305182
640.000000	0.305430
641.000000	0.305556
642.000000	0.305703
643.000000	0.305907
644.000000	0.306151
645.000000	0.306226
646.000000	0.306309
647.000000	0.306505
648.000000	0.306666
649.000000	0.306850
650.000000	0.307047
651.000000	0.307214
652.000000	0.307352
653.000000	0.307503
654.000000	0.307646
655.000000	0.307863
656.000000	0.308151
657.000000	0.308406
658.000000	0.308515
659.000000	0.308661
660.000000	0.308897
661.000000	0.309095
662.000000	0.309260
663.000000	0.309441
664.000000	0.309612
665.000000	0.309849
666.000000	0.310082
667.000000	0.310211
668.000000	0.310398
669.000000	0.310618
670.000000	0.310844
671.000000	0.311048
672.000000	0.311341
673.000000	0.311672
674.000000	0.311879
675.000000	0.312025
676.000000	0.312182
677.000000	0.312433
678.000000	0.312712
679.000000	0.312974
680.000000	0.313197
681.000000	0.313346
682.000000	0.313606
683.000000	0.313903
684.000000	0.314142
685.000000	0.314335
686.000000	0.314549
687.000000	0.314814
688.000000	0.315093
689.000000	0.315319
690.000000	0.315519
691.000000	0.315870
692.000000	0.316206
693.000000	0.316518
694.000000	0.316789
695.000000	0.317110
696.000000	0.317437
697.000000	0.317685
698.000000	0.317949
699.000000	0.318283
700.000000	0.318681
701.000000	0.318906
702.000000	0.319140
703.000000	0.319430
704.000000	0.319701
705.000000	0.319929
706.000000	0.320160
707.000000	0.320554
708.000000	0.320793
709.000000	0.321007
710.000000	0.321348
711.000000	0.321652
712.000000	0.321936
713.000000	0.322227
714.000000	0.322502
715.000000	0.322761
716.000000	0.323038
717.000000	0.323349
718.000000	0.323592
719.000000	0.323817
720.000000	0.324081
721.000000	0.324265
722.000000	0.324472
723.000000	0.324778
724.000000	0.325020
725.000000	0.325234
726.000000	0.325505
727.000000	0.325760
728.000000	0.325979
729.000000	0.326182
730.000000	0.326352
731.000000	0.326596
732.000000	0.326861
733.000000	0.327136
734.000000	0.327335
735.000000	0.327472
736.000000	0.327704
737.000000	0.327955
738.000000	0.328101
739.000000	0.328308
740.000000	0.328515
741.000000	0.328701
742.000000	0.328935
743.000000	0.329167
744.000000	0.329295
745.000000	0.329437
746.000000	0.329612
747.000000	0.329716
748.000000	0.329907
749.000000	0.330107
750.000000	0.330218
751.000000	0.330284
752.000000	0.330424
753.000000	0.330639
754.000000	0.330798
755.000000	0.330915
756.000000	0.331001
757.000000	0.331038
758.000000	0.331150
759.000000	0.331275
760.000000	0.331312
761.000000	0.331395
762.000000	0.331514
763.000000	0.331635
764.000000	0.331789
765.000000	0.331897
766.000000	0.331965
767.000000	0.332010
768.000000	0.332081
769.000000	0.332102
770.000000	0.332077
771.000000	0.332110
772.000000	0.332224
773.000000	0.332278
774.000000	0.332223
775.000000	0.332211
776.000000	0.332209
777.000000	0.332175
778.000000	0.332180
779.000000	0.332288
780.000000	0.332434
781.000000	0.332402
782.000000	0.332371
783.000000	0.332431
784.000000	0.332446
785.000000	0.332432
786.000000	0.332417
787.000000	0.332416
788.000000	0.332446
789.000000	0.332381
790.000000	0.332256
791.000000	0.332239
792.000000	0.332224
793.000000	0.332209
794.000000	0.332200
795.000000	0.332156
796.000000	0.332096
797.000000	0.332024
798.000000	0.331938
799.000000	0.331945
800.000000	0.331989
801.000000	0.331964
802.000000	0.331789
803.000000	0.331611
804.000000	0.331522
805.000000	0.331328
806.000000	0.331131
807.000000	0.331065
808.000000	0.331101
809.000000	0.331070
810.000000	0.331029
811.000000	0.331015
812.000000	0.330957
813.000000	0.330850
814.000000	0.330731
815.000000	0.330701
816.000000	0.330554
817.000000	0.330382
818.000000	0.330239
819.000000	0.330209
820.000000	0.330199
821.000000	0.330076
822.000000	0.329798
823.000000	0.329683
824.000000	0.329611
825.000000	0.329454
826.000000	0.329341
827.000000	0.329192
828.000000	0.329035
829.000000	0.329017
830.000000	0.328905
831.000000	0.328790
832.000000	0.328742
833.000000	0.328659
834.000000	0.328520
835.000000	0.328369
836.000000	0.328236
837.000000	0.328113
838.000000	0.328013
839.000000	0.327918
840.000000	0.327759
841.000000	0.327655
842.000000	0.327639
843.000000	0.327503
844.000000	0.327359
845.000000	0.327259
846.000000	0.327274
847.000000	0.327160
848.000000	0.326968
849.000000	0.326827
850.000000	0.326545
851.000000	0.326310
852.000000	0.326214
853.000000	0.326083
854.000000	0.325869
855.000000	0.325678
856.000000	0.325462
857.000000	0.325240
858.000000	0.325191
859.000000	0.325229
860.000000	0.325083
861.000000	0.324957
862.000000	0.324863
863.000000	0.324682
864.000000	0.324573
865.000000	0.324428
866.000000	0.324240
867.000000	0.324142
868.000000	0.324109
869.000000	0.323985
870.000000	0.323725
871.000000	0.323600
872.000000	0.323492
873.000000	0.323301
874.000000	0.323299
875.000000	0.323032
876.000000	0.322627
877.000000	0.322366
878.000000	0.322184
879.000000	0.322053
880.000000	0.321838
881.000000	0.321736
882.000000	0.321601
883.000000	0.321469
884.000000	0.321357
885.000000	0.321200
886.000000	0.320949
887.000000	0.320668
888.000000	0.320530
889.000000	0.320463
890.000000	0.320265
891.000000	0.319969
892.000000	0.319737
893.000000	0.319553
894.000000	0.319463
895.000000	0.319218
896.000000	0.319015
897.000000	0.318877
898.000000	0.318765
899.000000	0.318687
900.000000	0.318525
901.000000	0.318237
902.000000	0.318040
903.000000	0.317771
904.000000	0.317493
905.000000	0.317220
906.000000	0.317100
907.000000	0.317045
908.000000	0.317002
909.000000	0.316786
910.000000	0.316672
911.000000	0.316537
912.000000	0.316273
913.000000	0.316047
914.000000	0.315875
915.000000	0.315713
916.000000	0.315331
917.000000	0.315190
918.000000	0.315140
919.000000	0.314982
920.000000	0.314774
921.000000	0.314459
922.000000	0.314199
923.000000	0.314175
924.000000	0.314013
925.000000	0.313791
926.000000	0.313599
927.000000	0.313321
928.000000	0.313164
929.000000	0.313063
930.000000	0.312883
931.000000	0.312667
932.000000	0.312446
933.000000	0.312238
934.000000	0.311935
935.000000	0.311773
936.000000	0.311810
937.000000	0.311848
938.000000	0.311484
939.000000	0.311279
940.000000	0.311164
941.000000	0.310873
942.000000	0.310470
943.000000	0.310330
944.000000	0.310379
945.000000	0.310124
946.000000	0.309842
947.000000	0.309717
948.000000	0.309730
949.000000	0.309452
950.000000	0.309082
951.000000	0.308764
952.000000	0.308666
953.000000	0.308417
954.000000	0.308177
955.000000	0.308044
956.000000	0.307993
957.000000	0.307748
958.000000	0.307456
959.000000	0.307464
960.000000	0.307102
961.000000	0.306798
962.000000	0.306688
963.000000	0.306544
964.000000	0.306517
965.000000	0.306414
966.000000	0.306031
967.000000	0.305829
968.000000	0.305898
969.000000	0.305889
970.000000	0.305491
971.000000	0.305368
972.000000	0.305428
973.000000	0.305405
974.000000	0.305128
975.000000	0.305016
976.000000	0.304933
977.000000	0.304727
978.000000	0.304606
979.000000	0.304567
980.000000	0.304313
981.000000	0.303995
982.000000	0.303880
983.000000	0.303875
984.000000	0.303856
985.000000	0.303573
986.000000	0.303563
987.000000	0.303605
988.000000	0.303332
989.000000	0.302747
990.000000	0.302889
991.000000	0.303278
992.000000	0.303148
993.000000	0.303041
994.000000	0.302863
995.000000	0.302836
996.000000	0.302968
997.000000	0.303148
998.000000	0.303023
999.000000	0.302676
1000.000000	0.302580
1001.000000	0.303676
1002.000000	0.302802
1003.000000	0.301802
1004.000000	0.301339
1005.000000	0.301172
1006.000000	0.300895
1007.000000	0.300757
1008.000000	0.301045
1009.000000	0.301415
1010.000000	0.300971
1011.000000	0.301096
1012.000000	0.301491
1013.000000	0.301518
1014.000000	0.301662
1015.000000	0.302409
1016.000000	0.302765
1017.000000	0.301585
1018.000000	0.300902
1019.000000	0.300974
1020.000000	0.301548
1021.000000	0.301270
1022.000000	0.301763
1023.000000	0.301963
1024.000000	0.301017
1025.000000	0.300757
1026.000000	0.301436
1027.000000	0.301612
1028.000000	0.302068
1029.000000	0.302469
1030.000000	0.302322
1031.000000	0.302321
1032.000000	0.302539
1033.000000	0.302419
1034.000000	0.302398
1035.000000	0.302681
1036.000000	0.302892
1037.000000	0.302940
1038.000000	0.302938
1039.000000	0.303185
1040.000000	0.303019
1041.000000	0.303181
1042.000000	0.303431
1043.000000	0.303413
1044.000000	0.303806
1045.000000	0.304061
1046.000000	0.303773
1047.000000	0.303892
1048.000000	0.304213
1049.000000	0.304336
1050.000000	0.304537
1051.000000	0.304665
1052.000000	0.304539
1053.000000	0.304602
1054.000000	0.304702
1055.000000	0.305114
1056.000000	0.305790
1057.000000	0.306742
1058.000000	0.307279
1059.000000	0.307440
1060.000000	0.307313
1061.000000	0.306960
1062.000000	0.307180
1063.000000	0.307800
1064.000000	0.308215
1065.000000	0.308827
1066.000000	0.309269
1067.000000	0.309515
1068.000000	0.309759
1069.000000	0.310063
1070.000000	0.310127
1071.000000	0.309853
1072.000000	0.309934
1073.000000	0.309981
1074.000000	0.310421
1075.000000	0.310823
1076.000000	0.311295
1077.000000	0.311895
1078.000000	0.312204
1079.000000	0.312391
1080.000000	0.312595
1081.000000	0.312751
1082.000000	0.312586
1083.000000	0.312804
1084.000000	0.313372
1085.000000	0.313784
1086.000000	0.314353
1087.000000	0.314633
1088.000000	0.314473
1089.000000	0.314641
1090.000000	0.314846
1091.000000	0.315001
1092.000000	0.315126
1093.000000	0.315178
1094.000000	0.315214
1095.000000	0.314662
1096.000000	0.315058
1097.000000	0.316073
1098.000000	0.316699
1099.000000	0.317637
1100.000000	0.318199
1101.000000	0.318430
1102.000000	0.318657
1103.000000	0.318513
1104.000000	0.318792
1105.000000	0.319270
1106.000000	0.319602
1107.000000	0.320142
1108.000000	0.320552
1109.000000	0.321108
1110.000000	0.320946
1111.000000	0.321162
1112.000000	0.321481
1113.000000	0.321662
1114.000000	0.321705
1115.000000	0.321934
1116.000000	0.322186
1117.000000	0.322478
1118.000000	0.322859
1119.000000	0.323183
1120.000000	0.323592
1121.000000	0.323825
1122.000000	0.324212
1123.000000	0.324486
1124.000000	0.324099
1125.000000	0.324142
1126.000000	0.324158
1127.000000	0.324252
1128.000000	0.324468
1129.000000	0.325049
1130.000000	0.325326
1131.000000	0.325563
1132.000000	0.325704
1133.000000	0.325736
1134.000000	0.325940
1135.000000	0.326110
1136.000000	0.326298
1137.000000	0.326685
1138.000000	0.326783
1139.000000	0.326708
1140.000000	0.326867
1141.000000	0.326909
1142.000000	0.327090
1143.000000	0.327571
1144.000000	0.327873
1145.000000	0.327831
1146.000000	0.327776
1147.000000	0.327980
1148.000000	0.328082
1149.000000	0.328290
1150.000000	0.328891
1151.000000	0.329086
1152.000000	0.328950
1153.000000	0.328998
1154.000000	0.328933
1155.000000	0.328978
1156.000000	0.329109
1157.000000	0.329240
1158.000000	0.329446
1159.000000	0.329508
1160.000000	0.329394
1161.000000	0.329437
1162.000000	0.329588
1163.000000	0.329782
1164.000000	0.329818
1165.000000	0.330008
1166.000000	0.330065
1167.000000	0.329873
1168.000000	0.329819
1169.000000	0.329881
1170.000000	0.329902
1171.000000	0.329902
1172.000000	0.330025
1173.000000	0.330222
1174.000000	0.330314
1175.000000	0.330415
1176.000000	0.330438
1177.000000	0.330349
1178.000000	0.330421
1179.000000	0.330647
1180.000000	0.330672
1181.000000	0.330762
1182.000000	0.330828
1183.000000	0.330765
1184.000000	0.330728
1185.000000	0.330878
1186.000000	0.331232
1187.000000	0.331362
1188.000000	0.331503
1189.000000	0.331582
1190.000000	0.331561
1191.000000	0.331580
1192.000000	0.331748
1193.000000	0.331956
1194.000000	0.332070
1195.000000	0.332140
1196.000000	0.332128
1197.000000	0.332141
1198.000000	0.332063
1199.000000	0.332076
1200.000000	0.332123
1201.000000	0.332295
1202.000000	0.332388
1203.000000	0.332478
1204.000000	0.332548
1205.000000	0.332573
1206.000000	0.332559
1207.000000	0.332599
1208.000000	0.332581
1209.000000	0.332562
1210.000000	0.332609
1211.000000	0.332720
1212.000000	0.332747
1213.000000	0.332798
1214.000000	0.332825
1215.000000	0.332729
1216.000000	0.332751
1217.000000	0.332778
1218.000000	0.332857
1219.000000	0.333109
1220.000000	0.333272
1221.000000	0.333264
1222.000000	0.333301
1223.000000	0.333224
1224.000000	0.333091
1225.000000	0.333085
1226.000000	0.333123
1227.000000	0.333058
1228.000000	0.332997
1229.000000	0.332959
1230.000000	0.332861
1231.000000	0.332817
1232.000000	0.333020
1233.000000	0.333154
1234.000000	0.333247
1235.000000	0.333289
1236.000000	0.333127
1237.000000	0.333158
1238.000000	0.333239
1239.000000	0.333272
1240.000000	0.333359
1241.000000	0.333458
1242.000000	0.333479
1243.000000	0.333454
1244.000000	0.333413
1245.000000	0.333517
1246.000000	0.333615
1247.000000	0.333755
1248.000000	0.333942
1249.000000	0.334078
1250.000000	0.334121
1251.000000	0.334081
1252.000000	0.334040
1253.000000	0.334010
1254.000000	0.333931
1255.000000	0.333749
1256.000000	0.333694
1257.000000	0.333649
1258.000000	0.333743
1259.000000	0.333995
1260.000000	0.334113
1261.000000	0.334159
1262.000000	0.334207
1263.000000	0.334209
1264.000000	0.334143
1265.000000	0.334216
1266.000000	0.334185
1267.000000	0.334165
1268.000000	0.334148
1269.000000	0.334047
1270.000000	0.334164
1271.000000	0.334119
1272.000000	0.334065
1273.000000	0.334246
1274.000000	0.334288
1275.000000	0.334270
1276.000000	0.334295
1277.000000	0.334328
1278.000000	0.334163
1279.000000	0.334096
1280.000000	0.333988
1281.000000	0.333950
1282.000000	0.334050
1283.000000	0.334074
1284.000000	0.334064
1285.000000	0.334077
1286.000000	0.334022
1287.000000	0.333871
1288.000000	0.333969
1289.000000	0.334028
1290.000000	0.333952
1291.000000	0.333973
1292.000000	0.333972
1293.000000	0.334029
1294.000000	0.334108
1295.000000	0.334076
1296.000000	0.334089
1297.000000	0.334044
1298.000000	0.334027
1299.000000	0.334114
1300.000000	0.334114
1301.000000	0.334006
1302.000000	0.333954
1303.000000	0.334044
1304.000000	0.334037
1305.000000	0.334134
1306.000000	0.334191
1307.000000	0.334322
1308.000000	0.334320
1309.000000	0.334272
1310.000000	0.334183
1311.000000	0.334026
1312.000000	0.333673
1313.000000	0.333571
1314.000000	0.333488
1315.000000	0.333445
1316.000000	0.333625
1317.000000	0.333778
1318.000000	0.333952
1319.000000	0.333993
1320.000000	0.333920
1321.000000	0.333769
1322.000000	0.333657
1323.000000	0.333634
1324.000000	0.333575
1325.000000	0.333540
1326.000000	0.333332
1327.000000	0.333017
1328.000000	0.332951
1329.000000	0.332774
1330.000000	0.332555
1331.000000	0.332474
1332.000000	0.332540
1333.000000	0.332442
1334.000000	0.332427
1335.000000	0.332414
1336.000000	0.332279
1337.000000	0.332195
1338.000000	0.332124
1339.000000	0.332063
1340.000000	0.331942
1341.000000	0.331789
1342.000000	0.331600
1343.000000	0.331359
1344.000000	0.331033
1345.000000	0.330836
1346.000000	0.330862
1347.000000	0.330753
1348.000000	0.330758
1349.000000	0.330673
1350.000000	0.330541
1351.000000	0.330483
1352.000000	0.330327
1353.000000	0.330178
1354.000000	0.330124
1355.000000	0.329982
1356.000000	0.329904
1357.000000	0.329777
1358.000000	0.329564
1359.000000	0.329388
1360.000000	0.329266
1361.000000	0.329297
1362.000000	0.329159
1363.000000	0.328895
1364.000000	0.328811
1365.000000	0.328696
1366.000000	0.328623
1367.000000	0.328710
1368.000000	0.328681
1369.000000	0.328551
1370.000000	0.328332
1371.000000	0.327979
1372.000000	0.327605
1373.000000	0.327404
1374.000000	0.327216
1375.000000	0.327004
1376.000000	0.326898
1377.000000	0.326692
1378.000000	0.326353
1379.000000	0.326107
1380.000000	0.325814
1381.000000	0.325291
1382.000000	0.324889
1383.000000	0.324466
1384.000000	0.323913
1385.000000	0.323496
1386.000000	0.323097
1387.000000	0.322748
1388.000000	0.322390
1389.000000	0.321902
1390.000000	0.321368
1391.000000	0.320698
1392.000000	0.320157
1393.000000	0.319663
1394.000000	0.319389
1395.000000	0.318958
1396.000000	0.318497
1397.000000	0.317887
1398.000000	0.317139
1399.000000	0.316498
1400.000000	0.315818
1401.000000	0.315076
1402.000000	0.314462
1403.000000	0.313601
1404.000000	0.312619
1405.000000	0.311833
1406.000000	0.311030
1407.000000	0.310210
1408.000000	0.309467
1409.000000	0.308677
1410.000000	0.307873
1411.000000	0.307148
1412.000000	0.306307
1413.000000	0.305514
1414.000000	0.304837
1415.000000	0.304107
1416.000000	0.303490
1417.000000	0.302838
1418.000000	0.302072
1419.000000	0.301518
1420.000000	0.300906
1421.000000	0.300484
1422.000000	0.300159
1423.000000	0.299732
1424.000000	0.299239
1425.000000	0.298578
1426.000000	0.297825
1427.000000	0.297169
1428.000000	0.296519
1429.000000	0.296026
1430.000000	0.295599
1431.000000	0.295048
1432.000000	0.294580
1433.000000	0.294131
1434.000000	0.293775
1435.000000	0.293630
1436.000000	0.293423
1437.000000	0.293195
1438.000000	0.293015
1439.000000	0.292879
1440.000000	0.292781
1441.000000	0.292797
1442.000000	0.292773
1443.000000	0.292693
1444.000000	0.292590
1445.000000	0.292520
1446.000000	0.292548
1447.000000	0.292579
1448.000000	0.292608
1449.000000	0.292608
1450.000000	0.292533
1451.000000	0.292425
1452.000000	0.292230
1453.000000	0.291988
1454.000000	0.291754
1455.000000	0.291642
1456.000000	0.291645
1457.000000	0.291694
1458.000000	0.291713
1459.000000	0.291598
1460.000000	0.291502
1461.000000	0.291406
1462.000000	0.291300
1463.000000	0.291208
1464.000000	0.291105
1465.000000	0.291132
1466.000000	0.291201
1467.000000	0.291281
1468.000000	0.291364
1469.000000	0.291419
1470.000000	0.291410
1471.000000	0.291377
1472.000000	0.291403
1473.000000	0.291473
1474.000000	0.291535
1475.000000	0.291847
1476.000000	0.292070
1477.000000	0.292222
1478.000000	0.292501
1479.000000	0.292613
1480.000000	0.292783
1481.000000	0.292975
1482.000000	0.293220
1483.000000	0.293502
1484.000000	0.293869
1485.000000	0.294119
1486.000000	0.294345
1487.000000	0.294590
1488.000000	0.294781
1489.000000	0.295043
1490.000000	0.295273
1491.000000	0.295501
1492.000000	0.295670
1493.000000	0.295884
1494.000000	0.296039
1495.000000	0.296267
1496.000000	0.296530
1497.000000	0.296834
1498.000000	0.297234
1499.000000	0.297593
1500.000000	0.297873
1501.000000	0.298046
1502.000000	0.298115
1503.000000	0.298274
1504.000000	0.298522
1505.000000	0.298687
1506.000000	0.298892
1507.000000	0.299043
1508.000000	0.299162
1509.000000	0.299359
1510.000000	0.299511
1511.000000	0.299696
1512.000000	0.299823
1513.000000	0.300006
1514.000000	0.300284
1515.000000	0.300413
1516.000000	0.300497
1517.000000	0.300549
1518.000000	0.300607
1519.000000	0.300579
1520.000000	0.300739
1521.000000	0.300963
1522.000000	0.300968
1523.000000	0.301086
1524.000000	0.301223
1525.000000	0.301298
1526.000000	0.301498
1527.000000	0.301835
1528.000000	0.302176
1529.000000	0.302363
1530.000000	0.302397
1531.000000	0.302387
1532.000000	0.302300
1533.000000	0.302211
1534.000000	0.302255
1535.000000	0.302394
1536.000000	0.302390
1537.000000	0.302548
1538.000000	0.302749
1539.000000	0.302698
1540.000000	0.302852
1541.000000	0.303030
1542.000000	0.303042
1543.000000	0.303206
1544.000000	0.303347
1545.000000	0.303362
1546.000000	0.303329
1547.000000	0.303293
1548.000000	0.303272
1549.000000	0.303348
1550.000000	0.303470
1551.000000	0.303486
1552.000000	0.303432
1553.000000	0.303267
1554.000000	0.303141
1555.000000	0.303132
1556.000000	0.303048
1557.000000	0.302953
1558.000000	0.302942
1559.000000	0.302897
1560.000000	0.302853
1561.000000	0.302916
1562.000000	0.302926
1563.000000	0.302890
1564.000000	0.302905
1565.000000	0.302972
1566.000000	0.302969
1567.000000	0.303080
1568.000000	0.303119
1569.000000	0.303132
1570.000000	0.303198
1571.000000	0.303259
1572.000000	0.303286
1573.000000	0.303391
1574.000000	0.303394
1575.000000	0.303277
1576.000000	0.303318
1577.000000	0.303363
1578.000000	0.303420
1579.000000	0.303658
1580.000000	0.303710
1581.000000	0.303766
1582.000000	0.303797
1583.000000	0.303725
1584.000000	0.303628
1585.000000	0.303537
1586.000000	0.303526
1587.000000	0.303586
1588.000000	0.303554
1589.000000	0.303547
1590.000000	0.303494
1591.000000	0.303310
1592.000000	0.303274
1593.000000	0.303395
1594.000000	0.303387
1595.000000	0.303421
1596.000000	0.303416
1597.000000	0.303356
1598.000000	0.303274
1599.000000	0.303179
1600.000000	0.303126
1601.000000	0.303153
1602.000000	0.303199
1603.000000	0.303335
1604.000000	0.303363
1605.000000	0.303367
1606.000000	0.303373
1607.000000	0.303422
1608.000000	0.303418
1609.000000	0.303403
1610.000000	0.303422
1611.000000	0.303461
1612.000000	0.303480
1613.000000	0.303669
1614.000000	0.303702
1615.000000	0.303620
1616.000000	0.303692
1617.000000	0.303764
1618.000000	0.303828
1619.000000	0.303987
1620.000000	0.304005
1621.000000	0.303893
1622.000000	0.303968
1623.000000	0.304054
1624.000000	0.304160
1625.000000	0.304249
1626.000000	0.304301
1627.000000	0.304286
1628.000000	0.304410
1629.000000	0.304657
1630.000000	0.304836
1631.000000	0.304998
1632.000000	0.305083
1633.000000	0.305041
1634.000000	0.305138
1635.000000	0.305318
1636.000000	0.305477
1637.000000	0.305749
1638.000000	0.305871
1639.000000	0.305960
1640.000000	0.306040
1641.000000	0.306138
1642.000000	0.306223
1643.000000	0.306311
1644.000000	0.306406
1645.000000	0.306504
1646.000000	0.306503
1647.000000	0.306521
1648.000000	0.306506
1649.000000	0.306433
1650.000000	0.306502
1651.000000	0.306707
1652.000000	0.306851
1653.000000	0.307004
1654.000000	0.307134
1655.000000	0.307175
1656.000000	0.307144
1657.000000	0.307148
1658.000000	0.307148
1659.000000	0.307154
1660.000000	0.307244
1661.000000	0.307312
1662.000000	0.307375
1663.000000	0.307452
1664.000000	0.307537
1665.000000	0.307566
1666.000000	0.307804
1667.000000	0.308092
1668.000000	0.308314
1669.000000	0.308654
1670.000000	0.308712
1671.000000	0.308636
1672.000000	0.308800
1673.000000	0.308938
1674.000000	0.309148
1675.000000	0.309333
1676.000000	0.309397
1677.000000	0.309460
1678.000000	0.309432
1679.000000	0.309558
1680.000000	0.309688
1681.000000	0.309683
1682.000000	0.309727
1683.000000	0.309743
1684.000000	0.309754
1685.000000	0.309782
1686.000000	0.309697
1687.000000	0.309743
1688.000000	0.309794
1689.000000	0.309827
1690.000000	0.310060
1691.000000	0.310307
1692.000000	0.310316
1693.000000	0.310381
1694.000000	0.310459
1695.000000	0.310626
1696.000000	0.310788
1697.000000	0.310878
1698.000000	0.310997
1699.000000	0.311092
1700.000000	0.311148
1701.000000	0.311293
1702.000000	0.311224
1703.000000	0.311224
1704.000000	0.311501
1705.000000	0.311538
1706.000000	0.311452
1707.000000	0.311460
1708.000000	0.311263
1709.000000	0.311201
1710.000000	0.311503
1711.000000	0.311605
1712.000000	0.311676
1713.000000	0.311702
1714.000000	0.311627
1715.000000	0.311615
1716.000000	0.311640
1717.000000	0.311649
1718.000000	0.311591
1719.000000	0.311642
1720.000000	0.311838
1721.000000	0.311915
1722.000000	0.312054
1723.000000	0.312093
1724.000000	0.311978
1725.000000	0.312024
1726.000000	0.312066
1727.000000	0.312073
1728.000000	0.311995
1729.000000	0.312020
1730.000000	0.312194
1731.000000	0.312340
1732.000000	0.312646
1733.000000	0.312841
1734.000000	0.312821
1735.000000	0.312844
1736.000000	0.312803
1737.000000	0.312829
1738.000000	0.312868
1739.000000	0.312905
1740.000000	0.312960
1741.000000	0.313016
1742.000000	0.313052
1743.000000	0.313177
1744.000000	0.313395
1745.000000	0.313380
1746.000000	0.313260
1747.000000	0.313313
1748.000000	0.313202
1749.000000	0.313038
1750.000000	0.312970
1751.000000	0.312988
1752.000000	0.313020
1753.000000	0.313064
1754.000000	0.313089
1755.000000	0.312929
1756.000000	0.312834
1757.000000	0.312784
1758.000000	0.312814
1759.000000	0.312944
1760.000000	0.312936
1761.000000	0.312851
1762.000000	0.312824
1763.000000	0.312673
1764.000000	0.312685
1765.000000	0.312913
1766.000000	0.312976
1767.000000	0.312840
1768.000000	0.312863
1769.000000	0.313036
1770.000000	0.313137
1771.000000	0.313271
1772.000000	0.313395
1773.000000	0.313322
1774.000000	0.313442
1775.000000	0.313816
1776.000000	0.314002
1777.000000	0.314177
1778.000000	0.314194
1779.000000	0.314052
1780.000000	0.313975
1781.000000	0.313756
1782.000000	0.313680
1783.000000	0.313697
1784.000000	0.313814
1785.000000	0.313906
1786.000000	0.314184
1787.000000	0.314399
1788.000000	0.314490
1789.000000	0.314642
1790.000000	0.314787
1791.000000	0.314789
1792.000000	0.314710
1793.000000	0.314780
1794.000000	0.314924
1795.000000	0.314994
1796.000000	0.315236
1797.000000	0.315300
1798.000000	0.315055
1799.000000	0.314957
1800.000000	0.314917
1801.000000	0.314608
1802.000000	0.314750
1803.000000	0.315572
1804.000000	0.315660
1805.000000	0.314941
1806.000000	0.314996
1807.000000	0.315811
1808.000000	0.315898
1809.000000	0.316291
1810.000000	0.315695
1811.000000	0.315379
1812.000000	0.314395
1813.000000	0.313927
1814.000000	0.313762
1815.000000	0.313697
1816.000000	0.313287
1817.000000	0.313371
1818.000000	0.313837
1819.000000	0.314962
1820.000000	0.315471
1821.000000	0.316009
1822.000000	0.316140
1823.000000	0.315561
1824.000000	0.315108
1825.000000	0.314098
1826.000000	0.313967
1827.000000	0.314143
1828.000000	0.314265
1829.000000	0.314266
1830.000000	0.315008
1831.000000	0.314781
1832.000000	0.313298
1833.000000	0.313370
1834.000000	0.314221
1835.000000	0.314158
1836.000000	0.314310
1837.000000	0.314344
1838.000000	0.313470
1839.000000	0.312872
1840.000000	0.313136
1841.000000	0.313811
1842.000000	0.313571
1843.000000	0.312711
1844.000000	0.312393
1845.000000	0.311306
1846.000000	0.311079
1847.000000	0.311454
1848.000000	0.312130
1849.000000	0.312105
1850.000000	0.312081
1851.000000	0.311830
1852.000000	0.310601
1853.000000	0.310563
1854.000000	0.311362
1855.000000	0.311077
1856.000000	0.310579
1857.000000	0.310338
1858.000000	0.309029
1859.000000	0.307449
1860.000000	0.306748
1861.000000	0.306369
1862.000000	0.306137
1863.000000	0.306762
1864.000000	0.306379
1865.000000	0.305781
1866.000000	0.305120
1867.000000	0.303919
1868.000000	0.302612
1869.000000	0.301577
1870.000000	0.300505
1871.000000	0.299673
1872.000000	0.299143
1873.000000	0.298119
1874.000000	0.297034
1875.000000	0.295846
1876.000000	0.294114
1877.000000	0.292065
1878.000000	0.290358
1879.000000	0.289122
1880.000000	0.287806
1881.000000	0.285872
1882.000000	0.284021
1883.000000	0.282160
1884.000000	0.279931
1885.000000	0.277056
1886.000000	0.274560
1887.000000	0.272062
1888.000000	0.268876
1889.000000	0.266574
1890.000000	0.264754
1891.000000	0.262414
1892.000000	0.260239
1893.000000	0.257847
1894.000000	0.254482
1895.000000	0.251355
1896.000000	0.248349
1897.000000	0.245384
1898.000000	0.241479
1899.000000	0.238469
1900.000000	0.235646
1901.000000	0.232621
1902.000000	0.230787
1903.000000	0.229106
1904.000000	0.226728
1905.000000	0.224057
1906.000000	0.221505
1907.000000	0.218686
1908.000000	0.215893
1909.000000	0.213698
1910.000000	0.212221
1911.000000	0.210771
1912.000000	0.209569
1913.000000	0.208346
1914.000000	0.206875
1915.000000	0.205193
1916.000000	0.203478
1917.000000	0.202392
1918.000000	0.201770
1919.000000	0.201393
1920.000000	0.201256
1921.000000	0.201093
1922.000000	0.200526
1923.000000	0.200363
1924.000000	0.200031
1925.000000	0.199704
1926.000000	0.199713
1927.000000	0.199433
1928.000000	0.199151
1929.000000	0.199003
1930.000000	0.198997
1931.000000	0.198302
1932.000000	0.197620
1933.000000	0.197355
1934.000000	0.197151
1935.000000	0.197643
1936.000000	0.198429
1937.000000	0.198784
1938.000000	0.199165
1939.000000	0.199416
1940.000000	0.199430
1941.000000	0.199596
1942.000000	0.199820
1943.000000	0.199529
1944.000000	0.199283
1945.000000	0.198614
1946.000000	0.198031
1947.000000	0.197693
1948.000000	0.197221
1949.000000	0.196780
1950.000000	0.196694
1951.000000	0.196662
1952.000000	0.196867
1953.000000	0.197006
1954.000000	0.197448
1955.000000	0.197457
1956.000000	0.197190
1957.000000	0.196899
1958.000000	0.196523
1959.000000	0.196101
1960.000000	0.195601
1961.000000	0.195321
1962.000000	0.195015
1963.000000	0.194661
1964.000000	0.194711
1965.000000	0.194735
1966.000000	0.194674
1967.000000	0.195063
1968.000000	0.195002
1969.000000	0.194906
1970.000000	0.195156
1971.000000	0.195305
1972.000000	0.195182
1973.000000	0.195057
1974.000000	0.194864
1975.000000	0.194994
1976.000000	0.195066
1977.000000	0.195650
1978.000000	0.196334
1979.000000	0.196735
1980.000000	0.197493
1981.000000	0.198148
1982.000000	0.198143
1983.000000	0.198398
1984.000000	0.198761
1985.000000	0.198692
1986.000000	0.198923
1987.000000	0.199732
1988.000000	0.200368
1989.000000	0.200351
1990.000000	0.200970
1991.000000	0.201792
1992.000000	0.202449
1993.000000	0.202882
1994.000000	0.203242
1995.000000	0.203007
1996.000000	0.202617
1997.000000	0.202892
1998.000000	0.203609
1999.000000	0.204288
2000.000000	0.205186
2001.000000	0.206608
2002.000000	0.207941
2003.000000	0.209157
2004.000000	0.210134
2005.000000	0.210662
2006.000000	0.211109
2007.000000	0.211554
2008.000000	0.212099
2009.000000	0.213027
2010.000000	0.213758
2011.000000	0.214024
2012.000000	0.214506
2013.000000	0.215201
2014.000000	0.215258
2015.000000	0.215736
2016.000000	0.217326
2017.000000	0.218252
2018.000000	0.219388
2019.000000	0.220810
2020.000000	0.221303
2021.000000	0.222249
2022.000000	0.223875
2023.000000	0.224483
2024.000000	0.224340
2025.000000	0.224921
2026.000000	0.225251
2027.000000	0.225468
2028.000000	0.226431
2029.000000	0.227481
2030.000000	0.228421
2031.000000	0.228959
2032.000000	0.229583
2033.000000	0.230434
2034.000000	0.230937
2035.000000	0.231013
2036.000000	0.231569
2037.000000	0.232565
2038.000000	0.233085
2039.000000	0.233606
2040.000000	0.234280
2041.000000	0.234288
2042.000000	0.234334
2043.000000	0.234866
2044.000000	0.235148
2045.000000	0.235524
2046.000000	0.235819
2047.000000	0.236440
2048.000000	0.237115
2049.000000	0.238075
2050.000000	0.239392
2051.000000	0.240206
2052.000000	0.240763
2053.000000	0.241290
2054.000000	0.241753
2055.000000	0.242199
2056.000000	0.243021
2057.000000	0.243601
2058.000000	0.244094
2059.000000	0.244731
2060.000000	0.245232
2061.000000	0.245632
2062.000000	0.245912
2063.000000	0.246061
2064.000000	0.246206
2065.000000	0.246201
2066.000000	0.246655
2067.000000	0.247483
2068.000000	0.248852
2069.000000	0.249797
2070.000000	0.250624
2071.000000	0.250735
2072.000000	0.250193
2073.000000	0.250615
2074.000000	0.250785
2075.000000	0.251104
2076.000000	0.251906
2077.000000	0.252511
2078.000000	0.253002
2079.000000	0.253360
2080.000000	0.253593
2081.000000	0.254052
2082.000000	0.254467
2083.000000	0.254821
2084.000000	0.255828
2085.000000	0.256856
2086.000000	0.257322
2087.000000	0.258000
2088.000000	0.258283
2089.000000	0.258446
2090.000000	0.258843
2091.000000	0.259414
2092.000000	0.259804
2093.000000	0.260247
2094.000000	0.260702
2095.000000	0.261033
2096.000000	0.261514
2097.000000	0.262200
2098.000000	0.262709
2099.000000	0.262500
2100.000000	0.263205
2101.000000	0.263296
2102.000000	0.263008
2103.000000	0.263547
2104.000000	0.263551
2105.000000	0.263888
2106.000000	0.264432
2107.000000	0.265038
2108.000000	0.265893
2109.000000	0.266395
2110.000000	0.266513
2111.000000	0.267140
2112.000000	0.268069
2113.000000	0.268108
2114.000000	0.268182
2115.000000	0.268626
2116.000000	0.268148
2117.000000	0.268329
2118.000000	0.269587
2119.000000	0.269847
2120.000000	0.270009
2121.000000	0.270092
2122.000000	0.269716
2123.000000	0.268344
2124.000000	0.268042
2125.000000	0.267717
2126.000000	0.267849
2127.000000	0.269051
2128.000000	0.269947
2129.000000	0.270951
2130.000000	0.271858
2131.000000	0.272014
2132.000000	0.271728
2133.000000	0.271336
2134.000000	0.271108
2135.000000	0.271907
2136.000000	0.271878
2137.000000	0.271775
2138.000000	0.271305
2139.000000	0.271342
2140.000000	0.271485
2141.000000	0.271674
2142.000000	0.272113
2143.000000	0.272307
2144.000000	0.272349
2145.000000	0.272473
2146.000000	0.272663
2147.000000	0.273642
2148.000000	0.273781
2149.000000	0.273848
2150.000000	0.273741
2151.000000	0.273714
2152.000000	0.272855
2153.000000	0.271212
2154.000000	0.270615
2155.000000	0.269575
2156.000000	0.269617
2157.000000	0.271366
2158.000000	0.272217
2159.000000	0.273568
2160.000000	0.274021
2161.000000	0.273662
2162.000000	0.273540
2163.000000	0.272733
2164.000000	0.272300
2165.000000	0.271897
2166.000000	0.271713
2167.000000	0.272504
2168.000000	0.273098
2169.000000	0.273721
2170.000000	0.274497
2171.000000	0.274717
2172.000000	0.273902
2173.000000	0.274181
2174.000000	0.275264
2175.000000	0.275378
2176.000000	0.275271
2177.000000	0.275235
2178.000000	0.274354
2179.000000	0.274392
2180.000000	0.275568
2181.000000	0.276284
2182.000000	0.277087
2183.000000	0.276474
2184.000000	0.275463
2185.000000	0.273837
2186.000000	0.271855
2187.000000	0.270995
2188.000000	0.271043
2189.000000	0.271210
2190.000000	0.272602
2191.000000	0.274056
2192.000000	0.274109
2193.000000	0.273206
2194.000000	0.272521
2195.000000	0.270185
2196.000000	0.269527
2197.000000	0.270200
2198.000000	0.270505
2199.000000	0.271629
2200.000000	0.271894
2201.000000	0.271574
2202.000000	0.271560
2203.000000	0.270627
2204.000000	0.270321
2205.000000	0.272303
2206.000000	0.274287
2207.000000	0.276210
2208.000000	0.279238
2209.000000	0.279973
2210.000000	0.277881
2211.000000	0.275129
2212.000000	0.272213
2213.000000	0.269510
2214.000000	0.265354
2215.000000	0.264721
2216.000000	0.266326
2217.000000	0.266719
2218.000000	0.268940
2219.000000	0.269766
2220.000000	0.268960
2221.000000	0.269027
2222.000000	0.270382
2223.000000	0.269888
2224.000000	0.267802
2225.000000	0.266979
2226.000000	0.265959
2227.000000	0.265674
2228.000000	0.267143
2229.000000	0.269518
2230.000000	0.272417
2231.000000	0.275575
2232.000000	0.278349
2233.000000	0.279680
2234.000000	0.279944
2235.000000	0.277598
2236.000000	0.275664
2237.000000	0.272537
2238.000000	0.271165
2239.000000	0.269141
2240.000000	0.269665
2241.000000	0.272188
2242.000000	0.273723
2243.000000	0.277316
2244.000000	0.278528
2245.000000	0.278378
2246.000000	0.278273
2247.000000	0.277214
2248.000000	0.276290
2249.000000	0.274933
2250.000000	0.274292
2251.000000	0.273262
2252.000000	0.270419
2253.000000	0.267930
2254.000000	0.266048
2255.000000	0.266692
2256.000000	0.267745
2257.000000	0.269401
2258.000000	0.272801
2259.000000	0.272225
2260.000000	0.271499
2261.000000	0.271103
2262.000000	0.270122
2263.000000	0.269004
2264.000000	0.267831
2265.000000	0.267001
2266.000000	0.265151
2267.000000	0.264801
2268.000000	0.266828
2269.000000	0.266919
2270.000000	0.266811
2271.000000	0.266527
2272.000000	0.264600
2273.000000	0.263515
2274.000000	0.262992
2275.000000	0.261913
2276.000000	0.259834
2277.000000	0.260273
2278.000000	0.259374
2279.000000	0.259589
2280.000000	0.259515
2281.000000	0.256203
2282.000000	0.254659
2283.000000	0.253299
2284.000000	0.254060
2285.000000	0.257002
2286.000000	0.258254
2287.000000	0.260989
2288.000000	0.263495
2289.000000	0.262857
2290.000000	0.260887
2291.000000	0.259500
2292.000000	0.257988
2293.000000	0.256927
2294.000000	0.256260
2295.000000	0.257243
2296.000000	0.256651
2297.000000	0.254582
2298.000000	0.254418
2299.000000	0.254994
2300.000000	0.255063
2301.000000	0.256145
2302.000000	0.256771
2303.000000	0.257121
2304.000000	0.257282
2305.000000	0.256663
2306.000000	0.256808
2307.000000	0.256763
2308.000000	0.257126
2309.000000	0.260212
2310.000000	0.261072
2311.000000	0.259151
2312.000000	0.257124
2313.000000	0.253968
2314.000000	0.252969
2315.000000	0.254703
2316.000000	0.256253
2317.000000	0.255609
2318.000000	0.254997
2319.000000	0.253757
2320.000000	0.251436
2321.000000	0.252077
2322.000000	0.253296
2323.000000	0.252713
2324.000000	0.253956
2325.000000	0.254132
2326.000000	0.251014
2327.000000	0.247789
2328.000000	0.243557
2329.000000	0.238986
2330.000000	0.237741
2331.000000	0.239046
2332.000000	0.241014
2333.000000	0.243778
2334.000000	0.243253
2335.000000	0.242401
2336.000000	0.239142
2337.000000	0.237646
2338.000000	0.235438
2339.000000	0.234882
2340.000000	0.235302
2341.000000	0.234990
2342.000000	0.235687
2343.000000	0.235353
2344.000000	0.234389
2345.000000	0.234232
2346.000000	0.233721
2347.000000	0.233791
2348.000000	0.234198
2349.000000	0.236159
2350.000000	0.235805
2351.000000	0.235322
2352.000000	0.237224
2353.000000	0.234331
2354.000000	0.230982
2355.000000	0.231202
2356.000000	0.228776
2357.000000	0.226797
2358.000000	0.228703
2359.000000	0.227407
2360.000000	0.224076
2361.000000	0.222240
2362.000000	0.219334
2363.000000	0.219537
2364.000000	0.221717
2365.000000	0.223151
2366.000000	0.221393
2367.000000	0.217002
2368.000000	0.215152
2369.000000	0.214494
2370.000000	0.218457
2371.000000	0.223648
2372.000000	0.224738
2373.000000	0.222625
2374.000000	0.217222
2375.000000	0.211291
2376.000000	0.206364
2377.000000	0.205319
2378.000000	0.204071
2379.000000	0.202311
2380.000000	0.203580
2381.000000	0.201040
2382.000000	0.196994
2383.000000	0.195422
2384.000000	0.191083
2385.000000	0.190946
2386.000000	0.193429
2387.000000	0.191783
2388.000000	0.192431
2389.000000	0.188776
2390.000000	0.186793
2391.000000	0.191546
2392.000000	0.192186
2393.000000	0.195378
2394.000000	0.195572
2395.000000	0.192684
2396.000000	0.188361
2397.000000	0.179610
2398.000000	0.179884
2399.000000	0.174094
2400.000000	0.165962
2401.000000	0.168145
2402.000000	0.162247
2403.000000	0.160951
2404.000000	0.168515
2405.000000	0.173394
2406.000000	0.183182
2407.000000	0.189263
2408.000000	0.187560
2409.000000	0.185704
2410.000000	0.182874
2411.000000	0.177165
2412.000000	0.176293
2413.000000	0.176730
2414.000000	0.173994
2415.000000	0.173796
2416.000000	0.171698
2417.000000	0.173605
2418.000000	0.172943
2419.000000	0.163534
2420.000000	0.161969
2421.000000	0.160535
2422.000000	0.152323
2423.000000	0.153380
2424.000000	0.160766
2425.000000	0.169475
2426.000000	0.175387
2427.000000	0.182672
2428.000000	0.191270
2429.000000	0.188631
2430.000000	0.191351
2431.000000	0.191749
2432.000000	0.178971
2433.000000	0.175889
2434.000000	0.176789
2435.000000	0.175155
2436.000000	0.181293
2437.000000	0.176948
2438.000000	0.170337
2439.000000	0.166882
2440.000000	0.160828
2441.000000	0.169269
2442.000000	0.167819
2443.000000	0.163789
2444.000000	0.167225
2445.000000	0.159181
2446.000000	0.151282
2447.000000	0.154911
2448.000000	0.157372
2449.000000	0.148891
2450.000000	0.149152
2451.000000	0.155330
2452.000000	0.158764
2453.000000	0.167480
2454.000000	0.185669
2455.000000	0.187148
2456.000000	0.177791
2457.000000	0.190595
2458.000000	0.192140
2459.000000	0.188486
2460.000000	0.194557
2461.000000	0.187499
2462.000000	0.174144
2463.000000	0.158994
2464.000000	0.155955
2465.000000	0.167452
2466.000000	0.173701
2467.000000	0.180192
2468.000000	0.177315
2469.000000	0.152512
2470.000000	0.115112
2471.000000	0.101592
2472.000000	0.121462
2473.000000	0.125077
2474.000000	0.137003
2475.000000	0.134246
2476.000000	0.098335
2477.000000	0.088861
2478.000000	0.086331
2479.000000	0.110157
2480.000000	0.138085
2481.000000	0.158969
2482.000000	0.170529
2483.000000	0.130628
2484.000000	0.104044
2485.000000	0.089815
2486.000000	0.092687
2487.000000	0.123253
2488.000000	0.121615
2489.000000	0.097755
2490.000000	0.050784
2491.000000	0.018087
2492.000000	0.015937
2493.000000	0.036006
2494.000000	0.042702
2495.000000	0.069821
2496.000000	0.058832
2497.000000	-0.011598
2498.000000	-0.016009
2499.000000	0.014107
2500.000000	0.049441
