# Wavelength	NAu-2-20_HEX-70_FV7-10_00001.asd.rts.txt
350.000000	0.197001
351.000000	0.183120
352.000000	0.190789
353.000000	0.198440
354.000000	0.195620
355.000000	0.184794
356.000000	0.189028
357.000000	0.204433
358.000000	0.204483
359.000000	0.203784
360.000000	0.206262
361.000000	0.212005
362.000000	0.216815
363.000000	0.215379
364.000000	0.208280
365.000000	0.212469
366.000000	0.213425
367.000000	0.208942
368.000000	0.207311
369.000000	0.212315
370.000000	0.215923
371.000000	0.209409
372.000000	0.209259
373.000000	0.210342
374.000000	0.208930
375.000000	0.209564
376.000000	0.210240
377.000000	0.209428
378.000000	0.205805
379.000000	0.206410
380.000000	0.209287
381.000000	0.210698
382.000000	0.213235
383.000000	0.213534
384.000000	0.210863
385.000000	0.212371
386.000000	0.213083
387.000000	0.212737
388.000000	0.216132
389.000000	0.215493
390.000000	0.214048
391.000000	0.217489
392.000000	0.215091
393.000000	0.212693
394.000000	0.214915
395.000000	0.215421
396.000000	0.216547
397.000000	0.218219
398.000000	0.216815
399.000000	0.216628
400.000000	0.217062
401.000000	0.215608
402.000000	0.215967
403.000000	0.216734
404.000000	0.216636
405.000000	0.218243
406.000000	0.219359
407.000000	0.219241
408.000000	0.219483
409.000000	0.219970
410.000000	0.220277
411.000000	0.219705
412.000000	0.220036
413.000000	0.220842
414.000000	0.221268
415.000000	0.221025
416.000000	0.221129
417.000000	0.221904
418.000000	0.221996
419.000000	0.222005
420.000000	0.222339
421.000000	0.223348
422.000000	0.223789
423.000000	0.223835
424.000000	0.224127
425.000000	0.224052
426.000000	0.224498
427.000000	0.225790
428.000000	0.226173
429.000000	0.226261
430.000000	0.226433
431.000000	0.226812
432.000000	0.226945
433.000000	0.226954
434.000000	0.227329
435.000000	0.228201
436.000000	0.228806
437.000000	0.228592
438.000000	0.228851
439.000000	0.229093
440.000000	0.229193
441.000000	0.229595
442.000000	0.230111
443.000000	0.230466
444.000000	0.230438
445.000000	0.230946
446.000000	0.231536
447.000000	0.231423
448.000000	0.231946
449.000000	0.232809
450.000000	0.233590
451.000000	0.233948
452.000000	0.234128
453.000000	0.234306
454.000000	0.234841
455.000000	0.235264
456.000000	0.235604
457.000000	0.235927
458.000000	0.236501
459.000000	0.237094
460.000000	0.237478
461.000000	0.237469
462.000000	0.237879
463.000000	0.238688
464.000000	0.238837
465.000000	0.239001
466.000000	0.239288
467.000000	0.239633
468.000000	0.240042
469.000000	0.240422
470.000000	0.240841
471.000000	0.241376
472.000000	0.241819
473.000000	0.242088
474.000000	0.242362
475.000000	0.242683
476.000000	0.243079
477.000000	0.243181
478.000000	0.243561
479.000000	0.244188
480.000000	0.244478
481.000000	0.244803
482.000000	0.245159
483.000000	0.245324
484.000000	0.245588
485.000000	0.245951
486.000000	0.246470
487.000000	0.246774
488.000000	0.246896
489.000000	0.246971
490.000000	0.247215
491.000000	0.247493
492.000000	0.247830
493.000000	0.248126
494.000000	0.248183
495.000000	0.248264
496.000000	0.248497
497.000000	0.248709
498.000000	0.248791
499.000000	0.248849
500.000000	0.249098
501.000000	0.249212
502.000000	0.249267
503.000000	0.249422
504.000000	0.249640
505.000000	0.249896
506.000000	0.250176
507.000000	0.250504
508.000000	0.250841
509.000000	0.251158
510.000000	0.251613
511.000000	0.252022
512.000000	0.252372
513.000000	0.252729
514.000000	0.253154
515.000000	0.253644
516.000000	0.254104
517.000000	0.254492
518.000000	0.254859
519.000000	0.255204
520.000000	0.255710
521.000000	0.256268
522.000000	0.256814
523.000000	0.257315
524.000000	0.257903
525.000000	0.258562
526.000000	0.259245
527.000000	0.260206
528.000000	0.261218
529.000000	0.262083
530.000000	0.263080
531.000000	0.264246
532.000000	0.265481
533.000000	0.266782
534.000000	0.268042
535.000000	0.269248
536.000000	0.270526
537.000000	0.271769
538.000000	0.272931
539.000000	0.273991
540.000000	0.275210
541.000000	0.276366
542.000000	0.277310
543.000000	0.278363
544.000000	0.279403
545.000000	0.280312
546.000000	0.281234
547.000000	0.282256
548.000000	0.283389
549.000000	0.284471
550.000000	0.285581
551.000000	0.286826
552.000000	0.288237
553.000000	0.289624
554.000000	0.291079
555.000000	0.292675
556.000000	0.294333
557.000000	0.295960
558.000000	0.297636
559.000000	0.299256
560.000000	0.300906
561.000000	0.302633
562.000000	0.304303
563.000000	0.305958
564.000000	0.307602
565.000000	0.309112
566.000000	0.310534
567.000000	0.311883
568.000000	0.313153
569.000000	0.314381
570.000000	0.315452
571.000000	0.316383
572.000000	0.317355
573.000000	0.318191
574.000000	0.318877
575.000000	0.319517
576.000000	0.320065
577.000000	0.320553
578.000000	0.321058
579.000000	0.321424
580.000000	0.321751
581.000000	0.322053
582.000000	0.322222
583.000000	0.322286
584.000000	0.322297
585.000000	0.322331
586.000000	0.322342
587.000000	0.322308
588.000000	0.322219
589.000000	0.322106
590.000000	0.321915
591.000000	0.321635
592.000000	0.321387
593.000000	0.321099
594.000000	0.320765
595.000000	0.320452
596.000000	0.320076
597.000000	0.319665
598.000000	0.319182
599.000000	0.318689
600.000000	0.318201
601.000000	0.317650
602.000000	0.317156
603.000000	0.316652
604.000000	0.316118
605.000000	0.315592
606.000000	0.315085
607.000000	0.314571
608.000000	0.313997
609.000000	0.313519
610.000000	0.313073
611.000000	0.312560
612.000000	0.312047
613.000000	0.311581
614.000000	0.311181
615.000000	0.310649
616.000000	0.310148
617.000000	0.309716
618.000000	0.309388
619.000000	0.309048
620.000000	0.308647
621.000000	0.308237
622.000000	0.307827
623.000000	0.307461
624.000000	0.307158
625.000000	0.306842
626.000000	0.306531
627.000000	0.306242
628.000000	0.305971
629.000000	0.305875
630.000000	0.305728
631.000000	0.305397
632.000000	0.305228
633.000000	0.305114
634.000000	0.304878
635.000000	0.304626
636.000000	0.304501
637.000000	0.304503
638.000000	0.304409
639.000000	0.304311
640.000000	0.304297
641.000000	0.304296
642.000000	0.304270
643.000000	0.304268
644.000000	0.304356
645.000000	0.304387
646.000000	0.304461
647.000000	0.304623
648.000000	0.304792
649.000000	0.304993
650.000000	0.305220
651.000000	0.305500
652.000000	0.305759
653.000000	0.306007
654.000000	0.306207
655.000000	0.306446
656.000000	0.306775
657.000000	0.307163
658.000000	0.307612
659.000000	0.308111
660.000000	0.308618
661.000000	0.309077
662.000000	0.309519
663.000000	0.310021
664.000000	0.310586
665.000000	0.311207
666.000000	0.311860
667.000000	0.312497
668.000000	0.313211
669.000000	0.313923
670.000000	0.314602
671.000000	0.315306
672.000000	0.316120
673.000000	0.317007
674.000000	0.317850
675.000000	0.318684
676.000000	0.319545
677.000000	0.320485
678.000000	0.321490
679.000000	0.322439
680.000000	0.323298
681.000000	0.324215
682.000000	0.325335
683.000000	0.326547
684.000000	0.327723
685.000000	0.328905
686.000000	0.330102
687.000000	0.331270
688.000000	0.332469
689.000000	0.333704
690.000000	0.335017
691.000000	0.336436
692.000000	0.337772
693.000000	0.339105
694.000000	0.340638
695.000000	0.342146
696.000000	0.343608
697.000000	0.345092
698.000000	0.346691
699.000000	0.348355
700.000000	0.350012
701.000000	0.351564
702.000000	0.353212
703.000000	0.354971
704.000000	0.356665
705.000000	0.358429
706.000000	0.360216
707.000000	0.362025
708.000000	0.363816
709.000000	0.365609
710.000000	0.367445
711.000000	0.369324
712.000000	0.371183
713.000000	0.373025
714.000000	0.374865
715.000000	0.376729
716.000000	0.378625
717.000000	0.380521
718.000000	0.382407
719.000000	0.384287
720.000000	0.386179
721.000000	0.388048
722.000000	0.389963
723.000000	0.391967
724.000000	0.393828
725.000000	0.395673
726.000000	0.397583
727.000000	0.399408
728.000000	0.401259
729.000000	0.403112
730.000000	0.404872
731.000000	0.406636
732.000000	0.408441
733.000000	0.410318
734.000000	0.412132
735.000000	0.413788
736.000000	0.415513
737.000000	0.417286
738.000000	0.418846
739.000000	0.420454
740.000000	0.422084
741.000000	0.423708
742.000000	0.425305
743.000000	0.426826
744.000000	0.428312
745.000000	0.429673
746.000000	0.431065
747.000000	0.432550
748.000000	0.433983
749.000000	0.435305
750.000000	0.436498
751.000000	0.437831
752.000000	0.439083
753.000000	0.440206
754.000000	0.441261
755.000000	0.442373
756.000000	0.443517
757.000000	0.444567
758.000000	0.445607
759.000000	0.446670
760.000000	0.447647
761.000000	0.448535
762.000000	0.449429
763.000000	0.450276
764.000000	0.451055
765.000000	0.451868
766.000000	0.452630
767.000000	0.453259
768.000000	0.453909
769.000000	0.454599
770.000000	0.455315
771.000000	0.455981
772.000000	0.456680
773.000000	0.457298
774.000000	0.457847
775.000000	0.458342
776.000000	0.458832
777.000000	0.459322
778.000000	0.459827
779.000000	0.460253
780.000000	0.460629
781.000000	0.461069
782.000000	0.461465
783.000000	0.461844
784.000000	0.462024
785.000000	0.462266
786.000000	0.462577
787.000000	0.462890
788.000000	0.463041
789.000000	0.463286
790.000000	0.463564
791.000000	0.463742
792.000000	0.464030
793.000000	0.464312
794.000000	0.464488
795.000000	0.464645
796.000000	0.464719
797.000000	0.464722
798.000000	0.464769
799.000000	0.464803
800.000000	0.464852
801.000000	0.464960
802.000000	0.465104
803.000000	0.465274
804.000000	0.465472
805.000000	0.465517
806.000000	0.465502
807.000000	0.465580
808.000000	0.465686
809.000000	0.465697
810.000000	0.465649
811.000000	0.465569
812.000000	0.465450
813.000000	0.465386
814.000000	0.465397
815.000000	0.465471
816.000000	0.465465
817.000000	0.465403
818.000000	0.465244
819.000000	0.465223
820.000000	0.465192
821.000000	0.465063
822.000000	0.465099
823.000000	0.465109
824.000000	0.464992
825.000000	0.464873
826.000000	0.464715
827.000000	0.464557
828.000000	0.464497
829.000000	0.464531
830.000000	0.464381
831.000000	0.464189
832.000000	0.464070
833.000000	0.463935
834.000000	0.463804
835.000000	0.463731
836.000000	0.463600
837.000000	0.463322
838.000000	0.463054
839.000000	0.463071
840.000000	0.462979
841.000000	0.462858
842.000000	0.462770
843.000000	0.462577
844.000000	0.462394
845.000000	0.462222
846.000000	0.462053
847.000000	0.461889
848.000000	0.461724
849.000000	0.461591
850.000000	0.461416
851.000000	0.461163
852.000000	0.460927
853.000000	0.460815
854.000000	0.460567
855.000000	0.460376
856.000000	0.460249
857.000000	0.460006
858.000000	0.459909
859.000000	0.459903
860.000000	0.459742
861.000000	0.459582
862.000000	0.459474
863.000000	0.459304
864.000000	0.459046
865.000000	0.458732
866.000000	0.458440
867.000000	0.458215
868.000000	0.458005
869.000000	0.457712
870.000000	0.457402
871.000000	0.457134
872.000000	0.456864
873.000000	0.456516
874.000000	0.456286
875.000000	0.456042
876.000000	0.455764
877.000000	0.455388
878.000000	0.455046
879.000000	0.454771
880.000000	0.454405
881.000000	0.454209
882.000000	0.454082
883.000000	0.453969
884.000000	0.453738
885.000000	0.453496
886.000000	0.453238
887.000000	0.452974
888.000000	0.452621
889.000000	0.452305
890.000000	0.451938
891.000000	0.451683
892.000000	0.451426
893.000000	0.451189
894.000000	0.451087
895.000000	0.450773
896.000000	0.450449
897.000000	0.450146
898.000000	0.449862
899.000000	0.449731
900.000000	0.449506
901.000000	0.449129
902.000000	0.449025
903.000000	0.448794
904.000000	0.448526
905.000000	0.448260
906.000000	0.448108
907.000000	0.447832
908.000000	0.447541
909.000000	0.447448
910.000000	0.447131
911.000000	0.446846
912.000000	0.446824
913.000000	0.446514
914.000000	0.446110
915.000000	0.445782
916.000000	0.445430
917.000000	0.445137
918.000000	0.444951
919.000000	0.444822
920.000000	0.444615
921.000000	0.444271
922.000000	0.443996
923.000000	0.444017
924.000000	0.443817
925.000000	0.443405
926.000000	0.442963
927.000000	0.442681
928.000000	0.442478
929.000000	0.442237
930.000000	0.441881
931.000000	0.441601
932.000000	0.441445
933.000000	0.441365
934.000000	0.441059
935.000000	0.440628
936.000000	0.440227
937.000000	0.439858
938.000000	0.439694
939.000000	0.439464
940.000000	0.439126
941.000000	0.438990
942.000000	0.438630
943.000000	0.438369
944.000000	0.438210
945.000000	0.438072
946.000000	0.437623
947.000000	0.437242
948.000000	0.437250
949.000000	0.437029
950.000000	0.436768
951.000000	0.436449
952.000000	0.436029
953.000000	0.435793
954.000000	0.435664
955.000000	0.435427
956.000000	0.435141
957.000000	0.435005
958.000000	0.434757
959.000000	0.434246
960.000000	0.434020
961.000000	0.433854
962.000000	0.433631
963.000000	0.433513
964.000000	0.433255
965.000000	0.433015
966.000000	0.432736
967.000000	0.432165
968.000000	0.431917
969.000000	0.431840
970.000000	0.431625
971.000000	0.431407
972.000000	0.431170
973.000000	0.430922
974.000000	0.430961
975.000000	0.430689
976.000000	0.430323
977.000000	0.430146
978.000000	0.430148
979.000000	0.430279
980.000000	0.430105
981.000000	0.429819
982.000000	0.429634
983.000000	0.429470
984.000000	0.429444
985.000000	0.429631
986.000000	0.429248
987.000000	0.428956
988.000000	0.429006
989.000000	0.428710
990.000000	0.428636
991.000000	0.428564
992.000000	0.428263
993.000000	0.428384
994.000000	0.428447
995.000000	0.428504
996.000000	0.428435
997.000000	0.428065
998.000000	0.428056
999.000000	0.428492
1000.000000	0.428126
1001.000000	0.428611
1002.000000	0.427927
1003.000000	0.428136
1004.000000	0.428362
1005.000000	0.428791
1006.000000	0.428733
1007.000000	0.428972
1008.000000	0.428479
1009.000000	0.427604
1010.000000	0.427869
1011.000000	0.428569
1012.000000	0.428797
1013.000000	0.428886
1014.000000	0.428307
1015.000000	0.427714
1016.000000	0.427689
1017.000000	0.427287
1018.000000	0.427481
1019.000000	0.427871
1020.000000	0.428699
1021.000000	0.428586
1022.000000	0.428846
1023.000000	0.429012
1024.000000	0.428138
1025.000000	0.428040
1026.000000	0.428745
1027.000000	0.428894
1028.000000	0.428776
1029.000000	0.428999
1030.000000	0.429032
1031.000000	0.428853
1032.000000	0.429341
1033.000000	0.429603
1034.000000	0.429750
1035.000000	0.429921
1036.000000	0.430158
1037.000000	0.429990
1038.000000	0.430212
1039.000000	0.431040
1040.000000	0.431457
1041.000000	0.431328
1042.000000	0.431769
1043.000000	0.432176
1044.000000	0.432115
1045.000000	0.432198
1046.000000	0.432295
1047.000000	0.432675
1048.000000	0.433151
1049.000000	0.433079
1050.000000	0.433020
1051.000000	0.433032
1052.000000	0.432154
1053.000000	0.431956
1054.000000	0.432839
1055.000000	0.433306
1056.000000	0.433573
1057.000000	0.434278
1058.000000	0.434538
1059.000000	0.434528
1060.000000	0.434947
1061.000000	0.435022
1062.000000	0.435206
1063.000000	0.436012
1064.000000	0.436340
1065.000000	0.436294
1066.000000	0.436502
1067.000000	0.436650
1068.000000	0.436785
1069.000000	0.437061
1070.000000	0.437176
1071.000000	0.437115
1072.000000	0.437226
1073.000000	0.437361
1074.000000	0.437737
1075.000000	0.437951
1076.000000	0.438224
1077.000000	0.438163
1078.000000	0.438059
1079.000000	0.438145
1080.000000	0.438354
1081.000000	0.438481
1082.000000	0.438777
1083.000000	0.439056
1084.000000	0.439383
1085.000000	0.439733
1086.000000	0.440160
1087.000000	0.440530
1088.000000	0.440667
1089.000000	0.440880
1090.000000	0.441127
1091.000000	0.441292
1092.000000	0.441243
1093.000000	0.441700
1094.000000	0.442144
1095.000000	0.442585
1096.000000	0.443013
1097.000000	0.443819
1098.000000	0.444087
1099.000000	0.443944
1100.000000	0.443972
1101.000000	0.443575
1102.000000	0.443619
1103.000000	0.443795
1104.000000	0.444125
1105.000000	0.444999
1106.000000	0.445371
1107.000000	0.445385
1108.000000	0.445538
1109.000000	0.445773
1110.000000	0.445645
1111.000000	0.445751
1112.000000	0.446012
1113.000000	0.446323
1114.000000	0.446628
1115.000000	0.446938
1116.000000	0.447506
1117.000000	0.447735
1118.000000	0.447759
1119.000000	0.447719
1120.000000	0.447439
1121.000000	0.447364
1122.000000	0.447326
1123.000000	0.447683
1124.000000	0.448320
1125.000000	0.448504
1126.000000	0.448181
1127.000000	0.448207
1128.000000	0.448253
1129.000000	0.448068
1130.000000	0.448300
1131.000000	0.449171
1132.000000	0.449310
1133.000000	0.449253
1134.000000	0.449282
1135.000000	0.448937
1136.000000	0.448887
1137.000000	0.449082
1138.000000	0.449045
1139.000000	0.449041
1140.000000	0.449166
1141.000000	0.449228
1142.000000	0.449266
1143.000000	0.449324
1144.000000	0.449463
1145.000000	0.449513
1146.000000	0.449046
1147.000000	0.448920
1148.000000	0.448637
1149.000000	0.448609
1150.000000	0.448862
1151.000000	0.448835
1152.000000	0.448698
1153.000000	0.448635
1154.000000	0.448372
1155.000000	0.448198
1156.000000	0.448144
1157.000000	0.448090
1158.000000	0.447934
1159.000000	0.447810
1160.000000	0.447689
1161.000000	0.447625
1162.000000	0.447617
1163.000000	0.447866
1164.000000	0.447801
1165.000000	0.447889
1166.000000	0.447977
1167.000000	0.447926
1168.000000	0.447899
1169.000000	0.448100
1170.000000	0.448055
1171.000000	0.447815
1172.000000	0.447784
1173.000000	0.447713
1174.000000	0.447689
1175.000000	0.447683
1176.000000	0.447720
1177.000000	0.447864
1178.000000	0.448039
1179.000000	0.448484
1180.000000	0.448547
1181.000000	0.448534
1182.000000	0.448461
1183.000000	0.448393
1184.000000	0.448427
1185.000000	0.448467
1186.000000	0.448677
1187.000000	0.448718
1188.000000	0.448637
1189.000000	0.448621
1190.000000	0.448770
1191.000000	0.448723
1192.000000	0.448650
1193.000000	0.448797
1194.000000	0.448777
1195.000000	0.448810
1196.000000	0.448939
1197.000000	0.448960
1198.000000	0.448915
1199.000000	0.448913
1200.000000	0.448878
1201.000000	0.448893
1202.000000	0.448884
1203.000000	0.448911
1204.000000	0.449020
1205.000000	0.449064
1206.000000	0.449034
1207.000000	0.449062
1208.000000	0.449078
1209.000000	0.449157
1210.000000	0.449199
1211.000000	0.449262
1212.000000	0.449315
1213.000000	0.449385
1214.000000	0.449447
1215.000000	0.449471
1216.000000	0.449555
1217.000000	0.449608
1218.000000	0.449631
1219.000000	0.449684
1220.000000	0.449900
1221.000000	0.449980
1222.000000	0.449918
1223.000000	0.450061
1224.000000	0.450160
1225.000000	0.450228
1226.000000	0.450435
1227.000000	0.450523
1228.000000	0.450656
1229.000000	0.450701
1230.000000	0.450678
1231.000000	0.450652
1232.000000	0.450707
1233.000000	0.450877
1234.000000	0.451120
1235.000000	0.451277
1236.000000	0.451262
1237.000000	0.451421
1238.000000	0.451670
1239.000000	0.451727
1240.000000	0.451695
1241.000000	0.451782
1242.000000	0.451719
1243.000000	0.451537
1244.000000	0.451792
1245.000000	0.452191
1246.000000	0.452327
1247.000000	0.452518
1248.000000	0.452629
1249.000000	0.452729
1250.000000	0.453002
1251.000000	0.453215
1252.000000	0.453230
1253.000000	0.453032
1254.000000	0.453001
1255.000000	0.452816
1256.000000	0.452893
1257.000000	0.453363
1258.000000	0.453504
1259.000000	0.453436
1260.000000	0.453539
1261.000000	0.453368
1262.000000	0.453393
1263.000000	0.453568
1264.000000	0.453954
1265.000000	0.454295
1266.000000	0.454495
1267.000000	0.454775
1268.000000	0.454923
1269.000000	0.454819
1270.000000	0.454969
1271.000000	0.455013
1272.000000	0.454926
1273.000000	0.455080
1274.000000	0.455204
1275.000000	0.455291
1276.000000	0.455491
1277.000000	0.455639
1278.000000	0.455593
1279.000000	0.455586
1280.000000	0.455383
1281.000000	0.455373
1282.000000	0.455542
1283.000000	0.455722
1284.000000	0.455965
1285.000000	0.456165
1286.000000	0.456279
1287.000000	0.456387
1288.000000	0.456656
1289.000000	0.456691
1290.000000	0.456665
1291.000000	0.456692
1292.000000	0.456647
1293.000000	0.456630
1294.000000	0.456655
1295.000000	0.456686
1296.000000	0.456627
1297.000000	0.456584
1298.000000	0.456699
1299.000000	0.456744
1300.000000	0.456845
1301.000000	0.456953
1302.000000	0.456901
1303.000000	0.456881
1304.000000	0.456817
1305.000000	0.456775
1306.000000	0.456732
1307.000000	0.456733
1308.000000	0.456743
1309.000000	0.456843
1310.000000	0.456821
1311.000000	0.456799
1312.000000	0.456608
1313.000000	0.456536
1314.000000	0.456380
1315.000000	0.456038
1316.000000	0.455978
1317.000000	0.455787
1318.000000	0.455409
1319.000000	0.455251
1320.000000	0.455071
1321.000000	0.454832
1322.000000	0.454653
1323.000000	0.454422
1324.000000	0.454227
1325.000000	0.453922
1326.000000	0.453576
1327.000000	0.453383
1328.000000	0.453288
1329.000000	0.453044
1330.000000	0.452836
1331.000000	0.452591
1332.000000	0.452336
1333.000000	0.452037
1334.000000	0.451830
1335.000000	0.451608
1336.000000	0.451266
1337.000000	0.450985
1338.000000	0.450695
1339.000000	0.450378
1340.000000	0.449993
1341.000000	0.449461
1342.000000	0.448988
1343.000000	0.448687
1344.000000	0.448423
1345.000000	0.448185
1346.000000	0.447909
1347.000000	0.447311
1348.000000	0.446760
1349.000000	0.446347
1350.000000	0.446014
1351.000000	0.445566
1352.000000	0.445126
1353.000000	0.444712
1354.000000	0.444256
1355.000000	0.443804
1356.000000	0.443303
1357.000000	0.442611
1358.000000	0.442140
1359.000000	0.441699
1360.000000	0.441293
1361.000000	0.441205
1362.000000	0.440846
1363.000000	0.440308
1364.000000	0.439830
1365.000000	0.439164
1366.000000	0.438691
1367.000000	0.438284
1368.000000	0.437904
1369.000000	0.437652
1370.000000	0.437178
1371.000000	0.436544
1372.000000	0.435742
1373.000000	0.435034
1374.000000	0.434480
1375.000000	0.433944
1376.000000	0.433614
1377.000000	0.433146
1378.000000	0.432511
1379.000000	0.431569
1380.000000	0.430459
1381.000000	0.429346
1382.000000	0.428118
1383.000000	0.427109
1384.000000	0.426154
1385.000000	0.425018
1386.000000	0.423765
1387.000000	0.422381
1388.000000	0.420921
1389.000000	0.419414
1390.000000	0.417946
1391.000000	0.416294
1392.000000	0.414410
1393.000000	0.412405
1394.000000	0.410224
1395.000000	0.408053
1396.000000	0.405860
1397.000000	0.403487
1398.000000	0.400972
1399.000000	0.398505
1400.000000	0.395841
1401.000000	0.393237
1402.000000	0.390739
1403.000000	0.388139
1404.000000	0.385715
1405.000000	0.383354
1406.000000	0.380964
1407.000000	0.378563
1408.000000	0.376024
1409.000000	0.373628
1410.000000	0.371313
1411.000000	0.369049
1412.000000	0.366904
1413.000000	0.364761
1414.000000	0.362636
1415.000000	0.360584
1416.000000	0.358519
1417.000000	0.356515
1418.000000	0.354589
1419.000000	0.352705
1420.000000	0.350658
1421.000000	0.348672
1422.000000	0.346741
1423.000000	0.344980
1424.000000	0.343239
1425.000000	0.341473
1426.000000	0.339678
1427.000000	0.337840
1428.000000	0.336148
1429.000000	0.334543
1430.000000	0.332963
1431.000000	0.331564
1432.000000	0.330104
1433.000000	0.328657
1434.000000	0.327320
1435.000000	0.326083
1436.000000	0.324846
1437.000000	0.323692
1438.000000	0.322523
1439.000000	0.321367
1440.000000	0.320349
1441.000000	0.319426
1442.000000	0.318590
1443.000000	0.317794
1444.000000	0.317023
1445.000000	0.316375
1446.000000	0.315832
1447.000000	0.315317
1448.000000	0.314968
1449.000000	0.314675
1450.000000	0.314268
1451.000000	0.313955
1452.000000	0.313574
1453.000000	0.313143
1454.000000	0.312773
1455.000000	0.312383
1456.000000	0.312085
1457.000000	0.311829
1458.000000	0.311547
1459.000000	0.311255
1460.000000	0.310965
1461.000000	0.310684
1462.000000	0.310474
1463.000000	0.310261
1464.000000	0.310068
1465.000000	0.309994
1466.000000	0.309834
1467.000000	0.309696
1468.000000	0.309690
1469.000000	0.309742
1470.000000	0.309708
1471.000000	0.309770
1472.000000	0.309940
1473.000000	0.310115
1474.000000	0.310318
1475.000000	0.310667
1476.000000	0.311060
1477.000000	0.311498
1478.000000	0.312031
1479.000000	0.312639
1480.000000	0.313274
1481.000000	0.313891
1482.000000	0.314586
1483.000000	0.315324
1484.000000	0.316016
1485.000000	0.316830
1486.000000	0.317811
1487.000000	0.318652
1488.000000	0.319511
1489.000000	0.320356
1490.000000	0.320994
1491.000000	0.321678
1492.000000	0.322331
1493.000000	0.323066
1494.000000	0.323752
1495.000000	0.324497
1496.000000	0.325388
1497.000000	0.326112
1498.000000	0.326780
1499.000000	0.327378
1500.000000	0.328075
1501.000000	0.328741
1502.000000	0.329451
1503.000000	0.330355
1504.000000	0.331069
1505.000000	0.331700
1506.000000	0.332310
1507.000000	0.332722
1508.000000	0.333247
1509.000000	0.333734
1510.000000	0.334163
1511.000000	0.334667
1512.000000	0.335076
1513.000000	0.335501
1514.000000	0.335937
1515.000000	0.336277
1516.000000	0.336628
1517.000000	0.336989
1518.000000	0.337368
1519.000000	0.337674
1520.000000	0.338069
1521.000000	0.338347
1522.000000	0.338540
1523.000000	0.338925
1524.000000	0.339206
1525.000000	0.339489
1526.000000	0.339803
1527.000000	0.339994
1528.000000	0.340301
1529.000000	0.340655
1530.000000	0.340813
1531.000000	0.340992
1532.000000	0.341218
1533.000000	0.341361
1534.000000	0.341551
1535.000000	0.341833
1536.000000	0.341975
1537.000000	0.342113
1538.000000	0.342269
1539.000000	0.342463
1540.000000	0.342700
1541.000000	0.342874
1542.000000	0.343080
1543.000000	0.343156
1544.000000	0.343170
1545.000000	0.343299
1546.000000	0.343405
1547.000000	0.343569
1548.000000	0.343695
1549.000000	0.343720
1550.000000	0.343734
1551.000000	0.343725
1552.000000	0.343792
1553.000000	0.343833
1554.000000	0.343806
1555.000000	0.343828
1556.000000	0.343852
1557.000000	0.343922
1558.000000	0.344025
1559.000000	0.344155
1560.000000	0.344172
1561.000000	0.344158
1562.000000	0.344168
1563.000000	0.344212
1564.000000	0.344220
1565.000000	0.344239
1566.000000	0.344201
1567.000000	0.344139
1568.000000	0.344171
1569.000000	0.344404
1570.000000	0.344478
1571.000000	0.344489
1572.000000	0.344449
1573.000000	0.344326
1574.000000	0.344251
1575.000000	0.344183
1576.000000	0.344217
1577.000000	0.344313
1578.000000	0.344276
1579.000000	0.344288
1580.000000	0.344269
1581.000000	0.344187
1582.000000	0.344205
1583.000000	0.344301
1584.000000	0.344372
1585.000000	0.344632
1586.000000	0.344694
1587.000000	0.344604
1588.000000	0.344645
1589.000000	0.344643
1590.000000	0.344701
1591.000000	0.344946
1592.000000	0.345058
1593.000000	0.345117
1594.000000	0.345125
1595.000000	0.345114
1596.000000	0.345189
1597.000000	0.345278
1598.000000	0.345427
1599.000000	0.345793
1600.000000	0.345873
1601.000000	0.345852
1602.000000	0.345960
1603.000000	0.345999
1604.000000	0.346105
1605.000000	0.346449
1606.000000	0.346568
1607.000000	0.346644
1608.000000	0.346697
1609.000000	0.346667
1610.000000	0.346746
1611.000000	0.346854
1612.000000	0.346956
1613.000000	0.347252
1614.000000	0.347439
1615.000000	0.347592
1616.000000	0.347890
1617.000000	0.348243
1618.000000	0.348482
1619.000000	0.348719
1620.000000	0.348906
1621.000000	0.348971
1622.000000	0.349250
1623.000000	0.349575
1624.000000	0.349905
1625.000000	0.350211
1626.000000	0.350475
1627.000000	0.350715
1628.000000	0.351092
1629.000000	0.351505
1630.000000	0.351889
1631.000000	0.352274
1632.000000	0.352612
1633.000000	0.352930
1634.000000	0.353259
1635.000000	0.353629
1636.000000	0.353973
1637.000000	0.354309
1638.000000	0.354641
1639.000000	0.355040
1640.000000	0.355372
1641.000000	0.355707
1642.000000	0.356098
1643.000000	0.356566
1644.000000	0.356952
1645.000000	0.357375
1646.000000	0.357679
1647.000000	0.357865
1648.000000	0.358158
1649.000000	0.358561
1650.000000	0.358958
1651.000000	0.359479
1652.000000	0.359931
1653.000000	0.360276
1654.000000	0.360718
1655.000000	0.361147
1656.000000	0.361371
1657.000000	0.361581
1658.000000	0.361916
1659.000000	0.362282
1660.000000	0.362771
1661.000000	0.363372
1662.000000	0.363865
1663.000000	0.364274
1664.000000	0.364712
1665.000000	0.365202
1666.000000	0.365671
1667.000000	0.366018
1668.000000	0.366369
1669.000000	0.366611
1670.000000	0.366947
1671.000000	0.367483
1672.000000	0.367878
1673.000000	0.368270
1674.000000	0.368499
1675.000000	0.368714
1676.000000	0.369174
1677.000000	0.369491
1678.000000	0.369757
1679.000000	0.370179
1680.000000	0.370372
1681.000000	0.370519
1682.000000	0.370870
1683.000000	0.371226
1684.000000	0.371572
1685.000000	0.371967
1686.000000	0.372195
1687.000000	0.372261
1688.000000	0.372256
1689.000000	0.372473
1690.000000	0.372823
1691.000000	0.373122
1692.000000	0.373366
1693.000000	0.373653
1694.000000	0.373819
1695.000000	0.374080
1696.000000	0.374348
1697.000000	0.374450
1698.000000	0.374392
1699.000000	0.374547
1700.000000	0.374757
1701.000000	0.375074
1702.000000	0.375397
1703.000000	0.375629
1704.000000	0.375902
1705.000000	0.376152
1706.000000	0.376523
1707.000000	0.376718
1708.000000	0.376678
1709.000000	0.376742
1710.000000	0.376902
1711.000000	0.377030
1712.000000	0.377280
1713.000000	0.377419
1714.000000	0.377396
1715.000000	0.377552
1716.000000	0.377816
1717.000000	0.378075
1718.000000	0.378468
1719.000000	0.378673
1720.000000	0.378820
1721.000000	0.378985
1722.000000	0.379006
1723.000000	0.379189
1724.000000	0.379515
1725.000000	0.379833
1726.000000	0.380075
1727.000000	0.380429
1728.000000	0.380794
1729.000000	0.381073
1730.000000	0.381586
1731.000000	0.381905
1732.000000	0.382149
1733.000000	0.382369
1734.000000	0.382246
1735.000000	0.382497
1736.000000	0.382845
1737.000000	0.383073
1738.000000	0.383485
1739.000000	0.383752
1740.000000	0.383804
1741.000000	0.383935
1742.000000	0.384137
1743.000000	0.384406
1744.000000	0.384631
1745.000000	0.384789
1746.000000	0.385026
1747.000000	0.384952
1748.000000	0.385015
1749.000000	0.385336
1750.000000	0.385458
1751.000000	0.385661
1752.000000	0.385988
1753.000000	0.386092
1754.000000	0.386229
1755.000000	0.386422
1756.000000	0.386568
1757.000000	0.386619
1758.000000	0.386746
1759.000000	0.387029
1760.000000	0.387071
1761.000000	0.386813
1762.000000	0.386791
1763.000000	0.386733
1764.000000	0.386782
1765.000000	0.386999
1766.000000	0.387261
1767.000000	0.387492
1768.000000	0.387636
1769.000000	0.388044
1770.000000	0.388237
1771.000000	0.388038
1772.000000	0.388195
1773.000000	0.388386
1774.000000	0.388621
1775.000000	0.389167
1776.000000	0.389497
1777.000000	0.389703
1778.000000	0.389877
1779.000000	0.389981
1780.000000	0.390092
1781.000000	0.390058
1782.000000	0.390221
1783.000000	0.390526
1784.000000	0.390802
1785.000000	0.390984
1786.000000	0.390925
1787.000000	0.391210
1788.000000	0.391680
1789.000000	0.392052
1790.000000	0.392391
1791.000000	0.392639
1792.000000	0.392813
1793.000000	0.392945
1794.000000	0.393078
1795.000000	0.393287
1796.000000	0.393405
1797.000000	0.393573
1798.000000	0.393842
1799.000000	0.394083
1800.000000	0.394404
1801.000000	0.394410
1802.000000	0.394471
1803.000000	0.393448
1804.000000	0.393600
1805.000000	0.394354
1806.000000	0.394382
1807.000000	0.394492
1808.000000	0.394558
1809.000000	0.394288
1810.000000	0.393430
1811.000000	0.393314
1812.000000	0.393638
1813.000000	0.394053
1814.000000	0.395044
1815.000000	0.395397
1816.000000	0.395998
1817.000000	0.395784
1818.000000	0.394735
1819.000000	0.393799
1820.000000	0.393473
1821.000000	0.393208
1822.000000	0.393013
1823.000000	0.393145
1824.000000	0.393146
1825.000000	0.393088
1826.000000	0.393067
1827.000000	0.393156
1828.000000	0.392894
1829.000000	0.392984
1830.000000	0.392670
1831.000000	0.392716
1832.000000	0.393268
1833.000000	0.393143
1834.000000	0.392563
1835.000000	0.392579
1836.000000	0.392614
1837.000000	0.392493
1838.000000	0.392730
1839.000000	0.392280
1840.000000	0.391284
1841.000000	0.391484
1842.000000	0.391305
1843.000000	0.391551
1844.000000	0.391087
1845.000000	0.390186
1846.000000	0.389135
1847.000000	0.387178
1848.000000	0.385874
1849.000000	0.384773
1850.000000	0.383788
1851.000000	0.383323
1852.000000	0.383736
1853.000000	0.383276
1854.000000	0.382868
1855.000000	0.381675
1856.000000	0.379586
1857.000000	0.377484
1858.000000	0.375923
1859.000000	0.374196
1860.000000	0.372628
1861.000000	0.370858
1862.000000	0.368755
1863.000000	0.365918
1864.000000	0.363844
1865.000000	0.362452
1866.000000	0.360142
1867.000000	0.357465
1868.000000	0.354985
1869.000000	0.351632
1870.000000	0.348299
1871.000000	0.345792
1872.000000	0.342367
1873.000000	0.338985
1874.000000	0.335675
1875.000000	0.331925
1876.000000	0.327468
1877.000000	0.323060
1878.000000	0.318607
1879.000000	0.313837
1880.000000	0.308828
1881.000000	0.304027
1882.000000	0.299438
1883.000000	0.294329
1884.000000	0.289305
1885.000000	0.284492
1886.000000	0.279020
1887.000000	0.272928
1888.000000	0.266789
1889.000000	0.260718
1890.000000	0.254505
1891.000000	0.248480
1892.000000	0.242807
1893.000000	0.236866
1894.000000	0.230377
1895.000000	0.224211
1896.000000	0.218278
1897.000000	0.212097
1898.000000	0.205846
1899.000000	0.200902
1900.000000	0.196148
1901.000000	0.191543
1902.000000	0.187585
1903.000000	0.183359
1904.000000	0.179394
1905.000000	0.175440
1906.000000	0.171299
1907.000000	0.166965
1908.000000	0.163249
1909.000000	0.159584
1910.000000	0.156191
1911.000000	0.153019
1912.000000	0.150084
1913.000000	0.147585
1914.000000	0.144896
1915.000000	0.142953
1916.000000	0.141766
1917.000000	0.140467
1918.000000	0.139403
1919.000000	0.138647
1920.000000	0.137470
1921.000000	0.135717
1922.000000	0.134187
1923.000000	0.132756
1924.000000	0.131824
1925.000000	0.131882
1926.000000	0.131846
1927.000000	0.131760
1928.000000	0.131562
1929.000000	0.131446
1930.000000	0.130816
1931.000000	0.130441
1932.000000	0.130709
1933.000000	0.131005
1934.000000	0.131496
1935.000000	0.131560
1936.000000	0.131028
1937.000000	0.131340
1938.000000	0.130931
1939.000000	0.130512
1940.000000	0.130155
1941.000000	0.130273
1942.000000	0.129415
1943.000000	0.129258
1944.000000	0.129132
1945.000000	0.128602
1946.000000	0.128578
1947.000000	0.128287
1948.000000	0.127776
1949.000000	0.127727
1950.000000	0.127879
1951.000000	0.127772
1952.000000	0.127597
1953.000000	0.127862
1954.000000	0.127841
1955.000000	0.127048
1956.000000	0.127020
1957.000000	0.126959
1958.000000	0.126087
1959.000000	0.125514
1960.000000	0.124582
1961.000000	0.123939
1962.000000	0.123596
1963.000000	0.123913
1964.000000	0.124011
1965.000000	0.123808
1966.000000	0.123154
1967.000000	0.122706
1968.000000	0.122554
1969.000000	0.122105
1970.000000	0.121985
1971.000000	0.122076
1972.000000	0.121887
1973.000000	0.121955
1974.000000	0.122646
1975.000000	0.123054
1976.000000	0.123321
1977.000000	0.123825
1978.000000	0.124086
1979.000000	0.124110
1980.000000	0.124143
1981.000000	0.124420
1982.000000	0.125426
1983.000000	0.126532
1984.000000	0.127391
1985.000000	0.128613
1986.000000	0.129309
1987.000000	0.129486
1988.000000	0.129952
1989.000000	0.130585
1990.000000	0.130576
1991.000000	0.130799
1992.000000	0.131662
1993.000000	0.132797
1994.000000	0.133962
1995.000000	0.135626
1996.000000	0.137057
1997.000000	0.137899
1998.000000	0.138143
1999.000000	0.138872
2000.000000	0.139414
2001.000000	0.139743
2002.000000	0.140717
2003.000000	0.142037
2004.000000	0.143201
2005.000000	0.143876
2006.000000	0.144895
2007.000000	0.145919
2008.000000	0.146906
2009.000000	0.148057
2010.000000	0.149142
2011.000000	0.149851
2012.000000	0.150887
2013.000000	0.151967
2014.000000	0.152965
2015.000000	0.154716
2016.000000	0.156811
2017.000000	0.158505
2018.000000	0.160363
2019.000000	0.161883
2020.000000	0.163091
2021.000000	0.164279
2022.000000	0.165179
2023.000000	0.166372
2024.000000	0.167664
2025.000000	0.168907
2026.000000	0.170183
2027.000000	0.171647
2028.000000	0.172711
2029.000000	0.173365
2030.000000	0.174196
2031.000000	0.175062
2032.000000	0.176292
2033.000000	0.177871
2034.000000	0.179111
2035.000000	0.180561
2036.000000	0.181614
2037.000000	0.182254
2038.000000	0.183252
2039.000000	0.184242
2040.000000	0.185382
2041.000000	0.187145
2042.000000	0.188383
2043.000000	0.189447
2044.000000	0.190701
2045.000000	0.191240
2046.000000	0.191811
2047.000000	0.192979
2048.000000	0.194489
2049.000000	0.195966
2050.000000	0.197971
2051.000000	0.199238
2052.000000	0.199688
2053.000000	0.200698
2054.000000	0.201952
2055.000000	0.203130
2056.000000	0.204329
2057.000000	0.205337
2058.000000	0.206204
2059.000000	0.207164
2060.000000	0.207640
2061.000000	0.207794
2062.000000	0.208381
2063.000000	0.208557
2064.000000	0.209032
2065.000000	0.210408
2066.000000	0.211616
2067.000000	0.213012
2068.000000	0.214050
2069.000000	0.215628
2070.000000	0.216715
2071.000000	0.217486
2072.000000	0.218838
2073.000000	0.219902
2074.000000	0.220990
2075.000000	0.222150
2076.000000	0.223193
2077.000000	0.224311
2078.000000	0.225822
2079.000000	0.226827
2080.000000	0.227382
2081.000000	0.228390
2082.000000	0.229622
2083.000000	0.230342
2084.000000	0.231371
2085.000000	0.232620
2086.000000	0.233417
2087.000000	0.234538
2088.000000	0.235594
2089.000000	0.236802
2090.000000	0.238144
2091.000000	0.239862
2092.000000	0.240993
2093.000000	0.241961
2094.000000	0.242942
2095.000000	0.243484
2096.000000	0.244305
2097.000000	0.245323
2098.000000	0.246250
2099.000000	0.247141
2100.000000	0.248561
2101.000000	0.250013
2102.000000	0.252039
2103.000000	0.253912
2104.000000	0.254812
2105.000000	0.255308
2106.000000	0.254532
2107.000000	0.255048
2108.000000	0.255534
2109.000000	0.256353
2110.000000	0.258340
2111.000000	0.259293
2112.000000	0.259607
2113.000000	0.259746
2114.000000	0.260120
2115.000000	0.260658
2116.000000	0.261206
2117.000000	0.261817
2118.000000	0.263065
2119.000000	0.264257
2120.000000	0.265315
2121.000000	0.266976
2122.000000	0.267915
2123.000000	0.268147
2124.000000	0.268535
2125.000000	0.268492
2126.000000	0.269223
2127.000000	0.270368
2128.000000	0.271327
2129.000000	0.273259
2130.000000	0.273928
2131.000000	0.273113
2132.000000	0.272443
2133.000000	0.271644
2134.000000	0.271793
2135.000000	0.272555
2136.000000	0.274137
2137.000000	0.275130
2138.000000	0.276292
2139.000000	0.276591
2140.000000	0.276317
2141.000000	0.276087
2142.000000	0.275034
2143.000000	0.274705
2144.000000	0.274615
2145.000000	0.275083
2146.000000	0.276376
2147.000000	0.277635
2148.000000	0.278605
2149.000000	0.280048
2150.000000	0.280124
2151.000000	0.279822
2152.000000	0.279115
2153.000000	0.278501
2154.000000	0.278929
2155.000000	0.280161
2156.000000	0.280786
2157.000000	0.282479
2158.000000	0.282821
2159.000000	0.282210
2160.000000	0.281913
2161.000000	0.281120
2162.000000	0.280848
2163.000000	0.280193
2164.000000	0.280014
2165.000000	0.280447
2166.000000	0.280536
2167.000000	0.281439
2168.000000	0.282725
2169.000000	0.283235
2170.000000	0.283032
2171.000000	0.282635
2172.000000	0.281002
2173.000000	0.280480
2174.000000	0.280512
2175.000000	0.280188
2176.000000	0.279826
2177.000000	0.279752
2178.000000	0.279549
2179.000000	0.279730
2180.000000	0.280922
2181.000000	0.281499
2182.000000	0.281307
2183.000000	0.280916
2184.000000	0.281432
2185.000000	0.280033
2186.000000	0.279643
2187.000000	0.280267
2188.000000	0.280580
2189.000000	0.281800
2190.000000	0.282642
2191.000000	0.283716
2192.000000	0.283687
2193.000000	0.282156
2194.000000	0.281798
2195.000000	0.281418
2196.000000	0.280889
2197.000000	0.280151
2198.000000	0.280561
2199.000000	0.281588
2200.000000	0.282466
2201.000000	0.285636
2202.000000	0.287141
2203.000000	0.286796
2204.000000	0.286411
2205.000000	0.287326
2206.000000	0.286401
2207.000000	0.287710
2208.000000	0.289779
2209.000000	0.288310
2210.000000	0.287457
2211.000000	0.286445
2212.000000	0.285796
2213.000000	0.286327
2214.000000	0.290101
2215.000000	0.290950
2216.000000	0.290913
2217.000000	0.290329
2218.000000	0.288207
2219.000000	0.286739
2220.000000	0.284984
2221.000000	0.283565
2222.000000	0.281500
2223.000000	0.281609
2224.000000	0.283141
2225.000000	0.284872
2226.000000	0.285554
2227.000000	0.284738
2228.000000	0.282309
2229.000000	0.279593
2230.000000	0.280628
2231.000000	0.283296
2232.000000	0.286252
2233.000000	0.289041
2234.000000	0.289773
2235.000000	0.290076
2236.000000	0.289105
2237.000000	0.285884
2238.000000	0.284876
2239.000000	0.282932
2240.000000	0.283144
2241.000000	0.287453
2242.000000	0.286991
2243.000000	0.284427
2244.000000	0.283253
2245.000000	0.278591
2246.000000	0.277734
2247.000000	0.281318
2248.000000	0.282331
2249.000000	0.283697
2250.000000	0.284072
2251.000000	0.283079
2252.000000	0.282354
2253.000000	0.282289
2254.000000	0.284523
2255.000000	0.286312
2256.000000	0.288599
2257.000000	0.291598
2258.000000	0.291031
2259.000000	0.288950
2260.000000	0.285749
2261.000000	0.282860
2262.000000	0.277921
2263.000000	0.275589
2264.000000	0.274310
2265.000000	0.274396
2266.000000	0.276610
2267.000000	0.276862
2268.000000	0.277624
2269.000000	0.277593
2270.000000	0.275646
2271.000000	0.274929
2272.000000	0.275585
2273.000000	0.274930
2274.000000	0.273793
2275.000000	0.272086
2276.000000	0.269930
2277.000000	0.266619
2278.000000	0.263038
2279.000000	0.260588
2280.000000	0.257677
2281.000000	0.255636
2282.000000	0.255367
2283.000000	0.256278
2284.000000	0.256895
2285.000000	0.256174
2286.000000	0.255621
2287.000000	0.253936
2288.000000	0.251527
2289.000000	0.249554
2290.000000	0.246662
2291.000000	0.243191
2292.000000	0.241021
2293.000000	0.240497
2294.000000	0.240028
2295.000000	0.240873
2296.000000	0.240814
2297.000000	0.240692
2298.000000	0.239978
2299.000000	0.239292
2300.000000	0.237433
2301.000000	0.233379
2302.000000	0.232387
2303.000000	0.232199
2304.000000	0.231781
2305.000000	0.233402
2306.000000	0.233943
2307.000000	0.233365
2308.000000	0.233093
2309.000000	0.234448
2310.000000	0.236852
2311.000000	0.238750
2312.000000	0.240503
2313.000000	0.240454
2314.000000	0.239058
2315.000000	0.236801
2316.000000	0.233883
2317.000000	0.231559
2318.000000	0.229166
2319.000000	0.226814
2320.000000	0.225792
2321.000000	0.223777
2322.000000	0.223416
2323.000000	0.224196
2324.000000	0.221412
2325.000000	0.219948
2326.000000	0.218590
2327.000000	0.216725
2328.000000	0.216662
2329.000000	0.215788
2330.000000	0.213945
2331.000000	0.212166
2332.000000	0.211900
2333.000000	0.211408
2334.000000	0.211556
2335.000000	0.210874
2336.000000	0.207252
2337.000000	0.206338
2338.000000	0.207867
2339.000000	0.206862
2340.000000	0.206965
2341.000000	0.205259
2342.000000	0.198981
2343.000000	0.196982
2344.000000	0.196841
2345.000000	0.196655
2346.000000	0.200018
2347.000000	0.199211
2348.000000	0.196155
2349.000000	0.193106
2350.000000	0.187515
2351.000000	0.184994
2352.000000	0.185534
2353.000000	0.185673
2354.000000	0.186932
2355.000000	0.183399
2356.000000	0.177857
2357.000000	0.175031
2358.000000	0.172691
2359.000000	0.173150
2360.000000	0.171868
2361.000000	0.166658
2362.000000	0.161758
2363.000000	0.159220
2364.000000	0.158373
2365.000000	0.158753
2366.000000	0.158513
2367.000000	0.157328
2368.000000	0.160013
2369.000000	0.160544
2370.000000	0.161600
2371.000000	0.162653
2372.000000	0.157585
2373.000000	0.157676
2374.000000	0.157909
2375.000000	0.156604
2376.000000	0.156266
2377.000000	0.153264
2378.000000	0.147709
2379.000000	0.139298
2380.000000	0.133873
2381.000000	0.128646
2382.000000	0.127422
2383.000000	0.129337
2384.000000	0.128212
2385.000000	0.129028
2386.000000	0.126767
2387.000000	0.122334
2388.000000	0.122288
2389.000000	0.122800
2390.000000	0.122073
2391.000000	0.123049
2392.000000	0.127624
2393.000000	0.132007
2394.000000	0.134483
2395.000000	0.134490
2396.000000	0.127133
2397.000000	0.116078
2398.000000	0.104350
2399.000000	0.097008
2400.000000	0.093788
2401.000000	0.100376
2402.000000	0.113646
2403.000000	0.117739
2404.000000	0.123974
2405.000000	0.125300
2406.000000	0.119212
2407.000000	0.120063
2408.000000	0.121727
2409.000000	0.122196
2410.000000	0.119526
2411.000000	0.114610
2412.000000	0.110488
2413.000000	0.106542
2414.000000	0.105380
2415.000000	0.110745
2416.000000	0.115107
2417.000000	0.111495
2418.000000	0.108875
2419.000000	0.107746
2420.000000	0.104045
2421.000000	0.102921
2422.000000	0.105670
2423.000000	0.106158
2424.000000	0.113965
2425.000000	0.125029
2426.000000	0.128634
2427.000000	0.126648
2428.000000	0.115379
2429.000000	0.105595
2430.000000	0.100497
2431.000000	0.098988
2432.000000	0.099722
2433.000000	0.093205
2434.000000	0.084473
2435.000000	0.084858
2436.000000	0.094423
2437.000000	0.110221
2438.000000	0.124644
2439.000000	0.128699
2440.000000	0.122500
2441.000000	0.106192
2442.000000	0.093852
2443.000000	0.081656
2444.000000	0.067540
2445.000000	0.058716
2446.000000	0.053379
2447.000000	0.060260
2448.000000	0.073875
2449.000000	0.086712
2450.000000	0.104370
2451.000000	0.106712
2452.000000	0.082563
2453.000000	0.067531
2454.000000	0.056127
2455.000000	0.049058
2456.000000	0.058574
2457.000000	0.060099
2458.000000	0.054858
2459.000000	0.053604
2460.000000	0.057015
2461.000000	0.051316
2462.000000	0.047777
2463.000000	0.036654
2464.000000	0.017448
2465.000000	0.028461
2466.000000	0.047867
2467.000000	0.068423
2468.000000	0.092254
2469.000000	0.089943
2470.000000	0.075952
2471.000000	0.063516
2472.000000	0.048695
2473.000000	0.057663
2474.000000	0.074164
2475.000000	0.065568
2476.000000	0.057526
2477.000000	0.057669
2478.000000	0.040182
2479.000000	0.040392
2480.000000	0.063157
2481.000000	0.069209
2482.000000	0.058954
2483.000000	0.060489
2484.000000	0.069757
2485.000000	0.047282
2486.000000	0.049869
2487.000000	0.076538
2488.000000	0.063643
2489.000000	0.053507
2490.000000	0.071150
2491.000000	0.059836
2492.000000	0.037775
2493.000000	0.006876
2494.000000	-0.022119
2495.000000	-0.084390
2496.000000	-0.098121
2497.000000	-0.046457
2498.000000	-0.036791
2499.000000	-0.028109
2500.000000	-0.040314
