# Wavelength	NAu-1-60_HEX-30_FV7-10_00002.asd.rts.txt
350.000000	0.125660
351.000000	0.121028
352.000000	0.111074
353.000000	0.107203
354.000000	0.112833
355.000000	0.114511
356.000000	0.117617
357.000000	0.121002
358.000000	0.116948
359.000000	0.119185
360.000000	0.122142
361.000000	0.117987
362.000000	0.119736
363.000000	0.119989
364.000000	0.115101
365.000000	0.114854
366.000000	0.116841
367.000000	0.118055
368.000000	0.114703
369.000000	0.115285
370.000000	0.117180
371.000000	0.115787
372.000000	0.120745
373.000000	0.124717
374.000000	0.123322
375.000000	0.123034
376.000000	0.120962
377.000000	0.118595
378.000000	0.122013
379.000000	0.121349
380.000000	0.118963
381.000000	0.120946
382.000000	0.125075
383.000000	0.127953
384.000000	0.128048
385.000000	0.127766
386.000000	0.129201
387.000000	0.132067
388.000000	0.133384
389.000000	0.135117
390.000000	0.137026
391.000000	0.138160
392.000000	0.139880
393.000000	0.141469
394.000000	0.142292
395.000000	0.142733
396.000000	0.143485
397.000000	0.144941
398.000000	0.147373
399.000000	0.149440
400.000000	0.151196
401.000000	0.153198
402.000000	0.156517
403.000000	0.158722
404.000000	0.158432
405.000000	0.160101
406.000000	0.162410
407.000000	0.164593
408.000000	0.167303
409.000000	0.168479
410.000000	0.168548
411.000000	0.169370
412.000000	0.170703
413.000000	0.172142
414.000000	0.173266
415.000000	0.173867
416.000000	0.174855
417.000000	0.176392
418.000000	0.176860
419.000000	0.177143
420.000000	0.177432
421.000000	0.177344
422.000000	0.178224
423.000000	0.178974
424.000000	0.178140
425.000000	0.178219
426.000000	0.178829
427.000000	0.179206
428.000000	0.178490
429.000000	0.178441
430.000000	0.179179
431.000000	0.178605
432.000000	0.178084
433.000000	0.177940
434.000000	0.178138
435.000000	0.177873
436.000000	0.177585
437.000000	0.177684
438.000000	0.177314
439.000000	0.176877
440.000000	0.176616
441.000000	0.176177
442.000000	0.175268
443.000000	0.174251
444.000000	0.174123
445.000000	0.174228
446.000000	0.174360
447.000000	0.174414
448.000000	0.175199
449.000000	0.176423
450.000000	0.177857
451.000000	0.179737
452.000000	0.182044
453.000000	0.184645
454.000000	0.187412
455.000000	0.190896
456.000000	0.194705
457.000000	0.197978
458.000000	0.201487
459.000000	0.204841
460.000000	0.207672
461.000000	0.210275
462.000000	0.212820
463.000000	0.215207
464.000000	0.217335
465.000000	0.218952
466.000000	0.220225
467.000000	0.221733
468.000000	0.223034
469.000000	0.224107
470.000000	0.225179
471.000000	0.226222
472.000000	0.227032
473.000000	0.227695
474.000000	0.229085
475.000000	0.230067
476.000000	0.230552
477.000000	0.231233
478.000000	0.232042
479.000000	0.232967
480.000000	0.233682
481.000000	0.234310
482.000000	0.235006
483.000000	0.235696
484.000000	0.236471
485.000000	0.237230
486.000000	0.238052
487.000000	0.238805
488.000000	0.239597
489.000000	0.240417
490.000000	0.241148
491.000000	0.241907
492.000000	0.242712
493.000000	0.243434
494.000000	0.244183
495.000000	0.245097
496.000000	0.246145
497.000000	0.246997
498.000000	0.247862
499.000000	0.248822
500.000000	0.249632
501.000000	0.250430
502.000000	0.251346
503.000000	0.252422
504.000000	0.253403
505.000000	0.254252
506.000000	0.255050
507.000000	0.256096
508.000000	0.257281
509.000000	0.258434
510.000000	0.259436
511.000000	0.260410
512.000000	0.261444
513.000000	0.262558
514.000000	0.263672
515.000000	0.264833
516.000000	0.266051
517.000000	0.267224
518.000000	0.268425
519.000000	0.269643
520.000000	0.270904
521.000000	0.272168
522.000000	0.273427
523.000000	0.274687
524.000000	0.276070
525.000000	0.277533
526.000000	0.278991
527.000000	0.280527
528.000000	0.282061
529.000000	0.283542
530.000000	0.284865
531.000000	0.286333
532.000000	0.287983
533.000000	0.289528
534.000000	0.291100
535.000000	0.292693
536.000000	0.294190
537.000000	0.295825
538.000000	0.297519
539.000000	0.299077
540.000000	0.300667
541.000000	0.302290
542.000000	0.303956
543.000000	0.305614
544.000000	0.307296
545.000000	0.308938
546.000000	0.310553
547.000000	0.312240
548.000000	0.313967
549.000000	0.315491
550.000000	0.317078
551.000000	0.318734
552.000000	0.320335
553.000000	0.321957
554.000000	0.323589
555.000000	0.325208
556.000000	0.326781
557.000000	0.328279
558.000000	0.329827
559.000000	0.331318
560.000000	0.332739
561.000000	0.334148
562.000000	0.335467
563.000000	0.336820
564.000000	0.338172
565.000000	0.339346
566.000000	0.340493
567.000000	0.341703
568.000000	0.342945
569.000000	0.344014
570.000000	0.345066
571.000000	0.346115
572.000000	0.347092
573.000000	0.348015
574.000000	0.348863
575.000000	0.349681
576.000000	0.350487
577.000000	0.351219
578.000000	0.351923
579.000000	0.352715
580.000000	0.353410
581.000000	0.353956
582.000000	0.354526
583.000000	0.355024
584.000000	0.355492
585.000000	0.356044
586.000000	0.356481
587.000000	0.356815
588.000000	0.357117
589.000000	0.357455
590.000000	0.357826
591.000000	0.358191
592.000000	0.358428
593.000000	0.358665
594.000000	0.358913
595.000000	0.359072
596.000000	0.359224
597.000000	0.359404
598.000000	0.359508
599.000000	0.359555
600.000000	0.359654
601.000000	0.359778
602.000000	0.359832
603.000000	0.359832
604.000000	0.359816
605.000000	0.359807
606.000000	0.359869
607.000000	0.359974
608.000000	0.360019
609.000000	0.360003
610.000000	0.359996
611.000000	0.360063
612.000000	0.360062
613.000000	0.360055
614.000000	0.360108
615.000000	0.360063
616.000000	0.360002
617.000000	0.359932
618.000000	0.359918
619.000000	0.359917
620.000000	0.359896
621.000000	0.359898
622.000000	0.359863
623.000000	0.359828
624.000000	0.359839
625.000000	0.359947
626.000000	0.360025
627.000000	0.360034
628.000000	0.360058
629.000000	0.360200
630.000000	0.360269
631.000000	0.360261
632.000000	0.360342
633.000000	0.360445
634.000000	0.360478
635.000000	0.360645
636.000000	0.360828
637.000000	0.360956
638.000000	0.361194
639.000000	0.361341
640.000000	0.361446
641.000000	0.361563
642.000000	0.361667
643.000000	0.361756
644.000000	0.361847
645.000000	0.362004
646.000000	0.362210
647.000000	0.362408
648.000000	0.362604
649.000000	0.362805
650.000000	0.362986
651.000000	0.363139
652.000000	0.363369
653.000000	0.363679
654.000000	0.363923
655.000000	0.364150
656.000000	0.364398
657.000000	0.364638
658.000000	0.364962
659.000000	0.365316
660.000000	0.365650
661.000000	0.365976
662.000000	0.366319
663.000000	0.366705
664.000000	0.367036
665.000000	0.367384
666.000000	0.367764
667.000000	0.368135
668.000000	0.368480
669.000000	0.368879
670.000000	0.369361
671.000000	0.369818
672.000000	0.370251
673.000000	0.370678
674.000000	0.371166
675.000000	0.371605
676.000000	0.372031
677.000000	0.372526
678.000000	0.372958
679.000000	0.373378
680.000000	0.373843
681.000000	0.374331
682.000000	0.374870
683.000000	0.375376
684.000000	0.375916
685.000000	0.376493
686.000000	0.377127
687.000000	0.377763
688.000000	0.378346
689.000000	0.378895
690.000000	0.379484
691.000000	0.380141
692.000000	0.380768
693.000000	0.381426
694.000000	0.382140
695.000000	0.382825
696.000000	0.383487
697.000000	0.384171
698.000000	0.384856
699.000000	0.385561
700.000000	0.386298
701.000000	0.386975
702.000000	0.387656
703.000000	0.388342
704.000000	0.389018
705.000000	0.389709
706.000000	0.390383
707.000000	0.391109
708.000000	0.391934
709.000000	0.392676
710.000000	0.393254
711.000000	0.393988
712.000000	0.394776
713.000000	0.395575
714.000000	0.396359
715.000000	0.397092
716.000000	0.397782
717.000000	0.398437
718.000000	0.399161
719.000000	0.399921
720.000000	0.400677
721.000000	0.401364
722.000000	0.401998
723.000000	0.402686
724.000000	0.403429
725.000000	0.404131
726.000000	0.404867
727.000000	0.405570
728.000000	0.406318
729.000000	0.407022
730.000000	0.407551
731.000000	0.408067
732.000000	0.408627
733.000000	0.409306
734.000000	0.410054
735.000000	0.410684
736.000000	0.411353
737.000000	0.412006
738.000000	0.412595
739.000000	0.413241
740.000000	0.413789
741.000000	0.414251
742.000000	0.414672
743.000000	0.415066
744.000000	0.415533
745.000000	0.415912
746.000000	0.416277
747.000000	0.416651
748.000000	0.417129
749.000000	0.417615
750.000000	0.417987
751.000000	0.418291
752.000000	0.418531
753.000000	0.418750
754.000000	0.418987
755.000000	0.419346
756.000000	0.419742
757.000000	0.419993
758.000000	0.420189
759.000000	0.420412
760.000000	0.420591
761.000000	0.420697
762.000000	0.420787
763.000000	0.420879
764.000000	0.421069
765.000000	0.421103
766.000000	0.421081
767.000000	0.421134
768.000000	0.421252
769.000000	0.421363
770.000000	0.421434
771.000000	0.421468
772.000000	0.421490
773.000000	0.421391
774.000000	0.421213
775.000000	0.421077
776.000000	0.420982
777.000000	0.420864
778.000000	0.420655
779.000000	0.420417
780.000000	0.420209
781.000000	0.420059
782.000000	0.419905
783.000000	0.419826
784.000000	0.419665
785.000000	0.419381
786.000000	0.419021
787.000000	0.418640
788.000000	0.418314
789.000000	0.418028
790.000000	0.417715
791.000000	0.417342
792.000000	0.416994
793.000000	0.416642
794.000000	0.416253
795.000000	0.415792
796.000000	0.415375
797.000000	0.415011
798.000000	0.414615
799.000000	0.414168
800.000000	0.413708
801.000000	0.413293
802.000000	0.412953
803.000000	0.412539
804.000000	0.412052
805.000000	0.411623
806.000000	0.411130
807.000000	0.410671
808.000000	0.410231
809.000000	0.409796
810.000000	0.409316
811.000000	0.408762
812.000000	0.408254
813.000000	0.407696
814.000000	0.407118
815.000000	0.406682
816.000000	0.406223
817.000000	0.405751
818.000000	0.405206
819.000000	0.404696
820.000000	0.404210
821.000000	0.403693
822.000000	0.403230
823.000000	0.402744
824.000000	0.402211
825.000000	0.401772
826.000000	0.401287
827.000000	0.400758
828.000000	0.400248
829.000000	0.399728
830.000000	0.399128
831.000000	0.398518
832.000000	0.397849
833.000000	0.397414
834.000000	0.397012
835.000000	0.396514
836.000000	0.396081
837.000000	0.395635
838.000000	0.395162
839.000000	0.394639
840.000000	0.394177
841.000000	0.393706
842.000000	0.393135
843.000000	0.392724
844.000000	0.392292
845.000000	0.391766
846.000000	0.391296
847.000000	0.390860
848.000000	0.390450
849.000000	0.390074
850.000000	0.389567
851.000000	0.389018
852.000000	0.388550
853.000000	0.388185
854.000000	0.387746
855.000000	0.387331
856.000000	0.386856
857.000000	0.386150
858.000000	0.385627
859.000000	0.385325
860.000000	0.384929
861.000000	0.384504
862.000000	0.384099
863.000000	0.383677
864.000000	0.383363
865.000000	0.383021
866.000000	0.382652
867.000000	0.382469
868.000000	0.382027
869.000000	0.381399
870.000000	0.380989
871.000000	0.380515
872.000000	0.380168
873.000000	0.379954
874.000000	0.379723
875.000000	0.379411
876.000000	0.379049
877.000000	0.378644
878.000000	0.378334
879.000000	0.378123
880.000000	0.377815
881.000000	0.377478
882.000000	0.377164
883.000000	0.376842
884.000000	0.376403
885.000000	0.376152
886.000000	0.375869
887.000000	0.375499
888.000000	0.375279
889.000000	0.375005
890.000000	0.374617
891.000000	0.374378
892.000000	0.374206
893.000000	0.373914
894.000000	0.373598
895.000000	0.373336
896.000000	0.373061
897.000000	0.372823
898.000000	0.372683
899.000000	0.372502
900.000000	0.372272
901.000000	0.371998
902.000000	0.371850
903.000000	0.371776
904.000000	0.371730
905.000000	0.371566
906.000000	0.371484
907.000000	0.371419
908.000000	0.371348
909.000000	0.371089
910.000000	0.370963
911.000000	0.370921
912.000000	0.370843
913.000000	0.370583
914.000000	0.370449
915.000000	0.370481
916.000000	0.370317
917.000000	0.370138
918.000000	0.369967
919.000000	0.369816
920.000000	0.369854
921.000000	0.369829
922.000000	0.369747
923.000000	0.369704
924.000000	0.369648
925.000000	0.369517
926.000000	0.369374
927.000000	0.369345
928.000000	0.369429
929.000000	0.369444
930.000000	0.369231
931.000000	0.369073
932.000000	0.368936
933.000000	0.368863
934.000000	0.368867
935.000000	0.368811
936.000000	0.368820
937.000000	0.368836
938.000000	0.368549
939.000000	0.368590
940.000000	0.368741
941.000000	0.368529
942.000000	0.368418
943.000000	0.368491
944.000000	0.368584
945.000000	0.368716
946.000000	0.368664
947.000000	0.368595
948.000000	0.368666
949.000000	0.368818
950.000000	0.368830
951.000000	0.368680
952.000000	0.368690
953.000000	0.368640
954.000000	0.368498
955.000000	0.368272
956.000000	0.368343
957.000000	0.368375
958.000000	0.368464
959.000000	0.368902
960.000000	0.368885
961.000000	0.368791
962.000000	0.368830
963.000000	0.368993
964.000000	0.369315
965.000000	0.369529
966.000000	0.369401
967.000000	0.369620
968.000000	0.369785
969.000000	0.369753
970.000000	0.369706
971.000000	0.369848
972.000000	0.370054
973.000000	0.370190
974.000000	0.370389
975.000000	0.370593
976.000000	0.370700
977.000000	0.370761
978.000000	0.371375
979.000000	0.371504
980.000000	0.371195
981.000000	0.371493
982.000000	0.371864
983.000000	0.371950
984.000000	0.371971
985.000000	0.372495
986.000000	0.372988
987.000000	0.373084
988.000000	0.372781
989.000000	0.373325
990.000000	0.373669
991.000000	0.373874
992.000000	0.374305
993.000000	0.374512
994.000000	0.374532
995.000000	0.374706
996.000000	0.375066
997.000000	0.375774
998.000000	0.376097
999.000000	0.376033
1000.000000	0.376466
1001.000000	0.376347
1002.000000	0.376129
1003.000000	0.376119
1004.000000	0.376411
1005.000000	0.377321
1006.000000	0.377466
1007.000000	0.377438
1008.000000	0.377518
1009.000000	0.377297
1010.000000	0.377690
1011.000000	0.378887
1012.000000	0.379855
1013.000000	0.380447
1014.000000	0.381140
1015.000000	0.380952
1016.000000	0.380492
1017.000000	0.380862
1018.000000	0.381323
1019.000000	0.381683
1020.000000	0.382543
1021.000000	0.382716
1022.000000	0.382597
1023.000000	0.383029
1024.000000	0.383097
1025.000000	0.384215
1026.000000	0.385432
1027.000000	0.385776
1028.000000	0.386468
1029.000000	0.386897
1030.000000	0.386618
1031.000000	0.386959
1032.000000	0.387721
1033.000000	0.387980
1034.000000	0.388427
1035.000000	0.389226
1036.000000	0.389717
1037.000000	0.389940
1038.000000	0.390274
1039.000000	0.390746
1040.000000	0.391308
1041.000000	0.391661
1042.000000	0.392237
1043.000000	0.392986
1044.000000	0.393633
1045.000000	0.394575
1046.000000	0.395192
1047.000000	0.395810
1048.000000	0.396407
1049.000000	0.396905
1050.000000	0.397085
1051.000000	0.397586
1052.000000	0.398129
1053.000000	0.398625
1054.000000	0.399549
1055.000000	0.400365
1056.000000	0.401289
1057.000000	0.401971
1058.000000	0.402277
1059.000000	0.402320
1060.000000	0.402695
1061.000000	0.403119
1062.000000	0.403602
1063.000000	0.404238
1064.000000	0.404842
1065.000000	0.405056
1066.000000	0.405787
1067.000000	0.407142
1068.000000	0.407834
1069.000000	0.408272
1070.000000	0.408784
1071.000000	0.408997
1072.000000	0.409369
1073.000000	0.409769
1074.000000	0.410659
1075.000000	0.411496
1076.000000	0.412092
1077.000000	0.413267
1078.000000	0.414343
1079.000000	0.415041
1080.000000	0.415584
1081.000000	0.416121
1082.000000	0.416373
1083.000000	0.416954
1084.000000	0.417752
1085.000000	0.418547
1086.000000	0.419460
1087.000000	0.420220
1088.000000	0.420800
1089.000000	0.421517
1090.000000	0.422392
1091.000000	0.422794
1092.000000	0.423474
1093.000000	0.424199
1094.000000	0.424617
1095.000000	0.424433
1096.000000	0.425251
1097.000000	0.426470
1098.000000	0.427336
1099.000000	0.428522
1100.000000	0.429631
1101.000000	0.430471
1102.000000	0.431133
1103.000000	0.431849
1104.000000	0.432537
1105.000000	0.432646
1106.000000	0.433200
1107.000000	0.434204
1108.000000	0.434968
1109.000000	0.435789
1110.000000	0.436487
1111.000000	0.437337
1112.000000	0.438238
1113.000000	0.439010
1114.000000	0.439854
1115.000000	0.440601
1116.000000	0.441208
1117.000000	0.441806
1118.000000	0.442278
1119.000000	0.442904
1120.000000	0.443568
1121.000000	0.444192
1122.000000	0.445142
1123.000000	0.446079
1124.000000	0.446494
1125.000000	0.447159
1126.000000	0.447768
1127.000000	0.448408
1128.000000	0.449089
1129.000000	0.449984
1130.000000	0.450621
1131.000000	0.451106
1132.000000	0.451789
1133.000000	0.452586
1134.000000	0.453267
1135.000000	0.453978
1136.000000	0.454604
1137.000000	0.455131
1138.000000	0.455499
1139.000000	0.455859
1140.000000	0.456400
1141.000000	0.456719
1142.000000	0.457207
1143.000000	0.457927
1144.000000	0.458622
1145.000000	0.459039
1146.000000	0.459422
1147.000000	0.459786
1148.000000	0.459881
1149.000000	0.460271
1150.000000	0.460801
1151.000000	0.461271
1152.000000	0.461751
1153.000000	0.462237
1154.000000	0.462632
1155.000000	0.463032
1156.000000	0.463524
1157.000000	0.463915
1158.000000	0.464013
1159.000000	0.464392
1160.000000	0.464833
1161.000000	0.465311
1162.000000	0.466031
1163.000000	0.466972
1164.000000	0.467556
1165.000000	0.468143
1166.000000	0.468709
1167.000000	0.469131
1168.000000	0.469537
1169.000000	0.469901
1170.000000	0.470433
1171.000000	0.471093
1172.000000	0.471690
1173.000000	0.472414
1174.000000	0.472928
1175.000000	0.473108
1176.000000	0.473491
1177.000000	0.474060
1178.000000	0.474535
1179.000000	0.475072
1180.000000	0.475483
1181.000000	0.475893
1182.000000	0.476284
1183.000000	0.476767
1184.000000	0.477368
1185.000000	0.477818
1186.000000	0.478276
1187.000000	0.478599
1188.000000	0.478716
1189.000000	0.479051
1190.000000	0.479505
1191.000000	0.479885
1192.000000	0.480532
1193.000000	0.481136
1194.000000	0.481448
1195.000000	0.481886
1196.000000	0.482281
1197.000000	0.482722
1198.000000	0.483298
1199.000000	0.483746
1200.000000	0.484152
1201.000000	0.484505
1202.000000	0.484858
1203.000000	0.485305
1204.000000	0.485720
1205.000000	0.486151
1206.000000	0.486500
1207.000000	0.486977
1208.000000	0.487129
1209.000000	0.487103
1210.000000	0.487409
1211.000000	0.487686
1212.000000	0.487921
1213.000000	0.488537
1214.000000	0.488920
1215.000000	0.488932
1216.000000	0.489171
1217.000000	0.489452
1218.000000	0.489743
1219.000000	0.490082
1220.000000	0.490597
1221.000000	0.490944
1222.000000	0.491321
1223.000000	0.491760
1224.000000	0.492022
1225.000000	0.492160
1226.000000	0.492401
1227.000000	0.492544
1228.000000	0.492594
1229.000000	0.492743
1230.000000	0.493006
1231.000000	0.493130
1232.000000	0.493383
1233.000000	0.493714
1234.000000	0.494055
1235.000000	0.494265
1236.000000	0.494287
1237.000000	0.494547
1238.000000	0.494733
1239.000000	0.494910
1240.000000	0.495289
1241.000000	0.495447
1242.000000	0.495384
1243.000000	0.495617
1244.000000	0.496050
1245.000000	0.496396
1246.000000	0.496602
1247.000000	0.496957
1248.000000	0.497297
1249.000000	0.497636
1250.000000	0.498060
1251.000000	0.498427
1252.000000	0.498639
1253.000000	0.498654
1254.000000	0.498780
1255.000000	0.498806
1256.000000	0.498962
1257.000000	0.499263
1258.000000	0.499542
1259.000000	0.499853
1260.000000	0.500111
1261.000000	0.500151
1262.000000	0.500285
1263.000000	0.500437
1264.000000	0.500600
1265.000000	0.500871
1266.000000	0.501050
1267.000000	0.501109
1268.000000	0.501138
1269.000000	0.501137
1270.000000	0.501280
1271.000000	0.501554
1272.000000	0.501912
1273.000000	0.502168
1274.000000	0.502234
1275.000000	0.502291
1276.000000	0.502204
1277.000000	0.502354
1278.000000	0.502413
1279.000000	0.502542
1280.000000	0.502793
1281.000000	0.502783
1282.000000	0.502676
1283.000000	0.502866
1284.000000	0.502949
1285.000000	0.502993
1286.000000	0.503159
1287.000000	0.503244
1288.000000	0.503189
1289.000000	0.503233
1290.000000	0.503200
1291.000000	0.503188
1292.000000	0.503161
1293.000000	0.503024
1294.000000	0.502924
1295.000000	0.503060
1296.000000	0.503196
1297.000000	0.503177
1298.000000	0.503303
1299.000000	0.503441
1300.000000	0.503583
1301.000000	0.503667
1302.000000	0.503604
1303.000000	0.503614
1304.000000	0.503508
1305.000000	0.503413
1306.000000	0.503267
1307.000000	0.503122
1308.000000	0.503038
1309.000000	0.502943
1310.000000	0.502819
1311.000000	0.502782
1312.000000	0.502634
1313.000000	0.502441
1314.000000	0.502313
1315.000000	0.502173
1316.000000	0.502141
1317.000000	0.502090
1318.000000	0.501974
1319.000000	0.501866
1320.000000	0.501674
1321.000000	0.501431
1322.000000	0.501051
1323.000000	0.500631
1324.000000	0.500552
1325.000000	0.500345
1326.000000	0.500152
1327.000000	0.500170
1328.000000	0.499953
1329.000000	0.499660
1330.000000	0.499306
1331.000000	0.499066
1332.000000	0.498852
1333.000000	0.498653
1334.000000	0.498636
1335.000000	0.498552
1336.000000	0.498383
1337.000000	0.498246
1338.000000	0.498091
1339.000000	0.497868
1340.000000	0.497455
1341.000000	0.497181
1342.000000	0.496875
1343.000000	0.496405
1344.000000	0.496089
1345.000000	0.495737
1346.000000	0.495473
1347.000000	0.495077
1348.000000	0.494697
1349.000000	0.494295
1350.000000	0.493818
1351.000000	0.493490
1352.000000	0.493236
1353.000000	0.492793
1354.000000	0.492381
1355.000000	0.491783
1356.000000	0.491212
1357.000000	0.490823
1358.000000	0.490466
1359.000000	0.490288
1360.000000	0.490053
1361.000000	0.489946
1362.000000	0.489672
1363.000000	0.489224
1364.000000	0.488914
1365.000000	0.488651
1366.000000	0.488311
1367.000000	0.487987
1368.000000	0.487602
1369.000000	0.487157
1370.000000	0.486473
1371.000000	0.485701
1372.000000	0.484982
1373.000000	0.484229
1374.000000	0.483243
1375.000000	0.482194
1376.000000	0.481303
1377.000000	0.480248
1378.000000	0.479131
1379.000000	0.477937
1380.000000	0.476511
1381.000000	0.475021
1382.000000	0.473484
1383.000000	0.471907
1384.000000	0.470097
1385.000000	0.468023
1386.000000	0.466087
1387.000000	0.464033
1388.000000	0.461653
1389.000000	0.459355
1390.000000	0.456934
1391.000000	0.454364
1392.000000	0.452050
1393.000000	0.449552
1394.000000	0.447024
1395.000000	0.444520
1396.000000	0.441985
1397.000000	0.439236
1398.000000	0.436334
1399.000000	0.433506
1400.000000	0.430561
1401.000000	0.427713
1402.000000	0.425012
1403.000000	0.422240
1404.000000	0.419639
1405.000000	0.416884
1406.000000	0.413996
1407.000000	0.411250
1408.000000	0.408388
1409.000000	0.405694
1410.000000	0.403414
1411.000000	0.401318
1412.000000	0.399225
1413.000000	0.397228
1414.000000	0.395463
1415.000000	0.393829
1416.000000	0.392312
1417.000000	0.391131
1418.000000	0.390083
1419.000000	0.389210
1420.000000	0.388464
1421.000000	0.387767
1422.000000	0.386901
1423.000000	0.386000
1424.000000	0.385037
1425.000000	0.383984
1426.000000	0.382815
1427.000000	0.381659
1428.000000	0.380468
1429.000000	0.379274
1430.000000	0.378303
1431.000000	0.377457
1432.000000	0.376659
1433.000000	0.375822
1434.000000	0.375448
1435.000000	0.375388
1436.000000	0.375593
1437.000000	0.376163
1438.000000	0.376889
1439.000000	0.377835
1440.000000	0.378914
1441.000000	0.380363
1442.000000	0.381816
1443.000000	0.383300
1444.000000	0.384932
1445.000000	0.386408
1446.000000	0.387705
1447.000000	0.388917
1448.000000	0.389881
1449.000000	0.390836
1450.000000	0.391674
1451.000000	0.392257
1452.000000	0.392691
1453.000000	0.392946
1454.000000	0.393013
1455.000000	0.393163
1456.000000	0.393397
1457.000000	0.393582
1458.000000	0.393767
1459.000000	0.393834
1460.000000	0.393875
1461.000000	0.393961
1462.000000	0.394005
1463.000000	0.394047
1464.000000	0.394128
1465.000000	0.394237
1466.000000	0.394307
1467.000000	0.394562
1468.000000	0.394963
1469.000000	0.395281
1470.000000	0.395606
1471.000000	0.396104
1472.000000	0.396520
1473.000000	0.397085
1474.000000	0.397763
1475.000000	0.398398
1476.000000	0.399135
1477.000000	0.399995
1478.000000	0.400911
1479.000000	0.401780
1480.000000	0.402523
1481.000000	0.403276
1482.000000	0.403991
1483.000000	0.404827
1484.000000	0.405781
1485.000000	0.406618
1486.000000	0.407391
1487.000000	0.408156
1488.000000	0.408862
1489.000000	0.409680
1490.000000	0.410407
1491.000000	0.411228
1492.000000	0.412097
1493.000000	0.412912
1494.000000	0.413636
1495.000000	0.414423
1496.000000	0.415251
1497.000000	0.415962
1498.000000	0.416677
1499.000000	0.417363
1500.000000	0.418001
1501.000000	0.418662
1502.000000	0.419303
1503.000000	0.420033
1504.000000	0.420644
1505.000000	0.421103
1506.000000	0.421719
1507.000000	0.422312
1508.000000	0.422948
1509.000000	0.423623
1510.000000	0.424144
1511.000000	0.424677
1512.000000	0.425143
1513.000000	0.425579
1514.000000	0.426138
1515.000000	0.426583
1516.000000	0.427032
1517.000000	0.427482
1518.000000	0.427893
1519.000000	0.428263
1520.000000	0.428609
1521.000000	0.428997
1522.000000	0.429572
1523.000000	0.430105
1524.000000	0.430431
1525.000000	0.430784
1526.000000	0.431071
1527.000000	0.431365
1528.000000	0.431865
1529.000000	0.432390
1530.000000	0.432682
1531.000000	0.433012
1532.000000	0.433356
1533.000000	0.433595
1534.000000	0.433916
1535.000000	0.434229
1536.000000	0.434439
1537.000000	0.434785
1538.000000	0.435111
1539.000000	0.435283
1540.000000	0.435491
1541.000000	0.435797
1542.000000	0.435997
1543.000000	0.436141
1544.000000	0.436391
1545.000000	0.436666
1546.000000	0.436894
1547.000000	0.437168
1548.000000	0.437396
1549.000000	0.437499
1550.000000	0.437633
1551.000000	0.437821
1552.000000	0.438029
1553.000000	0.438294
1554.000000	0.438459
1555.000000	0.438470
1556.000000	0.438579
1557.000000	0.438639
1558.000000	0.438737
1559.000000	0.438843
1560.000000	0.438974
1561.000000	0.439113
1562.000000	0.439235
1563.000000	0.439522
1564.000000	0.439645
1565.000000	0.439643
1566.000000	0.439609
1567.000000	0.439547
1568.000000	0.439666
1569.000000	0.440008
1570.000000	0.440254
1571.000000	0.440568
1572.000000	0.440759
1573.000000	0.440897
1574.000000	0.440965
1575.000000	0.440960
1576.000000	0.441052
1577.000000	0.441059
1578.000000	0.441118
1579.000000	0.441386
1580.000000	0.441518
1581.000000	0.441715
1582.000000	0.441828
1583.000000	0.441859
1584.000000	0.441844
1585.000000	0.441884
1586.000000	0.441865
1587.000000	0.441680
1588.000000	0.441740
1589.000000	0.441954
1590.000000	0.442106
1591.000000	0.442435
1592.000000	0.442645
1593.000000	0.442778
1594.000000	0.442861
1595.000000	0.442973
1596.000000	0.443125
1597.000000	0.443282
1598.000000	0.443402
1599.000000	0.443621
1600.000000	0.443725
1601.000000	0.443845
1602.000000	0.443940
1603.000000	0.444053
1604.000000	0.444075
1605.000000	0.444008
1606.000000	0.444058
1607.000000	0.444239
1608.000000	0.444353
1609.000000	0.444633
1610.000000	0.444709
1611.000000	0.444622
1612.000000	0.444630
1613.000000	0.444692
1614.000000	0.444802
1615.000000	0.445100
1616.000000	0.445342
1617.000000	0.445571
1618.000000	0.445735
1619.000000	0.445818
1620.000000	0.445925
1621.000000	0.446003
1622.000000	0.446253
1623.000000	0.446565
1624.000000	0.446728
1625.000000	0.446759
1626.000000	0.446711
1627.000000	0.446476
1628.000000	0.446535
1629.000000	0.446689
1630.000000	0.446851
1631.000000	0.447052
1632.000000	0.447167
1633.000000	0.447230
1634.000000	0.447433
1635.000000	0.447748
1636.000000	0.448035
1637.000000	0.448485
1638.000000	0.448672
1639.000000	0.448748
1640.000000	0.448949
1641.000000	0.449210
1642.000000	0.449405
1643.000000	0.449678
1644.000000	0.449918
1645.000000	0.450091
1646.000000	0.450202
1647.000000	0.450424
1648.000000	0.450518
1649.000000	0.450501
1650.000000	0.450702
1651.000000	0.451087
1652.000000	0.451351
1653.000000	0.451606
1654.000000	0.451834
1655.000000	0.451838
1656.000000	0.451953
1657.000000	0.452243
1658.000000	0.452486
1659.000000	0.452908
1660.000000	0.453279
1661.000000	0.453506
1662.000000	0.453807
1663.000000	0.454083
1664.000000	0.454371
1665.000000	0.454722
1666.000000	0.455073
1667.000000	0.455297
1668.000000	0.455518
1669.000000	0.455672
1670.000000	0.455772
1671.000000	0.456013
1672.000000	0.456263
1673.000000	0.456434
1674.000000	0.456712
1675.000000	0.456858
1676.000000	0.457002
1677.000000	0.457287
1678.000000	0.457368
1679.000000	0.457518
1680.000000	0.457662
1681.000000	0.457624
1682.000000	0.457793
1683.000000	0.457959
1684.000000	0.457972
1685.000000	0.458179
1686.000000	0.458283
1687.000000	0.458482
1688.000000	0.458665
1689.000000	0.458681
1690.000000	0.458803
1691.000000	0.458944
1692.000000	0.458946
1693.000000	0.459123
1694.000000	0.459272
1695.000000	0.459316
1696.000000	0.459337
1697.000000	0.459348
1698.000000	0.459369
1699.000000	0.459422
1700.000000	0.459582
1701.000000	0.459762
1702.000000	0.459581
1703.000000	0.459504
1704.000000	0.459629
1705.000000	0.459684
1706.000000	0.459843
1707.000000	0.459981
1708.000000	0.459981
1709.000000	0.459980
1710.000000	0.460153
1711.000000	0.460281
1712.000000	0.460514
1713.000000	0.460561
1714.000000	0.460463
1715.000000	0.460540
1716.000000	0.460678
1717.000000	0.460693
1718.000000	0.460738
1719.000000	0.460714
1720.000000	0.460463
1721.000000	0.460517
1722.000000	0.460861
1723.000000	0.460992
1724.000000	0.461204
1725.000000	0.461358
1726.000000	0.461205
1727.000000	0.461243
1728.000000	0.461307
1729.000000	0.461249
1730.000000	0.461380
1731.000000	0.461397
1732.000000	0.461374
1733.000000	0.461391
1734.000000	0.461120
1735.000000	0.461112
1736.000000	0.461119
1737.000000	0.461211
1738.000000	0.461531
1739.000000	0.461680
1740.000000	0.461774
1741.000000	0.461835
1742.000000	0.461868
1743.000000	0.461955
1744.000000	0.462002
1745.000000	0.462040
1746.000000	0.462086
1747.000000	0.462057
1748.000000	0.461964
1749.000000	0.461751
1750.000000	0.461620
1751.000000	0.461793
1752.000000	0.461942
1753.000000	0.461910
1754.000000	0.461924
1755.000000	0.461766
1756.000000	0.461703
1757.000000	0.461859
1758.000000	0.461824
1759.000000	0.461631
1760.000000	0.461516
1761.000000	0.461210
1762.000000	0.461042
1763.000000	0.461086
1764.000000	0.461036
1765.000000	0.460834
1766.000000	0.460860
1767.000000	0.460908
1768.000000	0.460867
1769.000000	0.461098
1770.000000	0.461223
1771.000000	0.461151
1772.000000	0.461129
1773.000000	0.460994
1774.000000	0.461034
1775.000000	0.461259
1776.000000	0.461324
1777.000000	0.461434
1778.000000	0.461400
1779.000000	0.461126
1780.000000	0.461024
1781.000000	0.460874
1782.000000	0.460884
1783.000000	0.461086
1784.000000	0.461178
1785.000000	0.461159
1786.000000	0.461161
1787.000000	0.461308
1788.000000	0.461653
1789.000000	0.461888
1790.000000	0.461850
1791.000000	0.461814
1792.000000	0.461752
1793.000000	0.461756
1794.000000	0.461907
1795.000000	0.462015
1796.000000	0.462046
1797.000000	0.462116
1798.000000	0.462190
1799.000000	0.462285
1800.000000	0.462508
1801.000000	0.461960
1802.000000	0.462147
1803.000000	0.462875
1804.000000	0.463540
1805.000000	0.465001
1806.000000	0.466213
1807.000000	0.468410
1808.000000	0.468711
1809.000000	0.467959
1810.000000	0.467550
1811.000000	0.466713
1812.000000	0.464007
1813.000000	0.463383
1814.000000	0.463947
1815.000000	0.464029
1816.000000	0.464271
1817.000000	0.464454
1818.000000	0.464464
1819.000000	0.465669
1820.000000	0.466042
1821.000000	0.465969
1822.000000	0.466119
1823.000000	0.465769
1824.000000	0.465717
1825.000000	0.465928
1826.000000	0.466094
1827.000000	0.466315
1828.000000	0.465921
1829.000000	0.465916
1830.000000	0.465719
1831.000000	0.465306
1832.000000	0.464608
1833.000000	0.464195
1834.000000	0.463473
1835.000000	0.463243
1836.000000	0.463476
1837.000000	0.463332
1838.000000	0.462679
1839.000000	0.462887
1840.000000	0.462927
1841.000000	0.462071
1842.000000	0.461665
1843.000000	0.461458
1844.000000	0.460910
1845.000000	0.459779
1846.000000	0.459383
1847.000000	0.459162
1848.000000	0.458642
1849.000000	0.457931
1850.000000	0.457769
1851.000000	0.457231
1852.000000	0.455996
1853.000000	0.455218
1854.000000	0.454523
1855.000000	0.453452
1856.000000	0.451904
1857.000000	0.450998
1858.000000	0.449611
1859.000000	0.448450
1860.000000	0.446770
1861.000000	0.444913
1862.000000	0.443212
1863.000000	0.441448
1864.000000	0.439686
1865.000000	0.438281
1866.000000	0.436358
1867.000000	0.434133
1868.000000	0.431638
1869.000000	0.429072
1870.000000	0.426563
1871.000000	0.423437
1872.000000	0.420335
1873.000000	0.416674
1874.000000	0.411732
1875.000000	0.407689
1876.000000	0.403541
1877.000000	0.399253
1878.000000	0.395054
1879.000000	0.391761
1880.000000	0.387261
1881.000000	0.381624
1882.000000	0.376248
1883.000000	0.370032
1884.000000	0.363886
1885.000000	0.357445
1886.000000	0.351163
1887.000000	0.344552
1888.000000	0.337878
1889.000000	0.331691
1890.000000	0.325021
1891.000000	0.318146
1892.000000	0.311051
1893.000000	0.303197
1894.000000	0.295437
1895.000000	0.288288
1896.000000	0.281603
1897.000000	0.274753
1898.000000	0.268376
1899.000000	0.262742
1900.000000	0.256329
1901.000000	0.250443
1902.000000	0.245328
1903.000000	0.239885
1904.000000	0.235292
1905.000000	0.231401
1906.000000	0.227837
1907.000000	0.224617
1908.000000	0.222542
1909.000000	0.220703
1910.000000	0.218797
1911.000000	0.217317
1912.000000	0.216252
1913.000000	0.215313
1914.000000	0.214473
1915.000000	0.214006
1916.000000	0.213058
1917.000000	0.212440
1918.000000	0.212042
1919.000000	0.212106
1920.000000	0.211279
1921.000000	0.210904
1922.000000	0.210861
1923.000000	0.210699
1924.000000	0.211442
1925.000000	0.212589
1926.000000	0.213370
1927.000000	0.214121
1928.000000	0.214693
1929.000000	0.215310
1930.000000	0.215318
1931.000000	0.215239
1932.000000	0.215922
1933.000000	0.216283
1934.000000	0.216773
1935.000000	0.217857
1936.000000	0.218124
1937.000000	0.218126
1938.000000	0.218910
1939.000000	0.219642
1940.000000	0.220446
1941.000000	0.221173
1942.000000	0.222305
1943.000000	0.222648
1944.000000	0.222337
1945.000000	0.222131
1946.000000	0.221612
1947.000000	0.221286
1948.000000	0.221507
1949.000000	0.221519
1950.000000	0.221492
1951.000000	0.221510
1952.000000	0.221606
1953.000000	0.221406
1954.000000	0.221643
1955.000000	0.221856
1956.000000	0.221663
1957.000000	0.221485
1958.000000	0.221659
1959.000000	0.222087
1960.000000	0.222324
1961.000000	0.222756
1962.000000	0.223276
1963.000000	0.223709
1964.000000	0.224129
1965.000000	0.225305
1966.000000	0.226613
1967.000000	0.227017
1968.000000	0.227283
1969.000000	0.227112
1970.000000	0.226905
1971.000000	0.227380
1972.000000	0.227516
1973.000000	0.227669
1974.000000	0.227868
1975.000000	0.228162
1976.000000	0.228209
1977.000000	0.229081
1978.000000	0.230049
1979.000000	0.231251
1980.000000	0.232540
1981.000000	0.233594
1982.000000	0.234531
1983.000000	0.235276
1984.000000	0.236288
1985.000000	0.237620
1986.000000	0.238510
1987.000000	0.239324
1988.000000	0.240475
1989.000000	0.240852
1990.000000	0.241120
1991.000000	0.242242
1992.000000	0.243255
1993.000000	0.244079
1994.000000	0.245306
1995.000000	0.246192
1996.000000	0.246697
1997.000000	0.247517
1998.000000	0.248581
1999.000000	0.249758
2000.000000	0.251166
2001.000000	0.252387
2002.000000	0.253365
2003.000000	0.254215
2004.000000	0.254854
2005.000000	0.255797
2006.000000	0.257090
2007.000000	0.258656
2008.000000	0.260250
2009.000000	0.261895
2010.000000	0.263456
2011.000000	0.265221
2012.000000	0.266536
2013.000000	0.267427
2014.000000	0.268587
2015.000000	0.269270
2016.000000	0.269953
2017.000000	0.270998
2018.000000	0.272010
2019.000000	0.273801
2020.000000	0.275991
2021.000000	0.277795
2022.000000	0.279865
2023.000000	0.281618
2024.000000	0.282924
2025.000000	0.284230
2026.000000	0.285414
2027.000000	0.286413
2028.000000	0.287302
2029.000000	0.288834
2030.000000	0.290459
2031.000000	0.291440
2032.000000	0.292551
2033.000000	0.293580
2034.000000	0.294657
2035.000000	0.295826
2036.000000	0.297246
2037.000000	0.299167
2038.000000	0.300591
2039.000000	0.302271
2040.000000	0.303488
2041.000000	0.303861
2042.000000	0.304350
2043.000000	0.304784
2044.000000	0.304710
2045.000000	0.305110
2046.000000	0.305501
2047.000000	0.306630
2048.000000	0.308660
2049.000000	0.310416
2050.000000	0.312468
2051.000000	0.313743
2052.000000	0.314036
2053.000000	0.314621
2054.000000	0.315230
2055.000000	0.316229
2056.000000	0.316776
2057.000000	0.318349
2058.000000	0.319535
2059.000000	0.320581
2060.000000	0.321870
2061.000000	0.323705
2062.000000	0.324437
2063.000000	0.324804
2064.000000	0.325193
2065.000000	0.325111
2066.000000	0.325371
2067.000000	0.325888
2068.000000	0.326878
2069.000000	0.328189
2070.000000	0.329740
2071.000000	0.331220
2072.000000	0.332123
2073.000000	0.332581
2074.000000	0.332855
2075.000000	0.333808
2076.000000	0.335401
2077.000000	0.336689
2078.000000	0.338543
2079.000000	0.339442
2080.000000	0.339449
2081.000000	0.340040
2082.000000	0.340295
2083.000000	0.341259
2084.000000	0.341982
2085.000000	0.342813
2086.000000	0.343800
2087.000000	0.344126
2088.000000	0.344822
2089.000000	0.346216
2090.000000	0.347164
2091.000000	0.348088
2092.000000	0.348597
2093.000000	0.348732
2094.000000	0.349342
2095.000000	0.349697
2096.000000	0.350444
2097.000000	0.352031
2098.000000	0.352527
2099.000000	0.353410
2100.000000	0.354846
2101.000000	0.355775
2102.000000	0.357418
2103.000000	0.358361
2104.000000	0.358863
2105.000000	0.359522
2106.000000	0.360139
2107.000000	0.360640
2108.000000	0.360812
2109.000000	0.361379
2110.000000	0.361693
2111.000000	0.362155
2112.000000	0.362811
2113.000000	0.363600
2114.000000	0.363309
2115.000000	0.364153
2116.000000	0.364596
2117.000000	0.364968
2118.000000	0.365936
2119.000000	0.366344
2120.000000	0.366862
2121.000000	0.367046
2122.000000	0.367491
2123.000000	0.368168
2124.000000	0.368571
2125.000000	0.368977
2126.000000	0.369470
2127.000000	0.369841
2128.000000	0.370532
2129.000000	0.371576
2130.000000	0.371957
2131.000000	0.373059
2132.000000	0.373382
2133.000000	0.372921
2134.000000	0.373605
2135.000000	0.373356
2136.000000	0.372499
2137.000000	0.372113
2138.000000	0.371867
2139.000000	0.371528
2140.000000	0.371193
2141.000000	0.370908
2142.000000	0.370532
2143.000000	0.370179
2144.000000	0.369816
2145.000000	0.370228
2146.000000	0.371317
2147.000000	0.372896
2148.000000	0.373673
2149.000000	0.373875
2150.000000	0.373503
2151.000000	0.372024
2152.000000	0.370685
2153.000000	0.369699
2154.000000	0.368968
2155.000000	0.368231
2156.000000	0.367892
2157.000000	0.368194
2158.000000	0.368491
2159.000000	0.369208
2160.000000	0.369339
2161.000000	0.369046
2162.000000	0.369309
2163.000000	0.369629
2164.000000	0.369667
2165.000000	0.369558
2166.000000	0.370294
2167.000000	0.370804
2168.000000	0.371049
2169.000000	0.372133
2170.000000	0.373136
2171.000000	0.373167
2172.000000	0.372241
2173.000000	0.371856
2174.000000	0.370772
2175.000000	0.370220
2176.000000	0.370226
2177.000000	0.370037
2178.000000	0.370458
2179.000000	0.370361
2180.000000	0.369326
2181.000000	0.369293
2182.000000	0.368892
2183.000000	0.368004
2184.000000	0.368669
2185.000000	0.369664
2186.000000	0.370146
2187.000000	0.370327
2188.000000	0.369491
2189.000000	0.367831
2190.000000	0.367243
2191.000000	0.367818
2192.000000	0.366772
2193.000000	0.365104
2194.000000	0.364962
2195.000000	0.364060
2196.000000	0.363975
2197.000000	0.367523
2198.000000	0.367367
2199.000000	0.363876
2200.000000	0.362663
2201.000000	0.361187
2202.000000	0.359681
2203.000000	0.359297
2204.000000	0.358340
2205.000000	0.356399
2206.000000	0.354766
2207.000000	0.352593
2208.000000	0.351220
2209.000000	0.349596
2210.000000	0.349020
2211.000000	0.351779
2212.000000	0.354566
2213.000000	0.356434
2214.000000	0.358551
2215.000000	0.360545
2216.000000	0.361698
2217.000000	0.363426
2218.000000	0.366130
2219.000000	0.367489
2220.000000	0.368005
2221.000000	0.368239
2222.000000	0.368463
2223.000000	0.367394
2224.000000	0.364100
2225.000000	0.363327
2226.000000	0.362463
2227.000000	0.363408
2228.000000	0.366999
2229.000000	0.367378
2230.000000	0.367088
2231.000000	0.364931
2232.000000	0.359450
2233.000000	0.357132
2234.000000	0.355543
2235.000000	0.353792
2236.000000	0.354540
2237.000000	0.359404
2238.000000	0.360484
2239.000000	0.361076
2240.000000	0.361997
2241.000000	0.361093
2242.000000	0.361813
2243.000000	0.363775
2244.000000	0.365346
2245.000000	0.368137
2246.000000	0.368146
2247.000000	0.367335
2248.000000	0.366057
2249.000000	0.362162
2250.000000	0.359291
2251.000000	0.357903
2252.000000	0.356997
2253.000000	0.358495
2254.000000	0.360184
2255.000000	0.363168
2256.000000	0.365629
2257.000000	0.364241
2258.000000	0.363598
2259.000000	0.360197
2260.000000	0.353959
2261.000000	0.350516
2262.000000	0.347132
2263.000000	0.344988
2264.000000	0.345756
2265.000000	0.343715
2266.000000	0.340469
2267.000000	0.338741
2268.000000	0.335911
2269.000000	0.334589
2270.000000	0.337043
2271.000000	0.334463
2272.000000	0.328695
2273.000000	0.324575
2274.000000	0.318506
2275.000000	0.313950
2276.000000	0.309695
2277.000000	0.308603
2278.000000	0.307278
2279.000000	0.305354
2280.000000	0.304705
2281.000000	0.302371
2282.000000	0.298519
2283.000000	0.294349
2284.000000	0.290990
2285.000000	0.289539
2286.000000	0.288562
2287.000000	0.288660
2288.000000	0.291725
2289.000000	0.294047
2290.000000	0.295232
2291.000000	0.296482
2292.000000	0.295728
2293.000000	0.295251
2294.000000	0.297228
2295.000000	0.302513
2296.000000	0.305074
2297.000000	0.307958
2298.000000	0.309661
2299.000000	0.309669
2300.000000	0.309946
2301.000000	0.309298
2302.000000	0.310600
2303.000000	0.311985
2304.000000	0.314042
2305.000000	0.319602
2306.000000	0.322079
2307.000000	0.323862
2308.000000	0.322893
2309.000000	0.321793
2310.000000	0.319988
2311.000000	0.318610
2312.000000	0.318267
2313.000000	0.318062
2314.000000	0.317263
2315.000000	0.315256
2316.000000	0.315050
2317.000000	0.314738
2318.000000	0.314947
2319.000000	0.316928
2320.000000	0.316975
2321.000000	0.316919
2322.000000	0.316942
2323.000000	0.315171
2324.000000	0.313964
2325.000000	0.312016
2326.000000	0.308711
2327.000000	0.306634
2328.000000	0.303523
2329.000000	0.302610
2330.000000	0.303381
2331.000000	0.302650
2332.000000	0.304237
2333.000000	0.303727
2334.000000	0.299973
2335.000000	0.299141
2336.000000	0.299146
2337.000000	0.298733
2338.000000	0.299814
2339.000000	0.299890
2340.000000	0.299333
2341.000000	0.297789
2342.000000	0.295552
2343.000000	0.293494
2344.000000	0.290327
2345.000000	0.287642
2346.000000	0.285820
2347.000000	0.282616
2348.000000	0.278864
2349.000000	0.274350
2350.000000	0.269971
2351.000000	0.268925
2352.000000	0.269247
2353.000000	0.271176
2354.000000	0.274986
2355.000000	0.276208
2356.000000	0.273973
2357.000000	0.272968
2358.000000	0.269370
2359.000000	0.264541
2360.000000	0.261900
2361.000000	0.259328
2362.000000	0.255604
2363.000000	0.253680
2364.000000	0.257820
2365.000000	0.260287
2366.000000	0.262143
2367.000000	0.265715
2368.000000	0.263226
2369.000000	0.257032
2370.000000	0.251683
2371.000000	0.246518
2372.000000	0.241746
2373.000000	0.241078
2374.000000	0.240545
2375.000000	0.239622
2376.000000	0.239954
2377.000000	0.235686
2378.000000	0.231290
2379.000000	0.229034
2380.000000	0.228167
2381.000000	0.231576
2382.000000	0.235511
2383.000000	0.234160
2384.000000	0.232014
2385.000000	0.230144
2386.000000	0.225248
2387.000000	0.223718
2388.000000	0.219782
2389.000000	0.212557
2390.000000	0.210125
2391.000000	0.211341
2392.000000	0.217361
2393.000000	0.223501
2394.000000	0.225637
2395.000000	0.228098
2396.000000	0.224040
2397.000000	0.216800
2398.000000	0.219710
2399.000000	0.217216
2400.000000	0.215659
2401.000000	0.223023
2402.000000	0.221922
2403.000000	0.224541
2404.000000	0.228106
2405.000000	0.224894
2406.000000	0.227554
2407.000000	0.227715
2408.000000	0.223613
2409.000000	0.220135
2410.000000	0.212528
2411.000000	0.205567
2412.000000	0.202877
2413.000000	0.200549
2414.000000	0.199608
2415.000000	0.203118
2416.000000	0.207191
2417.000000	0.208731
2418.000000	0.206650
2419.000000	0.203034
2420.000000	0.201468
2421.000000	0.197681
2422.000000	0.193701
2423.000000	0.194422
2424.000000	0.191313
2425.000000	0.189191
2426.000000	0.193923
2427.000000	0.188204
2428.000000	0.178213
2429.000000	0.174610
2430.000000	0.172523
2431.000000	0.176833
2432.000000	0.175551
2433.000000	0.168625
2434.000000	0.168245
2435.000000	0.165901
2436.000000	0.178614
2437.000000	0.197791
2438.000000	0.206571
2439.000000	0.210802
2440.000000	0.201883
2441.000000	0.205315
2442.000000	0.210148
2443.000000	0.216709
2444.000000	0.227999
2445.000000	0.214944
2446.000000	0.205542
2447.000000	0.197890
2448.000000	0.189927
2449.000000	0.197612
2450.000000	0.200310
2451.000000	0.196609
2452.000000	0.195633
2453.000000	0.193402
2454.000000	0.191444
2455.000000	0.182211
2456.000000	0.164732
2457.000000	0.148838
2458.000000	0.137974
2459.000000	0.152321
2460.000000	0.174902
2461.000000	0.180896
2462.000000	0.175639
2463.000000	0.151764
2464.000000	0.138495
2465.000000	0.162259
2466.000000	0.183641
2467.000000	0.184506
2468.000000	0.171572
2469.000000	0.140190
2470.000000	0.118720
2471.000000	0.122400
2472.000000	0.149749
2473.000000	0.175075
2474.000000	0.175154
2475.000000	0.161780
2476.000000	0.135979
2477.000000	0.111047
2478.000000	0.108675
2479.000000	0.145159
2480.000000	0.174173
2481.000000	0.157297
2482.000000	0.147569
2483.000000	0.136926
2484.000000	0.129935
2485.000000	0.166709
2486.000000	0.204634
2487.000000	0.208626
2488.000000	0.177526
2489.000000	0.155557
2490.000000	0.129620
2491.000000	0.126342
2492.000000	0.136365
2493.000000	0.169573
2494.000000	0.182117
2495.000000	0.198489
2496.000000	0.188777
2497.000000	0.131627
2498.000000	0.112842
2499.000000	0.094446
2500.000000	0.098786
