# Wavelength	NAu-2-50_HEX-30_FV7-20_000000001.asd.rts.txt
350.000000	0.109315
351.000000	0.106988
352.000000	0.114929
353.000000	0.115035
354.000000	0.104413
355.000000	0.104032
356.000000	0.105678
357.000000	0.106685
358.000000	0.105831
359.000000	0.107418
360.000000	0.108818
361.000000	0.106891
362.000000	0.108847
363.000000	0.108819
364.000000	0.104510
365.000000	0.105530
366.000000	0.105858
367.000000	0.104576
368.000000	0.105224
369.000000	0.106178
370.000000	0.106754
371.000000	0.106648
372.000000	0.106890
373.000000	0.107074
374.000000	0.107144
375.000000	0.107558
376.000000	0.107608
377.000000	0.107362
378.000000	0.107758
379.000000	0.108884
380.000000	0.109637
381.000000	0.109170
382.000000	0.108905
383.000000	0.108848
384.000000	0.108847
385.000000	0.108296
386.000000	0.108526
387.000000	0.109467
388.000000	0.109262
389.000000	0.110449
390.000000	0.111988
391.000000	0.111662
392.000000	0.110613
393.000000	0.110337
394.000000	0.111457
395.000000	0.111926
396.000000	0.112310
397.000000	0.112694
398.000000	0.112463
399.000000	0.112215
400.000000	0.112349
401.000000	0.113061
402.000000	0.113259
403.000000	0.113317
404.000000	0.113730
405.000000	0.113992
406.000000	0.114188
407.000000	0.114376
408.000000	0.114396
409.000000	0.114812
410.000000	0.115247
411.000000	0.114768
412.000000	0.115021
413.000000	0.115494
414.000000	0.115450
415.000000	0.115864
416.000000	0.116164
417.000000	0.116184
418.000000	0.116943
419.000000	0.117534
420.000000	0.117737
421.000000	0.117849
422.000000	0.118139
423.000000	0.118521
424.000000	0.118833
425.000000	0.119160
426.000000	0.119472
427.000000	0.119749
428.000000	0.120064
429.000000	0.120424
430.000000	0.120820
431.000000	0.121219
432.000000	0.121443
433.000000	0.121560
434.000000	0.121821
435.000000	0.122263
436.000000	0.122645
437.000000	0.122778
438.000000	0.123054
439.000000	0.123351
440.000000	0.123643
441.000000	0.123997
442.000000	0.124187
443.000000	0.124312
444.000000	0.124794
445.000000	0.125045
446.000000	0.125250
447.000000	0.125655
448.000000	0.125993
449.000000	0.126372
450.000000	0.126846
451.000000	0.127185
452.000000	0.127671
453.000000	0.128252
454.000000	0.128601
455.000000	0.128904
456.000000	0.129325
457.000000	0.129898
458.000000	0.130182
459.000000	0.130383
460.000000	0.130766
461.000000	0.131172
462.000000	0.131630
463.000000	0.132056
464.000000	0.132402
465.000000	0.132811
466.000000	0.133187
467.000000	0.133359
468.000000	0.133606
469.000000	0.133930
470.000000	0.134335
471.000000	0.134712
472.000000	0.135022
473.000000	0.135294
474.000000	0.135622
475.000000	0.136029
476.000000	0.136489
477.000000	0.136710
478.000000	0.136937
479.000000	0.137303
480.000000	0.137702
481.000000	0.137995
482.000000	0.138295
483.000000	0.138602
484.000000	0.138919
485.000000	0.139170
486.000000	0.139415
487.000000	0.139620
488.000000	0.139902
489.000000	0.140227
490.000000	0.140442
491.000000	0.140621
492.000000	0.140790
493.000000	0.140897
494.000000	0.141053
495.000000	0.141199
496.000000	0.141287
497.000000	0.141450
498.000000	0.141577
499.000000	0.141675
500.000000	0.141768
501.000000	0.141911
502.000000	0.142064
503.000000	0.142108
504.000000	0.142272
505.000000	0.142512
506.000000	0.142748
507.000000	0.142999
508.000000	0.143309
509.000000	0.143662
510.000000	0.144015
511.000000	0.144311
512.000000	0.144602
513.000000	0.145002
514.000000	0.145427
515.000000	0.145828
516.000000	0.146149
517.000000	0.146600
518.000000	0.147018
519.000000	0.147277
520.000000	0.147753
521.000000	0.148255
522.000000	0.148717
523.000000	0.149252
524.000000	0.149846
525.000000	0.150496
526.000000	0.151225
527.000000	0.152056
528.000000	0.152955
529.000000	0.153912
530.000000	0.154927
531.000000	0.156047
532.000000	0.157238
533.000000	0.158474
534.000000	0.159728
535.000000	0.160975
536.000000	0.162219
537.000000	0.163498
538.000000	0.164768
539.000000	0.165952
540.000000	0.167127
541.000000	0.168279
542.000000	0.169402
543.000000	0.170448
544.000000	0.171488
545.000000	0.172523
546.000000	0.173583
547.000000	0.174630
548.000000	0.175714
549.000000	0.176889
550.000000	0.178094
551.000000	0.179350
552.000000	0.180664
553.000000	0.182083
554.000000	0.183592
555.000000	0.185173
556.000000	0.186809
557.000000	0.188451
558.000000	0.190175
559.000000	0.191979
560.000000	0.193762
561.000000	0.195557
562.000000	0.197353
563.000000	0.199103
564.000000	0.200825
565.000000	0.202469
566.000000	0.204056
567.000000	0.205572
568.000000	0.206988
569.000000	0.208305
570.000000	0.209505
571.000000	0.210604
572.000000	0.211676
573.000000	0.212600
574.000000	0.213387
575.000000	0.214127
576.000000	0.214754
577.000000	0.215313
578.000000	0.215872
579.000000	0.216284
580.000000	0.216624
581.000000	0.216926
582.000000	0.217166
583.000000	0.217319
584.000000	0.217391
585.000000	0.217413
586.000000	0.217384
587.000000	0.217280
588.000000	0.217086
589.000000	0.216870
590.000000	0.216605
591.000000	0.216274
592.000000	0.215872
593.000000	0.215476
594.000000	0.215081
595.000000	0.214603
596.000000	0.214130
597.000000	0.213666
598.000000	0.213111
599.000000	0.212544
600.000000	0.211992
601.000000	0.211411
602.000000	0.210835
603.000000	0.210272
604.000000	0.209709
605.000000	0.209063
606.000000	0.208450
607.000000	0.207846
608.000000	0.207141
609.000000	0.206474
610.000000	0.205862
611.000000	0.205285
612.000000	0.204723
613.000000	0.204178
614.000000	0.203670
615.000000	0.203161
616.000000	0.202674
617.000000	0.202187
618.000000	0.201695
619.000000	0.201230
620.000000	0.200779
621.000000	0.200356
622.000000	0.199952
623.000000	0.199565
624.000000	0.199194
625.000000	0.198853
626.000000	0.198547
627.000000	0.198258
628.000000	0.197907
629.000000	0.197611
630.000000	0.197300
631.000000	0.196999
632.000000	0.196738
633.000000	0.196504
634.000000	0.196270
635.000000	0.196031
636.000000	0.195829
637.000000	0.195674
638.000000	0.195559
639.000000	0.195466
640.000000	0.195406
641.000000	0.195300
642.000000	0.195248
643.000000	0.195255
644.000000	0.195295
645.000000	0.195324
646.000000	0.195378
647.000000	0.195468
648.000000	0.195590
649.000000	0.195734
650.000000	0.195898
651.000000	0.196141
652.000000	0.196360
653.000000	0.196590
654.000000	0.196868
655.000000	0.197173
656.000000	0.197517
657.000000	0.197875
658.000000	0.198289
659.000000	0.198709
660.000000	0.199116
661.000000	0.199583
662.000000	0.200052
663.000000	0.200560
664.000000	0.201129
665.000000	0.201722
666.000000	0.202354
667.000000	0.203022
668.000000	0.203707
669.000000	0.204398
670.000000	0.205109
671.000000	0.205898
672.000000	0.206712
673.000000	0.207552
674.000000	0.208471
675.000000	0.209371
676.000000	0.210290
677.000000	0.211306
678.000000	0.212337
679.000000	0.213379
680.000000	0.214450
681.000000	0.215550
682.000000	0.216726
683.000000	0.217930
684.000000	0.219184
685.000000	0.220443
686.000000	0.221740
687.000000	0.223087
688.000000	0.224451
689.000000	0.225839
690.000000	0.227289
691.000000	0.228795
692.000000	0.230296
693.000000	0.231836
694.000000	0.233453
695.000000	0.235071
696.000000	0.236705
697.000000	0.238395
698.000000	0.240082
699.000000	0.241802
700.000000	0.243594
701.000000	0.245432
702.000000	0.247307
703.000000	0.249194
704.000000	0.251087
705.000000	0.253047
706.000000	0.255021
707.000000	0.256995
708.000000	0.259018
709.000000	0.261063
710.000000	0.263121
711.000000	0.265199
712.000000	0.267271
713.000000	0.269349
714.000000	0.271461
715.000000	0.273596
716.000000	0.275751
717.000000	0.277900
718.000000	0.280097
719.000000	0.282294
720.000000	0.284468
721.000000	0.286695
722.000000	0.288908
723.000000	0.291141
724.000000	0.293394
725.000000	0.295631
726.000000	0.297899
727.000000	0.300114
728.000000	0.302305
729.000000	0.304498
730.000000	0.306658
731.000000	0.308823
732.000000	0.310990
733.000000	0.313168
734.000000	0.315262
735.000000	0.317334
736.000000	0.319452
737.000000	0.321430
738.000000	0.323402
739.000000	0.325397
740.000000	0.327256
741.000000	0.329132
742.000000	0.331006
743.000000	0.332838
744.000000	0.334654
745.000000	0.336409
746.000000	0.338167
747.000000	0.339912
748.000000	0.341645
749.000000	0.343338
750.000000	0.344947
751.000000	0.346536
752.000000	0.348076
753.000000	0.349574
754.000000	0.351032
755.000000	0.352447
756.000000	0.353832
757.000000	0.355148
758.000000	0.356400
759.000000	0.357627
760.000000	0.358772
761.000000	0.359897
762.000000	0.361010
763.000000	0.362076
764.000000	0.363123
765.000000	0.364109
766.000000	0.365049
767.000000	0.365954
768.000000	0.366852
769.000000	0.367694
770.000000	0.368476
771.000000	0.369252
772.000000	0.370025
773.000000	0.370732
774.000000	0.371439
775.000000	0.372110
776.000000	0.372760
777.000000	0.373381
778.000000	0.373979
779.000000	0.374543
780.000000	0.375065
781.000000	0.375510
782.000000	0.375966
783.000000	0.376509
784.000000	0.376973
785.000000	0.377355
786.000000	0.377702
787.000000	0.378035
788.000000	0.378344
789.000000	0.378621
790.000000	0.378869
791.000000	0.379150
792.000000	0.379404
793.000000	0.379610
794.000000	0.379776
795.000000	0.379957
796.000000	0.380130
797.000000	0.380265
798.000000	0.380335
799.000000	0.380395
800.000000	0.380502
801.000000	0.380692
802.000000	0.380862
803.000000	0.380991
804.000000	0.381101
805.000000	0.381091
806.000000	0.381085
807.000000	0.381152
808.000000	0.381145
809.000000	0.381166
810.000000	0.381159
811.000000	0.381075
812.000000	0.381012
813.000000	0.380986
814.000000	0.380979
815.000000	0.380963
816.000000	0.380855
817.000000	0.380720
818.000000	0.380563
819.000000	0.380551
820.000000	0.380572
821.000000	0.380508
822.000000	0.380435
823.000000	0.380369
824.000000	0.380248
825.000000	0.380134
826.000000	0.380040
827.000000	0.379902
828.000000	0.379738
829.000000	0.379559
830.000000	0.379275
831.000000	0.379013
832.000000	0.378796
833.000000	0.378573
834.000000	0.378357
835.000000	0.378201
836.000000	0.378069
837.000000	0.377955
838.000000	0.377866
839.000000	0.377763
840.000000	0.377545
841.000000	0.377312
842.000000	0.377120
843.000000	0.376966
844.000000	0.376814
845.000000	0.376603
846.000000	0.376338
847.000000	0.376100
848.000000	0.375842
849.000000	0.375547
850.000000	0.375256
851.000000	0.374998
852.000000	0.374827
853.000000	0.374700
854.000000	0.374443
855.000000	0.374182
856.000000	0.373896
857.000000	0.373597
858.000000	0.373381
859.000000	0.373172
860.000000	0.372908
861.000000	0.372606
862.000000	0.372342
863.000000	0.372097
864.000000	0.371793
865.000000	0.371516
866.000000	0.371304
867.000000	0.370980
868.000000	0.370690
869.000000	0.370404
870.000000	0.370162
871.000000	0.369873
872.000000	0.369541
873.000000	0.369147
874.000000	0.368888
875.000000	0.368576
876.000000	0.368229
877.000000	0.367866
878.000000	0.367511
879.000000	0.367257
880.000000	0.366978
881.000000	0.366739
882.000000	0.366473
883.000000	0.366213
884.000000	0.365937
885.000000	0.365611
886.000000	0.365258
887.000000	0.364930
888.000000	0.364627
889.000000	0.364280
890.000000	0.363864
891.000000	0.363619
892.000000	0.363305
893.000000	0.362957
894.000000	0.362721
895.000000	0.362401
896.000000	0.361996
897.000000	0.361620
898.000000	0.361385
899.000000	0.361095
900.000000	0.360765
901.000000	0.360389
902.000000	0.360075
903.000000	0.359712
904.000000	0.359383
905.000000	0.359075
906.000000	0.358853
907.000000	0.358593
908.000000	0.358309
909.000000	0.357966
910.000000	0.357650
911.000000	0.357357
912.000000	0.357063
913.000000	0.356676
914.000000	0.356293
915.000000	0.356025
916.000000	0.355778
917.000000	0.355461
918.000000	0.355124
919.000000	0.354809
920.000000	0.354563
921.000000	0.354290
922.000000	0.353976
923.000000	0.353631
924.000000	0.353409
925.000000	0.353170
926.000000	0.352879
927.000000	0.352594
928.000000	0.352338
929.000000	0.352064
930.000000	0.351722
931.000000	0.351369
932.000000	0.350992
933.000000	0.350680
934.000000	0.350497
935.000000	0.350224
936.000000	0.349914
937.000000	0.349567
938.000000	0.349348
939.000000	0.349171
940.000000	0.348932
941.000000	0.348704
942.000000	0.348340
943.000000	0.348028
944.000000	0.347741
945.000000	0.347491
946.000000	0.347342
947.000000	0.347205
948.000000	0.346915
949.000000	0.346705
950.000000	0.346455
951.000000	0.346122
952.000000	0.345888
953.000000	0.345632
954.000000	0.345402
955.000000	0.345169
956.000000	0.344979
957.000000	0.344757
958.000000	0.344469
959.000000	0.344241
960.000000	0.343986
961.000000	0.343801
962.000000	0.343644
963.000000	0.343378
964.000000	0.343142
965.000000	0.342983
966.000000	0.342777
967.000000	0.342601
968.000000	0.342366
969.000000	0.342093
970.000000	0.341978
971.000000	0.341811
972.000000	0.341647
973.000000	0.341421
974.000000	0.341128
975.000000	0.340859
976.000000	0.340696
977.000000	0.340639
978.000000	0.340527
979.000000	0.340525
980.000000	0.340386
981.000000	0.340273
982.000000	0.340172
983.000000	0.339989
984.000000	0.339830
985.000000	0.339823
986.000000	0.339849
987.000000	0.339843
988.000000	0.339669
989.000000	0.339494
990.000000	0.339338
991.000000	0.339258
992.000000	0.339313
993.000000	0.339276
994.000000	0.339157
995.000000	0.339151
996.000000	0.339107
997.000000	0.339025
998.000000	0.338944
999.000000	0.338946
1000.000000	0.338880
1001.000000	0.339287
1002.000000	0.338892
1003.000000	0.338591
1004.000000	0.338473
1005.000000	0.338388
1006.000000	0.338235
1007.000000	0.338253
1008.000000	0.338326
1009.000000	0.338213
1010.000000	0.338097
1011.000000	0.338326
1012.000000	0.338547
1013.000000	0.338534
1014.000000	0.338599
1015.000000	0.338592
1016.000000	0.338620
1017.000000	0.338627
1018.000000	0.338665
1019.000000	0.338748
1020.000000	0.339121
1021.000000	0.338827
1022.000000	0.338308
1023.000000	0.338411
1024.000000	0.338372
1025.000000	0.338409
1026.000000	0.338892
1027.000000	0.339320
1028.000000	0.339204
1029.000000	0.339212
1030.000000	0.339427
1031.000000	0.339324
1032.000000	0.339341
1033.000000	0.339535
1034.000000	0.339669
1035.000000	0.339763
1036.000000	0.339898
1037.000000	0.340189
1038.000000	0.340211
1039.000000	0.340150
1040.000000	0.340259
1041.000000	0.340310
1042.000000	0.340202
1043.000000	0.340338
1044.000000	0.340560
1045.000000	0.340786
1046.000000	0.341019
1047.000000	0.341330
1048.000000	0.341721
1049.000000	0.341916
1050.000000	0.342137
1051.000000	0.342248
1052.000000	0.342035
1053.000000	0.342011
1054.000000	0.342157
1055.000000	0.342416
1056.000000	0.342836
1057.000000	0.343384
1058.000000	0.343557
1059.000000	0.343592
1060.000000	0.343811
1061.000000	0.343981
1062.000000	0.344231
1063.000000	0.344726
1064.000000	0.345018
1065.000000	0.345020
1066.000000	0.345256
1067.000000	0.345525
1068.000000	0.345799
1069.000000	0.346170
1070.000000	0.346420
1071.000000	0.346628
1072.000000	0.346901
1073.000000	0.347239
1074.000000	0.347572
1075.000000	0.347763
1076.000000	0.348039
1077.000000	0.348098
1078.000000	0.347967
1079.000000	0.348197
1080.000000	0.348694
1081.000000	0.348993
1082.000000	0.349533
1083.000000	0.349896
1084.000000	0.350065
1085.000000	0.350385
1086.000000	0.350816
1087.000000	0.351114
1088.000000	0.351255
1089.000000	0.351429
1090.000000	0.351519
1091.000000	0.351542
1092.000000	0.351753
1093.000000	0.352092
1094.000000	0.352244
1095.000000	0.352211
1096.000000	0.352478
1097.000000	0.352816
1098.000000	0.353098
1099.000000	0.353494
1100.000000	0.353865
1101.000000	0.354053
1102.000000	0.354307
1103.000000	0.354634
1104.000000	0.354964
1105.000000	0.355264
1106.000000	0.355555
1107.000000	0.355821
1108.000000	0.356075
1109.000000	0.356420
1110.000000	0.356629
1111.000000	0.356848
1112.000000	0.357060
1113.000000	0.357322
1114.000000	0.357576
1115.000000	0.357807
1116.000000	0.358103
1117.000000	0.358326
1118.000000	0.358408
1119.000000	0.358555
1120.000000	0.358819
1121.000000	0.358929
1122.000000	0.358957
1123.000000	0.359338
1124.000000	0.359580
1125.000000	0.359831
1126.000000	0.360250
1127.000000	0.360472
1128.000000	0.360579
1129.000000	0.360485
1130.000000	0.360657
1131.000000	0.360893
1132.000000	0.361037
1133.000000	0.361328
1134.000000	0.361539
1135.000000	0.361591
1136.000000	0.361671
1137.000000	0.361819
1138.000000	0.361830
1139.000000	0.361725
1140.000000	0.361868
1141.000000	0.362086
1142.000000	0.362224
1143.000000	0.362367
1144.000000	0.362613
1145.000000	0.362695
1146.000000	0.362599
1147.000000	0.362596
1148.000000	0.362496
1149.000000	0.362521
1150.000000	0.362558
1151.000000	0.362682
1152.000000	0.362877
1153.000000	0.363028
1154.000000	0.363152
1155.000000	0.363238
1156.000000	0.363285
1157.000000	0.363390
1158.000000	0.363435
1159.000000	0.363518
1160.000000	0.363647
1161.000000	0.363738
1162.000000	0.363840
1163.000000	0.364128
1164.000000	0.364283
1165.000000	0.364433
1166.000000	0.364606
1167.000000	0.364720
1168.000000	0.364834
1169.000000	0.365016
1170.000000	0.365147
1171.000000	0.365291
1172.000000	0.365455
1173.000000	0.365548
1174.000000	0.365671
1175.000000	0.365805
1176.000000	0.365873
1177.000000	0.366011
1178.000000	0.366116
1179.000000	0.366150
1180.000000	0.366163
1181.000000	0.366263
1182.000000	0.366330
1183.000000	0.366442
1184.000000	0.366661
1185.000000	0.366783
1186.000000	0.366891
1187.000000	0.366998
1188.000000	0.367061
1189.000000	0.367126
1190.000000	0.367271
1191.000000	0.367369
1192.000000	0.367525
1193.000000	0.367777
1194.000000	0.367932
1195.000000	0.368109
1196.000000	0.368283
1197.000000	0.368421
1198.000000	0.368554
1199.000000	0.368691
1200.000000	0.368795
1201.000000	0.368892
1202.000000	0.369033
1203.000000	0.369203
1204.000000	0.369358
1205.000000	0.369568
1206.000000	0.369669
1207.000000	0.369820
1208.000000	0.369907
1209.000000	0.369990
1210.000000	0.370099
1211.000000	0.370239
1212.000000	0.370305
1213.000000	0.370371
1214.000000	0.370494
1215.000000	0.370584
1216.000000	0.370674
1217.000000	0.370758
1218.000000	0.370840
1219.000000	0.370939
1220.000000	0.371058
1221.000000	0.371178
1222.000000	0.371283
1223.000000	0.371337
1224.000000	0.371427
1225.000000	0.371488
1226.000000	0.371601
1227.000000	0.371702
1228.000000	0.371798
1229.000000	0.371832
1230.000000	0.371789
1231.000000	0.371783
1232.000000	0.371878
1233.000000	0.372079
1234.000000	0.372376
1235.000000	0.372572
1236.000000	0.372649
1237.000000	0.372823
1238.000000	0.372930
1239.000000	0.373056
1240.000000	0.373251
1241.000000	0.373397
1242.000000	0.373481
1243.000000	0.373594
1244.000000	0.373701
1245.000000	0.373884
1246.000000	0.374007
1247.000000	0.374168
1248.000000	0.374355
1249.000000	0.374518
1250.000000	0.374676
1251.000000	0.374822
1252.000000	0.374936
1253.000000	0.375037
1254.000000	0.375132
1255.000000	0.375201
1256.000000	0.375299
1257.000000	0.375427
1258.000000	0.375579
1259.000000	0.375675
1260.000000	0.375838
1261.000000	0.375959
1262.000000	0.376085
1263.000000	0.376254
1264.000000	0.376419
1265.000000	0.376579
1266.000000	0.376715
1267.000000	0.376831
1268.000000	0.376955
1269.000000	0.377030
1270.000000	0.377201
1271.000000	0.377353
1272.000000	0.377505
1273.000000	0.377741
1274.000000	0.377913
1275.000000	0.378082
1276.000000	0.378330
1277.000000	0.378556
1278.000000	0.378648
1279.000000	0.378732
1280.000000	0.378715
1281.000000	0.378703
1282.000000	0.378697
1283.000000	0.378818
1284.000000	0.378922
1285.000000	0.379024
1286.000000	0.379133
1287.000000	0.379246
1288.000000	0.379399
1289.000000	0.379472
1290.000000	0.379497
1291.000000	0.379555
1292.000000	0.379618
1293.000000	0.379724
1294.000000	0.379764
1295.000000	0.379827
1296.000000	0.379874
1297.000000	0.379888
1298.000000	0.380096
1299.000000	0.380296
1300.000000	0.380432
1301.000000	0.380588
1302.000000	0.380638
1303.000000	0.380723
1304.000000	0.380744
1305.000000	0.380812
1306.000000	0.380859
1307.000000	0.380964
1308.000000	0.381051
1309.000000	0.381095
1310.000000	0.381158
1311.000000	0.381271
1312.000000	0.381266
1313.000000	0.381264
1314.000000	0.381274
1315.000000	0.381176
1316.000000	0.381148
1317.000000	0.381177
1318.000000	0.381206
1319.000000	0.381169
1320.000000	0.381146
1321.000000	0.381121
1322.000000	0.381063
1323.000000	0.381080
1324.000000	0.381121
1325.000000	0.381057
1326.000000	0.381008
1327.000000	0.380996
1328.000000	0.381000
1329.000000	0.380908
1330.000000	0.380806
1331.000000	0.380720
1332.000000	0.380634
1333.000000	0.380546
1334.000000	0.380540
1335.000000	0.380551
1336.000000	0.380566
1337.000000	0.380530
1338.000000	0.380446
1339.000000	0.380332
1340.000000	0.380198
1341.000000	0.380096
1342.000000	0.380004
1343.000000	0.379929
1344.000000	0.379794
1345.000000	0.379595
1346.000000	0.379539
1347.000000	0.379390
1348.000000	0.379284
1349.000000	0.379135
1350.000000	0.378959
1351.000000	0.378740
1352.000000	0.378485
1353.000000	0.378267
1354.000000	0.378125
1355.000000	0.377971
1356.000000	0.377834
1357.000000	0.377649
1358.000000	0.377433
1359.000000	0.377158
1360.000000	0.376969
1361.000000	0.376903
1362.000000	0.376763
1363.000000	0.376602
1364.000000	0.376506
1365.000000	0.376374
1366.000000	0.376241
1367.000000	0.376151
1368.000000	0.375988
1369.000000	0.375926
1370.000000	0.375769
1371.000000	0.375500
1372.000000	0.375264
1373.000000	0.374916
1374.000000	0.374503
1375.000000	0.374171
1376.000000	0.373904
1377.000000	0.373563
1378.000000	0.373179
1379.000000	0.372642
1380.000000	0.371979
1381.000000	0.371237
1382.000000	0.370438
1383.000000	0.369694
1384.000000	0.368834
1385.000000	0.367936
1386.000000	0.367067
1387.000000	0.366075
1388.000000	0.364973
1389.000000	0.363799
1390.000000	0.362561
1391.000000	0.361145
1392.000000	0.359729
1393.000000	0.358184
1394.000000	0.356546
1395.000000	0.354875
1396.000000	0.353171
1397.000000	0.351293
1398.000000	0.349239
1399.000000	0.347288
1400.000000	0.345187
1401.000000	0.343212
1402.000000	0.341371
1403.000000	0.339510
1404.000000	0.337826
1405.000000	0.336156
1406.000000	0.334502
1407.000000	0.333061
1408.000000	0.331558
1409.000000	0.330238
1410.000000	0.329164
1411.000000	0.328071
1412.000000	0.327067
1413.000000	0.326189
1414.000000	0.325357
1415.000000	0.324633
1416.000000	0.323990
1417.000000	0.323394
1418.000000	0.322773
1419.000000	0.322260
1420.000000	0.321743
1421.000000	0.321296
1422.000000	0.320903
1423.000000	0.320520
1424.000000	0.320035
1425.000000	0.319600
1426.000000	0.319134
1427.000000	0.318679
1428.000000	0.318315
1429.000000	0.317927
1430.000000	0.317598
1431.000000	0.317336
1432.000000	0.317018
1433.000000	0.316728
1434.000000	0.316441
1435.000000	0.316160
1436.000000	0.315953
1437.000000	0.315783
1438.000000	0.315646
1439.000000	0.315555
1440.000000	0.315598
1441.000000	0.315722
1442.000000	0.315958
1443.000000	0.316243
1444.000000	0.316651
1445.000000	0.317120
1446.000000	0.317623
1447.000000	0.318177
1448.000000	0.318758
1449.000000	0.319319
1450.000000	0.319897
1451.000000	0.320490
1452.000000	0.320964
1453.000000	0.321405
1454.000000	0.321775
1455.000000	0.322089
1456.000000	0.322483
1457.000000	0.322864
1458.000000	0.323225
1459.000000	0.323577
1460.000000	0.323868
1461.000000	0.324088
1462.000000	0.324292
1463.000000	0.324466
1464.000000	0.324625
1465.000000	0.324903
1466.000000	0.325205
1467.000000	0.325472
1468.000000	0.325789
1469.000000	0.326176
1470.000000	0.326474
1471.000000	0.326850
1472.000000	0.327258
1473.000000	0.327721
1474.000000	0.328172
1475.000000	0.328612
1476.000000	0.329099
1477.000000	0.329578
1478.000000	0.330038
1479.000000	0.330537
1480.000000	0.331072
1481.000000	0.331553
1482.000000	0.332048
1483.000000	0.332601
1484.000000	0.333168
1485.000000	0.333700
1486.000000	0.334227
1487.000000	0.334800
1488.000000	0.335401
1489.000000	0.335993
1490.000000	0.336507
1491.000000	0.337048
1492.000000	0.337509
1493.000000	0.338004
1494.000000	0.338501
1495.000000	0.338950
1496.000000	0.339363
1497.000000	0.339796
1498.000000	0.340241
1499.000000	0.340643
1500.000000	0.341112
1501.000000	0.341540
1502.000000	0.341928
1503.000000	0.342416
1504.000000	0.342846
1505.000000	0.343204
1506.000000	0.343591
1507.000000	0.343928
1508.000000	0.344326
1509.000000	0.344739
1510.000000	0.345080
1511.000000	0.345461
1512.000000	0.345747
1513.000000	0.346011
1514.000000	0.346374
1515.000000	0.346625
1516.000000	0.346910
1517.000000	0.347192
1518.000000	0.347364
1519.000000	0.347470
1520.000000	0.347628
1521.000000	0.347742
1522.000000	0.347905
1523.000000	0.348175
1524.000000	0.348352
1525.000000	0.348560
1526.000000	0.348777
1527.000000	0.348949
1528.000000	0.349223
1529.000000	0.349479
1530.000000	0.349596
1531.000000	0.349827
1532.000000	0.350079
1533.000000	0.350252
1534.000000	0.350494
1535.000000	0.350723
1536.000000	0.350822
1537.000000	0.350995
1538.000000	0.351199
1539.000000	0.351317
1540.000000	0.351481
1541.000000	0.351679
1542.000000	0.351828
1543.000000	0.352012
1544.000000	0.352183
1545.000000	0.352362
1546.000000	0.352511
1547.000000	0.352601
1548.000000	0.352706
1549.000000	0.352771
1550.000000	0.352811
1551.000000	0.352875
1552.000000	0.352940
1553.000000	0.352978
1554.000000	0.353038
1555.000000	0.353164
1556.000000	0.353339
1557.000000	0.353480
1558.000000	0.353629
1559.000000	0.353736
1560.000000	0.353829
1561.000000	0.353940
1562.000000	0.353994
1563.000000	0.354061
1564.000000	0.354138
1565.000000	0.354183
1566.000000	0.354167
1567.000000	0.354250
1568.000000	0.354298
1569.000000	0.354366
1570.000000	0.354415
1571.000000	0.354464
1572.000000	0.354479
1573.000000	0.354438
1574.000000	0.354468
1575.000000	0.354532
1576.000000	0.354639
1577.000000	0.354818
1578.000000	0.354887
1579.000000	0.354988
1580.000000	0.355069
1581.000000	0.355157
1582.000000	0.355226
1583.000000	0.355310
1584.000000	0.355326
1585.000000	0.355363
1586.000000	0.355434
1587.000000	0.355499
1588.000000	0.355548
1589.000000	0.355638
1590.000000	0.355678
1591.000000	0.355706
1592.000000	0.355756
1593.000000	0.355841
1594.000000	0.355850
1595.000000	0.355887
1596.000000	0.355890
1597.000000	0.355834
1598.000000	0.355828
1599.000000	0.355884
1600.000000	0.355895
1601.000000	0.356003
1602.000000	0.356062
1603.000000	0.356123
1604.000000	0.356164
1605.000000	0.356216
1606.000000	0.356254
1607.000000	0.356327
1608.000000	0.356380
1609.000000	0.356480
1610.000000	0.356543
1611.000000	0.356604
1612.000000	0.356683
1613.000000	0.356899
1614.000000	0.356994
1615.000000	0.357112
1616.000000	0.357256
1617.000000	0.357293
1618.000000	0.357361
1619.000000	0.357438
1620.000000	0.357522
1621.000000	0.357627
1622.000000	0.357795
1623.000000	0.357982
1624.000000	0.358125
1625.000000	0.358112
1626.000000	0.358119
1627.000000	0.358107
1628.000000	0.358203
1629.000000	0.358344
1630.000000	0.358486
1631.000000	0.358607
1632.000000	0.358698
1633.000000	0.358778
1634.000000	0.358893
1635.000000	0.359065
1636.000000	0.359214
1637.000000	0.359406
1638.000000	0.359528
1639.000000	0.359690
1640.000000	0.359794
1641.000000	0.359904
1642.000000	0.360022
1643.000000	0.360163
1644.000000	0.360294
1645.000000	0.360420
1646.000000	0.360503
1647.000000	0.360596
1648.000000	0.360677
1649.000000	0.360852
1650.000000	0.361010
1651.000000	0.361193
1652.000000	0.361403
1653.000000	0.361571
1654.000000	0.361775
1655.000000	0.361958
1656.000000	0.362047
1657.000000	0.362177
1658.000000	0.362289
1659.000000	0.362496
1660.000000	0.362677
1661.000000	0.362742
1662.000000	0.362856
1663.000000	0.362914
1664.000000	0.363030
1665.000000	0.363204
1666.000000	0.363422
1667.000000	0.363572
1668.000000	0.363754
1669.000000	0.363932
1670.000000	0.364061
1671.000000	0.364324
1672.000000	0.364539
1673.000000	0.364685
1674.000000	0.364863
1675.000000	0.365040
1676.000000	0.365202
1677.000000	0.365324
1678.000000	0.365364
1679.000000	0.365400
1680.000000	0.365414
1681.000000	0.365403
1682.000000	0.365463
1683.000000	0.365558
1684.000000	0.365563
1685.000000	0.365623
1686.000000	0.365630
1687.000000	0.365599
1688.000000	0.365612
1689.000000	0.365641
1690.000000	0.365618
1691.000000	0.365705
1692.000000	0.365751
1693.000000	0.365746
1694.000000	0.365756
1695.000000	0.365799
1696.000000	0.365818
1697.000000	0.365786
1698.000000	0.365772
1699.000000	0.365825
1700.000000	0.365914
1701.000000	0.366059
1702.000000	0.366087
1703.000000	0.366061
1704.000000	0.366054
1705.000000	0.366085
1706.000000	0.366176
1707.000000	0.366266
1708.000000	0.366369
1709.000000	0.366383
1710.000000	0.366443
1711.000000	0.366538
1712.000000	0.366675
1713.000000	0.366745
1714.000000	0.366837
1715.000000	0.366946
1716.000000	0.367066
1717.000000	0.367109
1718.000000	0.367118
1719.000000	0.367089
1720.000000	0.366976
1721.000000	0.366971
1722.000000	0.367036
1723.000000	0.367089
1724.000000	0.367229
1725.000000	0.367318
1726.000000	0.367264
1727.000000	0.367299
1728.000000	0.367291
1729.000000	0.367228
1730.000000	0.367314
1731.000000	0.367380
1732.000000	0.367436
1733.000000	0.367547
1734.000000	0.367562
1735.000000	0.367607
1736.000000	0.367609
1737.000000	0.367609
1738.000000	0.367649
1739.000000	0.367664
1740.000000	0.367614
1741.000000	0.367608
1742.000000	0.367633
1743.000000	0.367732
1744.000000	0.367853
1745.000000	0.367915
1746.000000	0.367994
1747.000000	0.368039
1748.000000	0.368011
1749.000000	0.367967
1750.000000	0.367905
1751.000000	0.367930
1752.000000	0.368045
1753.000000	0.368072
1754.000000	0.368090
1755.000000	0.368039
1756.000000	0.368006
1757.000000	0.368003
1758.000000	0.367970
1759.000000	0.367899
1760.000000	0.367843
1761.000000	0.367685
1762.000000	0.367596
1763.000000	0.367623
1764.000000	0.367571
1765.000000	0.367416
1766.000000	0.367388
1767.000000	0.367303
1768.000000	0.367204
1769.000000	0.367328
1770.000000	0.367345
1771.000000	0.367208
1772.000000	0.367132
1773.000000	0.366949
1774.000000	0.366930
1775.000000	0.367081
1776.000000	0.367147
1777.000000	0.367244
1778.000000	0.367283
1779.000000	0.367234
1780.000000	0.367230
1781.000000	0.367227
1782.000000	0.367160
1783.000000	0.367073
1784.000000	0.367141
1785.000000	0.367083
1786.000000	0.367138
1787.000000	0.367340
1788.000000	0.367444
1789.000000	0.367535
1790.000000	0.367619
1791.000000	0.367641
1792.000000	0.367724
1793.000000	0.367781
1794.000000	0.367840
1795.000000	0.367929
1796.000000	0.367996
1797.000000	0.368058
1798.000000	0.368114
1799.000000	0.368171
1800.000000	0.368288
1801.000000	0.368109
1802.000000	0.368291
1803.000000	0.368172
1804.000000	0.368313
1805.000000	0.368538
1806.000000	0.368712
1807.000000	0.368994
1808.000000	0.369155
1809.000000	0.369229
1810.000000	0.369159
1811.000000	0.369289
1812.000000	0.369497
1813.000000	0.369600
1814.000000	0.369947
1815.000000	0.369961
1816.000000	0.369716
1817.000000	0.369388
1818.000000	0.368880
1819.000000	0.368533
1820.000000	0.368541
1821.000000	0.368398
1822.000000	0.368233
1823.000000	0.368062
1824.000000	0.367920
1825.000000	0.367462
1826.000000	0.367436
1827.000000	0.367658
1828.000000	0.367788
1829.000000	0.367814
1830.000000	0.367733
1831.000000	0.367655
1832.000000	0.367265
1833.000000	0.367259
1834.000000	0.367689
1835.000000	0.367658
1836.000000	0.367395
1837.000000	0.367278
1838.000000	0.366994
1839.000000	0.366390
1840.000000	0.365997
1841.000000	0.365652
1842.000000	0.365372
1843.000000	0.364964
1844.000000	0.364724
1845.000000	0.364535
1846.000000	0.364476
1847.000000	0.364349
1848.000000	0.364204
1849.000000	0.364080
1850.000000	0.363942
1851.000000	0.363643
1852.000000	0.362990
1853.000000	0.362567
1854.000000	0.362049
1855.000000	0.361369
1856.000000	0.360466
1857.000000	0.359737
1858.000000	0.358845
1859.000000	0.357908
1860.000000	0.357083
1861.000000	0.355948
1862.000000	0.354697
1863.000000	0.353275
1864.000000	0.351985
1865.000000	0.350735
1866.000000	0.349350
1867.000000	0.347920
1868.000000	0.346457
1869.000000	0.344708
1870.000000	0.342627
1871.000000	0.340603
1872.000000	0.338376
1873.000000	0.336186
1874.000000	0.333904
1875.000000	0.331621
1876.000000	0.329179
1877.000000	0.326388
1878.000000	0.323507
1879.000000	0.320362
1880.000000	0.316937
1881.000000	0.313363
1882.000000	0.309333
1883.000000	0.305046
1884.000000	0.300809
1885.000000	0.296237
1886.000000	0.291375
1887.000000	0.286311
1888.000000	0.281140
1889.000000	0.275456
1890.000000	0.270196
1891.000000	0.265168
1892.000000	0.259685
1893.000000	0.254121
1894.000000	0.248619
1895.000000	0.243182
1896.000000	0.237776
1897.000000	0.232576
1898.000000	0.227621
1899.000000	0.223158
1900.000000	0.218910
1901.000000	0.214909
1902.000000	0.211291
1903.000000	0.207916
1904.000000	0.205030
1905.000000	0.202686
1906.000000	0.200687
1907.000000	0.199236
1908.000000	0.198189
1909.000000	0.197384
1910.000000	0.197028
1911.000000	0.196757
1912.000000	0.196477
1913.000000	0.196578
1914.000000	0.196551
1915.000000	0.196663
1916.000000	0.197237
1917.000000	0.197565
1918.000000	0.197911
1919.000000	0.198204
1920.000000	0.198605
1921.000000	0.199028
1922.000000	0.199289
1923.000000	0.199708
1924.000000	0.200295
1925.000000	0.200540
1926.000000	0.200958
1927.000000	0.201709
1928.000000	0.202163
1929.000000	0.202385
1930.000000	0.202911
1931.000000	0.203754
1932.000000	0.204260
1933.000000	0.205018
1934.000000	0.205674
1935.000000	0.206028
1936.000000	0.206540
1937.000000	0.206993
1938.000000	0.207354
1939.000000	0.207603
1940.000000	0.207712
1941.000000	0.207734
1942.000000	0.207891
1943.000000	0.207912
1944.000000	0.207969
1945.000000	0.208136
1946.000000	0.208270
1947.000000	0.208527
1948.000000	0.208771
1949.000000	0.208904
1950.000000	0.208990
1951.000000	0.208920
1952.000000	0.208750
1953.000000	0.208551
1954.000000	0.208496
1955.000000	0.208312
1956.000000	0.208211
1957.000000	0.208269
1958.000000	0.208094
1959.000000	0.208122
1960.000000	0.208239
1961.000000	0.208283
1962.000000	0.208331
1963.000000	0.208517
1964.000000	0.208552
1965.000000	0.208492
1966.000000	0.208569
1967.000000	0.208900
1968.000000	0.209417
1969.000000	0.209920
1970.000000	0.210399
1971.000000	0.210633
1972.000000	0.210808
1973.000000	0.211023
1974.000000	0.211345
1975.000000	0.211682
1976.000000	0.212090
1977.000000	0.212502
1978.000000	0.212825
1979.000000	0.213188
1980.000000	0.213745
1981.000000	0.214259
1982.000000	0.215011
1983.000000	0.215894
1984.000000	0.216484
1985.000000	0.217026
1986.000000	0.217537
1987.000000	0.217922
1988.000000	0.218242
1989.000000	0.218819
1990.000000	0.219476
1991.000000	0.220167
1992.000000	0.220932
1993.000000	0.221795
1994.000000	0.222736
1995.000000	0.223649
1996.000000	0.224698
1997.000000	0.225612
1998.000000	0.226543
1999.000000	0.227338
2000.000000	0.227976
2001.000000	0.228681
2002.000000	0.229506
2003.000000	0.230452
2004.000000	0.231497
2005.000000	0.232417
2006.000000	0.233354
2007.000000	0.234159
2008.000000	0.235177
2009.000000	0.236394
2010.000000	0.237522
2011.000000	0.238736
2012.000000	0.239732
2013.000000	0.240555
2014.000000	0.241117
2015.000000	0.241908
2016.000000	0.242822
2017.000000	0.244164
2018.000000	0.245528
2019.000000	0.246736
2020.000000	0.247891
2021.000000	0.248849
2022.000000	0.249464
2023.000000	0.250291
2024.000000	0.251121
2025.000000	0.251933
2026.000000	0.252642
2027.000000	0.253357
2028.000000	0.254086
2029.000000	0.254890
2030.000000	0.255827
2031.000000	0.256689
2032.000000	0.257618
2033.000000	0.258623
2034.000000	0.259508
2035.000000	0.260419
2036.000000	0.261270
2037.000000	0.262260
2038.000000	0.263134
2039.000000	0.263984
2040.000000	0.264899
2041.000000	0.265755
2042.000000	0.266513
2043.000000	0.267278
2044.000000	0.267794
2045.000000	0.268341
2046.000000	0.268871
2047.000000	0.269548
2048.000000	0.270385
2049.000000	0.271284
2050.000000	0.271923
2051.000000	0.272589
2052.000000	0.273175
2053.000000	0.273715
2054.000000	0.274420
2055.000000	0.275306
2056.000000	0.275984
2057.000000	0.276613
2058.000000	0.277307
2059.000000	0.277991
2060.000000	0.278469
2061.000000	0.278872
2062.000000	0.279269
2063.000000	0.279410
2064.000000	0.279703
2065.000000	0.280418
2066.000000	0.280838
2067.000000	0.281387
2068.000000	0.282005
2069.000000	0.282511
2070.000000	0.283229
2071.000000	0.283979
2072.000000	0.284745
2073.000000	0.285370
2074.000000	0.285901
2075.000000	0.286516
2076.000000	0.287071
2077.000000	0.287668
2078.000000	0.288315
2079.000000	0.288910
2080.000000	0.289594
2081.000000	0.290186
2082.000000	0.290717
2083.000000	0.291382
2084.000000	0.291775
2085.000000	0.292078
2086.000000	0.292562
2087.000000	0.292992
2088.000000	0.293675
2089.000000	0.294504
2090.000000	0.295184
2091.000000	0.295981
2092.000000	0.296572
2093.000000	0.296955
2094.000000	0.297465
2095.000000	0.297994
2096.000000	0.298542
2097.000000	0.299110
2098.000000	0.299595
2099.000000	0.299932
2100.000000	0.300348
2101.000000	0.300730
2102.000000	0.301142
2103.000000	0.301895
2104.000000	0.302379
2105.000000	0.302751
2106.000000	0.303071
2107.000000	0.303397
2108.000000	0.303329
2109.000000	0.303709
2110.000000	0.304162
2111.000000	0.304649
2112.000000	0.305220
2113.000000	0.305724
2114.000000	0.306071
2115.000000	0.306598
2116.000000	0.307048
2117.000000	0.307256
2118.000000	0.307465
2119.000000	0.307573
2120.000000	0.307837
2121.000000	0.308066
2122.000000	0.308294
2123.000000	0.308661
2124.000000	0.308932
2125.000000	0.309061
2126.000000	0.309302
2127.000000	0.309742
2128.000000	0.310095
2129.000000	0.310285
2130.000000	0.310546
2131.000000	0.310570
2132.000000	0.310846
2133.000000	0.311589
2134.000000	0.312155
2135.000000	0.312600
2136.000000	0.312676
2137.000000	0.312647
2138.000000	0.311991
2139.000000	0.312049
2140.000000	0.312361
2141.000000	0.312644
2142.000000	0.313223
2143.000000	0.313357
2144.000000	0.313435
2145.000000	0.313689
2146.000000	0.313928
2147.000000	0.314677
2148.000000	0.315034
2149.000000	0.315602
2150.000000	0.315912
2151.000000	0.315749
2152.000000	0.315690
2153.000000	0.315362
2154.000000	0.315230
2155.000000	0.315091
2156.000000	0.315131
2157.000000	0.315405
2158.000000	0.315591
2159.000000	0.316005
2160.000000	0.316250
2161.000000	0.316382
2162.000000	0.316523
2163.000000	0.316371
2164.000000	0.316228
2165.000000	0.315987
2166.000000	0.315980
2167.000000	0.315794
2168.000000	0.315970
2169.000000	0.316174
2170.000000	0.316333
2171.000000	0.316514
2172.000000	0.316807
2173.000000	0.316967
2174.000000	0.317111
2175.000000	0.317035
2176.000000	0.316703
2177.000000	0.316668
2178.000000	0.316646
2179.000000	0.316903
2180.000000	0.317602
2181.000000	0.318110
2182.000000	0.318244
2183.000000	0.317832
2184.000000	0.317540
2185.000000	0.316853
2186.000000	0.315960
2187.000000	0.316002
2188.000000	0.316257
2189.000000	0.316616
2190.000000	0.317162
2191.000000	0.317632
2192.000000	0.317449
2193.000000	0.316224
2194.000000	0.315765
2195.000000	0.315082
2196.000000	0.315034
2197.000000	0.315953
2198.000000	0.316152
2199.000000	0.316489
2200.000000	0.316608
2201.000000	0.315848
2202.000000	0.315867
2203.000000	0.315967
2204.000000	0.316629
2205.000000	0.316889
2206.000000	0.316690
2207.000000	0.315938
2208.000000	0.314874
2209.000000	0.314261
2210.000000	0.314493
2211.000000	0.314571
2212.000000	0.314664
2213.000000	0.314381
2214.000000	0.313495
2215.000000	0.312928
2216.000000	0.312173
2217.000000	0.312169
2218.000000	0.312477
2219.000000	0.312989
2220.000000	0.314702
2221.000000	0.314895
2222.000000	0.314256
2223.000000	0.314035
2224.000000	0.313278
2225.000000	0.312707
2226.000000	0.312357
2227.000000	0.311482
2228.000000	0.311146
2229.000000	0.310198
2230.000000	0.309398
2231.000000	0.309712
2232.000000	0.308867
2233.000000	0.307815
2234.000000	0.306850
2235.000000	0.306257
2236.000000	0.305828
2237.000000	0.305551
2238.000000	0.305315
2239.000000	0.305135
2240.000000	0.305059
2241.000000	0.305726
2242.000000	0.305727
2243.000000	0.305343
2244.000000	0.305432
2245.000000	0.304901
2246.000000	0.304708
2247.000000	0.305146
2248.000000	0.305210
2249.000000	0.305445
2250.000000	0.305290
2251.000000	0.304370
2252.000000	0.304135
2253.000000	0.302821
2254.000000	0.302084
2255.000000	0.302764
2256.000000	0.302917
2257.000000	0.303774
2258.000000	0.304577
2259.000000	0.303598
2260.000000	0.302947
2261.000000	0.302047
2262.000000	0.300088
2263.000000	0.299352
2264.000000	0.299375
2265.000000	0.299223
2266.000000	0.300147
2267.000000	0.299683
2268.000000	0.298185
2269.000000	0.297180
2270.000000	0.295595
2271.000000	0.294062
2272.000000	0.293024
2273.000000	0.291950
2274.000000	0.290711
2275.000000	0.289352
2276.000000	0.288374
2277.000000	0.286428
2278.000000	0.284172
2279.000000	0.282226
2280.000000	0.280161
2281.000000	0.278542
2282.000000	0.276715
2283.000000	0.274193
2284.000000	0.271997
2285.000000	0.269367
2286.000000	0.267044
2287.000000	0.265359
2288.000000	0.263806
2289.000000	0.262513
2290.000000	0.261547
2291.000000	0.260534
2292.000000	0.259042
2293.000000	0.257492
2294.000000	0.256230
2295.000000	0.254763
2296.000000	0.253489
2297.000000	0.252106
2298.000000	0.251725
2299.000000	0.251957
2300.000000	0.252189
2301.000000	0.253456
2302.000000	0.254449
2303.000000	0.254440
2304.000000	0.255290
2305.000000	0.257223
2306.000000	0.258472
2307.000000	0.259353
2308.000000	0.261439
2309.000000	0.262712
2310.000000	0.262955
2311.000000	0.264564
2312.000000	0.265735
2313.000000	0.265989
2314.000000	0.266874
2315.000000	0.267456
2316.000000	0.267544
2317.000000	0.267922
2318.000000	0.268899
2319.000000	0.269104
2320.000000	0.268930
2321.000000	0.269535
2322.000000	0.269277
2323.000000	0.269051
2324.000000	0.268851
2325.000000	0.268182
2326.000000	0.267685
2327.000000	0.266670
2328.000000	0.266436
2329.000000	0.266389
2330.000000	0.266344
2331.000000	0.266994
2332.000000	0.267193
2333.000000	0.267371
2334.000000	0.267180
2335.000000	0.266686
2336.000000	0.265032
2337.000000	0.263675
2338.000000	0.261924
2339.000000	0.260573
2340.000000	0.259378
2341.000000	0.257949
2342.000000	0.256314
2343.000000	0.255547
2344.000000	0.255207
2345.000000	0.254748
2346.000000	0.255265
2347.000000	0.254740
2348.000000	0.253603
2349.000000	0.251830
2350.000000	0.250925
2351.000000	0.249719
2352.000000	0.248771
2353.000000	0.249179
2354.000000	0.247917
2355.000000	0.246895
2356.000000	0.245451
2357.000000	0.243628
2358.000000	0.242752
2359.000000	0.241294
2360.000000	0.241064
2361.000000	0.240768
2362.000000	0.238670
2363.000000	0.237896
2364.000000	0.237001
2365.000000	0.235026
2366.000000	0.234595
2367.000000	0.234007
2368.000000	0.232514
2369.000000	0.231923
2370.000000	0.230180
2371.000000	0.228787
2372.000000	0.228995
2373.000000	0.227423
2374.000000	0.224995
2375.000000	0.223848
2376.000000	0.222324
2377.000000	0.220857
2378.000000	0.221658
2379.000000	0.222249
2380.000000	0.220241
2381.000000	0.217880
2382.000000	0.216411
2383.000000	0.215019
2384.000000	0.213664
2385.000000	0.213426
2386.000000	0.211853
2387.000000	0.208042
2388.000000	0.207538
2389.000000	0.206709
2390.000000	0.204852
2391.000000	0.206542
2392.000000	0.206051
2393.000000	0.205186
2394.000000	0.205771
2395.000000	0.204924
2396.000000	0.204827
2397.000000	0.204536
2398.000000	0.205179
2399.000000	0.205751
2400.000000	0.204001
2401.000000	0.203880
2402.000000	0.203670
2403.000000	0.203721
2404.000000	0.204155
2405.000000	0.201976
2406.000000	0.201384
2407.000000	0.199082
2408.000000	0.198056
2409.000000	0.199350
2410.000000	0.198133
2411.000000	0.198844
2412.000000	0.198906
2413.000000	0.198799
2414.000000	0.199115
2415.000000	0.198400
2416.000000	0.198589
2417.000000	0.199637
2418.000000	0.199997
2419.000000	0.199602
2420.000000	0.200962
2421.000000	0.198361
2422.000000	0.194585
2423.000000	0.195483
2424.000000	0.193420
2425.000000	0.191172
2426.000000	0.190188
2427.000000	0.187383
2428.000000	0.186030
2429.000000	0.185006
2430.000000	0.186326
2431.000000	0.188190
2432.000000	0.187581
2433.000000	0.189595
2434.000000	0.193951
2435.000000	0.195888
2436.000000	0.196845
2437.000000	0.198302
2438.000000	0.194769
2439.000000	0.192212
2440.000000	0.195344
2441.000000	0.195534
2442.000000	0.198009
2443.000000	0.200538
2444.000000	0.196398
2445.000000	0.197448
2446.000000	0.200764
2447.000000	0.199434
2448.000000	0.201544
2449.000000	0.199318
2450.000000	0.188841
2451.000000	0.184075
2452.000000	0.179902
2453.000000	0.174552
2454.000000	0.177552
2455.000000	0.183262
2456.000000	0.190499
2457.000000	0.199895
2458.000000	0.202773
2459.000000	0.199968
2460.000000	0.195417
2461.000000	0.185558
2462.000000	0.174367
2463.000000	0.169086
2464.000000	0.163094
2465.000000	0.162103
2466.000000	0.175426
2467.000000	0.186807
2468.000000	0.185626
2469.000000	0.178736
2470.000000	0.170770
2471.000000	0.159083
2472.000000	0.157586
2473.000000	0.162827
2474.000000	0.156067
2475.000000	0.159560
2476.000000	0.162600
2477.000000	0.163655
2478.000000	0.179483
2479.000000	0.174338
2480.000000	0.164846
2481.000000	0.161349
2482.000000	0.152417
2483.000000	0.163065
2484.000000	0.170394
2485.000000	0.161890
2486.000000	0.154506
2487.000000	0.137132
2488.000000	0.137890
2489.000000	0.160201
2490.000000	0.170958
2491.000000	0.183047
2492.000000	0.176591
2493.000000	0.150737
2494.000000	0.146006
2495.000000	0.139590
2496.000000	0.136516
2497.000000	0.149292
2498.000000	0.146467
2499.000000	0.135713
2500.000000	0.133510
