# Wavelength	NAu-1-20_HEX-50_FV7-30_00002.asd.rts.txt
350.000000	0.186238
351.000000	0.183692
352.000000	0.189825
353.000000	0.189611
354.000000	0.179897
355.000000	0.172849
356.000000	0.185235
357.000000	0.203461
358.000000	0.190643
359.000000	0.180766
360.000000	0.177745
361.000000	0.177398
362.000000	0.182809
363.000000	0.187685
364.000000	0.186604
365.000000	0.175916
366.000000	0.172521
367.000000	0.177418
368.000000	0.178549
369.000000	0.175885
370.000000	0.173622
371.000000	0.176487
372.000000	0.179029
373.000000	0.182113
374.000000	0.185902
375.000000	0.185040
376.000000	0.184349
377.000000	0.185444
378.000000	0.187429
379.000000	0.187318
380.000000	0.185686
381.000000	0.185191
382.000000	0.188649
383.000000	0.191159
384.000000	0.190284
385.000000	0.191242
386.000000	0.192110
387.000000	0.192378
388.000000	0.192500
389.000000	0.195512
390.000000	0.198348
391.000000	0.196275
392.000000	0.195060
393.000000	0.196278
394.000000	0.199486
395.000000	0.200353
396.000000	0.200899
397.000000	0.201901
398.000000	0.202566
399.000000	0.202845
400.000000	0.204176
401.000000	0.208204
402.000000	0.209025
403.000000	0.209009
404.000000	0.210931
405.000000	0.212426
406.000000	0.213148
407.000000	0.213452
408.000000	0.214648
409.000000	0.215225
410.000000	0.215404
411.000000	0.216325
412.000000	0.217235
413.000000	0.217977
414.000000	0.218505
415.000000	0.218365
416.000000	0.218493
417.000000	0.219273
418.000000	0.219739
419.000000	0.220386
420.000000	0.221308
421.000000	0.222302
422.000000	0.222819
423.000000	0.222879
424.000000	0.222815
425.000000	0.223002
426.000000	0.223223
427.000000	0.223287
428.000000	0.223404
429.000000	0.223539
430.000000	0.223753
431.000000	0.224267
432.000000	0.224721
433.000000	0.224809
434.000000	0.224387
435.000000	0.224068
436.000000	0.224322
437.000000	0.225148
438.000000	0.224833
439.000000	0.224270
440.000000	0.224152
441.000000	0.224359
442.000000	0.224344
443.000000	0.224092
444.000000	0.224124
445.000000	0.224568
446.000000	0.224885
447.000000	0.224458
448.000000	0.225080
449.000000	0.225951
450.000000	0.226521
451.000000	0.227649
452.000000	0.228973
453.000000	0.230238
454.000000	0.231504
455.000000	0.232631
456.000000	0.233868
457.000000	0.235428
458.000000	0.236986
459.000000	0.238510
460.000000	0.240005
461.000000	0.241128
462.000000	0.242140
463.000000	0.243055
464.000000	0.243935
465.000000	0.244704
466.000000	0.245320
467.000000	0.245895
468.000000	0.246579
469.000000	0.247311
470.000000	0.248095
471.000000	0.248528
472.000000	0.248845
473.000000	0.249280
474.000000	0.249803
475.000000	0.250302
476.000000	0.250826
477.000000	0.251246
478.000000	0.251539
479.000000	0.251985
480.000000	0.252600
481.000000	0.252937
482.000000	0.253154
483.000000	0.253330
484.000000	0.253994
485.000000	0.254548
486.000000	0.254909
487.000000	0.255383
488.000000	0.255748
489.000000	0.256122
490.000000	0.256825
491.000000	0.257159
492.000000	0.257429
493.000000	0.257996
494.000000	0.258579
495.000000	0.259114
496.000000	0.259571
497.000000	0.260130
498.000000	0.260546
499.000000	0.260909
500.000000	0.261561
501.000000	0.262029
502.000000	0.262393
503.000000	0.262872
504.000000	0.263338
505.000000	0.263823
506.000000	0.264375
507.000000	0.264942
508.000000	0.265473
509.000000	0.265934
510.000000	0.266471
511.000000	0.267047
512.000000	0.267652
513.000000	0.268229
514.000000	0.268695
515.000000	0.269214
516.000000	0.269926
517.000000	0.270617
518.000000	0.271305
519.000000	0.271939
520.000000	0.272539
521.000000	0.273083
522.000000	0.273629
523.000000	0.274371
524.000000	0.275035
525.000000	0.275624
526.000000	0.276331
527.000000	0.276998
528.000000	0.277592
529.000000	0.278186
530.000000	0.278929
531.000000	0.279696
532.000000	0.280316
533.000000	0.280901
534.000000	0.281572
535.000000	0.282313
536.000000	0.283007
537.000000	0.283655
538.000000	0.284321
539.000000	0.285065
540.000000	0.285637
541.000000	0.286231
542.000000	0.287040
543.000000	0.287704
544.000000	0.288421
545.000000	0.289195
546.000000	0.289910
547.000000	0.290562
548.000000	0.291224
549.000000	0.291938
550.000000	0.292635
551.000000	0.293353
552.000000	0.294090
553.000000	0.294776
554.000000	0.295411
555.000000	0.296036
556.000000	0.296776
557.000000	0.297417
558.000000	0.298036
559.000000	0.298692
560.000000	0.299305
561.000000	0.299940
562.000000	0.300562
563.000000	0.301190
564.000000	0.301812
565.000000	0.302314
566.000000	0.302859
567.000000	0.303487
568.000000	0.304145
569.000000	0.304686
570.000000	0.305178
571.000000	0.305657
572.000000	0.306177
573.000000	0.306696
574.000000	0.307174
575.000000	0.307641
576.000000	0.308205
577.000000	0.308669
578.000000	0.308980
579.000000	0.309409
580.000000	0.309897
581.000000	0.310365
582.000000	0.310688
583.000000	0.311009
584.000000	0.311362
585.000000	0.311731
586.000000	0.312089
587.000000	0.312447
588.000000	0.312806
589.000000	0.313037
590.000000	0.313252
591.000000	0.313532
592.000000	0.313842
593.000000	0.314097
594.000000	0.314304
595.000000	0.314584
596.000000	0.314863
597.000000	0.315142
598.000000	0.315340
599.000000	0.315484
600.000000	0.315690
601.000000	0.315953
602.000000	0.316228
603.000000	0.316366
604.000000	0.316389
605.000000	0.316594
606.000000	0.316767
607.000000	0.316886
608.000000	0.317034
609.000000	0.317168
610.000000	0.317293
611.000000	0.317421
612.000000	0.317494
613.000000	0.317634
614.000000	0.317893
615.000000	0.317960
616.000000	0.317989
617.000000	0.318064
618.000000	0.318337
619.000000	0.318507
620.000000	0.318578
621.000000	0.318730
622.000000	0.318852
623.000000	0.318923
624.000000	0.318968
625.000000	0.319154
626.000000	0.319352
627.000000	0.319493
628.000000	0.319599
629.000000	0.319774
630.000000	0.319911
631.000000	0.320087
632.000000	0.320235
633.000000	0.320346
634.000000	0.320427
635.000000	0.320605
636.000000	0.320838
637.000000	0.321053
638.000000	0.321201
639.000000	0.321348
640.000000	0.321544
641.000000	0.321651
642.000000	0.321768
643.000000	0.321918
644.000000	0.322097
645.000000	0.322253
646.000000	0.322374
647.000000	0.322456
648.000000	0.322631
649.000000	0.322857
650.000000	0.323075
651.000000	0.323257
652.000000	0.323447
653.000000	0.323666
654.000000	0.323832
655.000000	0.324008
656.000000	0.324256
657.000000	0.324547
658.000000	0.324823
659.000000	0.325055
660.000000	0.325224
661.000000	0.325358
662.000000	0.325537
663.000000	0.325782
664.000000	0.325958
665.000000	0.326152
666.000000	0.326320
667.000000	0.326399
668.000000	0.326634
669.000000	0.326898
670.000000	0.327127
671.000000	0.327443
672.000000	0.327740
673.000000	0.327996
674.000000	0.328280
675.000000	0.328484
676.000000	0.328671
677.000000	0.328958
678.000000	0.329290
679.000000	0.329587
680.000000	0.329820
681.000000	0.330035
682.000000	0.330317
683.000000	0.330597
684.000000	0.330889
685.000000	0.331106
686.000000	0.331349
687.000000	0.331699
688.000000	0.331929
689.000000	0.332152
690.000000	0.332503
691.000000	0.332899
692.000000	0.333227
693.000000	0.333529
694.000000	0.333826
695.000000	0.334066
696.000000	0.334308
697.000000	0.334645
698.000000	0.334944
699.000000	0.335270
700.000000	0.335665
701.000000	0.335930
702.000000	0.336202
703.000000	0.336521
704.000000	0.336864
705.000000	0.337178
706.000000	0.337433
707.000000	0.337716
708.000000	0.338031
709.000000	0.338368
710.000000	0.338717
711.000000	0.338979
712.000000	0.339238
713.000000	0.339550
714.000000	0.339865
715.000000	0.340235
716.000000	0.340623
717.000000	0.340918
718.000000	0.341155
719.000000	0.341399
720.000000	0.341705
721.000000	0.341971
722.000000	0.342190
723.000000	0.342448
724.000000	0.342753
725.000000	0.343083
726.000000	0.343415
727.000000	0.343558
728.000000	0.343818
729.000000	0.344142
730.000000	0.344389
731.000000	0.344642
732.000000	0.344922
733.000000	0.345248
734.000000	0.345512
735.000000	0.345750
736.000000	0.346036
737.000000	0.346182
738.000000	0.346295
739.000000	0.346487
740.000000	0.346652
741.000000	0.346949
742.000000	0.347214
743.000000	0.347389
744.000000	0.347621
745.000000	0.347786
746.000000	0.347949
747.000000	0.348111
748.000000	0.348261
749.000000	0.348414
750.000000	0.348564
751.000000	0.348810
752.000000	0.349044
753.000000	0.349230
754.000000	0.349365
755.000000	0.349552
756.000000	0.349737
757.000000	0.349791
758.000000	0.349816
759.000000	0.349897
760.000000	0.349994
761.000000	0.350138
762.000000	0.350224
763.000000	0.350283
764.000000	0.350509
765.000000	0.350591
766.000000	0.350601
767.000000	0.350639
768.000000	0.350619
769.000000	0.350597
770.000000	0.350615
771.000000	0.350665
772.000000	0.350753
773.000000	0.350786
774.000000	0.350800
775.000000	0.350839
776.000000	0.350911
777.000000	0.350979
778.000000	0.350977
779.000000	0.350972
780.000000	0.350990
781.000000	0.351001
782.000000	0.351037
783.000000	0.351125
784.000000	0.351090
785.000000	0.351070
786.000000	0.351014
787.000000	0.350919
788.000000	0.350938
789.000000	0.350920
790.000000	0.350836
791.000000	0.350768
792.000000	0.350727
793.000000	0.350667
794.000000	0.350572
795.000000	0.350529
796.000000	0.350526
797.000000	0.350504
798.000000	0.350358
799.000000	0.350301
800.000000	0.350284
801.000000	0.350216
802.000000	0.350246
803.000000	0.350179
804.000000	0.350011
805.000000	0.350004
806.000000	0.349938
807.000000	0.349851
808.000000	0.349715
809.000000	0.349458
810.000000	0.349293
811.000000	0.349323
812.000000	0.349271
813.000000	0.349181
814.000000	0.349078
815.000000	0.349003
816.000000	0.348913
817.000000	0.348818
818.000000	0.348644
819.000000	0.348438
820.000000	0.348249
821.000000	0.348076
822.000000	0.348016
823.000000	0.348000
824.000000	0.347858
825.000000	0.347582
826.000000	0.347488
827.000000	0.347409
828.000000	0.347279
829.000000	0.347166
830.000000	0.347056
831.000000	0.346991
832.000000	0.346851
833.000000	0.346773
834.000000	0.346686
835.000000	0.346559
836.000000	0.346425
837.000000	0.346240
838.000000	0.346040
839.000000	0.345870
840.000000	0.345758
841.000000	0.345645
842.000000	0.345440
843.000000	0.345264
844.000000	0.345176
845.000000	0.345137
846.000000	0.345085
847.000000	0.344997
848.000000	0.344840
849.000000	0.344647
850.000000	0.344502
851.000000	0.344361
852.000000	0.344252
853.000000	0.344193
854.000000	0.344007
855.000000	0.343785
856.000000	0.343500
857.000000	0.343284
858.000000	0.343216
859.000000	0.343160
860.000000	0.342903
861.000000	0.342746
862.000000	0.342708
863.000000	0.342604
864.000000	0.342367
865.000000	0.342202
866.000000	0.342196
867.000000	0.342094
868.000000	0.341845
869.000000	0.341543
870.000000	0.341446
871.000000	0.341264
872.000000	0.341088
873.000000	0.340917
874.000000	0.340747
875.000000	0.340522
876.000000	0.340298
877.000000	0.340091
878.000000	0.339833
879.000000	0.339686
880.000000	0.339545
881.000000	0.339300
882.000000	0.339121
883.000000	0.338997
884.000000	0.338782
885.000000	0.338607
886.000000	0.338395
887.000000	0.338151
888.000000	0.337976
889.000000	0.337804
890.000000	0.337590
891.000000	0.337503
892.000000	0.337204
893.000000	0.336961
894.000000	0.336947
895.000000	0.336650
896.000000	0.336421
897.000000	0.336259
898.000000	0.336063
899.000000	0.335926
900.000000	0.335789
901.000000	0.335605
902.000000	0.335494
903.000000	0.335403
904.000000	0.335359
905.000000	0.335271
906.000000	0.335160
907.000000	0.334958
908.000000	0.334726
909.000000	0.334472
910.000000	0.334329
911.000000	0.334238
912.000000	0.334121
913.000000	0.333910
914.000000	0.333692
915.000000	0.333529
916.000000	0.333279
917.000000	0.333141
918.000000	0.332997
919.000000	0.332758
920.000000	0.332654
921.000000	0.332498
922.000000	0.332292
923.000000	0.332110
924.000000	0.332058
925.000000	0.331903
926.000000	0.331619
927.000000	0.331480
928.000000	0.331253
929.000000	0.331020
930.000000	0.330913
931.000000	0.330717
932.000000	0.330460
933.000000	0.330304
934.000000	0.330407
935.000000	0.330212
936.000000	0.329949
937.000000	0.329809
938.000000	0.329788
939.000000	0.329622
940.000000	0.329276
941.000000	0.329027
942.000000	0.328673
943.000000	0.328508
944.000000	0.328489
945.000000	0.328341
946.000000	0.328091
947.000000	0.327927
948.000000	0.327910
949.000000	0.327631
950.000000	0.327477
951.000000	0.327449
952.000000	0.327288
953.000000	0.327045
954.000000	0.326844
955.000000	0.326667
956.000000	0.326388
957.000000	0.326365
958.000000	0.326376
959.000000	0.326164
960.000000	0.326027
961.000000	0.325821
962.000000	0.325576
963.000000	0.325606
964.000000	0.325447
965.000000	0.325208
966.000000	0.324929
967.000000	0.324612
968.000000	0.324440
969.000000	0.324195
970.000000	0.323743
971.000000	0.323925
972.000000	0.324127
973.000000	0.324003
974.000000	0.323902
975.000000	0.323637
976.000000	0.323460
977.000000	0.323517
978.000000	0.323424
979.000000	0.323332
980.000000	0.322973
981.000000	0.322558
982.000000	0.322719
983.000000	0.322607
984.000000	0.322306
985.000000	0.322730
986.000000	0.322671
987.000000	0.322320
988.000000	0.321983
989.000000	0.322091
990.000000	0.321837
991.000000	0.321611
992.000000	0.322011
993.000000	0.322191
994.000000	0.322076
995.000000	0.321932
996.000000	0.321820
997.000000	0.321916
998.000000	0.321921
999.000000	0.321811
1000.000000	0.321773
1001.000000	0.322243
1002.000000	0.321608
1003.000000	0.321654
1004.000000	0.321702
1005.000000	0.322030
1006.000000	0.321659
1007.000000	0.321127
1008.000000	0.320640
1009.000000	0.320063
1010.000000	0.319818
1011.000000	0.320684
1012.000000	0.321764
1013.000000	0.321910
1014.000000	0.321646
1015.000000	0.321839
1016.000000	0.321897
1017.000000	0.321419
1018.000000	0.322033
1019.000000	0.322386
1020.000000	0.322376
1021.000000	0.322085
1022.000000	0.322402
1023.000000	0.322394
1024.000000	0.321453
1025.000000	0.321641
1026.000000	0.321704
1027.000000	0.321812
1028.000000	0.322262
1029.000000	0.321989
1030.000000	0.322175
1031.000000	0.322137
1032.000000	0.321989
1033.000000	0.322672
1034.000000	0.323091
1035.000000	0.323764
1036.000000	0.324184
1037.000000	0.324643
1038.000000	0.324636
1039.000000	0.324552
1040.000000	0.323997
1041.000000	0.323694
1042.000000	0.323659
1043.000000	0.324074
1044.000000	0.324933
1045.000000	0.325304
1046.000000	0.325170
1047.000000	0.325358
1048.000000	0.325302
1049.000000	0.325463
1050.000000	0.325920
1051.000000	0.326309
1052.000000	0.326401
1053.000000	0.326689
1054.000000	0.327840
1055.000000	0.328140
1056.000000	0.327941
1057.000000	0.328021
1058.000000	0.327959
1059.000000	0.327671
1060.000000	0.328136
1061.000000	0.328946
1062.000000	0.329280
1063.000000	0.329493
1064.000000	0.329826
1065.000000	0.329944
1066.000000	0.330342
1067.000000	0.331073
1068.000000	0.331416
1069.000000	0.331589
1070.000000	0.331801
1071.000000	0.331899
1072.000000	0.332028
1073.000000	0.332191
1074.000000	0.332540
1075.000000	0.332725
1076.000000	0.332874
1077.000000	0.333108
1078.000000	0.333439
1079.000000	0.333747
1080.000000	0.333978
1081.000000	0.334523
1082.000000	0.335691
1083.000000	0.335998
1084.000000	0.336056
1085.000000	0.336350
1086.000000	0.335999
1087.000000	0.336081
1088.000000	0.336805
1089.000000	0.337065
1090.000000	0.336804
1091.000000	0.337010
1092.000000	0.337330
1093.000000	0.337399
1094.000000	0.337747
1095.000000	0.338207
1096.000000	0.338763
1097.000000	0.339561
1098.000000	0.340077
1099.000000	0.340554
1100.000000	0.341007
1101.000000	0.341144
1102.000000	0.341431
1103.000000	0.341797
1104.000000	0.342196
1105.000000	0.342755
1106.000000	0.343009
1107.000000	0.342901
1108.000000	0.343086
1109.000000	0.343107
1110.000000	0.343472
1111.000000	0.343931
1112.000000	0.344895
1113.000000	0.345282
1114.000000	0.345513
1115.000000	0.345747
1116.000000	0.345683
1117.000000	0.345927
1118.000000	0.346436
1119.000000	0.346586
1120.000000	0.346551
1121.000000	0.346721
1122.000000	0.346933
1123.000000	0.347285
1124.000000	0.347638
1125.000000	0.347968
1126.000000	0.348066
1127.000000	0.348222
1128.000000	0.348407
1129.000000	0.348684
1130.000000	0.349001
1131.000000	0.349466
1132.000000	0.349599
1133.000000	0.349623
1134.000000	0.349852
1135.000000	0.349983
1136.000000	0.350033
1137.000000	0.350182
1138.000000	0.350283
1139.000000	0.350250
1140.000000	0.350393
1141.000000	0.350667
1142.000000	0.350904
1143.000000	0.350996
1144.000000	0.351292
1145.000000	0.351694
1146.000000	0.351792
1147.000000	0.351819
1148.000000	0.351575
1149.000000	0.351663
1150.000000	0.351738
1151.000000	0.351908
1152.000000	0.352256
1153.000000	0.352528
1154.000000	0.352703
1155.000000	0.352867
1156.000000	0.353150
1157.000000	0.353299
1158.000000	0.353242
1159.000000	0.353272
1160.000000	0.353297
1161.000000	0.353288
1162.000000	0.353327
1163.000000	0.353487
1164.000000	0.353497
1165.000000	0.353475
1166.000000	0.353620
1167.000000	0.353815
1168.000000	0.353918
1169.000000	0.354149
1170.000000	0.354267
1171.000000	0.354280
1172.000000	0.354407
1173.000000	0.354499
1174.000000	0.354647
1175.000000	0.354874
1176.000000	0.354971
1177.000000	0.355175
1178.000000	0.355266
1179.000000	0.355115
1180.000000	0.355102
1181.000000	0.355216
1182.000000	0.355338
1183.000000	0.355520
1184.000000	0.355789
1185.000000	0.355863
1186.000000	0.355778
1187.000000	0.355762
1188.000000	0.355700
1189.000000	0.355638
1190.000000	0.355646
1191.000000	0.355664
1192.000000	0.355779
1193.000000	0.355935
1194.000000	0.356022
1195.000000	0.356048
1196.000000	0.355886
1197.000000	0.355919
1198.000000	0.356075
1199.000000	0.356201
1200.000000	0.356448
1201.000000	0.356592
1202.000000	0.356673
1203.000000	0.356659
1204.000000	0.356681
1205.000000	0.356790
1206.000000	0.356762
1207.000000	0.356719
1208.000000	0.356848
1209.000000	0.357137
1210.000000	0.357192
1211.000000	0.357292
1212.000000	0.357318
1213.000000	0.357136
1214.000000	0.357151
1215.000000	0.357280
1216.000000	0.357359
1217.000000	0.357428
1218.000000	0.357435
1219.000000	0.357424
1220.000000	0.357524
1221.000000	0.357571
1222.000000	0.357562
1223.000000	0.357563
1224.000000	0.357529
1225.000000	0.357530
1226.000000	0.357497
1227.000000	0.357391
1228.000000	0.357484
1229.000000	0.357501
1230.000000	0.357446
1231.000000	0.357405
1232.000000	0.357522
1233.000000	0.357711
1234.000000	0.357926
1235.000000	0.358071
1236.000000	0.358218
1237.000000	0.358302
1238.000000	0.358208
1239.000000	0.358136
1240.000000	0.358011
1241.000000	0.357946
1242.000000	0.357888
1243.000000	0.357880
1244.000000	0.358012
1245.000000	0.358262
1246.000000	0.358344
1247.000000	0.358450
1248.000000	0.358599
1249.000000	0.358607
1250.000000	0.358477
1251.000000	0.358410
1252.000000	0.358357
1253.000000	0.358196
1254.000000	0.358153
1255.000000	0.358260
1256.000000	0.358351
1257.000000	0.358535
1258.000000	0.358629
1259.000000	0.358578
1260.000000	0.358661
1261.000000	0.358694
1262.000000	0.358669
1263.000000	0.358660
1264.000000	0.358806
1265.000000	0.358775
1266.000000	0.358747
1267.000000	0.358959
1268.000000	0.359019
1269.000000	0.358934
1270.000000	0.358925
1271.000000	0.358846
1272.000000	0.358868
1273.000000	0.358869
1274.000000	0.358778
1275.000000	0.358800
1276.000000	0.358869
1277.000000	0.358957
1278.000000	0.359122
1279.000000	0.359114
1280.000000	0.358839
1281.000000	0.358705
1282.000000	0.358647
1283.000000	0.358646
1284.000000	0.358655
1285.000000	0.358642
1286.000000	0.358607
1287.000000	0.358475
1288.000000	0.358488
1289.000000	0.358521
1290.000000	0.358485
1291.000000	0.358601
1292.000000	0.358714
1293.000000	0.358859
1294.000000	0.359075
1295.000000	0.359111
1296.000000	0.359012
1297.000000	0.358897
1298.000000	0.358839
1299.000000	0.358888
1300.000000	0.359075
1301.000000	0.359258
1302.000000	0.359220
1303.000000	0.359152
1304.000000	0.359001
1305.000000	0.358755
1306.000000	0.358600
1307.000000	0.358499
1308.000000	0.358432
1309.000000	0.358362
1310.000000	0.358338
1311.000000	0.358372
1312.000000	0.358479
1313.000000	0.358461
1314.000000	0.358443
1315.000000	0.358319
1316.000000	0.358168
1317.000000	0.358115
1318.000000	0.358014
1319.000000	0.357838
1320.000000	0.357595
1321.000000	0.357320
1322.000000	0.357225
1323.000000	0.357295
1324.000000	0.357372
1325.000000	0.357427
1326.000000	0.357461
1327.000000	0.357310
1328.000000	0.357172
1329.000000	0.357029
1330.000000	0.356863
1331.000000	0.356706
1332.000000	0.356664
1333.000000	0.356574
1334.000000	0.356465
1335.000000	0.356474
1336.000000	0.356640
1337.000000	0.356551
1338.000000	0.356322
1339.000000	0.356135
1340.000000	0.355777
1341.000000	0.355433
1342.000000	0.355414
1343.000000	0.355395
1344.000000	0.355237
1345.000000	0.355057
1346.000000	0.354877
1347.000000	0.354620
1348.000000	0.354604
1349.000000	0.354511
1350.000000	0.354318
1351.000000	0.354159
1352.000000	0.353904
1353.000000	0.353591
1354.000000	0.353492
1355.000000	0.353388
1356.000000	0.353258
1357.000000	0.353221
1358.000000	0.353121
1359.000000	0.352935
1360.000000	0.352838
1361.000000	0.352922
1362.000000	0.352803
1363.000000	0.352603
1364.000000	0.352435
1365.000000	0.352092
1366.000000	0.351865
1367.000000	0.351728
1368.000000	0.351508
1369.000000	0.351342
1370.000000	0.351126
1371.000000	0.350742
1372.000000	0.350347
1373.000000	0.349991
1374.000000	0.349646
1375.000000	0.349413
1376.000000	0.349281
1377.000000	0.349076
1378.000000	0.348850
1379.000000	0.348414
1380.000000	0.348078
1381.000000	0.347825
1382.000000	0.347444
1383.000000	0.347232
1384.000000	0.346714
1385.000000	0.345995
1386.000000	0.345594
1387.000000	0.345108
1388.000000	0.344477
1389.000000	0.344028
1390.000000	0.343540
1391.000000	0.342716
1392.000000	0.342033
1393.000000	0.341335
1394.000000	0.340553
1395.000000	0.339805
1396.000000	0.339236
1397.000000	0.338401
1398.000000	0.337397
1399.000000	0.336448
1400.000000	0.335273
1401.000000	0.334278
1402.000000	0.333466
1403.000000	0.332558
1404.000000	0.331610
1405.000000	0.330600
1406.000000	0.329367
1407.000000	0.328124
1408.000000	0.326835
1409.000000	0.325700
1410.000000	0.324824
1411.000000	0.323863
1412.000000	0.322964
1413.000000	0.322180
1414.000000	0.321115
1415.000000	0.320120
1416.000000	0.319320
1417.000000	0.318488
1418.000000	0.317677
1419.000000	0.316886
1420.000000	0.315982
1421.000000	0.315092
1422.000000	0.314235
1423.000000	0.313569
1424.000000	0.312806
1425.000000	0.311991
1426.000000	0.311150
1427.000000	0.310235
1428.000000	0.309307
1429.000000	0.308447
1430.000000	0.307810
1431.000000	0.307253
1432.000000	0.306596
1433.000000	0.305968
1434.000000	0.305367
1435.000000	0.304769
1436.000000	0.304265
1437.000000	0.303790
1438.000000	0.303397
1439.000000	0.303097
1440.000000	0.302881
1441.000000	0.302888
1442.000000	0.302856
1443.000000	0.302817
1444.000000	0.302677
1445.000000	0.302618
1446.000000	0.302450
1447.000000	0.302263
1448.000000	0.302256
1449.000000	0.302213
1450.000000	0.302123
1451.000000	0.302157
1452.000000	0.301987
1453.000000	0.301703
1454.000000	0.301579
1455.000000	0.301436
1456.000000	0.301316
1457.000000	0.301297
1458.000000	0.301217
1459.000000	0.301024
1460.000000	0.300821
1461.000000	0.300556
1462.000000	0.300223
1463.000000	0.300056
1464.000000	0.300088
1465.000000	0.300087
1466.000000	0.299944
1467.000000	0.299787
1468.000000	0.299729
1469.000000	0.299833
1470.000000	0.299979
1471.000000	0.300138
1472.000000	0.300207
1473.000000	0.300264
1474.000000	0.300347
1475.000000	0.300544
1476.000000	0.300683
1477.000000	0.300836
1478.000000	0.301181
1479.000000	0.301462
1480.000000	0.301699
1481.000000	0.301910
1482.000000	0.302034
1483.000000	0.302346
1484.000000	0.302745
1485.000000	0.303140
1486.000000	0.303712
1487.000000	0.304035
1488.000000	0.304191
1489.000000	0.304527
1490.000000	0.304698
1491.000000	0.305011
1492.000000	0.305432
1493.000000	0.305842
1494.000000	0.306258
1495.000000	0.306608
1496.000000	0.306973
1497.000000	0.307301
1498.000000	0.307583
1499.000000	0.307830
1500.000000	0.308045
1501.000000	0.308356
1502.000000	0.308653
1503.000000	0.308987
1504.000000	0.309455
1505.000000	0.309767
1506.000000	0.310000
1507.000000	0.310240
1508.000000	0.310560
1509.000000	0.310888
1510.000000	0.311099
1511.000000	0.311406
1512.000000	0.311700
1513.000000	0.311910
1514.000000	0.312222
1515.000000	0.312459
1516.000000	0.312636
1517.000000	0.312862
1518.000000	0.313044
1519.000000	0.313170
1520.000000	0.313401
1521.000000	0.313500
1522.000000	0.313600
1523.000000	0.313848
1524.000000	0.313839
1525.000000	0.313822
1526.000000	0.313964
1527.000000	0.314014
1528.000000	0.314132
1529.000000	0.314299
1530.000000	0.314295
1531.000000	0.314388
1532.000000	0.314543
1533.000000	0.314561
1534.000000	0.314653
1535.000000	0.314802
1536.000000	0.314854
1537.000000	0.315021
1538.000000	0.315190
1539.000000	0.315265
1540.000000	0.315258
1541.000000	0.315274
1542.000000	0.315352
1543.000000	0.315326
1544.000000	0.315394
1545.000000	0.315586
1546.000000	0.315614
1547.000000	0.315609
1548.000000	0.315713
1549.000000	0.315680
1550.000000	0.315541
1551.000000	0.315549
1552.000000	0.315565
1553.000000	0.315524
1554.000000	0.315580
1555.000000	0.315637
1556.000000	0.315602
1557.000000	0.315520
1558.000000	0.315480
1559.000000	0.315422
1560.000000	0.315349
1561.000000	0.315269
1562.000000	0.315231
1563.000000	0.315247
1564.000000	0.315235
1565.000000	0.315223
1566.000000	0.315181
1567.000000	0.315228
1568.000000	0.315275
1569.000000	0.315422
1570.000000	0.315494
1571.000000	0.315502
1572.000000	0.315497
1573.000000	0.315464
1574.000000	0.315461
1575.000000	0.315521
1576.000000	0.315570
1577.000000	0.315579
1578.000000	0.315586
1579.000000	0.315651
1580.000000	0.315672
1581.000000	0.315745
1582.000000	0.315818
1583.000000	0.315890
1584.000000	0.315828
1585.000000	0.315771
1586.000000	0.315784
1587.000000	0.315764
1588.000000	0.315790
1589.000000	0.315911
1590.000000	0.315971
1591.000000	0.315931
1592.000000	0.316031
1593.000000	0.316377
1594.000000	0.316441
1595.000000	0.316463
1596.000000	0.316478
1597.000000	0.316352
1598.000000	0.316237
1599.000000	0.316159
1600.000000	0.316110
1601.000000	0.316072
1602.000000	0.316100
1603.000000	0.316310
1604.000000	0.316382
1605.000000	0.316452
1606.000000	0.316429
1607.000000	0.316309
1608.000000	0.316317
1609.000000	0.316436
1610.000000	0.316457
1611.000000	0.316511
1612.000000	0.316530
1613.000000	0.316506
1614.000000	0.316570
1615.000000	0.316910
1616.000000	0.316989
1617.000000	0.316852
1618.000000	0.316842
1619.000000	0.316590
1620.000000	0.316660
1621.000000	0.317102
1622.000000	0.317401
1623.000000	0.317778
1624.000000	0.317981
1625.000000	0.317853
1626.000000	0.317934
1627.000000	0.318079
1628.000000	0.318204
1629.000000	0.318382
1630.000000	0.318591
1631.000000	0.318727
1632.000000	0.318819
1633.000000	0.318963
1634.000000	0.319135
1635.000000	0.319304
1636.000000	0.319425
1637.000000	0.319592
1638.000000	0.319718
1639.000000	0.319825
1640.000000	0.319870
1641.000000	0.319987
1642.000000	0.320125
1643.000000	0.320224
1644.000000	0.320318
1645.000000	0.320459
1646.000000	0.320549
1647.000000	0.320575
1648.000000	0.320636
1649.000000	0.320891
1650.000000	0.321025
1651.000000	0.321093
1652.000000	0.321246
1653.000000	0.321302
1654.000000	0.321536
1655.000000	0.321896
1656.000000	0.322044
1657.000000	0.322262
1658.000000	0.322404
1659.000000	0.322499
1660.000000	0.322636
1661.000000	0.322703
1662.000000	0.322855
1663.000000	0.322948
1664.000000	0.323155
1665.000000	0.323508
1666.000000	0.323758
1667.000000	0.323943
1668.000000	0.324074
1669.000000	0.324136
1670.000000	0.324117
1671.000000	0.324085
1672.000000	0.324192
1673.000000	0.324222
1674.000000	0.324501
1675.000000	0.324851
1676.000000	0.324936
1677.000000	0.325047
1678.000000	0.325165
1679.000000	0.325174
1680.000000	0.325276
1681.000000	0.325428
1682.000000	0.325387
1683.000000	0.325352
1684.000000	0.325457
1685.000000	0.325588
1686.000000	0.325750
1687.000000	0.325944
1688.000000	0.325969
1689.000000	0.325996
1690.000000	0.325976
1691.000000	0.325962
1692.000000	0.326039
1693.000000	0.326167
1694.000000	0.326226
1695.000000	0.326431
1696.000000	0.326675
1697.000000	0.326678
1698.000000	0.326567
1699.000000	0.326670
1700.000000	0.326729
1701.000000	0.326881
1702.000000	0.327084
1703.000000	0.327220
1704.000000	0.327362
1705.000000	0.327494
1706.000000	0.327790
1707.000000	0.327919
1708.000000	0.327783
1709.000000	0.327776
1710.000000	0.327871
1711.000000	0.327978
1712.000000	0.328276
1713.000000	0.328377
1714.000000	0.328357
1715.000000	0.328425
1716.000000	0.328413
1717.000000	0.328533
1718.000000	0.328797
1719.000000	0.328935
1720.000000	0.329142
1721.000000	0.329265
1722.000000	0.329294
1723.000000	0.329352
1724.000000	0.329429
1725.000000	0.329510
1726.000000	0.329493
1727.000000	0.329503
1728.000000	0.329465
1729.000000	0.329378
1730.000000	0.329373
1731.000000	0.329384
1732.000000	0.329405
1733.000000	0.329497
1734.000000	0.329502
1735.000000	0.329575
1736.000000	0.329698
1737.000000	0.329687
1738.000000	0.329637
1739.000000	0.329653
1740.000000	0.329581
1741.000000	0.329577
1742.000000	0.329706
1743.000000	0.329761
1744.000000	0.329759
1745.000000	0.329696
1746.000000	0.329589
1747.000000	0.329505
1748.000000	0.329429
1749.000000	0.329458
1750.000000	0.329458
1751.000000	0.329594
1752.000000	0.329772
1753.000000	0.329833
1754.000000	0.329920
1755.000000	0.329969
1756.000000	0.330002
1757.000000	0.330007
1758.000000	0.330090
1759.000000	0.330215
1760.000000	0.330279
1761.000000	0.330268
1762.000000	0.330353
1763.000000	0.330397
1764.000000	0.330581
1765.000000	0.330960
1766.000000	0.331221
1767.000000	0.331492
1768.000000	0.331539
1769.000000	0.331462
1770.000000	0.331526
1771.000000	0.331493
1772.000000	0.331467
1773.000000	0.331423
1774.000000	0.331474
1775.000000	0.331592
1776.000000	0.331641
1777.000000	0.331778
1778.000000	0.331759
1779.000000	0.331478
1780.000000	0.331533
1781.000000	0.331650
1782.000000	0.331853
1783.000000	0.332299
1784.000000	0.332658
1785.000000	0.332833
1786.000000	0.332907
1787.000000	0.333092
1788.000000	0.333130
1789.000000	0.333199
1790.000000	0.333234
1791.000000	0.333244
1792.000000	0.333310
1793.000000	0.333370
1794.000000	0.333502
1795.000000	0.333631
1796.000000	0.333752
1797.000000	0.333810
1798.000000	0.333739
1799.000000	0.333792
1800.000000	0.334029
1801.000000	0.334143
1802.000000	0.334057
1803.000000	0.333360
1804.000000	0.333646
1805.000000	0.334043
1806.000000	0.334378
1807.000000	0.335839
1808.000000	0.336103
1809.000000	0.335108
1810.000000	0.334793
1811.000000	0.334672
1812.000000	0.334383
1813.000000	0.334355
1814.000000	0.334818
1815.000000	0.335077
1816.000000	0.335350
1817.000000	0.335476
1818.000000	0.335597
1819.000000	0.336238
1820.000000	0.336323
1821.000000	0.335165
1822.000000	0.335009
1823.000000	0.334951
1824.000000	0.334690
1825.000000	0.334476
1826.000000	0.334576
1827.000000	0.334620
1828.000000	0.334479
1829.000000	0.334241
1830.000000	0.334144
1831.000000	0.334339
1832.000000	0.334150
1833.000000	0.334368
1834.000000	0.335870
1835.000000	0.336215
1836.000000	0.335730
1837.000000	0.335620
1838.000000	0.335350
1839.000000	0.334336
1840.000000	0.334495
1841.000000	0.334660
1842.000000	0.334288
1843.000000	0.333755
1844.000000	0.333339
1845.000000	0.332438
1846.000000	0.331646
1847.000000	0.330684
1848.000000	0.329974
1849.000000	0.329458
1850.000000	0.329113
1851.000000	0.328879
1852.000000	0.329092
1853.000000	0.329156
1854.000000	0.328823
1855.000000	0.328758
1856.000000	0.329079
1857.000000	0.328990
1858.000000	0.328706
1859.000000	0.328360
1860.000000	0.327185
1861.000000	0.326132
1862.000000	0.325107
1863.000000	0.323879
1864.000000	0.322918
1865.000000	0.321871
1866.000000	0.321297
1867.000000	0.321255
1868.000000	0.320946
1869.000000	0.320230
1870.000000	0.319384
1871.000000	0.316717
1872.000000	0.313489
1873.000000	0.311420
1874.000000	0.309437
1875.000000	0.307612
1876.000000	0.306390
1877.000000	0.304857
1878.000000	0.302712
1879.000000	0.301033
1880.000000	0.298731
1881.000000	0.296250
1882.000000	0.293710
1883.000000	0.290472
1884.000000	0.287346
1885.000000	0.283640
1886.000000	0.280654
1887.000000	0.277805
1888.000000	0.274913
1889.000000	0.272439
1890.000000	0.269949
1891.000000	0.267061
1892.000000	0.263604
1893.000000	0.259961
1894.000000	0.257055
1895.000000	0.253910
1896.000000	0.251017
1897.000000	0.247876
1898.000000	0.244341
1899.000000	0.240612
1900.000000	0.236379
1901.000000	0.232521
1902.000000	0.229063
1903.000000	0.225789
1904.000000	0.223786
1905.000000	0.221421
1906.000000	0.218577
1907.000000	0.215619
1908.000000	0.212947
1909.000000	0.209947
1910.000000	0.207106
1911.000000	0.205025
1912.000000	0.203304
1913.000000	0.201674
1914.000000	0.200410
1915.000000	0.198889
1916.000000	0.197695
1917.000000	0.196396
1918.000000	0.195088
1919.000000	0.193341
1920.000000	0.191968
1921.000000	0.190155
1922.000000	0.188534
1923.000000	0.187647
1924.000000	0.186822
1925.000000	0.187048
1926.000000	0.187438
1927.000000	0.187720
1928.000000	0.187975
1929.000000	0.188618
1930.000000	0.188814
1931.000000	0.188683
1932.000000	0.188082
1933.000000	0.187679
1934.000000	0.187610
1935.000000	0.187584
1936.000000	0.187984
1937.000000	0.188531
1938.000000	0.188840
1939.000000	0.188865
1940.000000	0.188755
1941.000000	0.188256
1942.000000	0.187730
1943.000000	0.186956
1944.000000	0.186116
1945.000000	0.186125
1946.000000	0.186055
1947.000000	0.185805
1948.000000	0.185613
1949.000000	0.185274
1950.000000	0.184705
1951.000000	0.184278
1952.000000	0.183973
1953.000000	0.183880
1954.000000	0.183715
1955.000000	0.183794
1956.000000	0.183776
1957.000000	0.183658
1958.000000	0.183484
1959.000000	0.183436
1960.000000	0.183260
1961.000000	0.182699
1962.000000	0.182380
1963.000000	0.182096
1964.000000	0.181772
1965.000000	0.181638
1966.000000	0.182180
1967.000000	0.182206
1968.000000	0.181924
1969.000000	0.182414
1970.000000	0.182351
1971.000000	0.182426
1972.000000	0.183141
1973.000000	0.183349
1974.000000	0.183141
1975.000000	0.183344
1976.000000	0.183817
1977.000000	0.183780
1978.000000	0.184014
1979.000000	0.184203
1980.000000	0.183904
1981.000000	0.184067
1982.000000	0.184308
1983.000000	0.184497
1984.000000	0.184885
1985.000000	0.185644
1986.000000	0.186247
1987.000000	0.186957
1988.000000	0.187528
1989.000000	0.188347
1990.000000	0.188945
1991.000000	0.188918
1992.000000	0.189448
1993.000000	0.189909
1994.000000	0.190586
1995.000000	0.192020
1996.000000	0.193177
1997.000000	0.194086
1998.000000	0.194806
1999.000000	0.195577
2000.000000	0.196035
2001.000000	0.196745
2002.000000	0.198121
2003.000000	0.199512
2004.000000	0.200230
2005.000000	0.201092
2006.000000	0.201679
2007.000000	0.201829
2008.000000	0.202548
2009.000000	0.203739
2010.000000	0.204747
2011.000000	0.205828
2012.000000	0.206890
2013.000000	0.207828
2014.000000	0.208990
2015.000000	0.210269
2016.000000	0.211277
2017.000000	0.212448
2018.000000	0.213374
2019.000000	0.213965
2020.000000	0.214330
2021.000000	0.214734
2022.000000	0.214910
2023.000000	0.215385
2024.000000	0.215862
2025.000000	0.216574
2026.000000	0.217533
2027.000000	0.218178
2028.000000	0.218983
2029.000000	0.219937
2030.000000	0.221061
2031.000000	0.221988
2032.000000	0.222950
2033.000000	0.224210
2034.000000	0.225128
2035.000000	0.226091
2036.000000	0.226803
2037.000000	0.227126
2038.000000	0.227739
2039.000000	0.228509
2040.000000	0.229012
2041.000000	0.229839
2042.000000	0.230879
2043.000000	0.231621
2044.000000	0.232828
2045.000000	0.233619
2046.000000	0.234319
2047.000000	0.234853
2048.000000	0.234943
2049.000000	0.235233
2050.000000	0.235023
2051.000000	0.235382
2052.000000	0.236023
2053.000000	0.236648
2054.000000	0.237704
2055.000000	0.238780
2056.000000	0.239825
2057.000000	0.240455
2058.000000	0.241459
2059.000000	0.241883
2060.000000	0.242381
2061.000000	0.242740
2062.000000	0.243379
2063.000000	0.244088
2064.000000	0.244771
2065.000000	0.245868
2066.000000	0.246594
2067.000000	0.247149
2068.000000	0.248131
2069.000000	0.249321
2070.000000	0.250008
2071.000000	0.250572
2072.000000	0.250986
2073.000000	0.251136
2074.000000	0.251086
2075.000000	0.251163
2076.000000	0.250994
2077.000000	0.251565
2078.000000	0.252472
2079.000000	0.253407
2080.000000	0.255180
2081.000000	0.256351
2082.000000	0.257436
2083.000000	0.258000
2084.000000	0.258350
2085.000000	0.258985
2086.000000	0.258759
2087.000000	0.258814
2088.000000	0.259545
2089.000000	0.260101
2090.000000	0.260992
2091.000000	0.262557
2092.000000	0.263844
2093.000000	0.265252
2094.000000	0.266278
2095.000000	0.267639
2096.000000	0.268122
2097.000000	0.267686
2098.000000	0.267633
2099.000000	0.266615
2100.000000	0.266051
2101.000000	0.265785
2102.000000	0.265670
2103.000000	0.266623
2104.000000	0.267257
2105.000000	0.268129
2106.000000	0.269554
2107.000000	0.270755
2108.000000	0.271973
2109.000000	0.273044
2110.000000	0.274152
2111.000000	0.274622
2112.000000	0.274501
2113.000000	0.274104
2114.000000	0.274066
2115.000000	0.273984
2116.000000	0.273820
2117.000000	0.274394
2118.000000	0.275343
2119.000000	0.275813
2120.000000	0.276552
2121.000000	0.278119
2122.000000	0.278631
2123.000000	0.278438
2124.000000	0.278653
2125.000000	0.278294
2126.000000	0.278452
2127.000000	0.279219
2128.000000	0.279585
2129.000000	0.279751
2130.000000	0.280381
2131.000000	0.279924
2132.000000	0.280432
2133.000000	0.280995
2134.000000	0.280720
2135.000000	0.281031
2136.000000	0.280430
2137.000000	0.280282
2138.000000	0.280168
2139.000000	0.280373
2140.000000	0.281189
2141.000000	0.281175
2142.000000	0.280421
2143.000000	0.280039
2144.000000	0.279399
2145.000000	0.279384
2146.000000	0.279972
2147.000000	0.281561
2148.000000	0.281754
2149.000000	0.281208
2150.000000	0.280890
2151.000000	0.280264
2152.000000	0.280182
2153.000000	0.280100
2154.000000	0.279708
2155.000000	0.278823
2156.000000	0.278515
2157.000000	0.278206
2158.000000	0.278310
2159.000000	0.278873
2160.000000	0.279553
2161.000000	0.280886
2162.000000	0.281624
2163.000000	0.282252
2164.000000	0.282643
2165.000000	0.282529
2166.000000	0.282483
2167.000000	0.282051
2168.000000	0.281590
2169.000000	0.281521
2170.000000	0.281235
2171.000000	0.281249
2172.000000	0.281993
2173.000000	0.281909
2174.000000	0.281212
2175.000000	0.281048
2176.000000	0.280757
2177.000000	0.280770
2178.000000	0.281572
2179.000000	0.282023
2180.000000	0.282374
2181.000000	0.282621
2182.000000	0.282294
2183.000000	0.281649
2184.000000	0.280964
2185.000000	0.280631
2186.000000	0.281199
2187.000000	0.281833
2188.000000	0.281529
2189.000000	0.281383
2190.000000	0.282117
2191.000000	0.282748
2192.000000	0.283218
2193.000000	0.284987
2194.000000	0.285294
2195.000000	0.283925
2196.000000	0.283232
2197.000000	0.282563
2198.000000	0.281729
2199.000000	0.281315
2200.000000	0.280108
2201.000000	0.277102
2202.000000	0.275509
2203.000000	0.273655
2204.000000	0.272353
2205.000000	0.273569
2206.000000	0.276853
2207.000000	0.278013
2208.000000	0.279652
2209.000000	0.279775
2210.000000	0.278560
2211.000000	0.280487
2212.000000	0.281828
2213.000000	0.281997
2214.000000	0.282042
2215.000000	0.281920
2216.000000	0.280205
2217.000000	0.279719
2218.000000	0.279970
2219.000000	0.279913
2220.000000	0.279740
2221.000000	0.279865
2222.000000	0.280352
2223.000000	0.281126
2224.000000	0.282063
2225.000000	0.282979
2226.000000	0.283934
2227.000000	0.283556
2228.000000	0.284968
2229.000000	0.282685
2230.000000	0.280217
2231.000000	0.280587
2232.000000	0.279426
2233.000000	0.279503
2234.000000	0.280227
2235.000000	0.279238
2236.000000	0.278165
2237.000000	0.275458
2238.000000	0.275549
2239.000000	0.276210
2240.000000	0.277711
2241.000000	0.282125
2242.000000	0.283731
2243.000000	0.284457
2244.000000	0.285032
2245.000000	0.284156
2246.000000	0.284302
2247.000000	0.285103
2248.000000	0.285121
2249.000000	0.284677
2250.000000	0.284500
2251.000000	0.284845
2252.000000	0.285019
2253.000000	0.288093
2254.000000	0.288827
2255.000000	0.287954
2256.000000	0.288042
2257.000000	0.285645
2258.000000	0.283337
2259.000000	0.281885
2260.000000	0.280896
2261.000000	0.280087
2262.000000	0.280148
2263.000000	0.279673
2264.000000	0.279352
2265.000000	0.277858
2266.000000	0.275572
2267.000000	0.274065
2268.000000	0.271695
2269.000000	0.270733
2270.000000	0.270937
2271.000000	0.270232
2272.000000	0.269572
2273.000000	0.270036
2274.000000	0.271427
2275.000000	0.271743
2276.000000	0.273227
2277.000000	0.272057
2278.000000	0.268853
2279.000000	0.265236
2280.000000	0.263141
2281.000000	0.261691
2282.000000	0.262379
2283.000000	0.265859
2284.000000	0.268124
2285.000000	0.268318
2286.000000	0.266024
2287.000000	0.263498
2288.000000	0.260900
2289.000000	0.258121
2290.000000	0.256084
2291.000000	0.252544
2292.000000	0.253004
2293.000000	0.256279
2294.000000	0.257680
2295.000000	0.262054
2296.000000	0.262906
2297.000000	0.259451
2298.000000	0.258278
2299.000000	0.257557
2300.000000	0.257802
2301.000000	0.258710
2302.000000	0.259412
2303.000000	0.260469
2304.000000	0.260651
2305.000000	0.261207
2306.000000	0.261217
2307.000000	0.260561
2308.000000	0.259826
2309.000000	0.259089
2310.000000	0.259009
2311.000000	0.259530
2312.000000	0.258932
2313.000000	0.260045
2314.000000	0.260058
2315.000000	0.257431
2316.000000	0.257757
2317.000000	0.256858
2318.000000	0.253614
2319.000000	0.254502
2320.000000	0.255345
2321.000000	0.255673
2322.000000	0.256209
2323.000000	0.254523
2324.000000	0.252462
2325.000000	0.250561
2326.000000	0.249947
2327.000000	0.248907
2328.000000	0.248999
2329.000000	0.249115
2330.000000	0.247969
2331.000000	0.247487
2332.000000	0.245393
2333.000000	0.244379
2334.000000	0.242118
2335.000000	0.240264
2336.000000	0.238163
2337.000000	0.236917
2338.000000	0.236480
2339.000000	0.235977
2340.000000	0.235671
2341.000000	0.234831
2342.000000	0.232461
2343.000000	0.230628
2344.000000	0.229901
2345.000000	0.230122
2346.000000	0.231290
2347.000000	0.231908
2348.000000	0.233480
2349.000000	0.232638
2350.000000	0.230557
2351.000000	0.229201
2352.000000	0.229011
2353.000000	0.227633
2354.000000	0.227504
2355.000000	0.228204
2356.000000	0.226279
2357.000000	0.224515
2358.000000	0.223020
2359.000000	0.221107
2360.000000	0.221629
2361.000000	0.221279
2362.000000	0.218548
2363.000000	0.217662
2364.000000	0.216334
2365.000000	0.215090
2366.000000	0.213222
2367.000000	0.211553
2368.000000	0.210224
2369.000000	0.205312
2370.000000	0.205505
2371.000000	0.208446
2372.000000	0.209034
2373.000000	0.214391
2374.000000	0.216347
2375.000000	0.214552
2376.000000	0.212571
2377.000000	0.207577
2378.000000	0.205518
2379.000000	0.204165
2380.000000	0.204377
2381.000000	0.205461
2382.000000	0.203093
2383.000000	0.201332
2384.000000	0.198268
2385.000000	0.194513
2386.000000	0.195110
2387.000000	0.195807
2388.000000	0.194517
2389.000000	0.195298
2390.000000	0.194417
2391.000000	0.191636
2392.000000	0.190328
2393.000000	0.189231
2394.000000	0.186330
2395.000000	0.182588
2396.000000	0.180259
2397.000000	0.178964
2398.000000	0.183018
2399.000000	0.186878
2400.000000	0.186528
2401.000000	0.187237
2402.000000	0.184176
2403.000000	0.184147
2404.000000	0.191357
2405.000000	0.192045
2406.000000	0.190376
2407.000000	0.185665
2408.000000	0.175399
2409.000000	0.173340
2410.000000	0.172898
2411.000000	0.171835
2412.000000	0.177074
2413.000000	0.180408
2414.000000	0.182655
2415.000000	0.186219
2416.000000	0.186680
2417.000000	0.190312
2418.000000	0.194522
2419.000000	0.195217
2420.000000	0.194615
2421.000000	0.193875
2422.000000	0.190296
2423.000000	0.186112
2424.000000	0.186476
2425.000000	0.175233
2426.000000	0.162683
2427.000000	0.159189
2428.000000	0.158943
2429.000000	0.165492
2430.000000	0.174454
2431.000000	0.177234
2432.000000	0.169063
2433.000000	0.171815
2434.000000	0.180262
2435.000000	0.184673
2436.000000	0.192394
2437.000000	0.181051
2438.000000	0.161255
2439.000000	0.145020
2440.000000	0.141501
2441.000000	0.157444
2442.000000	0.167970
2443.000000	0.175358
2444.000000	0.179360
2445.000000	0.176090
2446.000000	0.174080
2447.000000	0.184748
2448.000000	0.185484
2449.000000	0.165696
2450.000000	0.158646
2451.000000	0.140854
2452.000000	0.134396
2453.000000	0.153087
2454.000000	0.151396
2455.000000	0.152534
2456.000000	0.147212
2457.000000	0.137692
2458.000000	0.144282
2459.000000	0.151544
2460.000000	0.161368
2461.000000	0.154280
2462.000000	0.140071
2463.000000	0.129870
2464.000000	0.110165
2465.000000	0.114746
2466.000000	0.135910
2467.000000	0.129694
2468.000000	0.121774
2469.000000	0.110016
2470.000000	0.101178
2471.000000	0.133098
2472.000000	0.177399
2473.000000	0.203629
2474.000000	0.187218
2475.000000	0.139920
2476.000000	0.114248
2477.000000	0.093165
2478.000000	0.075379
2479.000000	0.096342
2480.000000	0.095280
2481.000000	0.115562
2482.000000	0.150986
2483.000000	0.143048
2484.000000	0.160587
2485.000000	0.160868
2486.000000	0.151852
2487.000000	0.176119
2488.000000	0.153842
2489.000000	0.112753
2490.000000	0.106472
2491.000000	0.159302
2492.000000	0.164853
2493.000000	0.181510
2494.000000	0.190402
2495.000000	0.107942
2496.000000	0.102204
2497.000000	0.163826
2498.000000	0.176482
2499.000000	0.225968
2500.000000	0.240223
