# Wavelength	NAu-2-40_HEX-30_FV7-30_00000.asd.rts.txt
350.000000	0.162824
351.000000	0.163761
352.000000	0.148670
353.000000	0.134796
354.000000	0.133840
355.000000	0.142465
356.000000	0.140327
357.000000	0.129297
358.000000	0.124465
359.000000	0.134503
360.000000	0.145160
361.000000	0.140107
362.000000	0.132323
363.000000	0.129719
364.000000	0.133471
365.000000	0.133256
366.000000	0.132513
367.000000	0.132782
368.000000	0.134743
369.000000	0.133738
370.000000	0.131830
371.000000	0.132615
372.000000	0.132682
373.000000	0.134829
374.000000	0.139238
375.000000	0.135746
376.000000	0.134652
377.000000	0.137258
378.000000	0.136774
379.000000	0.135819
380.000000	0.135408
381.000000	0.136455
382.000000	0.138075
383.000000	0.138361
384.000000	0.136756
385.000000	0.135166
386.000000	0.136358
387.000000	0.139679
388.000000	0.140750
389.000000	0.140180
390.000000	0.139725
391.000000	0.141024
392.000000	0.138948
393.000000	0.136850
394.000000	0.137483
395.000000	0.137999
396.000000	0.139661
397.000000	0.141759
398.000000	0.140593
399.000000	0.140461
400.000000	0.141385
401.000000	0.141608
402.000000	0.141487
403.000000	0.141662
404.000000	0.142482
405.000000	0.142455
406.000000	0.142417
407.000000	0.142693
408.000000	0.142467
409.000000	0.142893
410.000000	0.143533
411.000000	0.143038
412.000000	0.143384
413.000000	0.143968
414.000000	0.143943
415.000000	0.144617
416.000000	0.145127
417.000000	0.145087
418.000000	0.145452
419.000000	0.145769
420.000000	0.145942
421.000000	0.146127
422.000000	0.146690
423.000000	0.147234
424.000000	0.147252
425.000000	0.147204
426.000000	0.147394
427.000000	0.147913
428.000000	0.148376
429.000000	0.148877
430.000000	0.149416
431.000000	0.149860
432.000000	0.150048
433.000000	0.150150
434.000000	0.150521
435.000000	0.150210
436.000000	0.149974
437.000000	0.150532
438.000000	0.150959
439.000000	0.151464
440.000000	0.152112
441.000000	0.152375
442.000000	0.152440
443.000000	0.152477
444.000000	0.152792
445.000000	0.152940
446.000000	0.153108
447.000000	0.153517
448.000000	0.154176
449.000000	0.154866
450.000000	0.155402
451.000000	0.155734
452.000000	0.155747
453.000000	0.155694
454.000000	0.156488
455.000000	0.156889
456.000000	0.157146
457.000000	0.157917
458.000000	0.158165
459.000000	0.158164
460.000000	0.158398
461.000000	0.159087
462.000000	0.159488
463.000000	0.159351
464.000000	0.159626
465.000000	0.160143
466.000000	0.160676
467.000000	0.160987
468.000000	0.161294
469.000000	0.161443
470.000000	0.161422
471.000000	0.161943
472.000000	0.162656
473.000000	0.163214
474.000000	0.163438
475.000000	0.163587
476.000000	0.163874
477.000000	0.164283
478.000000	0.164460
479.000000	0.164622
480.000000	0.164974
481.000000	0.165237
482.000000	0.165590
483.000000	0.166037
484.000000	0.166383
485.000000	0.166507
486.000000	0.166622
487.000000	0.167247
488.000000	0.167541
489.000000	0.167452
490.000000	0.167420
491.000000	0.167759
492.000000	0.168223
493.000000	0.168368
494.000000	0.168473
495.000000	0.168597
496.000000	0.168704
497.000000	0.168644
498.000000	0.168793
499.000000	0.169195
500.000000	0.169354
501.000000	0.169650
502.000000	0.169957
503.000000	0.169920
504.000000	0.170081
505.000000	0.170354
506.000000	0.170561
507.000000	0.170706
508.000000	0.170895
509.000000	0.171156
510.000000	0.171428
511.000000	0.171840
512.000000	0.172336
513.000000	0.172662
514.000000	0.172970
515.000000	0.173357
516.000000	0.173834
517.000000	0.174162
518.000000	0.174485
519.000000	0.174876
520.000000	0.175240
521.000000	0.175742
522.000000	0.176373
523.000000	0.176832
524.000000	0.177361
525.000000	0.178004
526.000000	0.178741
527.000000	0.179505
528.000000	0.180320
529.000000	0.181257
530.000000	0.182291
531.000000	0.183369
532.000000	0.184392
533.000000	0.185361
534.000000	0.186473
535.000000	0.187704
536.000000	0.188828
537.000000	0.189951
538.000000	0.191109
539.000000	0.192295
540.000000	0.193335
541.000000	0.194278
542.000000	0.195220
543.000000	0.196107
544.000000	0.197017
545.000000	0.197932
546.000000	0.198814
547.000000	0.199749
548.000000	0.200745
549.000000	0.201687
550.000000	0.202837
551.000000	0.204060
552.000000	0.205121
553.000000	0.206386
554.000000	0.207765
555.000000	0.209157
556.000000	0.210582
557.000000	0.212050
558.000000	0.213627
559.000000	0.215166
560.000000	0.216646
561.000000	0.218128
562.000000	0.219604
563.000000	0.221033
564.000000	0.222492
565.000000	0.223946
566.000000	0.225225
567.000000	0.226469
568.000000	0.227728
569.000000	0.228873
570.000000	0.229863
571.000000	0.230736
572.000000	0.231633
573.000000	0.232421
574.000000	0.233081
575.000000	0.233682
576.000000	0.234245
577.000000	0.234729
578.000000	0.235144
579.000000	0.235445
580.000000	0.235732
581.000000	0.236022
582.000000	0.236196
583.000000	0.236374
584.000000	0.236535
585.000000	0.236587
586.000000	0.236610
587.000000	0.236584
588.000000	0.236477
589.000000	0.236316
590.000000	0.236141
591.000000	0.235959
592.000000	0.235699
593.000000	0.235436
594.000000	0.235193
595.000000	0.234953
596.000000	0.234621
597.000000	0.234216
598.000000	0.233734
599.000000	0.233327
600.000000	0.232934
601.000000	0.232434
602.000000	0.231979
603.000000	0.231501
604.000000	0.230983
605.000000	0.230484
606.000000	0.229999
607.000000	0.229537
608.000000	0.229108
609.000000	0.228678
610.000000	0.228230
611.000000	0.227761
612.000000	0.227319
613.000000	0.226931
614.000000	0.226600
615.000000	0.226181
616.000000	0.225750
617.000000	0.225322
618.000000	0.224941
619.000000	0.224531
620.000000	0.224096
621.000000	0.223715
622.000000	0.223312
623.000000	0.222941
624.000000	0.222643
625.000000	0.222342
626.000000	0.222061
627.000000	0.221808
628.000000	0.221549
629.000000	0.221395
630.000000	0.221235
631.000000	0.221050
632.000000	0.220876
633.000000	0.220746
634.000000	0.220656
635.000000	0.220483
636.000000	0.220394
637.000000	0.220415
638.000000	0.220284
639.000000	0.220206
640.000000	0.220242
641.000000	0.220221
642.000000	0.220207
643.000000	0.220226
644.000000	0.220292
645.000000	0.220393
646.000000	0.220493
647.000000	0.220552
648.000000	0.220592
649.000000	0.220711
650.000000	0.220908
651.000000	0.221106
652.000000	0.221296
653.000000	0.221530
654.000000	0.221826
655.000000	0.222164
656.000000	0.222513
657.000000	0.222812
658.000000	0.223128
659.000000	0.223475
660.000000	0.223851
661.000000	0.224256
662.000000	0.224680
663.000000	0.225161
664.000000	0.225688
665.000000	0.226240
666.000000	0.226790
667.000000	0.227307
668.000000	0.227896
669.000000	0.228552
670.000000	0.229254
671.000000	0.229946
672.000000	0.230676
673.000000	0.231423
674.000000	0.232132
675.000000	0.232878
676.000000	0.233673
677.000000	0.234519
678.000000	0.235407
679.000000	0.236302
680.000000	0.237196
681.000000	0.238119
682.000000	0.239077
683.000000	0.240040
684.000000	0.241117
685.000000	0.242184
686.000000	0.243250
687.000000	0.244330
688.000000	0.245431
689.000000	0.246585
690.000000	0.247830
691.000000	0.249072
692.000000	0.250325
693.000000	0.251631
694.000000	0.252918
695.000000	0.254222
696.000000	0.255529
697.000000	0.256822
698.000000	0.258192
699.000000	0.259627
700.000000	0.261091
701.000000	0.262495
702.000000	0.263957
703.000000	0.265475
704.000000	0.266926
705.000000	0.268446
706.000000	0.270003
707.000000	0.271575
708.000000	0.273159
709.000000	0.274751
710.000000	0.276360
711.000000	0.277940
712.000000	0.279541
713.000000	0.281193
714.000000	0.282845
715.000000	0.284537
716.000000	0.286234
717.000000	0.287859
718.000000	0.289554
719.000000	0.291242
720.000000	0.292876
721.000000	0.294549
722.000000	0.296227
723.000000	0.297947
724.000000	0.299680
725.000000	0.301393
726.000000	0.303108
727.000000	0.304722
728.000000	0.306360
729.000000	0.308013
730.000000	0.309608
731.000000	0.311202
732.000000	0.312785
733.000000	0.314375
734.000000	0.315907
735.000000	0.317401
736.000000	0.318971
737.000000	0.320490
738.000000	0.321896
739.000000	0.323333
740.000000	0.324733
741.000000	0.326169
742.000000	0.327576
743.000000	0.328902
744.000000	0.330206
745.000000	0.331450
746.000000	0.332709
747.000000	0.333970
748.000000	0.335191
749.000000	0.336400
750.000000	0.337570
751.000000	0.338650
752.000000	0.339712
753.000000	0.340755
754.000000	0.341686
755.000000	0.342692
756.000000	0.343745
757.000000	0.344710
758.000000	0.345592
759.000000	0.346429
760.000000	0.347189
761.000000	0.348008
762.000000	0.348778
763.000000	0.349499
764.000000	0.350315
765.000000	0.351023
766.000000	0.351643
767.000000	0.352231
768.000000	0.352839
769.000000	0.353406
770.000000	0.353927
771.000000	0.354468
772.000000	0.355022
773.000000	0.355538
774.000000	0.356087
775.000000	0.356572
776.000000	0.357008
777.000000	0.357406
778.000000	0.357792
779.000000	0.358151
780.000000	0.358485
781.000000	0.358784
782.000000	0.359007
783.000000	0.359267
784.000000	0.359497
785.000000	0.359774
786.000000	0.360054
787.000000	0.360300
788.000000	0.360523
789.000000	0.360724
790.000000	0.360920
791.000000	0.361179
792.000000	0.361327
793.000000	0.361413
794.000000	0.361518
795.000000	0.361667
796.000000	0.361798
797.000000	0.361911
798.000000	0.362081
799.000000	0.362197
800.000000	0.362261
801.000000	0.362311
802.000000	0.362322
803.000000	0.362369
804.000000	0.362483
805.000000	0.362437
806.000000	0.362348
807.000000	0.362335
808.000000	0.362341
809.000000	0.362315
810.000000	0.362322
811.000000	0.362378
812.000000	0.362369
813.000000	0.362323
814.000000	0.362268
815.000000	0.362256
816.000000	0.362236
817.000000	0.362209
818.000000	0.362107
819.000000	0.362093
820.000000	0.362092
821.000000	0.362018
822.000000	0.361963
823.000000	0.361867
824.000000	0.361673
825.000000	0.361489
826.000000	0.361379
827.000000	0.361269
828.000000	0.361149
829.000000	0.360973
830.000000	0.360898
831.000000	0.360912
832.000000	0.360721
833.000000	0.360605
834.000000	0.360476
835.000000	0.360282
836.000000	0.360060
837.000000	0.359944
838.000000	0.359916
839.000000	0.359782
840.000000	0.359544
841.000000	0.359347
842.000000	0.359257
843.000000	0.359167
844.000000	0.359005
845.000000	0.358763
846.000000	0.358587
847.000000	0.358360
848.000000	0.358176
849.000000	0.358135
850.000000	0.357856
851.000000	0.357544
852.000000	0.357363
853.000000	0.357263
854.000000	0.357084
855.000000	0.356981
856.000000	0.356941
857.000000	0.356740
858.000000	0.356573
859.000000	0.356435
860.000000	0.356240
861.000000	0.356060
862.000000	0.355910
863.000000	0.355693
864.000000	0.355433
865.000000	0.355149
866.000000	0.354926
867.000000	0.354886
868.000000	0.354824
869.000000	0.354570
870.000000	0.354147
871.000000	0.353769
872.000000	0.353429
873.000000	0.353089
874.000000	0.352976
875.000000	0.352738
876.000000	0.352387
877.000000	0.352014
878.000000	0.351630
879.000000	0.351336
880.000000	0.351028
881.000000	0.350784
882.000000	0.350539
883.000000	0.350329
884.000000	0.350145
885.000000	0.349962
886.000000	0.349738
887.000000	0.349500
888.000000	0.349310
889.000000	0.349125
890.000000	0.348823
891.000000	0.348531
892.000000	0.348291
893.000000	0.347946
894.000000	0.347590
895.000000	0.347301
896.000000	0.347011
897.000000	0.346697
898.000000	0.346369
899.000000	0.346113
900.000000	0.345850
901.000000	0.345565
902.000000	0.345502
903.000000	0.345425
904.000000	0.345219
905.000000	0.344778
906.000000	0.344624
907.000000	0.344293
908.000000	0.343824
909.000000	0.343616
910.000000	0.343408
911.000000	0.343181
912.000000	0.342974
913.000000	0.342771
914.000000	0.342438
915.000000	0.342058
916.000000	0.341702
917.000000	0.341491
918.000000	0.341307
919.000000	0.341014
920.000000	0.340641
921.000000	0.340412
922.000000	0.340229
923.000000	0.339834
924.000000	0.339594
925.000000	0.339311
926.000000	0.338951
927.000000	0.338741
928.000000	0.338502
929.000000	0.338221
930.000000	0.337942
931.000000	0.337731
932.000000	0.337413
933.000000	0.337016
934.000000	0.336674
935.000000	0.336439
936.000000	0.336174
937.000000	0.335739
938.000000	0.335666
939.000000	0.335484
940.000000	0.335123
941.000000	0.334929
942.000000	0.334685
943.000000	0.334398
944.000000	0.334064
945.000000	0.334119
946.000000	0.333781
947.000000	0.333269
948.000000	0.332950
949.000000	0.332518
950.000000	0.332374
951.000000	0.332420
952.000000	0.332198
953.000000	0.331865
954.000000	0.331405
955.000000	0.330809
956.000000	0.330445
957.000000	0.330261
958.000000	0.330128
959.000000	0.330014
960.000000	0.329827
961.000000	0.329588
962.000000	0.329335
963.000000	0.329182
964.000000	0.328929
965.000000	0.328736
966.000000	0.328613
967.000000	0.328474
968.000000	0.328304
969.000000	0.328034
970.000000	0.327740
971.000000	0.327528
972.000000	0.327402
973.000000	0.327241
974.000000	0.327003
975.000000	0.326794
976.000000	0.326531
977.000000	0.326195
978.000000	0.326086
979.000000	0.326165
980.000000	0.326143
981.000000	0.326163
982.000000	0.326120
983.000000	0.325841
984.000000	0.325507
985.000000	0.325452
986.000000	0.325115
987.000000	0.324877
988.000000	0.324793
989.000000	0.324226
990.000000	0.324051
991.000000	0.323983
992.000000	0.323593
993.000000	0.323617
994.000000	0.323424
995.000000	0.323175
996.000000	0.323195
997.000000	0.323551
998.000000	0.323850
999.000000	0.323878
1000.000000	0.323514
1001.000000	0.324367
1002.000000	0.323675
1003.000000	0.323200
1004.000000	0.323302
1005.000000	0.324473
1006.000000	0.324456
1007.000000	0.324411
1008.000000	0.324155
1009.000000	0.323085
1010.000000	0.322704
1011.000000	0.322916
1012.000000	0.323013
1013.000000	0.323259
1014.000000	0.323345
1015.000000	0.323039
1016.000000	0.322399
1017.000000	0.322093
1018.000000	0.322548
1019.000000	0.322825
1020.000000	0.323878
1021.000000	0.324086
1022.000000	0.323881
1023.000000	0.324092
1024.000000	0.324193
1025.000000	0.324588
1026.000000	0.324520
1027.000000	0.323816
1028.000000	0.323212
1029.000000	0.323030
1030.000000	0.323455
1031.000000	0.324136
1032.000000	0.324303
1033.000000	0.324092
1034.000000	0.324362
1035.000000	0.324955
1036.000000	0.324974
1037.000000	0.324937
1038.000000	0.325003
1039.000000	0.324738
1040.000000	0.324557
1041.000000	0.325206
1042.000000	0.325676
1043.000000	0.325846
1044.000000	0.325854
1045.000000	0.325449
1046.000000	0.325422
1047.000000	0.325532
1048.000000	0.325543
1049.000000	0.325730
1050.000000	0.326360
1051.000000	0.326643
1052.000000	0.326775
1053.000000	0.327014
1054.000000	0.327591
1055.000000	0.327673
1056.000000	0.327355
1057.000000	0.327407
1058.000000	0.327828
1059.000000	0.328047
1060.000000	0.328541
1061.000000	0.329218
1062.000000	0.329263
1063.000000	0.329384
1064.000000	0.329605
1065.000000	0.329945
1066.000000	0.330209
1067.000000	0.330539
1068.000000	0.330663
1069.000000	0.330580
1070.000000	0.330674
1071.000000	0.330744
1072.000000	0.330773
1073.000000	0.330844
1074.000000	0.331223
1075.000000	0.331472
1076.000000	0.331484
1077.000000	0.331141
1078.000000	0.330939
1079.000000	0.331180
1080.000000	0.331635
1081.000000	0.331940
1082.000000	0.332982
1083.000000	0.333212
1084.000000	0.332542
1085.000000	0.332719
1086.000000	0.333193
1087.000000	0.333448
1088.000000	0.333797
1089.000000	0.334190
1090.000000	0.334306
1091.000000	0.334611
1092.000000	0.335115
1093.000000	0.335690
1094.000000	0.335828
1095.000000	0.335378
1096.000000	0.335576
1097.000000	0.335930
1098.000000	0.336151
1099.000000	0.336480
1100.000000	0.336917
1101.000000	0.337358
1102.000000	0.337504
1103.000000	0.337638
1104.000000	0.337847
1105.000000	0.337680
1106.000000	0.337755
1107.000000	0.337964
1108.000000	0.338261
1109.000000	0.338667
1110.000000	0.339196
1111.000000	0.339475
1112.000000	0.339889
1113.000000	0.340104
1114.000000	0.339920
1115.000000	0.340109
1116.000000	0.340503
1117.000000	0.340793
1118.000000	0.341227
1119.000000	0.341351
1120.000000	0.341251
1121.000000	0.341267
1122.000000	0.341149
1123.000000	0.341445
1124.000000	0.341895
1125.000000	0.342159
1126.000000	0.342288
1127.000000	0.342491
1128.000000	0.342671
1129.000000	0.342770
1130.000000	0.342957
1131.000000	0.343325
1132.000000	0.343463
1133.000000	0.343554
1134.000000	0.343626
1135.000000	0.343549
1136.000000	0.343547
1137.000000	0.343463
1138.000000	0.343485
1139.000000	0.343736
1140.000000	0.343924
1141.000000	0.344026
1142.000000	0.344221
1143.000000	0.344422
1144.000000	0.344637
1145.000000	0.344713
1146.000000	0.344772
1147.000000	0.344778
1148.000000	0.344496
1149.000000	0.344507
1150.000000	0.344704
1151.000000	0.344773
1152.000000	0.344697
1153.000000	0.344900
1154.000000	0.345252
1155.000000	0.345341
1156.000000	0.345510
1157.000000	0.345611
1158.000000	0.345338
1159.000000	0.345282
1160.000000	0.345391
1161.000000	0.345447
1162.000000	0.345561
1163.000000	0.345804
1164.000000	0.345860
1165.000000	0.345910
1166.000000	0.345987
1167.000000	0.345948
1168.000000	0.345976
1169.000000	0.346120
1170.000000	0.346193
1171.000000	0.346253
1172.000000	0.346385
1173.000000	0.346472
1174.000000	0.346604
1175.000000	0.346846
1176.000000	0.346901
1177.000000	0.346886
1178.000000	0.346996
1179.000000	0.347118
1180.000000	0.347141
1181.000000	0.347314
1182.000000	0.347417
1183.000000	0.347446
1184.000000	0.347592
1185.000000	0.347647
1186.000000	0.347680
1187.000000	0.347791
1188.000000	0.347856
1189.000000	0.347949
1190.000000	0.348238
1191.000000	0.348391
1192.000000	0.348606
1193.000000	0.348830
1194.000000	0.348898
1195.000000	0.348976
1196.000000	0.348907
1197.000000	0.348934
1198.000000	0.349082
1199.000000	0.349134
1200.000000	0.349108
1201.000000	0.349200
1202.000000	0.349248
1203.000000	0.349177
1204.000000	0.349167
1205.000000	0.349252
1206.000000	0.349235
1207.000000	0.349244
1208.000000	0.349248
1209.000000	0.349263
1210.000000	0.349391
1211.000000	0.349641
1212.000000	0.349723
1213.000000	0.349892
1214.000000	0.349979
1215.000000	0.349836
1216.000000	0.349870
1217.000000	0.349962
1218.000000	0.349979
1219.000000	0.349961
1220.000000	0.350143
1221.000000	0.350269
1222.000000	0.350359
1223.000000	0.350513
1224.000000	0.350567
1225.000000	0.350566
1226.000000	0.350761
1227.000000	0.350882
1228.000000	0.350861
1229.000000	0.350897
1230.000000	0.350878
1231.000000	0.350823
1232.000000	0.350943
1233.000000	0.351067
1234.000000	0.351045
1235.000000	0.351089
1236.000000	0.351101
1237.000000	0.351207
1238.000000	0.351307
1239.000000	0.351445
1240.000000	0.351721
1241.000000	0.351840
1242.000000	0.351846
1243.000000	0.351923
1244.000000	0.351860
1245.000000	0.351910
1246.000000	0.352114
1247.000000	0.352364
1248.000000	0.352630
1249.000000	0.352797
1250.000000	0.352946
1251.000000	0.352956
1252.000000	0.352967
1253.000000	0.352971
1254.000000	0.353025
1255.000000	0.353039
1256.000000	0.353110
1257.000000	0.353283
1258.000000	0.353407
1259.000000	0.353401
1260.000000	0.353551
1261.000000	0.353775
1262.000000	0.353857
1263.000000	0.353935
1264.000000	0.353998
1265.000000	0.354064
1266.000000	0.354080
1267.000000	0.354156
1268.000000	0.354378
1269.000000	0.354477
1270.000000	0.354463
1271.000000	0.354435
1272.000000	0.354508
1273.000000	0.354753
1274.000000	0.355014
1275.000000	0.355083
1276.000000	0.355194
1277.000000	0.355262
1278.000000	0.354892
1279.000000	0.354905
1280.000000	0.355141
1281.000000	0.355194
1282.000000	0.355396
1283.000000	0.355504
1284.000000	0.355350
1285.000000	0.355384
1286.000000	0.355399
1287.000000	0.355479
1288.000000	0.355776
1289.000000	0.355911
1290.000000	0.355908
1291.000000	0.355959
1292.000000	0.355947
1293.000000	0.355953
1294.000000	0.356116
1295.000000	0.356216
1296.000000	0.356213
1297.000000	0.356287
1298.000000	0.356287
1299.000000	0.356265
1300.000000	0.356403
1301.000000	0.356411
1302.000000	0.356402
1303.000000	0.356536
1304.000000	0.356564
1305.000000	0.356647
1306.000000	0.356716
1307.000000	0.356790
1308.000000	0.356901
1309.000000	0.357002
1310.000000	0.357057
1311.000000	0.357173
1312.000000	0.357246
1313.000000	0.357031
1314.000000	0.356944
1315.000000	0.356783
1316.000000	0.356598
1317.000000	0.356634
1318.000000	0.356687
1319.000000	0.356604
1320.000000	0.356575
1321.000000	0.356552
1322.000000	0.356434
1323.000000	0.356471
1324.000000	0.356501
1325.000000	0.356284
1326.000000	0.356089
1327.000000	0.355917
1328.000000	0.355763
1329.000000	0.355646
1330.000000	0.355669
1331.000000	0.355697
1332.000000	0.355831
1333.000000	0.355920
1334.000000	0.356207
1335.000000	0.356312
1336.000000	0.356233
1337.000000	0.356158
1338.000000	0.355999
1339.000000	0.355711
1340.000000	0.355530
1341.000000	0.355484
1342.000000	0.355413
1343.000000	0.355442
1344.000000	0.355455
1345.000000	0.355350
1346.000000	0.355279
1347.000000	0.355073
1348.000000	0.354856
1349.000000	0.354764
1350.000000	0.354700
1351.000000	0.354512
1352.000000	0.354416
1353.000000	0.354267
1354.000000	0.354084
1355.000000	0.354103
1356.000000	0.354137
1357.000000	0.354108
1358.000000	0.354057
1359.000000	0.353833
1360.000000	0.353755
1361.000000	0.353789
1362.000000	0.353688
1363.000000	0.353601
1364.000000	0.353540
1365.000000	0.353309
1366.000000	0.353246
1367.000000	0.353340
1368.000000	0.353265
1369.000000	0.353211
1370.000000	0.352919
1371.000000	0.352455
1372.000000	0.352101
1373.000000	0.351736
1374.000000	0.351517
1375.000000	0.351364
1376.000000	0.351198
1377.000000	0.351087
1378.000000	0.350770
1379.000000	0.350194
1380.000000	0.349698
1381.000000	0.349258
1382.000000	0.348848
1383.000000	0.348565
1384.000000	0.347991
1385.000000	0.347139
1386.000000	0.346365
1387.000000	0.345539
1388.000000	0.344632
1389.000000	0.343765
1390.000000	0.342977
1391.000000	0.341957
1392.000000	0.340849
1393.000000	0.339739
1394.000000	0.338572
1395.000000	0.337401
1396.000000	0.336343
1397.000000	0.335003
1398.000000	0.333424
1399.000000	0.331971
1400.000000	0.330322
1401.000000	0.328858
1402.000000	0.327589
1403.000000	0.326305
1404.000000	0.324990
1405.000000	0.323598
1406.000000	0.322316
1407.000000	0.321248
1408.000000	0.320143
1409.000000	0.319213
1410.000000	0.318463
1411.000000	0.317542
1412.000000	0.316647
1413.000000	0.315961
1414.000000	0.315344
1415.000000	0.314737
1416.000000	0.314259
1417.000000	0.313841
1418.000000	0.313231
1419.000000	0.312765
1420.000000	0.312293
1421.000000	0.311884
1422.000000	0.311560
1423.000000	0.311188
1424.000000	0.310660
1425.000000	0.310119
1426.000000	0.309656
1427.000000	0.309251
1428.000000	0.308916
1429.000000	0.308679
1430.000000	0.308464
1431.000000	0.308215
1432.000000	0.307893
1433.000000	0.307557
1434.000000	0.307265
1435.000000	0.307018
1436.000000	0.306740
1437.000000	0.306438
1438.000000	0.306241
1439.000000	0.306047
1440.000000	0.305949
1441.000000	0.306051
1442.000000	0.306145
1443.000000	0.306173
1444.000000	0.306311
1445.000000	0.306474
1446.000000	0.306700
1447.000000	0.306992
1448.000000	0.307193
1449.000000	0.307468
1450.000000	0.307778
1451.000000	0.308036
1452.000000	0.308279
1453.000000	0.308528
1454.000000	0.308675
1455.000000	0.308781
1456.000000	0.308984
1457.000000	0.309238
1458.000000	0.309504
1459.000000	0.309685
1460.000000	0.309823
1461.000000	0.309923
1462.000000	0.309928
1463.000000	0.310030
1464.000000	0.310231
1465.000000	0.310370
1466.000000	0.310536
1467.000000	0.310736
1468.000000	0.310932
1469.000000	0.311306
1470.000000	0.311557
1471.000000	0.311789
1472.000000	0.312157
1473.000000	0.312523
1474.000000	0.312905
1475.000000	0.313383
1476.000000	0.313783
1477.000000	0.314097
1478.000000	0.314483
1479.000000	0.314882
1480.000000	0.315200
1481.000000	0.315519
1482.000000	0.315897
1483.000000	0.316246
1484.000000	0.316569
1485.000000	0.316930
1486.000000	0.317240
1487.000000	0.317629
1488.000000	0.318142
1489.000000	0.318510
1490.000000	0.318731
1491.000000	0.319022
1492.000000	0.319115
1493.000000	0.319437
1494.000000	0.319939
1495.000000	0.320304
1496.000000	0.320699
1497.000000	0.321026
1498.000000	0.321241
1499.000000	0.321533
1500.000000	0.321942
1501.000000	0.322310
1502.000000	0.322711
1503.000000	0.323041
1504.000000	0.323259
1505.000000	0.323568
1506.000000	0.323896
1507.000000	0.324085
1508.000000	0.324363
1509.000000	0.324686
1510.000000	0.324854
1511.000000	0.325090
1512.000000	0.325288
1513.000000	0.325379
1514.000000	0.325601
1515.000000	0.325883
1516.000000	0.326189
1517.000000	0.326405
1518.000000	0.326557
1519.000000	0.326628
1520.000000	0.326665
1521.000000	0.326780
1522.000000	0.327019
1523.000000	0.327289
1524.000000	0.327526
1525.000000	0.327711
1526.000000	0.327811
1527.000000	0.327965
1528.000000	0.328182
1529.000000	0.328371
1530.000000	0.328480
1531.000000	0.328643
1532.000000	0.328738
1533.000000	0.328759
1534.000000	0.328879
1535.000000	0.328984
1536.000000	0.328985
1537.000000	0.329145
1538.000000	0.329341
1539.000000	0.329329
1540.000000	0.329403
1541.000000	0.329585
1542.000000	0.329665
1543.000000	0.329819
1544.000000	0.329939
1545.000000	0.329984
1546.000000	0.330068
1547.000000	0.330148
1548.000000	0.330302
1549.000000	0.330395
1550.000000	0.330378
1551.000000	0.330430
1552.000000	0.330499
1553.000000	0.330614
1554.000000	0.330697
1555.000000	0.330707
1556.000000	0.330775
1557.000000	0.330807
1558.000000	0.330899
1559.000000	0.331031
1560.000000	0.331183
1561.000000	0.331395
1562.000000	0.331515
1563.000000	0.331730
1564.000000	0.331807
1565.000000	0.331755
1566.000000	0.331636
1567.000000	0.331515
1568.000000	0.331479
1569.000000	0.331486
1570.000000	0.331466
1571.000000	0.331492
1572.000000	0.331456
1573.000000	0.331368
1574.000000	0.331356
1575.000000	0.331383
1576.000000	0.331422
1577.000000	0.331485
1578.000000	0.331464
1579.000000	0.331532
1580.000000	0.331515
1581.000000	0.331423
1582.000000	0.331425
1583.000000	0.331442
1584.000000	0.331407
1585.000000	0.331513
1586.000000	0.331554
1587.000000	0.331481
1588.000000	0.331492
1589.000000	0.331562
1590.000000	0.331630
1591.000000	0.331782
1592.000000	0.331864
1593.000000	0.331950
1594.000000	0.332004
1595.000000	0.332051
1596.000000	0.332108
1597.000000	0.332204
1598.000000	0.332260
1599.000000	0.332298
1600.000000	0.332331
1601.000000	0.332497
1602.000000	0.332521
1603.000000	0.332512
1604.000000	0.332480
1605.000000	0.332331
1606.000000	0.332314
1607.000000	0.332451
1608.000000	0.332456
1609.000000	0.332506
1610.000000	0.332497
1611.000000	0.332403
1612.000000	0.332408
1613.000000	0.332588
1614.000000	0.332633
1615.000000	0.332686
1616.000000	0.332774
1617.000000	0.332747
1618.000000	0.332847
1619.000000	0.333045
1620.000000	0.333238
1621.000000	0.333556
1622.000000	0.333767
1623.000000	0.333868
1624.000000	0.333981
1625.000000	0.333878
1626.000000	0.333887
1627.000000	0.334014
1628.000000	0.334096
1629.000000	0.334118
1630.000000	0.334249
1631.000000	0.334374
1632.000000	0.334428
1633.000000	0.334519
1634.000000	0.334621
1635.000000	0.334712
1636.000000	0.334798
1637.000000	0.334955
1638.000000	0.335035
1639.000000	0.335066
1640.000000	0.335185
1641.000000	0.335436
1642.000000	0.335586
1643.000000	0.335827
1644.000000	0.335906
1645.000000	0.335799
1646.000000	0.335829
1647.000000	0.335867
1648.000000	0.335925
1649.000000	0.336192
1650.000000	0.336351
1651.000000	0.336506
1652.000000	0.336673
1653.000000	0.336744
1654.000000	0.336907
1655.000000	0.337072
1656.000000	0.337089
1657.000000	0.337158
1658.000000	0.337203
1659.000000	0.337274
1660.000000	0.337335
1661.000000	0.337286
1662.000000	0.337334
1663.000000	0.337338
1664.000000	0.337439
1665.000000	0.337670
1666.000000	0.337875
1667.000000	0.338010
1668.000000	0.338096
1669.000000	0.338161
1670.000000	0.338124
1671.000000	0.338103
1672.000000	0.338163
1673.000000	0.338143
1674.000000	0.338242
1675.000000	0.338367
1676.000000	0.338474
1677.000000	0.338686
1678.000000	0.338689
1679.000000	0.338648
1680.000000	0.338585
1681.000000	0.338532
1682.000000	0.338741
1683.000000	0.338906
1684.000000	0.339067
1685.000000	0.339334
1686.000000	0.339403
1687.000000	0.339498
1688.000000	0.339530
1689.000000	0.339414
1690.000000	0.339353
1691.000000	0.339521
1692.000000	0.339587
1693.000000	0.339564
1694.000000	0.339554
1695.000000	0.339495
1696.000000	0.339410
1697.000000	0.339331
1698.000000	0.339302
1699.000000	0.339302
1700.000000	0.339360
1701.000000	0.339473
1702.000000	0.339382
1703.000000	0.339342
1704.000000	0.339475
1705.000000	0.339490
1706.000000	0.339512
1707.000000	0.339559
1708.000000	0.339439
1709.000000	0.339441
1710.000000	0.339725
1711.000000	0.339858
1712.000000	0.340058
1713.000000	0.340125
1714.000000	0.340050
1715.000000	0.340061
1716.000000	0.340038
1717.000000	0.340072
1718.000000	0.340157
1719.000000	0.340191
1720.000000	0.340347
1721.000000	0.340339
1722.000000	0.340121
1723.000000	0.340173
1724.000000	0.340307
1725.000000	0.340453
1726.000000	0.340762
1727.000000	0.340863
1728.000000	0.340698
1729.000000	0.340662
1730.000000	0.340808
1731.000000	0.340816
1732.000000	0.340769
1733.000000	0.340922
1734.000000	0.340933
1735.000000	0.341044
1736.000000	0.341361
1737.000000	0.341430
1738.000000	0.341351
1739.000000	0.341411
1740.000000	0.341440
1741.000000	0.341480
1742.000000	0.341611
1743.000000	0.341695
1744.000000	0.341743
1745.000000	0.341668
1746.000000	0.341504
1747.000000	0.341468
1748.000000	0.341392
1749.000000	0.341421
1750.000000	0.341464
1751.000000	0.341632
1752.000000	0.341845
1753.000000	0.342091
1754.000000	0.342188
1755.000000	0.342088
1756.000000	0.341999
1757.000000	0.341814
1758.000000	0.341679
1759.000000	0.341497
1760.000000	0.341394
1761.000000	0.341196
1762.000000	0.341217
1763.000000	0.341591
1764.000000	0.341665
1765.000000	0.341631
1766.000000	0.341688
1767.000000	0.341481
1768.000000	0.341406
1769.000000	0.341620
1770.000000	0.341787
1771.000000	0.341894
1772.000000	0.341962
1773.000000	0.341985
1774.000000	0.342094
1775.000000	0.342250
1776.000000	0.342361
1777.000000	0.342535
1778.000000	0.342580
1779.000000	0.342466
1780.000000	0.342449
1781.000000	0.342414
1782.000000	0.342373
1783.000000	0.342358
1784.000000	0.342473
1785.000000	0.342459
1786.000000	0.342274
1787.000000	0.342289
1788.000000	0.342414
1789.000000	0.342393
1790.000000	0.342662
1791.000000	0.342717
1792.000000	0.342634
1793.000000	0.342570
1794.000000	0.342355
1795.000000	0.342369
1796.000000	0.342546
1797.000000	0.342619
1798.000000	0.342795
1799.000000	0.342920
1800.000000	0.342946
1801.000000	0.343079
1802.000000	0.343053
1803.000000	0.342529
1804.000000	0.342555
1805.000000	0.343059
1806.000000	0.343291
1807.000000	0.343371
1808.000000	0.343739
1809.000000	0.344265
1810.000000	0.344940
1811.000000	0.345090
1812.000000	0.345260
1813.000000	0.345061
1814.000000	0.344044
1815.000000	0.343778
1816.000000	0.344091
1817.000000	0.343687
1818.000000	0.342976
1819.000000	0.342755
1820.000000	0.342397
1821.000000	0.342099
1822.000000	0.342164
1823.000000	0.342873
1824.000000	0.343154
1825.000000	0.343371
1826.000000	0.343590
1827.000000	0.343688
1828.000000	0.343660
1829.000000	0.344345
1830.000000	0.344433
1831.000000	0.344019
1832.000000	0.342745
1833.000000	0.342818
1834.000000	0.343389
1835.000000	0.343309
1836.000000	0.343778
1837.000000	0.344036
1838.000000	0.343831
1839.000000	0.342344
1840.000000	0.342048
1841.000000	0.342457
1842.000000	0.342036
1843.000000	0.340983
1844.000000	0.340361
1845.000000	0.339174
1846.000000	0.338768
1847.000000	0.338657
1848.000000	0.338896
1849.000000	0.338949
1850.000000	0.338928
1851.000000	0.339006
1852.000000	0.339090
1853.000000	0.338804
1854.000000	0.338491
1855.000000	0.337664
1856.000000	0.335991
1857.000000	0.334543
1858.000000	0.333422
1859.000000	0.332653
1860.000000	0.332484
1861.000000	0.331982
1862.000000	0.331415
1863.000000	0.331092
1864.000000	0.330445
1865.000000	0.329575
1866.000000	0.328663
1867.000000	0.327669
1868.000000	0.326305
1869.000000	0.324701
1870.000000	0.323311
1871.000000	0.321582
1872.000000	0.319862
1873.000000	0.318303
1874.000000	0.316992
1875.000000	0.315267
1876.000000	0.313486
1877.000000	0.310828
1878.000000	0.308202
1879.000000	0.305022
1880.000000	0.301728
1881.000000	0.299392
1882.000000	0.296116
1883.000000	0.292859
1884.000000	0.289558
1885.000000	0.285384
1886.000000	0.281770
1887.000000	0.278821
1888.000000	0.274849
1889.000000	0.270343
1890.000000	0.266987
1891.000000	0.262135
1892.000000	0.257793
1893.000000	0.254449
1894.000000	0.249428
1895.000000	0.244996
1896.000000	0.240881
1897.000000	0.236697
1898.000000	0.231618
1899.000000	0.228166
1900.000000	0.225006
1901.000000	0.221499
1902.000000	0.218861
1903.000000	0.216779
1904.000000	0.214073
1905.000000	0.211042
1906.000000	0.208906
1907.000000	0.207172
1908.000000	0.205984
1909.000000	0.205273
1910.000000	0.205000
1911.000000	0.204700
1912.000000	0.204346
1913.000000	0.203602
1914.000000	0.203319
1915.000000	0.203571
1916.000000	0.203050
1917.000000	0.202966
1918.000000	0.203280
1919.000000	0.203770
1920.000000	0.204048
1921.000000	0.204763
1922.000000	0.204955
1923.000000	0.205396
1924.000000	0.205339
1925.000000	0.204885
1926.000000	0.205129
1927.000000	0.205167
1928.000000	0.205226
1929.000000	0.205453
1930.000000	0.206060
1931.000000	0.206360
1932.000000	0.206690
1933.000000	0.207123
1934.000000	0.207462
1935.000000	0.207945
1936.000000	0.208316
1937.000000	0.208170
1938.000000	0.207909
1939.000000	0.207996
1940.000000	0.207888
1941.000000	0.208146
1942.000000	0.208988
1943.000000	0.209941
1944.000000	0.210962
1945.000000	0.211117
1946.000000	0.211325
1947.000000	0.211615
1948.000000	0.210600
1949.000000	0.209925
1950.000000	0.209528
1951.000000	0.208977
1952.000000	0.208277
1953.000000	0.207993
1954.000000	0.207757
1955.000000	0.207646
1956.000000	0.207635
1957.000000	0.208017
1958.000000	0.208566
1959.000000	0.208479
1960.000000	0.208068
1961.000000	0.207967
1962.000000	0.207974
1963.000000	0.208052
1964.000000	0.208339
1965.000000	0.208503
1966.000000	0.208387
1967.000000	0.208405
1968.000000	0.208663
1969.000000	0.209026
1970.000000	0.209463
1971.000000	0.209728
1972.000000	0.209256
1973.000000	0.209283
1974.000000	0.209707
1975.000000	0.210075
1976.000000	0.210339
1977.000000	0.211608
1978.000000	0.212247
1979.000000	0.212226
1980.000000	0.212424
1981.000000	0.212057
1982.000000	0.211928
1983.000000	0.212631
1984.000000	0.213139
1985.000000	0.214065
1986.000000	0.214480
1987.000000	0.214825
1988.000000	0.214901
1989.000000	0.214915
1990.000000	0.215681
1991.000000	0.216685
1992.000000	0.217533
1993.000000	0.218572
1994.000000	0.219518
1995.000000	0.220604
1996.000000	0.221756
1997.000000	0.222410
1998.000000	0.222879
1999.000000	0.223211
2000.000000	0.223061
2001.000000	0.222774
2002.000000	0.223115
2003.000000	0.224179
2004.000000	0.225536
2005.000000	0.226572
2006.000000	0.227752
2007.000000	0.228856
2008.000000	0.229635
2009.000000	0.229891
2010.000000	0.230875
2011.000000	0.231923
2012.000000	0.232731
2013.000000	0.233705
2014.000000	0.234526
2015.000000	0.235322
2016.000000	0.236139
2017.000000	0.236770
2018.000000	0.237786
2019.000000	0.238526
2020.000000	0.239106
2021.000000	0.239708
2022.000000	0.240169
2023.000000	0.240936
2024.000000	0.241531
2025.000000	0.242552
2026.000000	0.243916
2027.000000	0.245605
2028.000000	0.246482
2029.000000	0.247744
2030.000000	0.248568
2031.000000	0.248807
2032.000000	0.249275
2033.000000	0.249570
2034.000000	0.250010
2035.000000	0.250358
2036.000000	0.250756
2037.000000	0.251560
2038.000000	0.252197
2039.000000	0.252600
2040.000000	0.253531
2041.000000	0.254445
2042.000000	0.255506
2043.000000	0.256630
2044.000000	0.257577
2045.000000	0.258517
2046.000000	0.258990
2047.000000	0.259404
2048.000000	0.259320
2049.000000	0.259858
2050.000000	0.260349
2051.000000	0.260713
2052.000000	0.261245
2053.000000	0.261707
2054.000000	0.262086
2055.000000	0.262384
2056.000000	0.263552
2057.000000	0.264386
2058.000000	0.265791
2059.000000	0.266980
2060.000000	0.267681
2061.000000	0.268250
2062.000000	0.268826
2063.000000	0.268985
2064.000000	0.269030
2065.000000	0.269271
2066.000000	0.269032
2067.000000	0.268293
2068.000000	0.268237
2069.000000	0.268246
2070.000000	0.268845
2071.000000	0.270165
2072.000000	0.271711
2073.000000	0.272296
2074.000000	0.272884
2075.000000	0.273503
2076.000000	0.273257
2077.000000	0.273718
2078.000000	0.275094
2079.000000	0.275706
2080.000000	0.276135
2081.000000	0.276661
2082.000000	0.277251
2083.000000	0.277209
2084.000000	0.277163
2085.000000	0.276922
2086.000000	0.276571
2087.000000	0.276953
2088.000000	0.278293
2089.000000	0.279512
2090.000000	0.280391
2091.000000	0.281403
2092.000000	0.281996
2093.000000	0.282073
2094.000000	0.282577
2095.000000	0.283218
2096.000000	0.283849
2097.000000	0.285008
2098.000000	0.284778
2099.000000	0.284393
2100.000000	0.284882
2101.000000	0.284942
2102.000000	0.285044
2103.000000	0.285719
2104.000000	0.285943
2105.000000	0.286291
2106.000000	0.286642
2107.000000	0.287165
2108.000000	0.287801
2109.000000	0.288280
2110.000000	0.288570
2111.000000	0.288825
2112.000000	0.288773
2113.000000	0.288821
2114.000000	0.289026
2115.000000	0.289660
2116.000000	0.290236
2117.000000	0.290155
2118.000000	0.290601
2119.000000	0.290823
2120.000000	0.290795
2121.000000	0.290807
2122.000000	0.290866
2123.000000	0.290137
2124.000000	0.290308
2125.000000	0.290948
2126.000000	0.291625
2127.000000	0.293176
2128.000000	0.294183
2129.000000	0.295135
2130.000000	0.295780
2131.000000	0.295874
2132.000000	0.295753
2133.000000	0.295611
2134.000000	0.295758
2135.000000	0.295673
2136.000000	0.295491
2137.000000	0.295252
2138.000000	0.294528
2139.000000	0.294518
2140.000000	0.294948
2141.000000	0.295072
2142.000000	0.295653
2143.000000	0.295750
2144.000000	0.295430
2145.000000	0.295389
2146.000000	0.295358
2147.000000	0.295985
2148.000000	0.295519
2149.000000	0.295578
2150.000000	0.296657
2151.000000	0.296639
2152.000000	0.297377
2153.000000	0.298211
2154.000000	0.298200
2155.000000	0.297240
2156.000000	0.296974
2157.000000	0.296415
2158.000000	0.296391
2159.000000	0.297152
2160.000000	0.297119
2161.000000	0.296759
2162.000000	0.296801
2163.000000	0.296471
2164.000000	0.296539
2165.000000	0.297222
2166.000000	0.297384
2167.000000	0.298609
2168.000000	0.298706
2169.000000	0.298379
2170.000000	0.298525
2171.000000	0.298525
2172.000000	0.298397
2173.000000	0.297735
2174.000000	0.296762
2175.000000	0.296227
2176.000000	0.294723
2177.000000	0.294323
2178.000000	0.295418
2179.000000	0.295961
2180.000000	0.296669
2181.000000	0.297382
2182.000000	0.297953
2183.000000	0.297456
2184.000000	0.297358
2185.000000	0.296124
2186.000000	0.294734
2187.000000	0.295159
2188.000000	0.296354
2189.000000	0.297530
2190.000000	0.298998
2191.000000	0.299763
2192.000000	0.299534
2193.000000	0.297488
2194.000000	0.297037
2195.000000	0.296026
2196.000000	0.295944
2197.000000	0.297942
2198.000000	0.298309
2199.000000	0.298133
2200.000000	0.298239
2201.000000	0.297513
2202.000000	0.296848
2203.000000	0.295135
2204.000000	0.295822
2205.000000	0.295891
2206.000000	0.296556
2207.000000	0.298536
2208.000000	0.297644
2209.000000	0.297935
2210.000000	0.298910
2211.000000	0.297279
2212.000000	0.297781
2213.000000	0.297053
2214.000000	0.294140
2215.000000	0.293471
2216.000000	0.294635
2217.000000	0.294526
2218.000000	0.295216
2219.000000	0.294897
2220.000000	0.291989
2221.000000	0.291384
2222.000000	0.291898
2223.000000	0.292185
2224.000000	0.293518
2225.000000	0.295390
2226.000000	0.294096
2227.000000	0.292015
2228.000000	0.289851
2229.000000	0.288043
2230.000000	0.289425
2231.000000	0.289731
2232.000000	0.287369
2233.000000	0.287997
2234.000000	0.288732
2235.000000	0.289654
2236.000000	0.289927
2237.000000	0.291144
2238.000000	0.291416
2239.000000	0.289840
2240.000000	0.289587
2241.000000	0.291309
2242.000000	0.291078
2243.000000	0.289097
2244.000000	0.288234
2245.000000	0.286492
2246.000000	0.286499
2247.000000	0.288335
2248.000000	0.289029
2249.000000	0.291094
2250.000000	0.291370
2251.000000	0.287431
2252.000000	0.285984
2253.000000	0.285288
2254.000000	0.284870
2255.000000	0.284479
2256.000000	0.284813
2257.000000	0.284434
2258.000000	0.281231
2259.000000	0.282080
2260.000000	0.282780
2261.000000	0.282900
2262.000000	0.283840
2263.000000	0.283946
2264.000000	0.282757
2265.000000	0.282774
2266.000000	0.283321
2267.000000	0.282790
2268.000000	0.281632
2269.000000	0.281831
2270.000000	0.282967
2271.000000	0.282174
2272.000000	0.280834
2273.000000	0.280437
2274.000000	0.278435
2275.000000	0.277599
2276.000000	0.278891
2277.000000	0.279645
2278.000000	0.277156
2279.000000	0.275873
2280.000000	0.273586
2281.000000	0.270490
2282.000000	0.269297
2283.000000	0.268407
2284.000000	0.267013
2285.000000	0.265094
2286.000000	0.263628
2287.000000	0.260721
2288.000000	0.258875
2289.000000	0.258164
2290.000000	0.255765
2291.000000	0.255801
2292.000000	0.254202
2293.000000	0.251092
2294.000000	0.250885
2295.000000	0.252238
2296.000000	0.251382
2297.000000	0.252441
2298.000000	0.252176
2299.000000	0.249405
2300.000000	0.248278
2301.000000	0.246964
2302.000000	0.246829
2303.000000	0.247621
2304.000000	0.248193
2305.000000	0.249938
2306.000000	0.250922
2307.000000	0.251241
2308.000000	0.251722
2309.000000	0.251687
2310.000000	0.254219
2311.000000	0.256537
2312.000000	0.257509
2313.000000	0.259615
2314.000000	0.259956
2315.000000	0.260386
2316.000000	0.260338
2317.000000	0.259680
2318.000000	0.259289
2319.000000	0.256855
2320.000000	0.256605
2321.000000	0.257691
2322.000000	0.259130
2323.000000	0.260831
2324.000000	0.260694
2325.000000	0.260190
2326.000000	0.258513
2327.000000	0.258398
2328.000000	0.259489
2329.000000	0.257508
2330.000000	0.256074
2331.000000	0.256562
2332.000000	0.256260
2333.000000	0.256708
2334.000000	0.258503
2335.000000	0.258808
2336.000000	0.255931
2337.000000	0.254417
2338.000000	0.253707
2339.000000	0.251614
2340.000000	0.248630
2341.000000	0.246902
2342.000000	0.244601
2343.000000	0.243645
2344.000000	0.242983
2345.000000	0.243087
2346.000000	0.246143
2347.000000	0.246580
2348.000000	0.246011
2349.000000	0.247290
2350.000000	0.244191
2351.000000	0.239868
2352.000000	0.238121
2353.000000	0.233633
2354.000000	0.230304
2355.000000	0.230860
2356.000000	0.229336
2357.000000	0.229863
2358.000000	0.232525
2359.000000	0.231405
2360.000000	0.230842
2361.000000	0.227692
2362.000000	0.222622
2363.000000	0.221173
2364.000000	0.219690
2365.000000	0.219195
2366.000000	0.218858
2367.000000	0.213856
2368.000000	0.209513
2369.000000	0.210241
2370.000000	0.209222
2371.000000	0.210785
2372.000000	0.214587
2373.000000	0.210164
2374.000000	0.207786
2375.000000	0.209417
2376.000000	0.207630
2377.000000	0.208537
2378.000000	0.214840
2379.000000	0.217914
2380.000000	0.216538
2381.000000	0.218597
2382.000000	0.215671
2383.000000	0.206257
2384.000000	0.200307
2385.000000	0.195823
2386.000000	0.189255
2387.000000	0.185755
2388.000000	0.189905
2389.000000	0.193166
2390.000000	0.193456
2391.000000	0.196372
2392.000000	0.197901
2393.000000	0.194953
2394.000000	0.191719
2395.000000	0.192773
2396.000000	0.188618
2397.000000	0.178868
2398.000000	0.179761
2399.000000	0.178484
2400.000000	0.171269
2401.000000	0.173592
2402.000000	0.175600
2403.000000	0.175928
2404.000000	0.183376
2405.000000	0.191959
2406.000000	0.192823
2407.000000	0.191939
2408.000000	0.187285
2409.000000	0.176419
2410.000000	0.176843
2411.000000	0.175818
2412.000000	0.173116
2413.000000	0.182023
2414.000000	0.179959
2415.000000	0.176115
2416.000000	0.182330
2417.000000	0.182578
2418.000000	0.186928
2419.000000	0.194588
2420.000000	0.192726
2421.000000	0.190889
2422.000000	0.185072
2423.000000	0.171433
2424.000000	0.168261
2425.000000	0.174291
2426.000000	0.178741
2427.000000	0.190655
2428.000000	0.198016
2429.000000	0.192029
2430.000000	0.194072
2431.000000	0.193004
2432.000000	0.185834
2433.000000	0.187063
2434.000000	0.178100
2435.000000	0.174334
2436.000000	0.176503
2437.000000	0.176341
2438.000000	0.193230
2439.000000	0.198738
2440.000000	0.201918
2441.000000	0.208226
2442.000000	0.199849
2443.000000	0.193144
2444.000000	0.181065
2445.000000	0.167224
2446.000000	0.160118
2447.000000	0.163784
2448.000000	0.179148
2449.000000	0.183613
2450.000000	0.173587
2451.000000	0.165122
2452.000000	0.151860
2453.000000	0.149303
2454.000000	0.156866
2455.000000	0.146931
2456.000000	0.134046
2457.000000	0.114468
2458.000000	0.100620
2459.000000	0.105844
2460.000000	0.108575
2461.000000	0.121613
2462.000000	0.129682
2463.000000	0.121204
2464.000000	0.115275
2465.000000	0.114594
2466.000000	0.119060
2467.000000	0.112487
2468.000000	0.114470
2469.000000	0.124915
2470.000000	0.109957
2471.000000	0.111574
2472.000000	0.118756
2473.000000	0.113485
2474.000000	0.121956
2475.000000	0.142331
2476.000000	0.145589
2477.000000	0.119088
2478.000000	0.107293
2479.000000	0.097770
2480.000000	0.095494
2481.000000	0.125022
2482.000000	0.141374
2483.000000	0.152268
2484.000000	0.166196
2485.000000	0.163657
2486.000000	0.156693
2487.000000	0.175186
2488.000000	0.194404
2489.000000	0.189203
2490.000000	0.192103
2491.000000	0.116643
2492.000000	0.080330
2493.000000	0.060499
2494.000000	0.051707
2495.000000	0.077777
2496.000000	0.085984
2497.000000	0.096980
2498.000000	0.091652
2499.000000	0.061152
2500.000000	0.041501
