# Wavelength	NAu-2-40_HEX-40_FV7-20_000000001.asd.rts.txt
350.000000	0.147417
351.000000	0.142112
352.000000	0.141619
353.000000	0.139752
354.000000	0.135758
355.000000	0.137062
356.000000	0.134619
357.000000	0.131595
358.000000	0.137690
359.000000	0.139888
360.000000	0.137809
361.000000	0.134459
362.000000	0.134908
363.000000	0.136752
364.000000	0.137486
365.000000	0.136752
366.000000	0.137098
367.000000	0.137969
368.000000	0.136433
369.000000	0.136820
370.000000	0.137587
371.000000	0.136158
372.000000	0.137021
373.000000	0.137761
374.000000	0.137154
375.000000	0.137850
376.000000	0.138421
377.000000	0.138517
378.000000	0.139005
379.000000	0.138644
380.000000	0.137937
381.000000	0.138277
382.000000	0.138924
383.000000	0.138877
384.000000	0.138062
385.000000	0.138312
386.000000	0.138991
387.000000	0.139584
388.000000	0.139371
389.000000	0.139540
390.000000	0.140248
391.000000	0.141008
392.000000	0.140447
393.000000	0.139837
394.000000	0.140252
395.000000	0.141049
396.000000	0.141779
397.000000	0.141995
398.000000	0.141042
399.000000	0.140790
400.000000	0.141219
401.000000	0.141427
402.000000	0.141682
403.000000	0.141859
404.000000	0.141990
405.000000	0.142543
406.000000	0.143093
407.000000	0.143434
408.000000	0.143629
409.000000	0.143814
410.000000	0.144028
411.000000	0.144228
412.000000	0.144682
413.000000	0.145126
414.000000	0.145264
415.000000	0.145209
416.000000	0.145248
417.000000	0.145572
418.000000	0.146233
419.000000	0.146759
420.000000	0.147025
421.000000	0.147169
422.000000	0.147386
423.000000	0.147622
424.000000	0.147815
425.000000	0.148181
426.000000	0.148637
427.000000	0.149087
428.000000	0.149610
429.000000	0.149934
430.000000	0.150063
431.000000	0.150341
432.000000	0.150710
433.000000	0.151039
434.000000	0.151227
435.000000	0.151466
436.000000	0.151778
437.000000	0.152117
438.000000	0.152397
439.000000	0.152660
440.000000	0.152989
441.000000	0.153348
442.000000	0.153611
443.000000	0.153770
444.000000	0.154004
445.000000	0.154169
446.000000	0.154481
447.000000	0.155056
448.000000	0.155476
449.000000	0.155817
450.000000	0.156206
451.000000	0.156744
452.000000	0.157222
453.000000	0.157582
454.000000	0.158084
455.000000	0.158492
456.000000	0.158892
457.000000	0.159365
458.000000	0.159714
459.000000	0.159972
460.000000	0.160262
461.000000	0.160744
462.000000	0.161230
463.000000	0.161562
464.000000	0.161984
465.000000	0.162353
466.000000	0.162621
467.000000	0.162881
468.000000	0.163236
469.000000	0.163595
470.000000	0.163940
471.000000	0.164281
472.000000	0.164645
473.000000	0.165035
474.000000	0.165315
475.000000	0.165532
476.000000	0.165830
477.000000	0.166259
478.000000	0.166502
479.000000	0.166753
480.000000	0.167165
481.000000	0.167489
482.000000	0.167817
483.000000	0.168124
484.000000	0.168460
485.000000	0.168741
486.000000	0.169027
487.000000	0.169264
488.000000	0.169472
489.000000	0.169707
490.000000	0.170035
491.000000	0.170263
492.000000	0.170432
493.000000	0.170557
494.000000	0.170693
495.000000	0.170873
496.000000	0.171068
497.000000	0.171222
498.000000	0.171322
499.000000	0.171434
500.000000	0.171604
501.000000	0.171787
502.000000	0.171973
503.000000	0.172118
504.000000	0.172292
505.000000	0.172488
506.000000	0.172695
507.000000	0.172920
508.000000	0.173218
509.000000	0.173569
510.000000	0.173895
511.000000	0.174222
512.000000	0.174569
513.000000	0.174911
514.000000	0.175309
515.000000	0.175739
516.000000	0.176107
517.000000	0.176464
518.000000	0.176834
519.000000	0.177193
520.000000	0.177646
521.000000	0.178112
522.000000	0.178577
523.000000	0.179117
524.000000	0.179724
525.000000	0.180381
526.000000	0.181093
527.000000	0.181888
528.000000	0.182757
529.000000	0.183717
530.000000	0.184727
531.000000	0.185816
532.000000	0.186937
533.000000	0.188088
534.000000	0.189302
535.000000	0.190556
536.000000	0.191794
537.000000	0.193040
538.000000	0.194273
539.000000	0.195449
540.000000	0.196575
541.000000	0.197660
542.000000	0.198730
543.000000	0.199711
544.000000	0.200700
545.000000	0.201697
546.000000	0.202698
547.000000	0.203749
548.000000	0.204853
549.000000	0.205919
550.000000	0.207046
551.000000	0.208287
552.000000	0.209622
553.000000	0.210986
554.000000	0.212396
555.000000	0.213878
556.000000	0.215444
557.000000	0.217018
558.000000	0.218665
559.000000	0.220341
560.000000	0.222040
561.000000	0.223772
562.000000	0.225434
563.000000	0.227049
564.000000	0.228664
565.000000	0.230226
566.000000	0.231722
567.000000	0.233159
568.000000	0.234519
569.000000	0.235774
570.000000	0.236947
571.000000	0.238042
572.000000	0.239068
573.000000	0.239954
574.000000	0.240703
575.000000	0.241393
576.000000	0.242037
577.000000	0.242597
578.000000	0.243093
579.000000	0.243512
580.000000	0.243862
581.000000	0.244144
582.000000	0.244347
583.000000	0.244504
584.000000	0.244616
585.000000	0.244671
586.000000	0.244662
587.000000	0.244575
588.000000	0.244410
589.000000	0.244241
590.000000	0.244030
591.000000	0.243759
592.000000	0.243463
593.000000	0.243138
594.000000	0.242785
595.000000	0.242426
596.000000	0.242001
597.000000	0.241559
598.000000	0.241105
599.000000	0.240604
600.000000	0.240111
601.000000	0.239610
602.000000	0.239097
603.000000	0.238588
604.000000	0.238089
605.000000	0.237559
606.000000	0.237019
607.000000	0.236465
608.000000	0.235878
609.000000	0.235275
610.000000	0.234701
611.000000	0.234187
612.000000	0.233628
613.000000	0.233058
614.000000	0.232540
615.000000	0.232073
616.000000	0.231609
617.000000	0.231117
618.000000	0.230660
619.000000	0.230285
620.000000	0.229922
621.000000	0.229515
622.000000	0.229117
623.000000	0.228738
624.000000	0.228375
625.000000	0.228001
626.000000	0.227653
627.000000	0.227356
628.000000	0.227125
629.000000	0.226905
630.000000	0.226601
631.000000	0.226320
632.000000	0.226095
633.000000	0.225899
634.000000	0.225689
635.000000	0.225544
636.000000	0.225432
637.000000	0.225323
638.000000	0.225245
639.000000	0.225189
640.000000	0.225166
641.000000	0.225085
642.000000	0.225063
643.000000	0.225095
644.000000	0.225143
645.000000	0.225199
646.000000	0.225284
647.000000	0.225391
648.000000	0.225519
649.000000	0.225685
650.000000	0.225875
651.000000	0.226078
652.000000	0.226303
653.000000	0.226574
654.000000	0.226858
655.000000	0.227164
656.000000	0.227499
657.000000	0.227831
658.000000	0.228215
659.000000	0.228648
660.000000	0.229103
661.000000	0.229551
662.000000	0.230011
663.000000	0.230534
664.000000	0.231110
665.000000	0.231673
666.000000	0.232264
667.000000	0.232905
668.000000	0.233569
669.000000	0.234257
670.000000	0.234972
671.000000	0.235700
672.000000	0.236479
673.000000	0.237297
674.000000	0.238121
675.000000	0.238961
676.000000	0.239844
677.000000	0.240807
678.000000	0.241799
679.000000	0.242793
680.000000	0.243784
681.000000	0.244779
682.000000	0.245866
683.000000	0.247003
684.000000	0.248193
685.000000	0.249432
686.000000	0.250695
687.000000	0.251922
688.000000	0.253205
689.000000	0.254523
690.000000	0.255883
691.000000	0.257282
692.000000	0.258688
693.000000	0.260146
694.000000	0.261643
695.000000	0.263174
696.000000	0.264725
697.000000	0.266278
698.000000	0.267880
699.000000	0.269515
700.000000	0.271170
701.000000	0.272857
702.000000	0.274573
703.000000	0.276286
704.000000	0.277970
705.000000	0.279729
706.000000	0.281538
707.000000	0.283402
708.000000	0.285284
709.000000	0.287188
710.000000	0.289137
711.000000	0.291098
712.000000	0.293090
713.000000	0.295113
714.000000	0.297085
715.000000	0.299049
716.000000	0.301041
717.000000	0.303070
718.000000	0.305106
719.000000	0.307136
720.000000	0.309167
721.000000	0.311204
722.000000	0.313204
723.000000	0.315223
724.000000	0.317268
725.000000	0.319283
726.000000	0.321331
727.000000	0.323353
728.000000	0.325373
729.000000	0.327397
730.000000	0.329372
731.000000	0.331331
732.000000	0.333270
733.000000	0.335227
734.000000	0.337162
735.000000	0.339061
736.000000	0.341013
737.000000	0.342865
738.000000	0.344640
739.000000	0.346427
740.000000	0.348113
741.000000	0.349861
742.000000	0.351554
743.000000	0.353140
744.000000	0.354737
745.000000	0.356297
746.000000	0.357865
747.000000	0.359392
748.000000	0.360916
749.000000	0.362413
750.000000	0.363827
751.000000	0.365190
752.000000	0.366529
753.000000	0.367868
754.000000	0.369193
755.000000	0.370485
756.000000	0.371715
757.000000	0.372820
758.000000	0.373919
759.000000	0.375017
760.000000	0.376039
761.000000	0.377101
762.000000	0.378102
763.000000	0.379029
764.000000	0.380021
765.000000	0.380972
766.000000	0.381889
767.000000	0.382775
768.000000	0.383583
769.000000	0.384315
770.000000	0.384996
771.000000	0.385668
772.000000	0.386365
773.000000	0.387015
774.000000	0.387669
775.000000	0.388254
776.000000	0.388812
777.000000	0.389348
778.000000	0.389817
779.000000	0.390260
780.000000	0.390699
781.000000	0.391106
782.000000	0.391492
783.000000	0.391943
784.000000	0.392323
785.000000	0.392693
786.000000	0.393046
787.000000	0.393373
788.000000	0.393691
789.000000	0.393949
790.000000	0.394158
791.000000	0.394416
792.000000	0.394630
793.000000	0.394811
794.000000	0.394987
795.000000	0.395164
796.000000	0.395306
797.000000	0.395399
798.000000	0.395464
799.000000	0.395577
800.000000	0.395716
801.000000	0.395840
802.000000	0.395965
803.000000	0.396073
804.000000	0.396194
805.000000	0.396286
806.000000	0.396318
807.000000	0.396363
808.000000	0.396347
809.000000	0.396254
810.000000	0.396164
811.000000	0.396109
812.000000	0.396004
813.000000	0.395931
814.000000	0.395911
815.000000	0.395939
816.000000	0.395933
817.000000	0.395913
818.000000	0.395822
819.000000	0.395795
820.000000	0.395758
821.000000	0.395625
822.000000	0.395494
823.000000	0.395371
824.000000	0.395191
825.000000	0.395028
826.000000	0.394937
827.000000	0.394853
828.000000	0.394789
829.000000	0.394744
830.000000	0.394642
831.000000	0.394519
832.000000	0.394271
833.000000	0.394046
834.000000	0.393852
835.000000	0.393703
836.000000	0.393506
837.000000	0.393342
838.000000	0.393230
839.000000	0.393084
840.000000	0.392932
841.000000	0.392813
842.000000	0.392684
843.000000	0.392477
844.000000	0.392300
845.000000	0.392139
846.000000	0.391940
847.000000	0.391776
848.000000	0.391603
849.000000	0.391399
850.000000	0.391128
851.000000	0.390810
852.000000	0.390530
853.000000	0.390306
854.000000	0.390029
855.000000	0.389823
856.000000	0.389626
857.000000	0.389374
858.000000	0.389204
859.000000	0.389050
860.000000	0.388803
861.000000	0.388599
862.000000	0.388461
863.000000	0.388258
864.000000	0.387979
865.000000	0.387682
866.000000	0.387432
867.000000	0.387196
868.000000	0.386972
869.000000	0.386697
870.000000	0.386430
871.000000	0.386083
872.000000	0.385757
873.000000	0.385458
874.000000	0.385265
875.000000	0.384996
876.000000	0.384664
877.000000	0.384284
878.000000	0.383897
879.000000	0.383672
880.000000	0.383477
881.000000	0.383216
882.000000	0.382944
883.000000	0.382682
884.000000	0.382363
885.000000	0.382101
886.000000	0.381811
887.000000	0.381509
888.000000	0.381334
889.000000	0.381157
890.000000	0.380834
891.000000	0.380506
892.000000	0.380087
893.000000	0.379668
894.000000	0.379425
895.000000	0.379147
896.000000	0.378816
897.000000	0.378500
898.000000	0.378271
899.000000	0.377947
900.000000	0.377668
901.000000	0.377435
902.000000	0.377202
903.000000	0.376907
904.000000	0.376625
905.000000	0.376336
906.000000	0.376180
907.000000	0.375939
908.000000	0.375633
909.000000	0.375328
910.000000	0.374951
911.000000	0.374555
912.000000	0.374212
913.000000	0.373835
914.000000	0.373518
915.000000	0.373327
916.000000	0.373096
917.000000	0.372767
918.000000	0.372469
919.000000	0.372260
920.000000	0.372031
921.000000	0.371777
922.000000	0.371508
923.000000	0.371213
924.000000	0.370943
925.000000	0.370702
926.000000	0.370491
927.000000	0.370157
928.000000	0.369849
929.000000	0.369548
930.000000	0.369215
931.000000	0.368989
932.000000	0.368680
933.000000	0.368312
934.000000	0.368032
935.000000	0.367756
936.000000	0.367501
937.000000	0.367176
938.000000	0.366883
939.000000	0.366576
940.000000	0.366239
941.000000	0.366050
942.000000	0.365742
943.000000	0.365539
944.000000	0.365382
945.000000	0.365111
946.000000	0.364785
947.000000	0.364555
948.000000	0.364440
949.000000	0.364188
950.000000	0.363954
951.000000	0.363730
952.000000	0.363475
953.000000	0.363187
954.000000	0.362884
955.000000	0.362525
956.000000	0.362242
957.000000	0.361988
958.000000	0.361733
959.000000	0.361581
960.000000	0.361350
961.000000	0.361121
962.000000	0.360888
963.000000	0.360605
964.000000	0.360420
965.000000	0.360287
966.000000	0.360026
967.000000	0.359846
968.000000	0.359657
969.000000	0.359431
970.000000	0.359297
971.000000	0.359040
972.000000	0.358898
973.000000	0.358833
974.000000	0.358668
975.000000	0.358606
976.000000	0.358537
977.000000	0.358345
978.000000	0.358123
979.000000	0.357947
980.000000	0.357618
981.000000	0.357417
982.000000	0.357326
983.000000	0.357126
984.000000	0.356869
985.000000	0.356713
986.000000	0.356673
987.000000	0.356632
988.000000	0.356422
989.000000	0.356315
990.000000	0.356342
991.000000	0.356275
992.000000	0.355991
993.000000	0.356008
994.000000	0.355940
995.000000	0.355856
996.000000	0.355704
997.000000	0.355644
998.000000	0.355639
999.000000	0.355719
1000.000000	0.355738
1001.000000	0.355950
1002.000000	0.355803
1003.000000	0.355345
1004.000000	0.355123
1005.000000	0.354965
1006.000000	0.354682
1007.000000	0.354408
1008.000000	0.354316
1009.000000	0.354278
1010.000000	0.354185
1011.000000	0.354554
1012.000000	0.355077
1013.000000	0.355267
1014.000000	0.355290
1015.000000	0.354873
1016.000000	0.354656
1017.000000	0.354585
1018.000000	0.354619
1019.000000	0.354768
1020.000000	0.355542
1021.000000	0.355420
1022.000000	0.355071
1023.000000	0.355133
1024.000000	0.354893
1025.000000	0.354909
1026.000000	0.355151
1027.000000	0.355165
1028.000000	0.355289
1029.000000	0.355570
1030.000000	0.355617
1031.000000	0.355706
1032.000000	0.355885
1033.000000	0.355925
1034.000000	0.356002
1035.000000	0.356192
1036.000000	0.356330
1037.000000	0.356342
1038.000000	0.356362
1039.000000	0.356474
1040.000000	0.356828
1041.000000	0.356895
1042.000000	0.357084
1043.000000	0.357452
1044.000000	0.357646
1045.000000	0.357901
1046.000000	0.358194
1047.000000	0.358429
1048.000000	0.358526
1049.000000	0.358560
1050.000000	0.358526
1051.000000	0.358630
1052.000000	0.358608
1053.000000	0.358695
1054.000000	0.359280
1055.000000	0.359566
1056.000000	0.359659
1057.000000	0.359956
1058.000000	0.360273
1059.000000	0.360276
1060.000000	0.360551
1061.000000	0.360899
1062.000000	0.360988
1063.000000	0.361225
1064.000000	0.361466
1065.000000	0.361631
1066.000000	0.361860
1067.000000	0.362133
1068.000000	0.362357
1069.000000	0.362469
1070.000000	0.362717
1071.000000	0.363126
1072.000000	0.363442
1073.000000	0.363855
1074.000000	0.364285
1075.000000	0.364487
1076.000000	0.364762
1077.000000	0.364900
1078.000000	0.364957
1079.000000	0.365166
1080.000000	0.365468
1081.000000	0.365690
1082.000000	0.366110
1083.000000	0.366390
1084.000000	0.366529
1085.000000	0.366841
1086.000000	0.367284
1087.000000	0.367574
1088.000000	0.367669
1089.000000	0.367897
1090.000000	0.368062
1091.000000	0.368219
1092.000000	0.368480
1093.000000	0.368957
1094.000000	0.369172
1095.000000	0.369114
1096.000000	0.369350
1097.000000	0.369667
1098.000000	0.369938
1099.000000	0.370279
1100.000000	0.370582
1101.000000	0.370715
1102.000000	0.370917
1103.000000	0.371129
1104.000000	0.371397
1105.000000	0.371725
1106.000000	0.371980
1107.000000	0.372179
1108.000000	0.372353
1109.000000	0.372485
1110.000000	0.372638
1111.000000	0.372905
1112.000000	0.373282
1113.000000	0.373581
1114.000000	0.373948
1115.000000	0.374242
1116.000000	0.374505
1117.000000	0.374709
1118.000000	0.374856
1119.000000	0.374969
1120.000000	0.374983
1121.000000	0.375068
1122.000000	0.375262
1123.000000	0.375660
1124.000000	0.375935
1125.000000	0.376202
1126.000000	0.376501
1127.000000	0.376646
1128.000000	0.376698
1129.000000	0.376594
1130.000000	0.376784
1131.000000	0.377064
1132.000000	0.377210
1133.000000	0.377562
1134.000000	0.377762
1135.000000	0.377717
1136.000000	0.377744
1137.000000	0.377787
1138.000000	0.377798
1139.000000	0.377835
1140.000000	0.377972
1141.000000	0.378134
1142.000000	0.378269
1143.000000	0.378329
1144.000000	0.378523
1145.000000	0.378561
1146.000000	0.378515
1147.000000	0.378591
1148.000000	0.378598
1149.000000	0.378657
1150.000000	0.378809
1151.000000	0.378932
1152.000000	0.378951
1153.000000	0.379080
1154.000000	0.379250
1155.000000	0.379339
1156.000000	0.379446
1157.000000	0.379523
1158.000000	0.379452
1159.000000	0.379468
1160.000000	0.379527
1161.000000	0.379538
1162.000000	0.379585
1163.000000	0.379789
1164.000000	0.379875
1165.000000	0.379970
1166.000000	0.380117
1167.000000	0.380284
1168.000000	0.380343
1169.000000	0.380399
1170.000000	0.380497
1171.000000	0.380616
1172.000000	0.380743
1173.000000	0.380871
1174.000000	0.380966
1175.000000	0.380973
1176.000000	0.380995
1177.000000	0.381142
1178.000000	0.381228
1179.000000	0.381252
1180.000000	0.381262
1181.000000	0.381335
1182.000000	0.381410
1183.000000	0.381592
1184.000000	0.381825
1185.000000	0.381965
1186.000000	0.382097
1187.000000	0.382187
1188.000000	0.382206
1189.000000	0.382232
1190.000000	0.382318
1191.000000	0.382364
1192.000000	0.382472
1193.000000	0.382679
1194.000000	0.382775
1195.000000	0.382900
1196.000000	0.383009
1197.000000	0.383118
1198.000000	0.383265
1199.000000	0.383380
1200.000000	0.383489
1201.000000	0.383549
1202.000000	0.383574
1203.000000	0.383650
1204.000000	0.383750
1205.000000	0.383901
1206.000000	0.383937
1207.000000	0.384059
1208.000000	0.384076
1209.000000	0.384044
1210.000000	0.384079
1211.000000	0.384111
1212.000000	0.384172
1213.000000	0.384336
1214.000000	0.384473
1215.000000	0.384622
1216.000000	0.384717
1217.000000	0.384724
1218.000000	0.384747
1219.000000	0.384765
1220.000000	0.384843
1221.000000	0.384914
1222.000000	0.385017
1223.000000	0.385144
1224.000000	0.385264
1225.000000	0.385330
1226.000000	0.385424
1227.000000	0.385519
1228.000000	0.385622
1229.000000	0.385687
1230.000000	0.385760
1231.000000	0.385784
1232.000000	0.385877
1233.000000	0.386069
1234.000000	0.386309
1235.000000	0.386451
1236.000000	0.386457
1237.000000	0.386588
1238.000000	0.386669
1239.000000	0.386749
1240.000000	0.386896
1241.000000	0.387004
1242.000000	0.387005
1243.000000	0.387075
1244.000000	0.387165
1245.000000	0.387357
1246.000000	0.387534
1247.000000	0.387676
1248.000000	0.387810
1249.000000	0.387924
1250.000000	0.388071
1251.000000	0.388220
1252.000000	0.388322
1253.000000	0.388448
1254.000000	0.388535
1255.000000	0.388531
1256.000000	0.388633
1257.000000	0.388825
1258.000000	0.388987
1259.000000	0.389088
1260.000000	0.389284
1261.000000	0.389416
1262.000000	0.389550
1263.000000	0.389778
1264.000000	0.389939
1265.000000	0.390040
1266.000000	0.390139
1267.000000	0.390230
1268.000000	0.390321
1269.000000	0.390353
1270.000000	0.390501
1271.000000	0.390622
1272.000000	0.390725
1273.000000	0.390909
1274.000000	0.390966
1275.000000	0.391040
1276.000000	0.391137
1277.000000	0.391321
1278.000000	0.391450
1279.000000	0.391532
1280.000000	0.391531
1281.000000	0.391539
1282.000000	0.391541
1283.000000	0.391658
1284.000000	0.391783
1285.000000	0.391906
1286.000000	0.392027
1287.000000	0.392120
1288.000000	0.392255
1289.000000	0.392331
1290.000000	0.392298
1291.000000	0.392266
1292.000000	0.392273
1293.000000	0.392320
1294.000000	0.392382
1295.000000	0.392485
1296.000000	0.392575
1297.000000	0.392627
1298.000000	0.392756
1299.000000	0.392908
1300.000000	0.393041
1301.000000	0.393109
1302.000000	0.393118
1303.000000	0.393229
1304.000000	0.393202
1305.000000	0.393198
1306.000000	0.393166
1307.000000	0.393090
1308.000000	0.393094
1309.000000	0.393142
1310.000000	0.393150
1311.000000	0.393209
1312.000000	0.393198
1313.000000	0.393135
1314.000000	0.393089
1315.000000	0.393048
1316.000000	0.393074
1317.000000	0.393128
1318.000000	0.393163
1319.000000	0.393050
1320.000000	0.392941
1321.000000	0.392801
1322.000000	0.392609
1323.000000	0.392578
1324.000000	0.392614
1325.000000	0.392545
1326.000000	0.392443
1327.000000	0.392357
1328.000000	0.392316
1329.000000	0.392187
1330.000000	0.392065
1331.000000	0.391978
1332.000000	0.391917
1333.000000	0.391829
1334.000000	0.391855
1335.000000	0.391855
1336.000000	0.391792
1337.000000	0.391732
1338.000000	0.391634
1339.000000	0.391509
1340.000000	0.391318
1341.000000	0.391136
1342.000000	0.390959
1343.000000	0.390774
1344.000000	0.390636
1345.000000	0.390540
1346.000000	0.390525
1347.000000	0.390371
1348.000000	0.390264
1349.000000	0.390129
1350.000000	0.390020
1351.000000	0.389885
1352.000000	0.389708
1353.000000	0.389497
1354.000000	0.389293
1355.000000	0.389117
1356.000000	0.388962
1357.000000	0.388732
1358.000000	0.388495
1359.000000	0.388197
1360.000000	0.387945
1361.000000	0.387793
1362.000000	0.387564
1363.000000	0.387270
1364.000000	0.387055
1365.000000	0.386809
1366.000000	0.386581
1367.000000	0.386390
1368.000000	0.386184
1369.000000	0.385993
1370.000000	0.385663
1371.000000	0.385336
1372.000000	0.384988
1373.000000	0.384609
1374.000000	0.384278
1375.000000	0.383878
1376.000000	0.383541
1377.000000	0.383198
1378.000000	0.382740
1379.000000	0.382172
1380.000000	0.381556
1381.000000	0.380870
1382.000000	0.380172
1383.000000	0.379517
1384.000000	0.378656
1385.000000	0.377642
1386.000000	0.376637
1387.000000	0.375555
1388.000000	0.374359
1389.000000	0.373160
1390.000000	0.371918
1391.000000	0.370446
1392.000000	0.368962
1393.000000	0.367396
1394.000000	0.365772
1395.000000	0.364091
1396.000000	0.362361
1397.000000	0.360531
1398.000000	0.358534
1399.000000	0.356643
1400.000000	0.354735
1401.000000	0.352787
1402.000000	0.350899
1403.000000	0.348947
1404.000000	0.347089
1405.000000	0.345324
1406.000000	0.343630
1407.000000	0.342082
1408.000000	0.340534
1409.000000	0.339082
1410.000000	0.337803
1411.000000	0.336537
1412.000000	0.335293
1413.000000	0.334177
1414.000000	0.333131
1415.000000	0.332172
1416.000000	0.331250
1417.000000	0.330372
1418.000000	0.329456
1419.000000	0.328567
1420.000000	0.327688
1421.000000	0.326895
1422.000000	0.326133
1423.000000	0.325497
1424.000000	0.324771
1425.000000	0.324037
1426.000000	0.323321
1427.000000	0.322589
1428.000000	0.321941
1429.000000	0.321337
1430.000000	0.320757
1431.000000	0.320227
1432.000000	0.319665
1433.000000	0.319128
1434.000000	0.318602
1435.000000	0.318130
1436.000000	0.317706
1437.000000	0.317309
1438.000000	0.316937
1439.000000	0.316619
1440.000000	0.316394
1441.000000	0.316221
1442.000000	0.316173
1443.000000	0.316169
1444.000000	0.316250
1445.000000	0.316408
1446.000000	0.316607
1447.000000	0.316857
1448.000000	0.317106
1449.000000	0.317366
1450.000000	0.317665
1451.000000	0.317952
1452.000000	0.318182
1453.000000	0.318412
1454.000000	0.318543
1455.000000	0.318655
1456.000000	0.318883
1457.000000	0.319081
1458.000000	0.319268
1459.000000	0.319450
1460.000000	0.319560
1461.000000	0.319614
1462.000000	0.319665
1463.000000	0.319733
1464.000000	0.319813
1465.000000	0.319966
1466.000000	0.320161
1467.000000	0.320340
1468.000000	0.320563
1469.000000	0.320868
1470.000000	0.321058
1471.000000	0.321344
1472.000000	0.321703
1473.000000	0.322082
1474.000000	0.322500
1475.000000	0.322973
1476.000000	0.323428
1477.000000	0.323899
1478.000000	0.324416
1479.000000	0.324905
1480.000000	0.325410
1481.000000	0.325930
1482.000000	0.326531
1483.000000	0.327118
1484.000000	0.327744
1485.000000	0.328310
1486.000000	0.328813
1487.000000	0.329368
1488.000000	0.329935
1489.000000	0.330509
1490.000000	0.330995
1491.000000	0.331536
1492.000000	0.332030
1493.000000	0.332576
1494.000000	0.333131
1495.000000	0.333630
1496.000000	0.334106
1497.000000	0.334593
1498.000000	0.335071
1499.000000	0.335579
1500.000000	0.336068
1501.000000	0.336499
1502.000000	0.336885
1503.000000	0.337318
1504.000000	0.337771
1505.000000	0.338167
1506.000000	0.338559
1507.000000	0.338880
1508.000000	0.339215
1509.000000	0.339605
1510.000000	0.339950
1511.000000	0.340331
1512.000000	0.340666
1513.000000	0.340947
1514.000000	0.341323
1515.000000	0.341616
1516.000000	0.341880
1517.000000	0.342173
1518.000000	0.342392
1519.000000	0.342542
1520.000000	0.342771
1521.000000	0.342951
1522.000000	0.343153
1523.000000	0.343447
1524.000000	0.343649
1525.000000	0.343835
1526.000000	0.343992
1527.000000	0.344120
1528.000000	0.344297
1529.000000	0.344485
1530.000000	0.344605
1531.000000	0.344766
1532.000000	0.344941
1533.000000	0.345051
1534.000000	0.345201
1535.000000	0.345410
1536.000000	0.345540
1537.000000	0.345764
1538.000000	0.346032
1539.000000	0.346134
1540.000000	0.346234
1541.000000	0.346411
1542.000000	0.346523
1543.000000	0.346674
1544.000000	0.346855
1545.000000	0.346988
1546.000000	0.347116
1547.000000	0.347275
1548.000000	0.347471
1549.000000	0.347648
1550.000000	0.347772
1551.000000	0.347888
1552.000000	0.347990
1553.000000	0.348034
1554.000000	0.348120
1555.000000	0.348279
1556.000000	0.348400
1557.000000	0.348463
1558.000000	0.348546
1559.000000	0.348555
1560.000000	0.348547
1561.000000	0.348562
1562.000000	0.348575
1563.000000	0.348605
1564.000000	0.348645
1565.000000	0.348705
1566.000000	0.348656
1567.000000	0.348656
1568.000000	0.348660
1569.000000	0.348699
1570.000000	0.348758
1571.000000	0.348845
1572.000000	0.348869
1573.000000	0.348883
1574.000000	0.348887
1575.000000	0.348880
1576.000000	0.348891
1577.000000	0.348880
1578.000000	0.348866
1579.000000	0.348884
1580.000000	0.348941
1581.000000	0.349122
1582.000000	0.349214
1583.000000	0.349296
1584.000000	0.349324
1585.000000	0.349368
1586.000000	0.349434
1587.000000	0.349528
1588.000000	0.349564
1589.000000	0.349601
1590.000000	0.349592
1591.000000	0.349526
1592.000000	0.349496
1593.000000	0.349511
1594.000000	0.349446
1595.000000	0.349398
1596.000000	0.349379
1597.000000	0.349341
1598.000000	0.349322
1599.000000	0.349383
1600.000000	0.349378
1601.000000	0.349407
1602.000000	0.349460
1603.000000	0.349570
1604.000000	0.349654
1605.000000	0.349778
1606.000000	0.349854
1607.000000	0.349948
1608.000000	0.350029
1609.000000	0.350138
1610.000000	0.350247
1611.000000	0.350396
1612.000000	0.350506
1613.000000	0.350717
1614.000000	0.350862
1615.000000	0.351014
1616.000000	0.351222
1617.000000	0.351410
1618.000000	0.351538
1619.000000	0.351616
1620.000000	0.351765
1621.000000	0.351947
1622.000000	0.352174
1623.000000	0.352440
1624.000000	0.352666
1625.000000	0.352721
1626.000000	0.352792
1627.000000	0.352897
1628.000000	0.353053
1629.000000	0.353171
1630.000000	0.353362
1631.000000	0.353566
1632.000000	0.353698
1633.000000	0.353838
1634.000000	0.353989
1635.000000	0.354183
1636.000000	0.354308
1637.000000	0.354400
1638.000000	0.354529
1639.000000	0.354682
1640.000000	0.354839
1641.000000	0.355135
1642.000000	0.355357
1643.000000	0.355579
1644.000000	0.355784
1645.000000	0.355962
1646.000000	0.356130
1647.000000	0.356339
1648.000000	0.356462
1649.000000	0.356672
1650.000000	0.356832
1651.000000	0.356935
1652.000000	0.357118
1653.000000	0.357280
1654.000000	0.357447
1655.000000	0.357596
1656.000000	0.357612
1657.000000	0.357619
1658.000000	0.357679
1659.000000	0.357801
1660.000000	0.358007
1661.000000	0.358206
1662.000000	0.358389
1663.000000	0.358555
1664.000000	0.358748
1665.000000	0.358952
1666.000000	0.359244
1667.000000	0.359508
1668.000000	0.359732
1669.000000	0.359943
1670.000000	0.360065
1671.000000	0.360240
1672.000000	0.360453
1673.000000	0.360602
1674.000000	0.360832
1675.000000	0.361091
1676.000000	0.361276
1677.000000	0.361441
1678.000000	0.361602
1679.000000	0.361766
1680.000000	0.361850
1681.000000	0.361971
1682.000000	0.362103
1683.000000	0.362190
1684.000000	0.362354
1685.000000	0.362513
1686.000000	0.362556
1687.000000	0.362647
1688.000000	0.362674
1689.000000	0.362729
1690.000000	0.362796
1691.000000	0.362892
1692.000000	0.362969
1693.000000	0.363003
1694.000000	0.363048
1695.000000	0.363186
1696.000000	0.363253
1697.000000	0.363260
1698.000000	0.363274
1699.000000	0.363312
1700.000000	0.363321
1701.000000	0.363452
1702.000000	0.363451
1703.000000	0.363436
1704.000000	0.363550
1705.000000	0.363637
1706.000000	0.363735
1707.000000	0.363863
1708.000000	0.363997
1709.000000	0.364048
1710.000000	0.364202
1711.000000	0.364320
1712.000000	0.364409
1713.000000	0.364481
1714.000000	0.364560
1715.000000	0.364687
1716.000000	0.364885
1717.000000	0.364983
1718.000000	0.365013
1719.000000	0.365064
1720.000000	0.365111
1721.000000	0.365161
1722.000000	0.365262
1723.000000	0.365346
1724.000000	0.365432
1725.000000	0.365516
1726.000000	0.365523
1727.000000	0.365543
1728.000000	0.365456
1729.000000	0.365370
1730.000000	0.365433
1731.000000	0.365483
1732.000000	0.365521
1733.000000	0.365683
1734.000000	0.365794
1735.000000	0.365884
1736.000000	0.365957
1737.000000	0.366047
1738.000000	0.366129
1739.000000	0.366238
1740.000000	0.366395
1741.000000	0.366435
1742.000000	0.366425
1743.000000	0.366510
1744.000000	0.366560
1745.000000	0.366587
1746.000000	0.366650
1747.000000	0.366623
1748.000000	0.366567
1749.000000	0.366529
1750.000000	0.366462
1751.000000	0.366511
1752.000000	0.366635
1753.000000	0.366616
1754.000000	0.366650
1755.000000	0.366692
1756.000000	0.366689
1757.000000	0.366666
1758.000000	0.366696
1759.000000	0.366688
1760.000000	0.366717
1761.000000	0.366790
1762.000000	0.366808
1763.000000	0.366818
1764.000000	0.366839
1765.000000	0.366772
1766.000000	0.366806
1767.000000	0.366825
1768.000000	0.366799
1769.000000	0.366913
1770.000000	0.367011
1771.000000	0.367021
1772.000000	0.367059
1773.000000	0.367042
1774.000000	0.367096
1775.000000	0.367272
1776.000000	0.367348
1777.000000	0.367395
1778.000000	0.367401
1779.000000	0.367289
1780.000000	0.367292
1781.000000	0.367321
1782.000000	0.367285
1783.000000	0.367275
1784.000000	0.367350
1785.000000	0.367309
1786.000000	0.367438
1787.000000	0.367709
1788.000000	0.367848
1789.000000	0.367969
1790.000000	0.368156
1791.000000	0.368211
1792.000000	0.368334
1793.000000	0.368420
1794.000000	0.368355
1795.000000	0.368457
1796.000000	0.368707
1797.000000	0.368819
1798.000000	0.368911
1799.000000	0.368997
1800.000000	0.369017
1801.000000	0.368788
1802.000000	0.368961
1803.000000	0.369176
1804.000000	0.369246
1805.000000	0.369205
1806.000000	0.369293
1807.000000	0.369442
1808.000000	0.369411
1809.000000	0.369247
1810.000000	0.369228
1811.000000	0.369307
1812.000000	0.369212
1813.000000	0.369484
1814.000000	0.370366
1815.000000	0.370690
1816.000000	0.371018
1817.000000	0.370918
1818.000000	0.370380
1819.000000	0.370093
1820.000000	0.369846
1821.000000	0.369739
1822.000000	0.369634
1823.000000	0.369729
1824.000000	0.369576
1825.000000	0.368946
1826.000000	0.368908
1827.000000	0.369134
1828.000000	0.369155
1829.000000	0.369003
1830.000000	0.368976
1831.000000	0.368773
1832.000000	0.368019
1833.000000	0.367796
1834.000000	0.367977
1835.000000	0.367931
1836.000000	0.367816
1837.000000	0.367644
1838.000000	0.367381
1839.000000	0.366826
1840.000000	0.366338
1841.000000	0.366097
1842.000000	0.365828
1843.000000	0.365649
1844.000000	0.365434
1845.000000	0.365131
1846.000000	0.364864
1847.000000	0.364430
1848.000000	0.364015
1849.000000	0.363619
1850.000000	0.362941
1851.000000	0.362518
1852.000000	0.362066
1853.000000	0.361679
1854.000000	0.361386
1855.000000	0.360816
1856.000000	0.360059
1857.000000	0.359140
1858.000000	0.358142
1859.000000	0.356998
1860.000000	0.356107
1861.000000	0.355054
1862.000000	0.353772
1863.000000	0.352513
1864.000000	0.351150
1865.000000	0.349515
1866.000000	0.347934
1867.000000	0.346410
1868.000000	0.344543
1869.000000	0.342599
1870.000000	0.340631
1871.000000	0.338625
1872.000000	0.336500
1873.000000	0.334245
1874.000000	0.331886
1875.000000	0.329343
1876.000000	0.326451
1877.000000	0.323237
1878.000000	0.319888
1879.000000	0.316344
1880.000000	0.312620
1881.000000	0.308897
1882.000000	0.305038
1883.000000	0.300979
1884.000000	0.296854
1885.000000	0.292398
1886.000000	0.287776
1887.000000	0.282987
1888.000000	0.277965
1889.000000	0.272515
1890.000000	0.267325
1891.000000	0.262071
1892.000000	0.256338
1893.000000	0.250846
1894.000000	0.245545
1895.000000	0.240117
1896.000000	0.234717
1897.000000	0.229568
1898.000000	0.224331
1899.000000	0.219244
1900.000000	0.214648
1901.000000	0.210511
1902.000000	0.206872
1903.000000	0.203721
1904.000000	0.200680
1905.000000	0.197885
1906.000000	0.195315
1907.000000	0.193022
1908.000000	0.190869
1909.000000	0.189241
1910.000000	0.187925
1911.000000	0.186933
1912.000000	0.186268
1913.000000	0.185752
1914.000000	0.185319
1915.000000	0.184789
1916.000000	0.184476
1917.000000	0.184010
1918.000000	0.183565
1919.000000	0.183083
1920.000000	0.182636
1921.000000	0.182052
1922.000000	0.181652
1923.000000	0.181562
1924.000000	0.181590
1925.000000	0.181746
1926.000000	0.182149
1927.000000	0.182564
1928.000000	0.182857
1929.000000	0.183185
1930.000000	0.183512
1931.000000	0.183665
1932.000000	0.183948
1933.000000	0.184349
1934.000000	0.184812
1935.000000	0.185542
1936.000000	0.186098
1937.000000	0.186323
1938.000000	0.186571
1939.000000	0.186595
1940.000000	0.186290
1941.000000	0.185900
1942.000000	0.186045
1943.000000	0.186012
1944.000000	0.186031
1945.000000	0.186352
1946.000000	0.186408
1947.000000	0.186369
1948.000000	0.186401
1949.000000	0.186314
1950.000000	0.186111
1951.000000	0.185801
1952.000000	0.185466
1953.000000	0.184866
1954.000000	0.184560
1955.000000	0.184404
1956.000000	0.184104
1957.000000	0.184398
1958.000000	0.184514
1959.000000	0.184258
1960.000000	0.184229
1961.000000	0.184076
1962.000000	0.184014
1963.000000	0.183992
1964.000000	0.184180
1965.000000	0.184203
1966.000000	0.184189
1967.000000	0.184020
1968.000000	0.183997
1969.000000	0.184118
1970.000000	0.184206
1971.000000	0.184375
1972.000000	0.184528
1973.000000	0.184699
1974.000000	0.184982
1975.000000	0.185337
1976.000000	0.185834
1977.000000	0.186227
1978.000000	0.186527
1979.000000	0.186908
1980.000000	0.187390
1981.000000	0.187940
1982.000000	0.188689
1983.000000	0.189526
1984.000000	0.190163
1985.000000	0.190766
1986.000000	0.191236
1987.000000	0.191578
1988.000000	0.192013
1989.000000	0.192400
1990.000000	0.192995
1991.000000	0.193777
1992.000000	0.194550
1993.000000	0.195515
1994.000000	0.196493
1995.000000	0.197350
1996.000000	0.198264
1997.000000	0.199146
1998.000000	0.200063
1999.000000	0.200880
2000.000000	0.201714
2001.000000	0.202373
2002.000000	0.202983
2003.000000	0.203697
2004.000000	0.204730
2005.000000	0.205693
2006.000000	0.206711
2007.000000	0.207826
2008.000000	0.208856
2009.000000	0.209698
2010.000000	0.210842
2011.000000	0.212117
2012.000000	0.213201
2013.000000	0.214232
2014.000000	0.215275
2015.000000	0.216329
2016.000000	0.217144
2017.000000	0.218238
2018.000000	0.219235
2019.000000	0.219964
2020.000000	0.221012
2021.000000	0.222098
2022.000000	0.223192
2023.000000	0.224333
2024.000000	0.225736
2025.000000	0.226942
2026.000000	0.227934
2027.000000	0.228992
2028.000000	0.230005
2029.000000	0.230890
2030.000000	0.231681
2031.000000	0.232412
2032.000000	0.233410
2033.000000	0.234514
2034.000000	0.235468
2035.000000	0.236693
2036.000000	0.237470
2037.000000	0.237992
2038.000000	0.238689
2039.000000	0.239281
2040.000000	0.240079
2041.000000	0.240998
2042.000000	0.241836
2043.000000	0.242894
2044.000000	0.243873
2045.000000	0.244795
2046.000000	0.245607
2047.000000	0.246472
2048.000000	0.247215
2049.000000	0.248161
2050.000000	0.248928
2051.000000	0.249695
2052.000000	0.250339
2053.000000	0.250977
2054.000000	0.251744
2055.000000	0.252797
2056.000000	0.253585
2057.000000	0.254461
2058.000000	0.255150
2059.000000	0.255719
2060.000000	0.256438
2061.000000	0.257272
2062.000000	0.257868
2063.000000	0.258515
2064.000000	0.258950
2065.000000	0.259231
2066.000000	0.259664
2067.000000	0.260289
2068.000000	0.261092
2069.000000	0.261917
2070.000000	0.262905
2071.000000	0.263762
2072.000000	0.264568
2073.000000	0.265257
2074.000000	0.265787
2075.000000	0.266449
2076.000000	0.266972
2077.000000	0.267735
2078.000000	0.268838
2079.000000	0.269603
2080.000000	0.270345
2081.000000	0.271147
2082.000000	0.271870
2083.000000	0.272455
2084.000000	0.273331
2085.000000	0.274056
2086.000000	0.274704
2087.000000	0.275359
2088.000000	0.275720
2089.000000	0.276350
2090.000000	0.277063
2091.000000	0.277794
2092.000000	0.278710
2093.000000	0.280072
2094.000000	0.281010
2095.000000	0.282038
2096.000000	0.282771
2097.000000	0.283139
2098.000000	0.283352
2099.000000	0.283560
2100.000000	0.283990
2101.000000	0.284780
2102.000000	0.285641
2103.000000	0.286465
2104.000000	0.287141
2105.000000	0.287729
2106.000000	0.288026
2107.000000	0.288592
2108.000000	0.289221
2109.000000	0.289844
2110.000000	0.290374
2111.000000	0.290882
2112.000000	0.291325
2113.000000	0.291540
2114.000000	0.291856
2115.000000	0.292259
2116.000000	0.292649
2117.000000	0.292923
2118.000000	0.293294
2119.000000	0.293742
2120.000000	0.294142
2121.000000	0.294515
2122.000000	0.294989
2123.000000	0.295486
2124.000000	0.295946
2125.000000	0.296588
2126.000000	0.296986
2127.000000	0.297151
2128.000000	0.297596
2129.000000	0.298033
2130.000000	0.298365
2131.000000	0.298840
2132.000000	0.299174
2133.000000	0.299448
2134.000000	0.299927
2135.000000	0.299960
2136.000000	0.299917
2137.000000	0.299913
2138.000000	0.299615
2139.000000	0.299613
2140.000000	0.299737
2141.000000	0.299946
2142.000000	0.300394
2143.000000	0.300409
2144.000000	0.300547
2145.000000	0.300787
2146.000000	0.300852
2147.000000	0.301333
2148.000000	0.301793
2149.000000	0.302341
2150.000000	0.302927
2151.000000	0.302961
2152.000000	0.303063
2153.000000	0.303204
2154.000000	0.303293
2155.000000	0.303419
2156.000000	0.303415
2157.000000	0.303338
2158.000000	0.303265
2159.000000	0.303036
2160.000000	0.303109
2161.000000	0.303177
2162.000000	0.303620
2163.000000	0.304490
2164.000000	0.304936
2165.000000	0.305477
2166.000000	0.305950
2167.000000	0.305747
2168.000000	0.305561
2169.000000	0.305355
2170.000000	0.305120
2171.000000	0.305064
2172.000000	0.305220
2173.000000	0.305273
2174.000000	0.305344
2175.000000	0.305368
2176.000000	0.305267
2177.000000	0.305338
2178.000000	0.305761
2179.000000	0.305929
2180.000000	0.305999
2181.000000	0.306314
2182.000000	0.306066
2183.000000	0.305607
2184.000000	0.305759
2185.000000	0.305317
2186.000000	0.304451
2187.000000	0.304424
2188.000000	0.304375
2189.000000	0.304169
2190.000000	0.304627
2191.000000	0.305115
2192.000000	0.305232
2193.000000	0.305135
2194.000000	0.304936
2195.000000	0.304428
2196.000000	0.304135
2197.000000	0.303694
2198.000000	0.303516
2199.000000	0.303539
2200.000000	0.303717
2201.000000	0.304436
2202.000000	0.304704
2203.000000	0.304711
2204.000000	0.304750
2205.000000	0.303746
2206.000000	0.302454
2207.000000	0.302190
2208.000000	0.302309
2209.000000	0.303058
2210.000000	0.304306
2211.000000	0.304197
2212.000000	0.304202
2213.000000	0.303745
2214.000000	0.302065
2215.000000	0.301747
2216.000000	0.302007
2217.000000	0.301990
2218.000000	0.302538
2219.000000	0.303108
2220.000000	0.303563
2221.000000	0.303674
2222.000000	0.303926
2223.000000	0.304143
2224.000000	0.303816
2225.000000	0.304036
2226.000000	0.304061
2227.000000	0.303036
2228.000000	0.302997
2229.000000	0.302225
2230.000000	0.301520
2231.000000	0.302037
2232.000000	0.301364
2233.000000	0.300836
2234.000000	0.300122
2235.000000	0.299660
2236.000000	0.299313
2237.000000	0.298815
2238.000000	0.298410
2239.000000	0.297966
2240.000000	0.298052
2241.000000	0.298789
2242.000000	0.298834
2243.000000	0.299205
2244.000000	0.299314
2245.000000	0.298244
2246.000000	0.297865
2247.000000	0.297906
2248.000000	0.297755
2249.000000	0.297939
2250.000000	0.297663
2251.000000	0.296834
2252.000000	0.297254
2253.000000	0.296791
2254.000000	0.296481
2255.000000	0.296720
2256.000000	0.296422
2257.000000	0.295807
2258.000000	0.295701
2259.000000	0.295471
2260.000000	0.294640
2261.000000	0.294061
2262.000000	0.293551
2263.000000	0.293094
2264.000000	0.292481
2265.000000	0.292448
2266.000000	0.293294
2267.000000	0.292995
2268.000000	0.292543
2269.000000	0.291719
2270.000000	0.290031
2271.000000	0.288459
2272.000000	0.286972
2273.000000	0.285491
2274.000000	0.283296
2275.000000	0.281824
2276.000000	0.281081
2277.000000	0.279391
2278.000000	0.278168
2279.000000	0.277100
2280.000000	0.275507
2281.000000	0.274223
2282.000000	0.273059
2283.000000	0.271705
2284.000000	0.269989
2285.000000	0.268306
2286.000000	0.266554
2287.000000	0.264827
2288.000000	0.263938
2289.000000	0.262298
2290.000000	0.260367
2291.000000	0.259399
2292.000000	0.258362
2293.000000	0.257180
2294.000000	0.256244
2295.000000	0.255786
2296.000000	0.254977
2297.000000	0.253772
2298.000000	0.253292
2299.000000	0.252894
2300.000000	0.252534
2301.000000	0.252494
2302.000000	0.252747
2303.000000	0.253270
2304.000000	0.253753
2305.000000	0.254604
2306.000000	0.255176
2307.000000	0.255146
2308.000000	0.256056
2309.000000	0.257741
2310.000000	0.259203
2311.000000	0.260603
2312.000000	0.261913
2313.000000	0.261983
2314.000000	0.261672
2315.000000	0.261865
2316.000000	0.260869
2317.000000	0.259646
2318.000000	0.259813
2319.000000	0.260484
2320.000000	0.260919
2321.000000	0.261787
2322.000000	0.261693
2323.000000	0.260458
2324.000000	0.259898
2325.000000	0.258721
2326.000000	0.257212
2327.000000	0.256059
2328.000000	0.255538
2329.000000	0.255798
2330.000000	0.255799
2331.000000	0.255057
2332.000000	0.253698
2333.000000	0.252912
2334.000000	0.252181
2335.000000	0.252164
2336.000000	0.253672
2337.000000	0.253435
2338.000000	0.252533
2339.000000	0.251132
2340.000000	0.248377
2341.000000	0.246386
2342.000000	0.243793
2343.000000	0.242226
2344.000000	0.241596
2345.000000	0.240804
2346.000000	0.240833
2347.000000	0.240516
2348.000000	0.240436
2349.000000	0.239537
2350.000000	0.237022
2351.000000	0.235500
2352.000000	0.233532
2353.000000	0.230848
2354.000000	0.230349
2355.000000	0.229637
2356.000000	0.228621
2357.000000	0.228427
2358.000000	0.227828
2359.000000	0.226692
2360.000000	0.225523
2361.000000	0.225254
2362.000000	0.223735
2363.000000	0.222241
2364.000000	0.220559
2365.000000	0.218013
2366.000000	0.216284
2367.000000	0.213986
2368.000000	0.213148
2369.000000	0.212326
2370.000000	0.211158
2371.000000	0.211855
2372.000000	0.210751
2373.000000	0.209386
2374.000000	0.207878
2375.000000	0.205097
2376.000000	0.204488
2377.000000	0.203514
2378.000000	0.203308
2379.000000	0.204110
2380.000000	0.202454
2381.000000	0.201683
2382.000000	0.199714
2383.000000	0.196552
2384.000000	0.194861
2385.000000	0.193017
2386.000000	0.192137
2387.000000	0.192091
2388.000000	0.192749
2389.000000	0.193654
2390.000000	0.193107
2391.000000	0.192169
2392.000000	0.190965
2393.000000	0.189655
2394.000000	0.189339
2395.000000	0.188700
2396.000000	0.189352
2397.000000	0.191883
2398.000000	0.192926
2399.000000	0.192950
2400.000000	0.190003
2401.000000	0.185784
2402.000000	0.184192
2403.000000	0.183545
2404.000000	0.185173
2405.000000	0.183851
2406.000000	0.181330
2407.000000	0.181255
2408.000000	0.181593
2409.000000	0.184622
2410.000000	0.185291
2411.000000	0.183906
2412.000000	0.180616
2413.000000	0.176312
2414.000000	0.177544
2415.000000	0.179233
2416.000000	0.179931
2417.000000	0.182598
2418.000000	0.181933
2419.000000	0.181339
2420.000000	0.182303
2421.000000	0.181276
2422.000000	0.181089
2423.000000	0.178401
2424.000000	0.174672
2425.000000	0.173882
2426.000000	0.173141
2427.000000	0.174810
2428.000000	0.177866
2429.000000	0.180003
2430.000000	0.182815
2431.000000	0.182707
2432.000000	0.182888
2433.000000	0.185875
2434.000000	0.188638
2435.000000	0.193094
2436.000000	0.197870
2437.000000	0.197129
2438.000000	0.193206
2439.000000	0.186290
2440.000000	0.179138
2441.000000	0.177739
2442.000000	0.174956
2443.000000	0.174562
2444.000000	0.172893
2445.000000	0.166530
2446.000000	0.168126
2447.000000	0.171647
2448.000000	0.172171
2449.000000	0.174702
2450.000000	0.176772
2451.000000	0.175670
2452.000000	0.171600
2453.000000	0.168904
2454.000000	0.163827
2455.000000	0.160057
2456.000000	0.166251
2457.000000	0.175229
2458.000000	0.182372
2459.000000	0.184156
2460.000000	0.187399
2461.000000	0.186340
2462.000000	0.178013
2463.000000	0.175873
2464.000000	0.167950
2465.000000	0.160095
2466.000000	0.159776
2467.000000	0.159321
2468.000000	0.160562
2469.000000	0.161413
2470.000000	0.164094
2471.000000	0.163648
2472.000000	0.162572
2473.000000	0.167449
2474.000000	0.164217
2475.000000	0.159116
2476.000000	0.156551
2477.000000	0.149283
2478.000000	0.150997
2479.000000	0.154283
2480.000000	0.149561
2481.000000	0.148281
2482.000000	0.142134
2483.000000	0.135142
2484.000000	0.135271
2485.000000	0.133886
2486.000000	0.133181
2487.000000	0.134712
2488.000000	0.134438
2489.000000	0.132765
2490.000000	0.133658
2491.000000	0.142126
2492.000000	0.140585
2493.000000	0.137204
2494.000000	0.138929
2495.000000	0.129937
2496.000000	0.131838
2497.000000	0.151447
2498.000000	0.156130
2499.000000	0.163542
2500.000000	0.161868
