# Wavelength	NAu-2-20_HEX-40_FV7-40_00001.asd.rts.txt
350.000000	0.177170
351.000000	0.158725
352.000000	0.156960
353.000000	0.162541
354.000000	0.167028
355.000000	0.167191
356.000000	0.162686
357.000000	0.155669
358.000000	0.147631
359.000000	0.146522
360.000000	0.151362
361.000000	0.157885
362.000000	0.159431
363.000000	0.157055
364.000000	0.154947
365.000000	0.167046
366.000000	0.165918
367.000000	0.153774
368.000000	0.158360
369.000000	0.164466
370.000000	0.167654
371.000000	0.166907
372.000000	0.164642
373.000000	0.159747
374.000000	0.154726
375.000000	0.163995
376.000000	0.165131
377.000000	0.158269
378.000000	0.165436
379.000000	0.166042
380.000000	0.163762
381.000000	0.168469
382.000000	0.170076
383.000000	0.169020
384.000000	0.167414
385.000000	0.167234
386.000000	0.168994
387.000000	0.171061
388.000000	0.168822
389.000000	0.168658
390.000000	0.170263
391.000000	0.170841
392.000000	0.169941
393.000000	0.169832
394.000000	0.171432
395.000000	0.169811
396.000000	0.170092
397.000000	0.172846
398.000000	0.172671
399.000000	0.172660
400.000000	0.172461
401.000000	0.170621
402.000000	0.172327
403.000000	0.174351
404.000000	0.173637
405.000000	0.173048
406.000000	0.173357
407.000000	0.174416
408.000000	0.174689
409.000000	0.174898
410.000000	0.175200
411.000000	0.175469
412.000000	0.175462
413.000000	0.175572
414.000000	0.176076
415.000000	0.175472
416.000000	0.175218
417.000000	0.176125
418.000000	0.177421
419.000000	0.178053
420.000000	0.178076
421.000000	0.178499
422.000000	0.178717
423.000000	0.178730
424.000000	0.178802
425.000000	0.179447
426.000000	0.179738
427.000000	0.179300
428.000000	0.180096
429.000000	0.180572
430.000000	0.180469
431.000000	0.181297
432.000000	0.181568
433.000000	0.181322
434.000000	0.181346
435.000000	0.181609
436.000000	0.182246
437.000000	0.183118
438.000000	0.182888
439.000000	0.182649
440.000000	0.183037
441.000000	0.183429
442.000000	0.183881
443.000000	0.184274
444.000000	0.184501
445.000000	0.184587
446.000000	0.184642
447.000000	0.184690
448.000000	0.185045
449.000000	0.185362
450.000000	0.185522
451.000000	0.186235
452.000000	0.186789
453.000000	0.186864
454.000000	0.186650
455.000000	0.187122
456.000000	0.187999
457.000000	0.188341
458.000000	0.188620
459.000000	0.188866
460.000000	0.189091
461.000000	0.189280
462.000000	0.189639
463.000000	0.190124
464.000000	0.190699
465.000000	0.190965
466.000000	0.190855
467.000000	0.190642
468.000000	0.190945
469.000000	0.191550
470.000000	0.192106
471.000000	0.192139
472.000000	0.192237
473.000000	0.192736
474.000000	0.192999
475.000000	0.193138
476.000000	0.193330
477.000000	0.193589
478.000000	0.193824
479.000000	0.194168
480.000000	0.194561
481.000000	0.194873
482.000000	0.195168
483.000000	0.195391
484.000000	0.195795
485.000000	0.195998
486.000000	0.196074
487.000000	0.196564
488.000000	0.196732
489.000000	0.196672
490.000000	0.197004
491.000000	0.197087
492.000000	0.197252
493.000000	0.197811
494.000000	0.197785
495.000000	0.197811
496.000000	0.198282
497.000000	0.198642
498.000000	0.198774
499.000000	0.198807
500.000000	0.199031
501.000000	0.199384
502.000000	0.199715
503.000000	0.199767
504.000000	0.199797
505.000000	0.199976
506.000000	0.200377
507.000000	0.200702
508.000000	0.201033
509.000000	0.201379
510.000000	0.201633
511.000000	0.201980
512.000000	0.202397
513.000000	0.202646
514.000000	0.202925
515.000000	0.203209
516.000000	0.203385
517.000000	0.203733
518.000000	0.204133
519.000000	0.204422
520.000000	0.204776
521.000000	0.205195
522.000000	0.205637
523.000000	0.205986
524.000000	0.206371
525.000000	0.206803
526.000000	0.207270
527.000000	0.207875
528.000000	0.208520
529.000000	0.209120
530.000000	0.209682
531.000000	0.210362
532.000000	0.211141
533.000000	0.211813
534.000000	0.212551
535.000000	0.213380
536.000000	0.214229
537.000000	0.214929
538.000000	0.215550
539.000000	0.216251
540.000000	0.217016
541.000000	0.217698
542.000000	0.218236
543.000000	0.218867
544.000000	0.219497
545.000000	0.220044
546.000000	0.220669
547.000000	0.221287
548.000000	0.221940
549.000000	0.222672
550.000000	0.223325
551.000000	0.223972
552.000000	0.224702
553.000000	0.225546
554.000000	0.226428
555.000000	0.227300
556.000000	0.228243
557.000000	0.229148
558.000000	0.230078
559.000000	0.231009
560.000000	0.231952
561.000000	0.232937
562.000000	0.233878
563.000000	0.234840
564.000000	0.235765
565.000000	0.236521
566.000000	0.237341
567.000000	0.238098
568.000000	0.238746
569.000000	0.239545
570.000000	0.240345
571.000000	0.241033
572.000000	0.241520
573.000000	0.241998
574.000000	0.242441
575.000000	0.242812
576.000000	0.243245
577.000000	0.243643
578.000000	0.243970
579.000000	0.244263
580.000000	0.244488
581.000000	0.244658
582.000000	0.244868
583.000000	0.245124
584.000000	0.245363
585.000000	0.245477
586.000000	0.245644
587.000000	0.245815
588.000000	0.245908
589.000000	0.246028
590.000000	0.246090
591.000000	0.246058
592.000000	0.246043
593.000000	0.246022
594.000000	0.245986
595.000000	0.245955
596.000000	0.245891
597.000000	0.245834
598.000000	0.245768
599.000000	0.245686
600.000000	0.245539
601.000000	0.245273
602.000000	0.245189
603.000000	0.245085
604.000000	0.244900
605.000000	0.244822
606.000000	0.244689
607.000000	0.244506
608.000000	0.244368
609.000000	0.244238
610.000000	0.244092
611.000000	0.243923
612.000000	0.243797
613.000000	0.243634
614.000000	0.243428
615.000000	0.243263
616.000000	0.243186
617.000000	0.243138
618.000000	0.243023
619.000000	0.242931
620.000000	0.242803
621.000000	0.242594
622.000000	0.242468
623.000000	0.242380
624.000000	0.242264
625.000000	0.242123
626.000000	0.242011
627.000000	0.241957
628.000000	0.241957
629.000000	0.242019
630.000000	0.242036
631.000000	0.242067
632.000000	0.242017
633.000000	0.242018
634.000000	0.242162
635.000000	0.242158
636.000000	0.242106
637.000000	0.242076
638.000000	0.242077
639.000000	0.242105
640.000000	0.242191
641.000000	0.242261
642.000000	0.242288
643.000000	0.242304
644.000000	0.242369
645.000000	0.242539
646.000000	0.242705
647.000000	0.242782
648.000000	0.242897
649.000000	0.243028
650.000000	0.243160
651.000000	0.243334
652.000000	0.243531
653.000000	0.243751
654.000000	0.243940
655.000000	0.244133
656.000000	0.244381
657.000000	0.244666
658.000000	0.244947
659.000000	0.245256
660.000000	0.245577
661.000000	0.245837
662.000000	0.246119
663.000000	0.246469
664.000000	0.246823
665.000000	0.247158
666.000000	0.247472
667.000000	0.247762
668.000000	0.248146
669.000000	0.248573
670.000000	0.249009
671.000000	0.249469
672.000000	0.249984
673.000000	0.250532
674.000000	0.251068
675.000000	0.251559
676.000000	0.252046
677.000000	0.252597
678.000000	0.253177
679.000000	0.253691
680.000000	0.254131
681.000000	0.254689
682.000000	0.255295
683.000000	0.255852
684.000000	0.256421
685.000000	0.257005
686.000000	0.257648
687.000000	0.258349
688.000000	0.259017
689.000000	0.259699
690.000000	0.260458
691.000000	0.261218
692.000000	0.261930
693.000000	0.262633
694.000000	0.263320
695.000000	0.264063
696.000000	0.264841
697.000000	0.265598
698.000000	0.266374
699.000000	0.267187
700.000000	0.268034
701.000000	0.268828
702.000000	0.269635
703.000000	0.270465
704.000000	0.271306
705.000000	0.272153
706.000000	0.272989
707.000000	0.273879
708.000000	0.274767
709.000000	0.275628
710.000000	0.276468
711.000000	0.277287
712.000000	0.278146
713.000000	0.279057
714.000000	0.279898
715.000000	0.280769
716.000000	0.281659
717.000000	0.282488
718.000000	0.283316
719.000000	0.284154
720.000000	0.285014
721.000000	0.285878
722.000000	0.286717
723.000000	0.287583
724.000000	0.288469
725.000000	0.289305
726.000000	0.290158
727.000000	0.290994
728.000000	0.291857
729.000000	0.292704
730.000000	0.293469
731.000000	0.294314
732.000000	0.295171
733.000000	0.296019
734.000000	0.296786
735.000000	0.297526
736.000000	0.298321
737.000000	0.299016
738.000000	0.299663
739.000000	0.300348
740.000000	0.300967
741.000000	0.301619
742.000000	0.302257
743.000000	0.302839
744.000000	0.303419
745.000000	0.304023
746.000000	0.304663
747.000000	0.305241
748.000000	0.305776
749.000000	0.306319
750.000000	0.306856
751.000000	0.307332
752.000000	0.307803
753.000000	0.308310
754.000000	0.308860
755.000000	0.309304
756.000000	0.309699
757.000000	0.310100
758.000000	0.310500
759.000000	0.310976
760.000000	0.311470
761.000000	0.311914
762.000000	0.312265
763.000000	0.312557
764.000000	0.312954
765.000000	0.313263
766.000000	0.313546
767.000000	0.313874
768.000000	0.314174
769.000000	0.314412
770.000000	0.314610
771.000000	0.314845
772.000000	0.315185
773.000000	0.315522
774.000000	0.315813
775.000000	0.316098
776.000000	0.316314
777.000000	0.316428
778.000000	0.316598
779.000000	0.316785
780.000000	0.316964
781.000000	0.317099
782.000000	0.317240
783.000000	0.317426
784.000000	0.317515
785.000000	0.317630
786.000000	0.317782
787.000000	0.317933
788.000000	0.317985
789.000000	0.318006
790.000000	0.318028
791.000000	0.318113
792.000000	0.318220
793.000000	0.318323
794.000000	0.318414
795.000000	0.318499
796.000000	0.318565
797.000000	0.318614
798.000000	0.318675
799.000000	0.318835
800.000000	0.319004
801.000000	0.319067
802.000000	0.319094
803.000000	0.319122
804.000000	0.319168
805.000000	0.319058
806.000000	0.318959
807.000000	0.318958
808.000000	0.318944
809.000000	0.318927
810.000000	0.318946
811.000000	0.318998
812.000000	0.318982
813.000000	0.318957
814.000000	0.318960
815.000000	0.319042
816.000000	0.319080
817.000000	0.319102
818.000000	0.319081
819.000000	0.319096
820.000000	0.319081
821.000000	0.318992
822.000000	0.318984
823.000000	0.318928
824.000000	0.318814
825.000000	0.318789
826.000000	0.318742
827.000000	0.318656
828.000000	0.318577
829.000000	0.318494
830.000000	0.318440
831.000000	0.318449
832.000000	0.318380
833.000000	0.318310
834.000000	0.318273
835.000000	0.318280
836.000000	0.318146
837.000000	0.318044
838.000000	0.318035
839.000000	0.318045
840.000000	0.318064
841.000000	0.318027
842.000000	0.317852
843.000000	0.317633
844.000000	0.317467
845.000000	0.317342
846.000000	0.317202
847.000000	0.317079
848.000000	0.317020
849.000000	0.317071
850.000000	0.317026
851.000000	0.316900
852.000000	0.316760
853.000000	0.316617
854.000000	0.316494
855.000000	0.316445
856.000000	0.316336
857.000000	0.316241
858.000000	0.316172
859.000000	0.316048
860.000000	0.315900
861.000000	0.315770
862.000000	0.315679
863.000000	0.315554
864.000000	0.315409
865.000000	0.315276
866.000000	0.315197
867.000000	0.315159
868.000000	0.315071
869.000000	0.314837
870.000000	0.314518
871.000000	0.314345
872.000000	0.314130
873.000000	0.313747
874.000000	0.313486
875.000000	0.313296
876.000000	0.313171
877.000000	0.313031
878.000000	0.312817
879.000000	0.312654
880.000000	0.312465
881.000000	0.312259
882.000000	0.312067
883.000000	0.311911
884.000000	0.311737
885.000000	0.311628
886.000000	0.311478
887.000000	0.311277
888.000000	0.311121
889.000000	0.310983
890.000000	0.310778
891.000000	0.310616
892.000000	0.310315
893.000000	0.309979
894.000000	0.309787
895.000000	0.309590
896.000000	0.309386
897.000000	0.309209
898.000000	0.309094
899.000000	0.308980
900.000000	0.308722
901.000000	0.308340
902.000000	0.308220
903.000000	0.308070
904.000000	0.307925
905.000000	0.307761
906.000000	0.307464
907.000000	0.307196
908.000000	0.307046
909.000000	0.306832
910.000000	0.306603
911.000000	0.306382
912.000000	0.306181
913.000000	0.305875
914.000000	0.305575
915.000000	0.305345
916.000000	0.305046
917.000000	0.304866
918.000000	0.304756
919.000000	0.304623
920.000000	0.304474
921.000000	0.304233
922.000000	0.303976
923.000000	0.303794
924.000000	0.303382
925.000000	0.303087
926.000000	0.303038
927.000000	0.302744
928.000000	0.302461
929.000000	0.302180
930.000000	0.301858
931.000000	0.301696
932.000000	0.301554
933.000000	0.301364
934.000000	0.301054
935.000000	0.300813
936.000000	0.300602
937.000000	0.300260
938.000000	0.299864
939.000000	0.299781
940.000000	0.299788
941.000000	0.299495
942.000000	0.299131
943.000000	0.298785
944.000000	0.298442
945.000000	0.298369
946.000000	0.298226
947.000000	0.298053
948.000000	0.297893
949.000000	0.297544
950.000000	0.297181
951.000000	0.296873
952.000000	0.296691
953.000000	0.296573
954.000000	0.296396
955.000000	0.296068
956.000000	0.295885
957.000000	0.295759
958.000000	0.295597
959.000000	0.295407
960.000000	0.295050
961.000000	0.294677
962.000000	0.294366
963.000000	0.294136
964.000000	0.293972
965.000000	0.293771
966.000000	0.293411
967.000000	0.293307
968.000000	0.293124
969.000000	0.292730
970.000000	0.292281
971.000000	0.292102
972.000000	0.292135
973.000000	0.292117
974.000000	0.291804
975.000000	0.291621
976.000000	0.291500
977.000000	0.291321
978.000000	0.291182
979.000000	0.290955
980.000000	0.290543
981.000000	0.290340
982.000000	0.290263
983.000000	0.290021
984.000000	0.289729
985.000000	0.289751
986.000000	0.289477
987.000000	0.289426
988.000000	0.289648
989.000000	0.289046
990.000000	0.288770
991.000000	0.288811
992.000000	0.288813
993.000000	0.288635
994.000000	0.288508
995.000000	0.288599
996.000000	0.288580
997.000000	0.288071
998.000000	0.287994
999.000000	0.288404
1000.000000	0.287650
1001.000000	0.288014
1002.000000	0.287795
1003.000000	0.288239
1004.000000	0.288663
1005.000000	0.289378
1006.000000	0.289445
1007.000000	0.289687
1008.000000	0.289135
1009.000000	0.288308
1010.000000	0.287133
1011.000000	0.286222
1012.000000	0.286159
1013.000000	0.285699
1014.000000	0.285855
1015.000000	0.286319
1016.000000	0.286652
1017.000000	0.287238
1018.000000	0.287442
1019.000000	0.287555
1020.000000	0.287603
1021.000000	0.287256
1022.000000	0.286640
1023.000000	0.286626
1024.000000	0.286540
1025.000000	0.286700
1026.000000	0.287040
1027.000000	0.287024
1028.000000	0.286803
1029.000000	0.286400
1030.000000	0.286042
1031.000000	0.286095
1032.000000	0.286334
1033.000000	0.286726
1034.000000	0.286866
1035.000000	0.287013
1036.000000	0.287022
1037.000000	0.286449
1038.000000	0.286502
1039.000000	0.286976
1040.000000	0.287542
1041.000000	0.287775
1042.000000	0.288481
1043.000000	0.289137
1044.000000	0.288920
1045.000000	0.288732
1046.000000	0.288320
1047.000000	0.288238
1048.000000	0.287846
1049.000000	0.288021
1050.000000	0.288995
1051.000000	0.289280
1052.000000	0.289224
1053.000000	0.289092
1054.000000	0.288736
1055.000000	0.288825
1056.000000	0.288879
1057.000000	0.289557
1058.000000	0.290316
1059.000000	0.290506
1060.000000	0.290974
1061.000000	0.291125
1062.000000	0.291149
1063.000000	0.291425
1064.000000	0.291596
1065.000000	0.291651
1066.000000	0.291739
1067.000000	0.291970
1068.000000	0.291888
1069.000000	0.291292
1070.000000	0.291208
1071.000000	0.291022
1072.000000	0.291257
1073.000000	0.291987
1074.000000	0.293115
1075.000000	0.293654
1076.000000	0.294064
1077.000000	0.294092
1078.000000	0.293758
1079.000000	0.293758
1080.000000	0.293754
1081.000000	0.294064
1082.000000	0.294980
1083.000000	0.295125
1084.000000	0.295029
1085.000000	0.295105
1086.000000	0.294666
1087.000000	0.294649
1088.000000	0.294928
1089.000000	0.295283
1090.000000	0.295959
1091.000000	0.296159
1092.000000	0.296224
1093.000000	0.296414
1094.000000	0.296605
1095.000000	0.296312
1096.000000	0.296649
1097.000000	0.297676
1098.000000	0.297967
1099.000000	0.297966
1100.000000	0.298181
1101.000000	0.298080
1102.000000	0.298200
1103.000000	0.298540
1104.000000	0.298848
1105.000000	0.299051
1106.000000	0.299408
1107.000000	0.300141
1108.000000	0.300436
1109.000000	0.300552
1110.000000	0.300614
1111.000000	0.300837
1112.000000	0.300948
1113.000000	0.301012
1114.000000	0.301267
1115.000000	0.301378
1116.000000	0.301037
1117.000000	0.301248
1118.000000	0.301879
1119.000000	0.302191
1120.000000	0.302660
1121.000000	0.302902
1122.000000	0.302999
1123.000000	0.303244
1124.000000	0.303166
1125.000000	0.303274
1126.000000	0.303434
1127.000000	0.303489
1128.000000	0.303527
1129.000000	0.303623
1130.000000	0.303754
1131.000000	0.303908
1132.000000	0.303890
1133.000000	0.303879
1134.000000	0.303954
1135.000000	0.303739
1136.000000	0.303859
1137.000000	0.304421
1138.000000	0.304552
1139.000000	0.304613
1140.000000	0.304811
1141.000000	0.304794
1142.000000	0.304890
1143.000000	0.305121
1144.000000	0.305369
1145.000000	0.305346
1146.000000	0.305505
1147.000000	0.305516
1148.000000	0.305376
1149.000000	0.305401
1150.000000	0.305419
1151.000000	0.305526
1152.000000	0.305713
1153.000000	0.305857
1154.000000	0.306035
1155.000000	0.306078
1156.000000	0.306080
1157.000000	0.306076
1158.000000	0.305882
1159.000000	0.305801
1160.000000	0.305727
1161.000000	0.305698
1162.000000	0.305802
1163.000000	0.306007
1164.000000	0.305976
1165.000000	0.305967
1166.000000	0.305989
1167.000000	0.305853
1168.000000	0.305867
1169.000000	0.306060
1170.000000	0.306159
1171.000000	0.306250
1172.000000	0.306401
1173.000000	0.306557
1174.000000	0.306695
1175.000000	0.306895
1176.000000	0.306948
1177.000000	0.306949
1178.000000	0.306973
1179.000000	0.306911
1180.000000	0.306849
1181.000000	0.306859
1182.000000	0.306944
1183.000000	0.306964
1184.000000	0.307056
1185.000000	0.307097
1186.000000	0.307145
1187.000000	0.307115
1188.000000	0.307020
1189.000000	0.306948
1190.000000	0.306840
1191.000000	0.306854
1192.000000	0.307073
1193.000000	0.307270
1194.000000	0.307466
1195.000000	0.307539
1196.000000	0.307403
1197.000000	0.307389
1198.000000	0.307424
1199.000000	0.307424
1200.000000	0.307438
1201.000000	0.307454
1202.000000	0.307483
1203.000000	0.307517
1204.000000	0.307538
1205.000000	0.307635
1206.000000	0.307661
1207.000000	0.307692
1208.000000	0.307703
1209.000000	0.307811
1210.000000	0.307858
1211.000000	0.307854
1212.000000	0.307865
1213.000000	0.307899
1214.000000	0.307950
1215.000000	0.307974
1216.000000	0.308019
1217.000000	0.308109
1218.000000	0.308137
1219.000000	0.308179
1220.000000	0.308169
1221.000000	0.308231
1222.000000	0.308154
1223.000000	0.308024
1224.000000	0.308088
1225.000000	0.308231
1226.000000	0.308327
1227.000000	0.308514
1228.000000	0.308732
1229.000000	0.308742
1230.000000	0.308559
1231.000000	0.308445
1232.000000	0.308323
1233.000000	0.308377
1234.000000	0.308489
1235.000000	0.308562
1236.000000	0.308686
1237.000000	0.308738
1238.000000	0.308691
1239.000000	0.308659
1240.000000	0.308617
1241.000000	0.308464
1242.000000	0.308381
1243.000000	0.308413
1244.000000	0.308491
1245.000000	0.308635
1246.000000	0.308669
1247.000000	0.308755
1248.000000	0.309006
1249.000000	0.309103
1250.000000	0.309118
1251.000000	0.309220
1252.000000	0.309258
1253.000000	0.309162
1254.000000	0.309133
1255.000000	0.309219
1256.000000	0.309205
1257.000000	0.309101
1258.000000	0.309123
1259.000000	0.309099
1260.000000	0.309138
1261.000000	0.309128
1262.000000	0.309210
1263.000000	0.309424
1264.000000	0.309590
1265.000000	0.309687
1266.000000	0.309744
1267.000000	0.309636
1268.000000	0.309471
1269.000000	0.309363
1270.000000	0.309358
1271.000000	0.309313
1272.000000	0.309284
1273.000000	0.309360
1274.000000	0.309388
1275.000000	0.309440
1276.000000	0.309643
1277.000000	0.309757
1278.000000	0.309717
1279.000000	0.309715
1280.000000	0.309594
1281.000000	0.309473
1282.000000	0.309406
1283.000000	0.309408
1284.000000	0.309336
1285.000000	0.309413
1286.000000	0.309573
1287.000000	0.309695
1288.000000	0.309933
1289.000000	0.309883
1290.000000	0.309820
1291.000000	0.309743
1292.000000	0.309507
1293.000000	0.309473
1294.000000	0.309560
1295.000000	0.309592
1296.000000	0.309632
1297.000000	0.309807
1298.000000	0.309895
1299.000000	0.309813
1300.000000	0.309890
1301.000000	0.309932
1302.000000	0.309885
1303.000000	0.309861
1304.000000	0.309852
1305.000000	0.309907
1306.000000	0.309899
1307.000000	0.309964
1308.000000	0.310001
1309.000000	0.310019
1310.000000	0.309958
1311.000000	0.309910
1312.000000	0.309675
1313.000000	0.309464
1314.000000	0.309438
1315.000000	0.309368
1316.000000	0.309394
1317.000000	0.309489
1318.000000	0.309481
1319.000000	0.309465
1320.000000	0.309436
1321.000000	0.309255
1322.000000	0.309067
1323.000000	0.309046
1324.000000	0.309156
1325.000000	0.309275
1326.000000	0.309348
1327.000000	0.309327
1328.000000	0.309210
1329.000000	0.309033
1330.000000	0.308740
1331.000000	0.308620
1332.000000	0.308604
1333.000000	0.308558
1334.000000	0.308684
1335.000000	0.308699
1336.000000	0.308586
1337.000000	0.308496
1338.000000	0.308332
1339.000000	0.308235
1340.000000	0.308159
1341.000000	0.308109
1342.000000	0.308074
1343.000000	0.308021
1344.000000	0.307939
1345.000000	0.307813
1346.000000	0.307750
1347.000000	0.307650
1348.000000	0.307596
1349.000000	0.307408
1350.000000	0.307342
1351.000000	0.307350
1352.000000	0.307201
1353.000000	0.307151
1354.000000	0.307097
1355.000000	0.306879
1356.000000	0.306731
1357.000000	0.306474
1358.000000	0.306204
1359.000000	0.306007
1360.000000	0.305875
1361.000000	0.305951
1362.000000	0.305857
1363.000000	0.305656
1364.000000	0.305581
1365.000000	0.305425
1366.000000	0.305388
1367.000000	0.305495
1368.000000	0.305569
1369.000000	0.305634
1370.000000	0.305538
1371.000000	0.305324
1372.000000	0.305029
1373.000000	0.304706
1374.000000	0.304534
1375.000000	0.304410
1376.000000	0.304335
1377.000000	0.304224
1378.000000	0.304031
1379.000000	0.303767
1380.000000	0.303547
1381.000000	0.303312
1382.000000	0.303030
1383.000000	0.302761
1384.000000	0.302324
1385.000000	0.301914
1386.000000	0.301587
1387.000000	0.301209
1388.000000	0.300848
1389.000000	0.300476
1390.000000	0.300064
1391.000000	0.299548
1392.000000	0.299016
1393.000000	0.298390
1394.000000	0.297696
1395.000000	0.297051
1396.000000	0.296391
1397.000000	0.295627
1398.000000	0.294783
1399.000000	0.294023
1400.000000	0.293168
1401.000000	0.292380
1402.000000	0.291720
1403.000000	0.291054
1404.000000	0.290438
1405.000000	0.289718
1406.000000	0.288845
1407.000000	0.288058
1408.000000	0.287194
1409.000000	0.286450
1410.000000	0.285994
1411.000000	0.285399
1412.000000	0.284710
1413.000000	0.284137
1414.000000	0.283477
1415.000000	0.282937
1416.000000	0.282514
1417.000000	0.281986
1418.000000	0.281478
1419.000000	0.281088
1420.000000	0.280519
1421.000000	0.280005
1422.000000	0.279588
1423.000000	0.279067
1424.000000	0.278574
1425.000000	0.278179
1426.000000	0.277643
1427.000000	0.277186
1428.000000	0.276739
1429.000000	0.276206
1430.000000	0.275659
1431.000000	0.275122
1432.000000	0.274647
1433.000000	0.274203
1434.000000	0.273802
1435.000000	0.273589
1436.000000	0.273291
1437.000000	0.272966
1438.000000	0.272643
1439.000000	0.272317
1440.000000	0.272059
1441.000000	0.271799
1442.000000	0.271675
1443.000000	0.271599
1444.000000	0.271569
1445.000000	0.271613
1446.000000	0.271617
1447.000000	0.271470
1448.000000	0.271358
1449.000000	0.271244
1450.000000	0.271235
1451.000000	0.271445
1452.000000	0.271542
1453.000000	0.271590
1454.000000	0.271574
1455.000000	0.271467
1456.000000	0.271430
1457.000000	0.271382
1458.000000	0.271343
1459.000000	0.271313
1460.000000	0.271249
1461.000000	0.271173
1462.000000	0.271118
1463.000000	0.270960
1464.000000	0.270843
1465.000000	0.270935
1466.000000	0.270899
1467.000000	0.270877
1468.000000	0.270967
1469.000000	0.270968
1470.000000	0.270929
1471.000000	0.270966
1472.000000	0.270950
1473.000000	0.271045
1474.000000	0.271151
1475.000000	0.271251
1476.000000	0.271418
1477.000000	0.271540
1478.000000	0.271700
1479.000000	0.271957
1480.000000	0.272230
1481.000000	0.272503
1482.000000	0.272869
1483.000000	0.273242
1484.000000	0.273662
1485.000000	0.273967
1486.000000	0.274235
1487.000000	0.274478
1488.000000	0.274631
1489.000000	0.274836
1490.000000	0.274915
1491.000000	0.275126
1492.000000	0.275407
1493.000000	0.275630
1494.000000	0.275832
1495.000000	0.276047
1496.000000	0.276150
1497.000000	0.276354
1498.000000	0.276628
1499.000000	0.277013
1500.000000	0.277377
1501.000000	0.277663
1502.000000	0.277919
1503.000000	0.278155
1504.000000	0.278292
1505.000000	0.278483
1506.000000	0.278736
1507.000000	0.278938
1508.000000	0.279147
1509.000000	0.279335
1510.000000	0.279447
1511.000000	0.279510
1512.000000	0.279552
1513.000000	0.279630
1514.000000	0.279784
1515.000000	0.279870
1516.000000	0.280012
1517.000000	0.280197
1518.000000	0.280232
1519.000000	0.280251
1520.000000	0.280431
1521.000000	0.280419
1522.000000	0.280325
1523.000000	0.280442
1524.000000	0.280522
1525.000000	0.280615
1526.000000	0.280873
1527.000000	0.281079
1528.000000	0.281043
1529.000000	0.281013
1530.000000	0.281025
1531.000000	0.281062
1532.000000	0.281233
1533.000000	0.281381
1534.000000	0.281405
1535.000000	0.281458
1536.000000	0.281545
1537.000000	0.281688
1538.000000	0.281888
1539.000000	0.282007
1540.000000	0.282103
1541.000000	0.282262
1542.000000	0.282304
1543.000000	0.282338
1544.000000	0.282410
1545.000000	0.282410
1546.000000	0.282465
1547.000000	0.282618
1548.000000	0.282696
1549.000000	0.282759
1550.000000	0.282860
1551.000000	0.282791
1552.000000	0.282648
1553.000000	0.282593
1554.000000	0.282634
1555.000000	0.282719
1556.000000	0.282796
1557.000000	0.282883
1558.000000	0.282985
1559.000000	0.283013
1560.000000	0.283006
1561.000000	0.283067
1562.000000	0.283008
1563.000000	0.282857
1564.000000	0.282789
1565.000000	0.282706
1566.000000	0.282603
1567.000000	0.282590
1568.000000	0.282525
1569.000000	0.282502
1570.000000	0.282510
1571.000000	0.282500
1572.000000	0.282539
1573.000000	0.282662
1574.000000	0.282733
1575.000000	0.282806
1576.000000	0.282843
1577.000000	0.282826
1578.000000	0.282824
1579.000000	0.282919
1580.000000	0.282939
1581.000000	0.282988
1582.000000	0.282979
1583.000000	0.282851
1584.000000	0.282740
1585.000000	0.282645
1586.000000	0.282682
1587.000000	0.282852
1588.000000	0.282896
1589.000000	0.283003
1590.000000	0.283011
1591.000000	0.282851
1592.000000	0.282849
1593.000000	0.282935
1594.000000	0.282958
1595.000000	0.283086
1596.000000	0.283110
1597.000000	0.283090
1598.000000	0.283081
1599.000000	0.283061
1600.000000	0.283016
1601.000000	0.283005
1602.000000	0.283022
1603.000000	0.283073
1604.000000	0.283084
1605.000000	0.283151
1606.000000	0.283165
1607.000000	0.283197
1608.000000	0.283182
1609.000000	0.283143
1610.000000	0.283112
1611.000000	0.283038
1612.000000	0.283033
1613.000000	0.283173
1614.000000	0.283282
1615.000000	0.283509
1616.000000	0.283634
1617.000000	0.283682
1618.000000	0.283681
1619.000000	0.283560
1620.000000	0.283500
1621.000000	0.283428
1622.000000	0.283570
1623.000000	0.283806
1624.000000	0.283985
1625.000000	0.284138
1626.000000	0.284209
1627.000000	0.284243
1628.000000	0.284337
1629.000000	0.284415
1630.000000	0.284514
1631.000000	0.284526
1632.000000	0.284606
1633.000000	0.284810
1634.000000	0.284939
1635.000000	0.285067
1636.000000	0.285182
1637.000000	0.285268
1638.000000	0.285331
1639.000000	0.285522
1640.000000	0.285562
1641.000000	0.285479
1642.000000	0.285565
1643.000000	0.285703
1644.000000	0.285790
1645.000000	0.286009
1646.000000	0.286056
1647.000000	0.285983
1648.000000	0.286001
1649.000000	0.286038
1650.000000	0.286123
1651.000000	0.286319
1652.000000	0.286474
1653.000000	0.286573
1654.000000	0.286806
1655.000000	0.287066
1656.000000	0.287181
1657.000000	0.287378
1658.000000	0.287522
1659.000000	0.287694
1660.000000	0.287780
1661.000000	0.287750
1662.000000	0.287781
1663.000000	0.287619
1664.000000	0.287747
1665.000000	0.288124
1666.000000	0.288369
1667.000000	0.288644
1668.000000	0.288744
1669.000000	0.288650
1670.000000	0.288633
1671.000000	0.288643
1672.000000	0.288741
1673.000000	0.288852
1674.000000	0.289137
1675.000000	0.289402
1676.000000	0.289524
1677.000000	0.289629
1678.000000	0.289592
1679.000000	0.289646
1680.000000	0.289877
1681.000000	0.289992
1682.000000	0.289992
1683.000000	0.289999
1684.000000	0.290023
1685.000000	0.290081
1686.000000	0.290235
1687.000000	0.290440
1688.000000	0.290437
1689.000000	0.290436
1690.000000	0.290450
1691.000000	0.290449
1692.000000	0.290484
1693.000000	0.290484
1694.000000	0.290408
1695.000000	0.290330
1696.000000	0.290244
1697.000000	0.290121
1698.000000	0.290019
1699.000000	0.289988
1700.000000	0.289953
1701.000000	0.290019
1702.000000	0.290038
1703.000000	0.290020
1704.000000	0.290082
1705.000000	0.290151
1706.000000	0.290248
1707.000000	0.290369
1708.000000	0.290528
1709.000000	0.290562
1710.000000	0.290646
1711.000000	0.290703
1712.000000	0.290658
1713.000000	0.290705
1714.000000	0.290899
1715.000000	0.290966
1716.000000	0.291027
1717.000000	0.291046
1718.000000	0.290871
1719.000000	0.290832
1720.000000	0.290959
1721.000000	0.290985
1722.000000	0.290987
1723.000000	0.291044
1724.000000	0.291073
1725.000000	0.291185
1726.000000	0.291377
1727.000000	0.291416
1728.000000	0.291333
1729.000000	0.291249
1730.000000	0.291185
1731.000000	0.291151
1732.000000	0.291136
1733.000000	0.291256
1734.000000	0.291266
1735.000000	0.291438
1736.000000	0.291821
1737.000000	0.291926
1738.000000	0.291956
1739.000000	0.292072
1740.000000	0.292068
1741.000000	0.292144
1742.000000	0.292401
1743.000000	0.292445
1744.000000	0.292325
1745.000000	0.292303
1746.000000	0.292232
1747.000000	0.292262
1748.000000	0.292272
1749.000000	0.292318
1750.000000	0.292326
1751.000000	0.292561
1752.000000	0.292662
1753.000000	0.292474
1754.000000	0.292372
1755.000000	0.292006
1756.000000	0.291917
1757.000000	0.292153
1758.000000	0.292227
1759.000000	0.292346
1760.000000	0.292433
1761.000000	0.292268
1762.000000	0.292329
1763.000000	0.292600
1764.000000	0.292799
1765.000000	0.293071
1766.000000	0.293246
1767.000000	0.293277
1768.000000	0.293297
1769.000000	0.293348
1770.000000	0.293427
1771.000000	0.293478
1772.000000	0.293472
1773.000000	0.293380
1774.000000	0.293365
1775.000000	0.293436
1776.000000	0.293366
1777.000000	0.293209
1778.000000	0.293141
1779.000000	0.292977
1780.000000	0.292919
1781.000000	0.292990
1782.000000	0.292943
1783.000000	0.292838
1784.000000	0.292905
1785.000000	0.293001
1786.000000	0.293131
1787.000000	0.293142
1788.000000	0.293123
1789.000000	0.293033
1790.000000	0.293080
1791.000000	0.293130
1792.000000	0.293337
1793.000000	0.293486
1794.000000	0.293682
1795.000000	0.293793
1796.000000	0.293809
1797.000000	0.293859
1798.000000	0.293792
1799.000000	0.293864
1800.000000	0.294126
1801.000000	0.293475
1802.000000	0.293751
1803.000000	0.294556
1804.000000	0.294997
1805.000000	0.295178
1806.000000	0.295398
1807.000000	0.296075
1808.000000	0.296143
1809.000000	0.296137
1810.000000	0.294823
1811.000000	0.294894
1812.000000	0.295583
1813.000000	0.295196
1814.000000	0.294812
1815.000000	0.294742
1816.000000	0.293454
1817.000000	0.293172
1818.000000	0.294119
1819.000000	0.294942
1820.000000	0.295274
1821.000000	0.295908
1822.000000	0.295902
1823.000000	0.295071
1824.000000	0.295018
1825.000000	0.295036
1826.000000	0.294852
1827.000000	0.294375
1828.000000	0.294752
1829.000000	0.295165
1830.000000	0.295201
1831.000000	0.295304
1832.000000	0.295925
1833.000000	0.296073
1834.000000	0.295849
1835.000000	0.295524
1836.000000	0.294937
1837.000000	0.294489
1838.000000	0.293602
1839.000000	0.292978
1840.000000	0.292117
1841.000000	0.292162
1842.000000	0.292190
1843.000000	0.292078
1844.000000	0.292307
1845.000000	0.293488
1846.000000	0.293678
1847.000000	0.293158
1848.000000	0.293062
1849.000000	0.292571
1850.000000	0.292096
1851.000000	0.291991
1852.000000	0.292298
1853.000000	0.292096
1854.000000	0.291565
1855.000000	0.291185
1856.000000	0.290483
1857.000000	0.290174
1858.000000	0.289667
1859.000000	0.289302
1860.000000	0.288054
1861.000000	0.286939
1862.000000	0.286200
1863.000000	0.285855
1864.000000	0.284984
1865.000000	0.284068
1866.000000	0.283133
1867.000000	0.281648
1868.000000	0.280671
1869.000000	0.280296
1870.000000	0.279754
1871.000000	0.278890
1872.000000	0.277838
1873.000000	0.276850
1874.000000	0.275573
1875.000000	0.274784
1876.000000	0.274262
1877.000000	0.273123
1878.000000	0.272063
1879.000000	0.269773
1880.000000	0.267587
1881.000000	0.265325
1882.000000	0.263224
1883.000000	0.261812
1884.000000	0.259891
1885.000000	0.257758
1886.000000	0.255515
1887.000000	0.253176
1888.000000	0.250224
1889.000000	0.246793
1890.000000	0.243986
1891.000000	0.241267
1892.000000	0.237889
1893.000000	0.235456
1894.000000	0.233379
1895.000000	0.230738
1896.000000	0.227907
1897.000000	0.225385
1898.000000	0.222246
1899.000000	0.218800
1900.000000	0.215800
1901.000000	0.213069
1902.000000	0.210876
1903.000000	0.208978
1904.000000	0.207178
1905.000000	0.205784
1906.000000	0.204095
1907.000000	0.202438
1908.000000	0.200655
1909.000000	0.199026
1910.000000	0.197553
1911.000000	0.196255
1912.000000	0.195521
1913.000000	0.195064
1914.000000	0.193900
1915.000000	0.192750
1916.000000	0.191962
1917.000000	0.190929
1918.000000	0.189729
1919.000000	0.188788
1920.000000	0.188072
1921.000000	0.187215
1922.000000	0.186780
1923.000000	0.186642
1924.000000	0.186800
1925.000000	0.187444
1926.000000	0.187439
1927.000000	0.187735
1928.000000	0.187981
1929.000000	0.188352
1930.000000	0.187782
1931.000000	0.187605
1932.000000	0.187298
1933.000000	0.186586
1934.000000	0.186582
1935.000000	0.186939
1936.000000	0.187224
1937.000000	0.187504
1938.000000	0.187576
1939.000000	0.187631
1940.000000	0.187576
1941.000000	0.187416
1942.000000	0.187359
1943.000000	0.187417
1944.000000	0.187262
1945.000000	0.187446
1946.000000	0.187624
1947.000000	0.187876
1948.000000	0.188014
1949.000000	0.187606
1950.000000	0.187525
1951.000000	0.187411
1952.000000	0.187261
1953.000000	0.186908
1954.000000	0.186789
1955.000000	0.186458
1956.000000	0.185974
1957.000000	0.185693
1958.000000	0.185343
1959.000000	0.184742
1960.000000	0.184120
1961.000000	0.183238
1962.000000	0.182775
1963.000000	0.182515
1964.000000	0.182949
1965.000000	0.182894
1966.000000	0.183186
1967.000000	0.183517
1968.000000	0.183429
1969.000000	0.184060
1970.000000	0.184205
1971.000000	0.184364
1972.000000	0.184944
1973.000000	0.184702
1974.000000	0.183737
1975.000000	0.183495
1976.000000	0.183214
1977.000000	0.182571
1978.000000	0.182865
1979.000000	0.183562
1980.000000	0.184287
1981.000000	0.184892
1982.000000	0.185988
1983.000000	0.187022
1984.000000	0.187769
1985.000000	0.188800
1986.000000	0.189208
1987.000000	0.189069
1988.000000	0.189041
1989.000000	0.188824
1990.000000	0.189026
1991.000000	0.190058
1992.000000	0.190495
1993.000000	0.190989
1994.000000	0.191584
1995.000000	0.191589
1996.000000	0.192071
1997.000000	0.192556
1998.000000	0.193091
1999.000000	0.193788
2000.000000	0.194723
2001.000000	0.195491
2002.000000	0.196472
2003.000000	0.197447
2004.000000	0.198062
2005.000000	0.198528
2006.000000	0.198728
2007.000000	0.199422
2008.000000	0.200156
2009.000000	0.201006
2010.000000	0.201612
2011.000000	0.202209
2012.000000	0.202773
2013.000000	0.202974
2014.000000	0.203442
2015.000000	0.204554
2016.000000	0.205348
2017.000000	0.205485
2018.000000	0.205907
2019.000000	0.205801
2020.000000	0.205468
2021.000000	0.205840
2022.000000	0.206775
2023.000000	0.207387
2024.000000	0.208506
2025.000000	0.209245
2026.000000	0.209734
2027.000000	0.209582
2028.000000	0.210139
2029.000000	0.210636
2030.000000	0.211032
2031.000000	0.212181
2032.000000	0.213155
2033.000000	0.213992
2034.000000	0.215018
2035.000000	0.216660
2036.000000	0.217333
2037.000000	0.217615
2038.000000	0.218085
2039.000000	0.217983
2040.000000	0.218351
2041.000000	0.219581
2042.000000	0.220764
2043.000000	0.221771
2044.000000	0.221878
2045.000000	0.221573
2046.000000	0.221359
2047.000000	0.221627
2048.000000	0.222204
2049.000000	0.223061
2050.000000	0.224376
2051.000000	0.224958
2052.000000	0.225359
2053.000000	0.225508
2054.000000	0.225222
2055.000000	0.225057
2056.000000	0.225461
2057.000000	0.225888
2058.000000	0.226477
2059.000000	0.227436
2060.000000	0.227852
2061.000000	0.227786
2062.000000	0.228197
2063.000000	0.228533
2064.000000	0.228912
2065.000000	0.229905
2066.000000	0.230636
2067.000000	0.231283
2068.000000	0.232417
2069.000000	0.233108
2070.000000	0.233380
2071.000000	0.233648
2072.000000	0.233472
2073.000000	0.233765
2074.000000	0.234373
2075.000000	0.234762
2076.000000	0.235257
2077.000000	0.235591
2078.000000	0.235692
2079.000000	0.235823
2080.000000	0.235763
2081.000000	0.236039
2082.000000	0.236311
2083.000000	0.237038
2084.000000	0.237920
2085.000000	0.238903
2086.000000	0.239615
2087.000000	0.239434
2088.000000	0.239810
2089.000000	0.240154
2090.000000	0.240643
2091.000000	0.241788
2092.000000	0.242482
2093.000000	0.243048
2094.000000	0.243431
2095.000000	0.243356
2096.000000	0.243509
2097.000000	0.243629
2098.000000	0.243699
2099.000000	0.243790
2100.000000	0.244485
2101.000000	0.245061
2102.000000	0.245777
2103.000000	0.246157
2104.000000	0.246539
2105.000000	0.247078
2106.000000	0.247613
2107.000000	0.247958
2108.000000	0.248527
2109.000000	0.248722
2110.000000	0.248157
2111.000000	0.248130
2112.000000	0.247871
2113.000000	0.248001
2114.000000	0.249188
2115.000000	0.250584
2116.000000	0.251734
2117.000000	0.252866
2118.000000	0.253135
2119.000000	0.252837
2120.000000	0.253032
2121.000000	0.253416
2122.000000	0.253388
2123.000000	0.253059
2124.000000	0.253226
2125.000000	0.253550
2126.000000	0.253508
2127.000000	0.253753
2128.000000	0.253999
2129.000000	0.253760
2130.000000	0.253571
2131.000000	0.253459
2132.000000	0.253308
2133.000000	0.253891
2134.000000	0.253841
2135.000000	0.253799
2136.000000	0.254251
2137.000000	0.254339
2138.000000	0.253731
2139.000000	0.253640
2140.000000	0.253878
2141.000000	0.254182
2142.000000	0.254279
2143.000000	0.254767
2144.000000	0.256110
2145.000000	0.256776
2146.000000	0.257570
2147.000000	0.258366
2148.000000	0.257533
2149.000000	0.257574
2150.000000	0.257172
2151.000000	0.256968
2152.000000	0.257311
2153.000000	0.256998
2154.000000	0.256692
2155.000000	0.255922
2156.000000	0.255765
2157.000000	0.255705
2158.000000	0.255853
2159.000000	0.256571
2160.000000	0.257062
2161.000000	0.257696
2162.000000	0.258190
2163.000000	0.258657
2164.000000	0.258754
2165.000000	0.258365
2166.000000	0.258062
2167.000000	0.258296
2168.000000	0.257797
2169.000000	0.258323
2170.000000	0.259610
2171.000000	0.259886
2172.000000	0.260192
2173.000000	0.260305
2174.000000	0.259912
2175.000000	0.259002
2176.000000	0.257351
2177.000000	0.256557
2178.000000	0.255649
2179.000000	0.254877
2180.000000	0.254533
2181.000000	0.254857
2182.000000	0.254943
2183.000000	0.254852
2184.000000	0.255760
2185.000000	0.256546
2186.000000	0.256984
2187.000000	0.257652
2188.000000	0.258373
2189.000000	0.259368
2190.000000	0.259623
2191.000000	0.259080
2192.000000	0.258652
2193.000000	0.257475
2194.000000	0.257358
2195.000000	0.258278
2196.000000	0.257826
2197.000000	0.257154
2198.000000	0.255941
2199.000000	0.252521
2200.000000	0.251346
2201.000000	0.251677
2202.000000	0.251940
2203.000000	0.253473
2204.000000	0.254129
2205.000000	0.254561
2206.000000	0.253157
2207.000000	0.252201
2208.000000	0.252601
2209.000000	0.252240
2210.000000	0.255265
2211.000000	0.256006
2212.000000	0.255005
2213.000000	0.255436
2214.000000	0.255300
2215.000000	0.255502
2216.000000	0.257211
2217.000000	0.257144
2218.000000	0.255704
2219.000000	0.255201
2220.000000	0.254741
2221.000000	0.254515
2222.000000	0.254238
2223.000000	0.254867
2224.000000	0.256365
2225.000000	0.257098
2226.000000	0.256580
2227.000000	0.255023
2228.000000	0.253178
2229.000000	0.251789
2230.000000	0.252791
2231.000000	0.254156
2232.000000	0.255494
2233.000000	0.256407
2234.000000	0.257164
2235.000000	0.258851
2236.000000	0.258746
2237.000000	0.257334
2238.000000	0.256062
2239.000000	0.253426
2240.000000	0.251828
2241.000000	0.250376
2242.000000	0.250584
2243.000000	0.250948
2244.000000	0.252037
2245.000000	0.256746
2246.000000	0.257099
2247.000000	0.255318
2248.000000	0.255258
2249.000000	0.254086
2250.000000	0.251483
2251.000000	0.253580
2252.000000	0.255208
2253.000000	0.255821
2254.000000	0.254441
2255.000000	0.250919
2256.000000	0.249693
2257.000000	0.248370
2258.000000	0.248629
2259.000000	0.252378
2260.000000	0.253977
2261.000000	0.254561
2262.000000	0.254920
2263.000000	0.255431
2264.000000	0.254022
2265.000000	0.254334
2266.000000	0.257100
2267.000000	0.257178
2268.000000	0.256027
2269.000000	0.254873
2270.000000	0.252263
2271.000000	0.249926
2272.000000	0.247192
2273.000000	0.245617
2274.000000	0.244086
2275.000000	0.243521
2276.000000	0.243843
2277.000000	0.245393
2278.000000	0.245415
2279.000000	0.245613
2280.000000	0.247045
2281.000000	0.247108
2282.000000	0.247255
2283.000000	0.247068
2284.000000	0.244903
2285.000000	0.241996
2286.000000	0.240007
2287.000000	0.238807
2288.000000	0.237879
2289.000000	0.238109
2290.000000	0.239662
2291.000000	0.238561
2292.000000	0.237397
2293.000000	0.235139
2294.000000	0.233955
2295.000000	0.232749
2296.000000	0.232433
2297.000000	0.233391
2298.000000	0.234038
2299.000000	0.234176
2300.000000	0.234434
2301.000000	0.235929
2302.000000	0.235637
2303.000000	0.233467
2304.000000	0.232843
2305.000000	0.231364
2306.000000	0.231135
2307.000000	0.232950
2308.000000	0.233927
2309.000000	0.233739
2310.000000	0.234118
2311.000000	0.234286
2312.000000	0.234473
2313.000000	0.233865
2314.000000	0.234515
2315.000000	0.233081
2316.000000	0.231717
2317.000000	0.232570
2318.000000	0.231424
2319.000000	0.229254
2320.000000	0.227029
2321.000000	0.225181
2322.000000	0.224801
2323.000000	0.227110
2324.000000	0.231733
2325.000000	0.233203
2326.000000	0.233149
2327.000000	0.232738
2328.000000	0.230259
2329.000000	0.228845
2330.000000	0.227611
2331.000000	0.226922
2332.000000	0.226404
2333.000000	0.226828
2334.000000	0.227748
2335.000000	0.226707
2336.000000	0.222958
2337.000000	0.221480
2338.000000	0.219384
2339.000000	0.218922
2340.000000	0.221013
2341.000000	0.220790
2342.000000	0.219114
2343.000000	0.218726
2344.000000	0.218761
2345.000000	0.219394
2346.000000	0.222164
2347.000000	0.221206
2348.000000	0.218743
2349.000000	0.214952
2350.000000	0.210556
2351.000000	0.207249
2352.000000	0.205695
2353.000000	0.207509
2354.000000	0.207385
2355.000000	0.210269
2356.000000	0.214390
2357.000000	0.212802
2358.000000	0.212317
2359.000000	0.211051
2360.000000	0.210843
2361.000000	0.210558
2362.000000	0.206646
2363.000000	0.205430
2364.000000	0.200415
2365.000000	0.198435
2366.000000	0.200544
2367.000000	0.200841
2368.000000	0.203429
2369.000000	0.204510
2370.000000	0.204877
2371.000000	0.204951
2372.000000	0.204352
2373.000000	0.201595
2374.000000	0.198683
2375.000000	0.198955
2376.000000	0.198472
2377.000000	0.199288
2378.000000	0.200724
2379.000000	0.198438
2380.000000	0.196461
2381.000000	0.196233
2382.000000	0.195341
2383.000000	0.194265
2384.000000	0.193930
2385.000000	0.195794
2386.000000	0.196231
2387.000000	0.193211
2388.000000	0.190392
2389.000000	0.187194
2390.000000	0.182075
2391.000000	0.180785
2392.000000	0.181694
2393.000000	0.174468
2394.000000	0.170126
2395.000000	0.172123
2396.000000	0.173345
2397.000000	0.183658
2398.000000	0.192454
2399.000000	0.189272
2400.000000	0.181518
2401.000000	0.169524
2402.000000	0.157562
2403.000000	0.150568
2404.000000	0.150825
2405.000000	0.155760
2406.000000	0.163030
2407.000000	0.170883
2408.000000	0.173817
2409.000000	0.175181
2410.000000	0.172256
2411.000000	0.170399
2412.000000	0.171026
2413.000000	0.164323
2414.000000	0.159442
2415.000000	0.156408
2416.000000	0.151249
2417.000000	0.155502
2418.000000	0.167449
2419.000000	0.176577
2420.000000	0.185946
2421.000000	0.187775
2422.000000	0.182401
2423.000000	0.176767
2424.000000	0.164986
2425.000000	0.153947
2426.000000	0.148307
2427.000000	0.144180
2428.000000	0.136518
2429.000000	0.138241
2430.000000	0.150693
2431.000000	0.159475
2432.000000	0.184702
2433.000000	0.201082
2434.000000	0.187463
2435.000000	0.183537
2436.000000	0.174445
2437.000000	0.163558
2438.000000	0.169766
2439.000000	0.171841
2440.000000	0.168266
2441.000000	0.169694
2442.000000	0.180353
2443.000000	0.180029
2444.000000	0.176611
2445.000000	0.179303
2446.000000	0.166866
2447.000000	0.159383
2448.000000	0.162717
2449.000000	0.166746
2450.000000	0.188913
2451.000000	0.204279
2452.000000	0.199641
2453.000000	0.187025
2454.000000	0.151853
2455.000000	0.133373
2456.000000	0.143444
2457.000000	0.155152
2458.000000	0.177122
2459.000000	0.190280
2460.000000	0.190062
2461.000000	0.195545
2462.000000	0.183527
2463.000000	0.172358
2464.000000	0.169245
2465.000000	0.161458
2466.000000	0.178634
2467.000000	0.202260
2468.000000	0.220664
2469.000000	0.211251
2470.000000	0.190443
2471.000000	0.172088
2472.000000	0.142952
2473.000000	0.155514
2474.000000	0.171129
2475.000000	0.173185
2476.000000	0.180524
2477.000000	0.150869
2478.000000	0.133645
2479.000000	0.127133
2480.000000	0.097905
2481.000000	0.091321
2482.000000	0.084394
2483.000000	0.075216
2484.000000	0.099454
2485.000000	0.130202
2486.000000	0.148185
2487.000000	0.165195
2488.000000	0.165580
2489.000000	0.142457
2490.000000	0.124570
2491.000000	0.094620
2492.000000	0.083338
2493.000000	0.100125
2494.000000	0.122235
2495.000000	0.164419
2496.000000	0.185569
2497.000000	0.208225
2498.000000	0.209141
2499.000000	0.195991
2500.000000	0.180682
