# Wavelength	NAu-1-30_HEX-60_FV7-10_00000.asd.rts.txt
350.000000	0.187829
351.000000	0.173692
352.000000	0.179365
353.000000	0.180280
354.000000	0.170398
355.000000	0.179894
356.000000	0.179742
357.000000	0.171961
358.000000	0.178496
359.000000	0.177303
360.000000	0.177385
361.000000	0.189266
362.000000	0.184746
363.000000	0.178194
364.000000	0.178830
365.000000	0.177999
366.000000	0.177795
367.000000	0.177852
368.000000	0.176301
369.000000	0.173221
370.000000	0.171942
371.000000	0.175339
372.000000	0.174869
373.000000	0.174198
374.000000	0.176266
375.000000	0.177284
376.000000	0.178501
377.000000	0.181031
378.000000	0.186644
379.000000	0.187864
380.000000	0.185318
381.000000	0.183251
382.000000	0.184532
383.000000	0.187831
384.000000	0.191046
385.000000	0.190734
386.000000	0.191505
387.000000	0.194226
388.000000	0.195640
389.000000	0.196765
390.000000	0.198045
391.000000	0.199491
392.000000	0.200367
393.000000	0.200817
394.000000	0.201459
395.000000	0.204257
396.000000	0.206461
397.000000	0.207526
398.000000	0.209908
399.000000	0.211372
400.000000	0.212364
401.000000	0.214202
402.000000	0.215937
403.000000	0.217440
404.000000	0.218794
405.000000	0.219478
406.000000	0.221208
407.000000	0.224183
408.000000	0.226035
409.000000	0.226848
410.000000	0.227478
411.000000	0.229302
412.000000	0.230548
413.000000	0.231550
414.000000	0.232947
415.000000	0.234005
416.000000	0.234968
417.000000	0.235956
418.000000	0.236674
419.000000	0.237128
420.000000	0.237457
421.000000	0.237916
422.000000	0.238815
423.000000	0.239545
424.000000	0.239423
425.000000	0.239307
426.000000	0.239124
427.000000	0.238885
428.000000	0.239394
429.000000	0.239865
430.000000	0.239897
431.000000	0.239436
432.000000	0.239470
433.000000	0.239715
434.000000	0.239424
435.000000	0.239275
436.000000	0.239193
437.000000	0.239023
438.000000	0.239043
439.000000	0.239003
440.000000	0.238844
441.000000	0.238632
442.000000	0.237908
443.000000	0.236910
444.000000	0.236564
445.000000	0.236555
446.000000	0.236856
447.000000	0.237339
448.000000	0.238244
449.000000	0.239311
450.000000	0.240430
451.000000	0.241911
452.000000	0.244171
453.000000	0.246911
454.000000	0.249162
455.000000	0.251887
456.000000	0.255057
457.000000	0.258075
458.000000	0.260960
459.000000	0.263720
460.000000	0.266389
461.000000	0.268770
462.000000	0.270867
463.000000	0.272624
464.000000	0.274416
465.000000	0.276114
466.000000	0.277529
467.000000	0.278550
468.000000	0.279501
469.000000	0.280313
470.000000	0.281059
471.000000	0.282029
472.000000	0.282985
473.000000	0.283815
474.000000	0.284777
475.000000	0.285553
476.000000	0.286224
477.000000	0.286915
478.000000	0.287442
479.000000	0.288077
480.000000	0.288849
481.000000	0.289509
482.000000	0.290315
483.000000	0.291208
484.000000	0.291847
485.000000	0.292300
486.000000	0.292848
487.000000	0.293499
488.000000	0.294026
489.000000	0.294533
490.000000	0.295330
491.000000	0.296072
492.000000	0.296813
493.000000	0.297546
494.000000	0.298340
495.000000	0.299125
496.000000	0.299811
497.000000	0.300469
498.000000	0.301209
499.000000	0.302105
500.000000	0.302982
501.000000	0.303779
502.000000	0.304604
503.000000	0.305541
504.000000	0.306383
505.000000	0.307179
506.000000	0.308015
507.000000	0.308850
508.000000	0.309744
509.000000	0.310667
510.000000	0.311551
511.000000	0.312481
512.000000	0.313454
513.000000	0.314322
514.000000	0.315240
515.000000	0.316240
516.000000	0.317240
517.000000	0.318262
518.000000	0.319335
519.000000	0.320389
520.000000	0.321529
521.000000	0.322617
522.000000	0.323624
523.000000	0.324655
524.000000	0.325733
525.000000	0.326876
526.000000	0.328146
527.000000	0.329301
528.000000	0.330486
529.000000	0.331909
530.000000	0.333098
531.000000	0.334274
532.000000	0.335500
533.000000	0.336754
534.000000	0.338079
535.000000	0.339440
536.000000	0.340761
537.000000	0.341994
538.000000	0.343213
539.000000	0.344526
540.000000	0.345866
541.000000	0.347177
542.000000	0.348469
543.000000	0.349773
544.000000	0.351103
545.000000	0.352400
546.000000	0.353804
547.000000	0.355088
548.000000	0.356342
549.000000	0.357768
550.000000	0.359039
551.000000	0.360285
552.000000	0.361655
553.000000	0.362903
554.000000	0.364157
555.000000	0.365490
556.000000	0.366652
557.000000	0.367781
558.000000	0.369051
559.000000	0.370188
560.000000	0.371300
561.000000	0.372484
562.000000	0.373645
563.000000	0.374717
564.000000	0.375763
565.000000	0.376730
566.000000	0.377747
567.000000	0.378755
568.000000	0.379689
569.000000	0.380613
570.000000	0.381496
571.000000	0.382330
572.000000	0.383155
573.000000	0.383934
574.000000	0.384624
575.000000	0.385271
576.000000	0.385969
577.000000	0.386587
578.000000	0.387117
579.000000	0.387687
580.000000	0.388300
581.000000	0.388899
582.000000	0.389311
583.000000	0.389779
584.000000	0.390324
585.000000	0.390843
586.000000	0.391196
587.000000	0.391454
588.000000	0.391748
589.000000	0.392173
590.000000	0.392586
591.000000	0.392899
592.000000	0.393185
593.000000	0.393470
594.000000	0.393732
595.000000	0.393904
596.000000	0.394055
597.000000	0.394228
598.000000	0.394311
599.000000	0.394271
600.000000	0.394271
601.000000	0.394360
602.000000	0.394596
603.000000	0.394792
604.000000	0.394900
605.000000	0.395088
606.000000	0.395208
607.000000	0.395244
608.000000	0.395267
609.000000	0.395458
610.000000	0.395683
611.000000	0.395756
612.000000	0.395780
613.000000	0.395829
614.000000	0.395947
615.000000	0.395920
616.000000	0.395869
617.000000	0.395837
618.000000	0.395948
619.000000	0.396014
620.000000	0.396031
621.000000	0.396137
622.000000	0.396140
623.000000	0.396087
624.000000	0.396052
625.000000	0.396105
626.000000	0.396082
627.000000	0.395992
628.000000	0.396139
629.000000	0.396331
630.000000	0.396384
631.000000	0.396481
632.000000	0.396613
633.000000	0.396756
634.000000	0.396869
635.000000	0.397032
636.000000	0.397243
637.000000	0.397455
638.000000	0.397614
639.000000	0.397782
640.000000	0.398014
641.000000	0.398146
642.000000	0.398288
643.000000	0.398456
644.000000	0.398637
645.000000	0.398743
646.000000	0.398853
647.000000	0.399006
648.000000	0.399236
649.000000	0.399487
650.000000	0.399706
651.000000	0.399921
652.000000	0.400111
653.000000	0.400318
654.000000	0.400502
655.000000	0.400762
656.000000	0.401062
657.000000	0.401289
658.000000	0.401545
659.000000	0.401849
660.000000	0.402156
661.000000	0.402375
662.000000	0.402616
663.000000	0.402936
664.000000	0.403227
665.000000	0.403522
666.000000	0.403806
667.000000	0.404034
668.000000	0.404308
669.000000	0.404633
670.000000	0.405001
671.000000	0.405379
672.000000	0.405757
673.000000	0.406131
674.000000	0.406531
675.000000	0.406872
676.000000	0.407232
677.000000	0.407725
678.000000	0.408120
679.000000	0.408531
680.000000	0.409023
681.000000	0.409394
682.000000	0.409803
683.000000	0.410215
684.000000	0.410712
685.000000	0.411176
686.000000	0.411637
687.000000	0.412097
688.000000	0.412542
689.000000	0.412965
690.000000	0.413410
691.000000	0.413862
692.000000	0.414327
693.000000	0.414860
694.000000	0.415326
695.000000	0.415828
696.000000	0.416349
697.000000	0.416840
698.000000	0.417367
699.000000	0.417915
700.000000	0.418469
701.000000	0.418983
702.000000	0.419510
703.000000	0.420031
704.000000	0.420494
705.000000	0.421057
706.000000	0.421631
707.000000	0.422159
708.000000	0.422758
709.000000	0.423335
710.000000	0.423857
711.000000	0.424516
712.000000	0.425136
713.000000	0.425681
714.000000	0.426237
715.000000	0.426780
716.000000	0.427318
717.000000	0.427830
718.000000	0.428348
719.000000	0.428866
720.000000	0.429401
721.000000	0.429977
722.000000	0.430503
723.000000	0.431028
724.000000	0.431535
725.000000	0.432007
726.000000	0.432563
727.000000	0.433136
728.000000	0.433633
729.000000	0.434109
730.000000	0.434552
731.000000	0.435016
732.000000	0.435455
733.000000	0.435908
734.000000	0.436351
735.000000	0.436752
736.000000	0.437243
737.000000	0.437658
738.000000	0.438049
739.000000	0.438464
740.000000	0.438716
741.000000	0.439026
742.000000	0.439369
743.000000	0.439713
744.000000	0.440132
745.000000	0.440524
746.000000	0.440893
747.000000	0.441144
748.000000	0.441385
749.000000	0.441664
750.000000	0.441943
751.000000	0.442177
752.000000	0.442373
753.000000	0.442568
754.000000	0.442788
755.000000	0.443029
756.000000	0.443276
757.000000	0.443455
758.000000	0.443645
759.000000	0.443844
760.000000	0.443957
761.000000	0.444112
762.000000	0.444236
763.000000	0.444307
764.000000	0.444442
765.000000	0.444567
766.000000	0.444713
767.000000	0.444882
768.000000	0.444922
769.000000	0.444909
770.000000	0.444899
771.000000	0.444891
772.000000	0.444885
773.000000	0.444816
774.000000	0.444782
775.000000	0.444705
776.000000	0.444643
777.000000	0.444615
778.000000	0.444587
779.000000	0.444535
780.000000	0.444454
781.000000	0.444324
782.000000	0.444140
783.000000	0.444040
784.000000	0.443915
785.000000	0.443765
786.000000	0.443589
787.000000	0.443391
788.000000	0.443203
789.000000	0.443064
790.000000	0.442903
791.000000	0.442670
792.000000	0.442519
793.000000	0.442392
794.000000	0.442228
795.000000	0.442047
796.000000	0.441804
797.000000	0.441478
798.000000	0.441091
799.000000	0.440820
800.000000	0.440621
801.000000	0.440398
802.000000	0.440196
803.000000	0.439972
804.000000	0.439727
805.000000	0.439348
806.000000	0.439006
807.000000	0.438779
808.000000	0.438473
809.000000	0.438056
810.000000	0.437638
811.000000	0.437286
812.000000	0.436935
813.000000	0.436663
814.000000	0.436420
815.000000	0.436075
816.000000	0.435738
817.000000	0.435432
818.000000	0.435046
819.000000	0.434684
820.000000	0.434387
821.000000	0.434062
822.000000	0.433638
823.000000	0.433280
824.000000	0.432928
825.000000	0.432609
826.000000	0.432283
827.000000	0.431960
828.000000	0.431688
829.000000	0.431364
830.000000	0.431071
831.000000	0.430821
832.000000	0.430371
833.000000	0.429990
834.000000	0.429669
835.000000	0.429403
836.000000	0.429158
837.000000	0.428775
838.000000	0.428302
839.000000	0.427894
840.000000	0.427553
841.000000	0.427278
842.000000	0.426995
843.000000	0.426662
844.000000	0.426379
845.000000	0.426126
846.000000	0.425856
847.000000	0.425506
848.000000	0.425106
849.000000	0.424756
850.000000	0.424413
851.000000	0.424065
852.000000	0.423770
853.000000	0.423525
854.000000	0.423283
855.000000	0.423058
856.000000	0.422655
857.000000	0.422276
858.000000	0.422003
859.000000	0.421720
860.000000	0.421342
861.000000	0.421029
862.000000	0.420776
863.000000	0.420415
864.000000	0.420018
865.000000	0.419643
866.000000	0.419370
867.000000	0.419225
868.000000	0.419010
869.000000	0.418716
870.000000	0.418547
871.000000	0.418263
872.000000	0.417915
873.000000	0.417531
874.000000	0.417343
875.000000	0.417066
876.000000	0.416693
877.000000	0.416257
878.000000	0.415922
879.000000	0.415737
880.000000	0.415522
881.000000	0.415359
882.000000	0.415215
883.000000	0.415034
884.000000	0.414693
885.000000	0.414469
886.000000	0.414177
887.000000	0.413820
888.000000	0.413710
889.000000	0.413581
890.000000	0.413256
891.000000	0.412935
892.000000	0.412742
893.000000	0.412549
894.000000	0.412443
895.000000	0.412376
896.000000	0.412071
897.000000	0.411673
898.000000	0.411432
899.000000	0.411169
900.000000	0.410949
901.000000	0.410785
902.000000	0.410781
903.000000	0.410564
904.000000	0.410292
905.000000	0.410114
906.000000	0.410214
907.000000	0.410182
908.000000	0.409991
909.000000	0.409812
910.000000	0.409695
911.000000	0.409587
912.000000	0.409451
913.000000	0.409314
914.000000	0.409134
915.000000	0.409006
916.000000	0.408897
917.000000	0.408739
918.000000	0.408665
919.000000	0.408690
920.000000	0.408551
921.000000	0.408435
922.000000	0.408388
923.000000	0.408355
924.000000	0.408393
925.000000	0.408288
926.000000	0.408001
927.000000	0.407682
928.000000	0.407492
929.000000	0.407330
930.000000	0.407077
931.000000	0.407114
932.000000	0.406989
933.000000	0.406737
934.000000	0.406800
935.000000	0.406604
936.000000	0.406374
937.000000	0.406265
938.000000	0.406251
939.000000	0.406245
940.000000	0.406188
941.000000	0.406252
942.000000	0.406246
943.000000	0.406306
944.000000	0.406287
945.000000	0.406044
946.000000	0.405848
947.000000	0.405864
948.000000	0.406007
949.000000	0.405789
950.000000	0.405559
951.000000	0.405404
952.000000	0.405286
953.000000	0.405163
954.000000	0.405078
955.000000	0.404997
956.000000	0.405062
957.000000	0.405000
958.000000	0.404853
959.000000	0.404916
960.000000	0.404903
961.000000	0.404780
962.000000	0.404645
963.000000	0.404792
964.000000	0.404799
965.000000	0.404771
966.000000	0.404715
967.000000	0.404711
968.000000	0.404646
969.000000	0.404560
970.000000	0.404684
971.000000	0.404644
972.000000	0.404746
973.000000	0.404945
974.000000	0.404976
975.000000	0.404960
976.000000	0.404916
977.000000	0.404834
978.000000	0.404662
979.000000	0.404869
980.000000	0.405025
981.000000	0.405028
982.000000	0.405063
983.000000	0.404988
984.000000	0.404919
985.000000	0.405038
986.000000	0.405480
987.000000	0.405866
988.000000	0.405841
989.000000	0.405901
990.000000	0.405904
991.000000	0.405924
992.000000	0.406129
993.000000	0.406497
994.000000	0.406738
995.000000	0.406966
996.000000	0.407060
997.000000	0.407188
998.000000	0.407284
999.000000	0.407385
1000.000000	0.407374
1001.000000	0.407920
1002.000000	0.407400
1003.000000	0.406723
1004.000000	0.406613
1005.000000	0.406708
1006.000000	0.406645
1007.000000	0.406907
1008.000000	0.407150
1009.000000	0.407354
1010.000000	0.407330
1011.000000	0.408161
1012.000000	0.409184
1013.000000	0.409281
1014.000000	0.409403
1015.000000	0.408863
1016.000000	0.408415
1017.000000	0.408783
1018.000000	0.409201
1019.000000	0.409687
1020.000000	0.410923
1021.000000	0.411100
1022.000000	0.411082
1023.000000	0.411387
1024.000000	0.411170
1025.000000	0.411512
1026.000000	0.412018
1027.000000	0.411934
1028.000000	0.412301
1029.000000	0.413189
1030.000000	0.413791
1031.000000	0.414163
1032.000000	0.414395
1033.000000	0.414059
1034.000000	0.414235
1035.000000	0.414686
1036.000000	0.415096
1037.000000	0.415498
1038.000000	0.416080
1039.000000	0.416974
1040.000000	0.417744
1041.000000	0.418006
1042.000000	0.418682
1043.000000	0.419253
1044.000000	0.418981
1045.000000	0.419112
1046.000000	0.419334
1047.000000	0.419879
1048.000000	0.420678
1049.000000	0.420960
1050.000000	0.421406
1051.000000	0.421697
1052.000000	0.421072
1053.000000	0.421036
1054.000000	0.421562
1055.000000	0.422288
1056.000000	0.423234
1057.000000	0.424456
1058.000000	0.425531
1059.000000	0.425796
1060.000000	0.425915
1061.000000	0.426182
1062.000000	0.426134
1063.000000	0.426497
1064.000000	0.427013
1065.000000	0.427638
1066.000000	0.427981
1067.000000	0.428376
1068.000000	0.428827
1069.000000	0.428845
1070.000000	0.429214
1071.000000	0.430251
1072.000000	0.430868
1073.000000	0.431279
1074.000000	0.431922
1075.000000	0.432531
1076.000000	0.432843
1077.000000	0.432988
1078.000000	0.433314
1079.000000	0.433663
1080.000000	0.433812
1081.000000	0.434314
1082.000000	0.435411
1083.000000	0.436029
1084.000000	0.436536
1085.000000	0.437287
1086.000000	0.438139
1087.000000	0.438665
1088.000000	0.438928
1089.000000	0.439379
1090.000000	0.439611
1091.000000	0.439755
1092.000000	0.440474
1093.000000	0.441608
1094.000000	0.442067
1095.000000	0.442132
1096.000000	0.442577
1097.000000	0.442847
1098.000000	0.443288
1099.000000	0.443906
1100.000000	0.444610
1101.000000	0.445363
1102.000000	0.445886
1103.000000	0.446418
1104.000000	0.446990
1105.000000	0.447263
1106.000000	0.447713
1107.000000	0.448327
1108.000000	0.448844
1109.000000	0.449533
1110.000000	0.449921
1111.000000	0.450395
1112.000000	0.450818
1113.000000	0.451456
1114.000000	0.452211
1115.000000	0.452778
1116.000000	0.453375
1117.000000	0.453990
1118.000000	0.454542
1119.000000	0.454895
1120.000000	0.455280
1121.000000	0.455602
1122.000000	0.455624
1123.000000	0.456195
1124.000000	0.456820
1125.000000	0.457386
1126.000000	0.458130
1127.000000	0.458549
1128.000000	0.458796
1129.000000	0.458800
1130.000000	0.459140
1131.000000	0.459446
1132.000000	0.459768
1133.000000	0.460395
1134.000000	0.460854
1135.000000	0.461055
1136.000000	0.461403
1137.000000	0.461894
1138.000000	0.462172
1139.000000	0.462430
1140.000000	0.462852
1141.000000	0.463148
1142.000000	0.463550
1143.000000	0.464144
1144.000000	0.464648
1145.000000	0.464813
1146.000000	0.464992
1147.000000	0.465053
1148.000000	0.464716
1149.000000	0.464810
1150.000000	0.465055
1151.000000	0.465268
1152.000000	0.465600
1153.000000	0.465811
1154.000000	0.465775
1155.000000	0.465979
1156.000000	0.466314
1157.000000	0.466595
1158.000000	0.466972
1159.000000	0.467204
1160.000000	0.467221
1161.000000	0.467362
1162.000000	0.467579
1163.000000	0.468013
1164.000000	0.468196
1165.000000	0.468440
1166.000000	0.468664
1167.000000	0.468678
1168.000000	0.468845
1169.000000	0.469210
1170.000000	0.469412
1171.000000	0.469682
1172.000000	0.469888
1173.000000	0.469816
1174.000000	0.470028
1175.000000	0.470312
1176.000000	0.470556
1177.000000	0.471134
1178.000000	0.471493
1179.000000	0.471704
1180.000000	0.471844
1181.000000	0.471926
1182.000000	0.472147
1183.000000	0.472430
1184.000000	0.472761
1185.000000	0.472984
1186.000000	0.473203
1187.000000	0.473347
1188.000000	0.473408
1189.000000	0.473427
1190.000000	0.473427
1191.000000	0.473579
1192.000000	0.473885
1193.000000	0.474256
1194.000000	0.474666
1195.000000	0.474916
1196.000000	0.474914
1197.000000	0.475083
1198.000000	0.475340
1199.000000	0.475521
1200.000000	0.475664
1201.000000	0.475951
1202.000000	0.476038
1203.000000	0.476086
1204.000000	0.476408
1205.000000	0.476691
1206.000000	0.476825
1207.000000	0.477134
1208.000000	0.477232
1209.000000	0.477129
1210.000000	0.477238
1211.000000	0.477391
1212.000000	0.477553
1213.000000	0.477909
1214.000000	0.478153
1215.000000	0.478352
1216.000000	0.478474
1217.000000	0.478406
1218.000000	0.478472
1219.000000	0.478527
1220.000000	0.478764
1221.000000	0.479128
1222.000000	0.479327
1223.000000	0.479426
1224.000000	0.479535
1225.000000	0.479590
1226.000000	0.479733
1227.000000	0.479860
1228.000000	0.479985
1229.000000	0.480076
1230.000000	0.480053
1231.000000	0.480101
1232.000000	0.480389
1233.000000	0.480685
1234.000000	0.481072
1235.000000	0.481251
1236.000000	0.481120
1237.000000	0.481241
1238.000000	0.481325
1239.000000	0.481339
1240.000000	0.481378
1241.000000	0.481527
1242.000000	0.481559
1243.000000	0.481586
1244.000000	0.481853
1245.000000	0.482071
1246.000000	0.482037
1247.000000	0.482128
1248.000000	0.482320
1249.000000	0.482590
1250.000000	0.482905
1251.000000	0.483208
1252.000000	0.483317
1253.000000	0.483193
1254.000000	0.483221
1255.000000	0.483181
1256.000000	0.483260
1257.000000	0.483539
1258.000000	0.483714
1259.000000	0.483769
1260.000000	0.483938
1261.000000	0.483977
1262.000000	0.484056
1263.000000	0.484268
1264.000000	0.484433
1265.000000	0.484459
1266.000000	0.484347
1267.000000	0.484213
1268.000000	0.484247
1269.000000	0.484463
1270.000000	0.484915
1271.000000	0.485265
1272.000000	0.485397
1273.000000	0.485393
1274.000000	0.485419
1275.000000	0.485440
1276.000000	0.485566
1277.000000	0.485683
1278.000000	0.485558
1279.000000	0.485545
1280.000000	0.485512
1281.000000	0.485427
1282.000000	0.485456
1283.000000	0.485586
1284.000000	0.485574
1285.000000	0.485653
1286.000000	0.485834
1287.000000	0.485899
1288.000000	0.485948
1289.000000	0.485931
1290.000000	0.485703
1291.000000	0.485500
1292.000000	0.485549
1293.000000	0.485671
1294.000000	0.485654
1295.000000	0.485626
1296.000000	0.485550
1297.000000	0.485331
1298.000000	0.485325
1299.000000	0.485558
1300.000000	0.485668
1301.000000	0.485616
1302.000000	0.485490
1303.000000	0.485461
1304.000000	0.485277
1305.000000	0.485012
1306.000000	0.484917
1307.000000	0.484973
1308.000000	0.484997
1309.000000	0.485173
1310.000000	0.485185
1311.000000	0.485194
1312.000000	0.484929
1313.000000	0.484717
1314.000000	0.484436
1315.000000	0.484037
1316.000000	0.483905
1317.000000	0.483819
1318.000000	0.483642
1319.000000	0.483415
1320.000000	0.483181
1321.000000	0.482778
1322.000000	0.482459
1323.000000	0.482332
1324.000000	0.482156
1325.000000	0.481926
1326.000000	0.481555
1327.000000	0.481117
1328.000000	0.480897
1329.000000	0.480535
1330.000000	0.480110
1331.000000	0.479882
1332.000000	0.479864
1333.000000	0.479599
1334.000000	0.479477
1335.000000	0.479257
1336.000000	0.478771
1337.000000	0.478406
1338.000000	0.478018
1339.000000	0.477612
1340.000000	0.477310
1341.000000	0.477012
1342.000000	0.476537
1343.000000	0.476205
1344.000000	0.475716
1345.000000	0.475104
1346.000000	0.474897
1347.000000	0.474502
1348.000000	0.474140
1349.000000	0.473794
1350.000000	0.473310
1351.000000	0.472772
1352.000000	0.472088
1353.000000	0.471411
1354.000000	0.470885
1355.000000	0.470317
1356.000000	0.470077
1357.000000	0.469773
1358.000000	0.469315
1359.000000	0.468994
1360.000000	0.468576
1361.000000	0.468123
1362.000000	0.467607
1363.000000	0.466967
1364.000000	0.466469
1365.000000	0.465901
1366.000000	0.465494
1367.000000	0.465273
1368.000000	0.464915
1369.000000	0.464574
1370.000000	0.463972
1371.000000	0.463191
1372.000000	0.462480
1373.000000	0.461834
1374.000000	0.461186
1375.000000	0.460509
1376.000000	0.459829
1377.000000	0.458971
1378.000000	0.458150
1379.000000	0.457292
1380.000000	0.456340
1381.000000	0.455219
1382.000000	0.453944
1383.000000	0.452759
1384.000000	0.451167
1385.000000	0.449514
1386.000000	0.448033
1387.000000	0.446319
1388.000000	0.444716
1389.000000	0.443133
1390.000000	0.441402
1391.000000	0.439494
1392.000000	0.437547
1393.000000	0.435531
1394.000000	0.433470
1395.000000	0.431390
1396.000000	0.429361
1397.000000	0.427089
1398.000000	0.424572
1399.000000	0.422214
1400.000000	0.419737
1401.000000	0.417304
1402.000000	0.415000
1403.000000	0.412757
1404.000000	0.410396
1405.000000	0.407835
1406.000000	0.405343
1407.000000	0.402813
1408.000000	0.400126
1409.000000	0.397735
1410.000000	0.395381
1411.000000	0.392764
1412.000000	0.390321
1413.000000	0.388182
1414.000000	0.386039
1415.000000	0.384160
1416.000000	0.382545
1417.000000	0.380721
1418.000000	0.378919
1419.000000	0.377353
1420.000000	0.375589
1421.000000	0.373945
1422.000000	0.372402
1423.000000	0.370850
1424.000000	0.369197
1425.000000	0.367591
1426.000000	0.365934
1427.000000	0.364230
1428.000000	0.362604
1429.000000	0.360996
1430.000000	0.359384
1431.000000	0.357857
1432.000000	0.356496
1433.000000	0.355251
1434.000000	0.354228
1435.000000	0.353505
1436.000000	0.352865
1437.000000	0.352402
1438.000000	0.351964
1439.000000	0.351660
1440.000000	0.351472
1441.000000	0.351417
1442.000000	0.351477
1443.000000	0.351631
1444.000000	0.351795
1445.000000	0.351891
1446.000000	0.351775
1447.000000	0.351634
1448.000000	0.351521
1449.000000	0.351326
1450.000000	0.351209
1451.000000	0.351146
1452.000000	0.350797
1453.000000	0.350523
1454.000000	0.350381
1455.000000	0.350021
1456.000000	0.349813
1457.000000	0.349649
1458.000000	0.349372
1459.000000	0.349213
1460.000000	0.348936
1461.000000	0.348595
1462.000000	0.348312
1463.000000	0.347968
1464.000000	0.347717
1465.000000	0.347607
1466.000000	0.347492
1467.000000	0.347341
1468.000000	0.347358
1469.000000	0.347498
1470.000000	0.347490
1471.000000	0.347795
1472.000000	0.348129
1473.000000	0.348380
1474.000000	0.348805
1475.000000	0.349203
1476.000000	0.349613
1477.000000	0.350165
1478.000000	0.350756
1479.000000	0.351409
1480.000000	0.352078
1481.000000	0.352730
1482.000000	0.353456
1483.000000	0.354222
1484.000000	0.354999
1485.000000	0.355808
1486.000000	0.356692
1487.000000	0.357458
1488.000000	0.358165
1489.000000	0.358919
1490.000000	0.359526
1491.000000	0.360227
1492.000000	0.360924
1493.000000	0.361660
1494.000000	0.362335
1495.000000	0.363059
1496.000000	0.363882
1497.000000	0.364646
1498.000000	0.365437
1499.000000	0.366145
1500.000000	0.366828
1501.000000	0.367429
1502.000000	0.368077
1503.000000	0.368800
1504.000000	0.369440
1505.000000	0.370071
1506.000000	0.370581
1507.000000	0.371040
1508.000000	0.371639
1509.000000	0.372136
1510.000000	0.372613
1511.000000	0.373077
1512.000000	0.373465
1513.000000	0.373921
1514.000000	0.374281
1515.000000	0.374668
1516.000000	0.375171
1517.000000	0.375528
1518.000000	0.375977
1519.000000	0.376330
1520.000000	0.376481
1521.000000	0.376651
1522.000000	0.376990
1523.000000	0.377425
1524.000000	0.377748
1525.000000	0.378072
1526.000000	0.378342
1527.000000	0.378530
1528.000000	0.378816
1529.000000	0.379131
1530.000000	0.379291
1531.000000	0.379523
1532.000000	0.379865
1533.000000	0.380103
1534.000000	0.380310
1535.000000	0.380465
1536.000000	0.380433
1537.000000	0.380582
1538.000000	0.380758
1539.000000	0.380847
1540.000000	0.381018
1541.000000	0.381168
1542.000000	0.381448
1543.000000	0.381742
1544.000000	0.381903
1545.000000	0.382085
1546.000000	0.382208
1547.000000	0.382297
1548.000000	0.382456
1549.000000	0.382602
1550.000000	0.382650
1551.000000	0.382719
1552.000000	0.382824
1553.000000	0.382887
1554.000000	0.382901
1555.000000	0.382977
1556.000000	0.383168
1557.000000	0.383302
1558.000000	0.383450
1559.000000	0.383645
1560.000000	0.383675
1561.000000	0.383598
1562.000000	0.383576
1563.000000	0.383560
1564.000000	0.383564
1565.000000	0.383595
1566.000000	0.383559
1567.000000	0.383616
1568.000000	0.383575
1569.000000	0.383551
1570.000000	0.383525
1571.000000	0.383450
1572.000000	0.383410
1573.000000	0.383422
1574.000000	0.383412
1575.000000	0.383387
1576.000000	0.383381
1577.000000	0.383336
1578.000000	0.383344
1579.000000	0.383480
1580.000000	0.383551
1581.000000	0.383726
1582.000000	0.383823
1583.000000	0.383862
1584.000000	0.383847
1585.000000	0.383905
1586.000000	0.383930
1587.000000	0.383874
1588.000000	0.383819
1589.000000	0.383809
1590.000000	0.383741
1591.000000	0.383557
1592.000000	0.383609
1593.000000	0.383811
1594.000000	0.383892
1595.000000	0.384194
1596.000000	0.384264
1597.000000	0.384117
1598.000000	0.384102
1599.000000	0.384111
1600.000000	0.384144
1601.000000	0.384401
1602.000000	0.384418
1603.000000	0.384283
1604.000000	0.384330
1605.000000	0.384349
1606.000000	0.384457
1607.000000	0.384850
1608.000000	0.385072
1609.000000	0.385308
1610.000000	0.385471
1611.000000	0.385616
1612.000000	0.385757
1613.000000	0.385912
1614.000000	0.386073
1615.000000	0.386321
1616.000000	0.386600
1617.000000	0.386897
1618.000000	0.387086
1619.000000	0.387215
1620.000000	0.387367
1621.000000	0.387455
1622.000000	0.387696
1623.000000	0.388004
1624.000000	0.388240
1625.000000	0.388278
1626.000000	0.388453
1627.000000	0.388722
1628.000000	0.389022
1629.000000	0.389412
1630.000000	0.389734
1631.000000	0.389861
1632.000000	0.390180
1633.000000	0.390624
1634.000000	0.391062
1635.000000	0.391693
1636.000000	0.392103
1637.000000	0.392447
1638.000000	0.392699
1639.000000	0.392899
1640.000000	0.393095
1641.000000	0.393253
1642.000000	0.393563
1643.000000	0.393962
1644.000000	0.394314
1645.000000	0.394791
1646.000000	0.395075
1647.000000	0.395240
1648.000000	0.395522
1649.000000	0.395933
1650.000000	0.396264
1651.000000	0.396664
1652.000000	0.397079
1653.000000	0.397403
1654.000000	0.397733
1655.000000	0.398019
1656.000000	0.398223
1657.000000	0.398405
1658.000000	0.398660
1659.000000	0.399094
1660.000000	0.399503
1661.000000	0.399836
1662.000000	0.400148
1663.000000	0.400427
1664.000000	0.400709
1665.000000	0.400915
1666.000000	0.401278
1667.000000	0.401644
1668.000000	0.401950
1669.000000	0.402293
1670.000000	0.402487
1671.000000	0.402666
1672.000000	0.402921
1673.000000	0.403074
1674.000000	0.403327
1675.000000	0.403807
1676.000000	0.404211
1677.000000	0.404542
1678.000000	0.404794
1679.000000	0.404963
1680.000000	0.405141
1681.000000	0.405503
1682.000000	0.405808
1683.000000	0.406053
1684.000000	0.406304
1685.000000	0.406401
1686.000000	0.406554
1687.000000	0.406830
1688.000000	0.406989
1689.000000	0.407203
1690.000000	0.407383
1691.000000	0.407616
1692.000000	0.407904
1693.000000	0.408153
1694.000000	0.408301
1695.000000	0.408593
1696.000000	0.408695
1697.000000	0.408775
1698.000000	0.408938
1699.000000	0.409097
1700.000000	0.409204
1701.000000	0.409491
1702.000000	0.409662
1703.000000	0.409779
1704.000000	0.410034
1705.000000	0.410243
1706.000000	0.410393
1707.000000	0.410675
1708.000000	0.411047
1709.000000	0.411282
1710.000000	0.411706
1711.000000	0.411970
1712.000000	0.412088
1713.000000	0.412231
1714.000000	0.412328
1715.000000	0.412527
1716.000000	0.412832
1717.000000	0.413031
1718.000000	0.413237
1719.000000	0.413319
1720.000000	0.413264
1721.000000	0.413367
1722.000000	0.413523
1723.000000	0.413671
1724.000000	0.413948
1725.000000	0.414171
1726.000000	0.414222
1727.000000	0.414336
1728.000000	0.414412
1729.000000	0.414411
1730.000000	0.414488
1731.000000	0.414680
1732.000000	0.414986
1733.000000	0.415208
1734.000000	0.415289
1735.000000	0.415444
1736.000000	0.415507
1737.000000	0.415550
1738.000000	0.415625
1739.000000	0.415856
1740.000000	0.416020
1741.000000	0.416292
1742.000000	0.416879
1743.000000	0.417150
1744.000000	0.417239
1745.000000	0.417350
1746.000000	0.417345
1747.000000	0.417617
1748.000000	0.417676
1749.000000	0.417595
1750.000000	0.417632
1751.000000	0.417816
1752.000000	0.418040
1753.000000	0.418259
1754.000000	0.418429
1755.000000	0.418328
1756.000000	0.418404
1757.000000	0.418691
1758.000000	0.418842
1759.000000	0.418991
1760.000000	0.419074
1761.000000	0.418960
1762.000000	0.418883
1763.000000	0.418747
1764.000000	0.418791
1765.000000	0.418853
1766.000000	0.418992
1767.000000	0.419266
1768.000000	0.419353
1769.000000	0.419449
1770.000000	0.419646
1771.000000	0.419812
1772.000000	0.419917
1773.000000	0.419915
1774.000000	0.420087
1775.000000	0.420358
1776.000000	0.420571
1777.000000	0.420920
1778.000000	0.421049
1779.000000	0.420963
1780.000000	0.420995
1781.000000	0.420939
1782.000000	0.421010
1783.000000	0.421183
1784.000000	0.421462
1785.000000	0.421579
1786.000000	0.421900
1787.000000	0.422355
1788.000000	0.422540
1789.000000	0.422851
1790.000000	0.423197
1791.000000	0.423288
1792.000000	0.423387
1793.000000	0.423560
1794.000000	0.423517
1795.000000	0.423680
1796.000000	0.424171
1797.000000	0.424454
1798.000000	0.424566
1799.000000	0.424830
1800.000000	0.425239
1801.000000	0.425407
1802.000000	0.425171
1803.000000	0.424058
1804.000000	0.423806
1805.000000	0.422901
1806.000000	0.423264
1807.000000	0.425148
1808.000000	0.426001
1809.000000	0.427413
1810.000000	0.427969
1811.000000	0.428056
1812.000000	0.427004
1813.000000	0.426960
1814.000000	0.427032
1815.000000	0.427161
1816.000000	0.428062
1817.000000	0.428008
1818.000000	0.427846
1819.000000	0.426699
1820.000000	0.426385
1821.000000	0.426467
1822.000000	0.426375
1823.000000	0.427067
1824.000000	0.426646
1825.000000	0.424968
1826.000000	0.424368
1827.000000	0.423348
1828.000000	0.422897
1829.000000	0.424220
1830.000000	0.424895
1831.000000	0.425619
1832.000000	0.427413
1833.000000	0.427593
1834.000000	0.426706
1835.000000	0.426182
1836.000000	0.424239
1837.000000	0.423428
1838.000000	0.422927
1839.000000	0.423121
1840.000000	0.423204
1841.000000	0.423351
1842.000000	0.422925
1843.000000	0.422031
1844.000000	0.421168
1845.000000	0.419525
1846.000000	0.418655
1847.000000	0.418097
1848.000000	0.416926
1849.000000	0.415999
1850.000000	0.415555
1851.000000	0.415183
1852.000000	0.414974
1853.000000	0.414504
1854.000000	0.414099
1855.000000	0.413348
1856.000000	0.412187
1857.000000	0.410477
1858.000000	0.409731
1859.000000	0.408768
1860.000000	0.407040
1861.000000	0.405859
1862.000000	0.403893
1863.000000	0.400766
1864.000000	0.398648
1865.000000	0.397208
1866.000000	0.394969
1867.000000	0.392724
1868.000000	0.390280
1869.000000	0.387168
1870.000000	0.383135
1871.000000	0.379658
1872.000000	0.376931
1873.000000	0.373523
1874.000000	0.369887
1875.000000	0.366266
1876.000000	0.362134
1877.000000	0.357747
1878.000000	0.353518
1879.000000	0.349350
1880.000000	0.345690
1881.000000	0.341576
1882.000000	0.336511
1883.000000	0.331561
1884.000000	0.326608
1885.000000	0.320557
1886.000000	0.315094
1887.000000	0.310081
1888.000000	0.305034
1889.000000	0.299283
1890.000000	0.293811
1891.000000	0.288087
1892.000000	0.281466
1893.000000	0.275371
1894.000000	0.268908
1895.000000	0.262516
1896.000000	0.255990
1897.000000	0.250534
1898.000000	0.244754
1899.000000	0.239644
1900.000000	0.235065
1901.000000	0.229859
1902.000000	0.224794
1903.000000	0.219334
1904.000000	0.213987
1905.000000	0.209642
1906.000000	0.205420
1907.000000	0.201517
1908.000000	0.198421
1909.000000	0.195218
1910.000000	0.191703
1911.000000	0.188888
1912.000000	0.185971
1913.000000	0.183447
1914.000000	0.181407
1915.000000	0.179036
1916.000000	0.176584
1917.000000	0.174602
1918.000000	0.172991
1919.000000	0.171440
1920.000000	0.170448
1921.000000	0.170068
1922.000000	0.169062
1923.000000	0.168389
1924.000000	0.167458
1925.000000	0.166383
1926.000000	0.166413
1927.000000	0.166619
1928.000000	0.166686
1929.000000	0.166946
1930.000000	0.167591
1931.000000	0.167868
1932.000000	0.167488
1933.000000	0.167802
1934.000000	0.168153
1935.000000	0.168042
1936.000000	0.168655
1937.000000	0.169102
1938.000000	0.169199
1939.000000	0.169194
1940.000000	0.169146
1941.000000	0.168723
1942.000000	0.168525
1943.000000	0.168065
1944.000000	0.167643
1945.000000	0.167919
1946.000000	0.167767
1947.000000	0.167844
1948.000000	0.167716
1949.000000	0.167084
1950.000000	0.166822
1951.000000	0.166212
1952.000000	0.165203
1953.000000	0.164504
1954.000000	0.164307
1955.000000	0.164290
1956.000000	0.164812
1957.000000	0.165107
1958.000000	0.164581
1959.000000	0.163584
1960.000000	0.162591
1961.000000	0.161941
1962.000000	0.161469
1963.000000	0.161485
1964.000000	0.161491
1965.000000	0.161610
1966.000000	0.161239
1967.000000	0.161108
1968.000000	0.161797
1969.000000	0.161721
1970.000000	0.161956
1971.000000	0.162426
1972.000000	0.162181
1973.000000	0.162073
1974.000000	0.162090
1975.000000	0.162011
1976.000000	0.161650
1977.000000	0.161676
1978.000000	0.162143
1979.000000	0.163073
1980.000000	0.164341
1981.000000	0.165609
1982.000000	0.166210
1983.000000	0.166830
1984.000000	0.167518
1985.000000	0.168046
1986.000000	0.168600
1987.000000	0.169413
1988.000000	0.169977
1989.000000	0.170239
1990.000000	0.170772
1991.000000	0.171195
1992.000000	0.171753
1993.000000	0.172234
1994.000000	0.172770
1995.000000	0.173476
1996.000000	0.174523
1997.000000	0.175695
1998.000000	0.177216
1999.000000	0.178708
2000.000000	0.180526
2001.000000	0.182034
2002.000000	0.183045
2003.000000	0.184112
2004.000000	0.185162
2005.000000	0.185740
2006.000000	0.186650
2007.000000	0.188285
2008.000000	0.189637
2009.000000	0.190909
2010.000000	0.192273
2011.000000	0.193662
2012.000000	0.194790
2013.000000	0.195787
2014.000000	0.196796
2015.000000	0.197348
2016.000000	0.198309
2017.000000	0.199458
2018.000000	0.200727
2019.000000	0.202378
2020.000000	0.204365
2021.000000	0.206045
2022.000000	0.207796
2023.000000	0.209107
2024.000000	0.209898
2025.000000	0.211107
2026.000000	0.212248
2027.000000	0.213059
2028.000000	0.214704
2029.000000	0.216528
2030.000000	0.217252
2031.000000	0.218519
2032.000000	0.219816
2033.000000	0.220956
2034.000000	0.222124
2035.000000	0.223560
2036.000000	0.224952
2037.000000	0.226336
2038.000000	0.227564
2039.000000	0.228963
2040.000000	0.230578
2041.000000	0.231300
2042.000000	0.232186
2043.000000	0.233161
2044.000000	0.233793
2045.000000	0.234725
2046.000000	0.235951
2047.000000	0.237200
2048.000000	0.238690
2049.000000	0.240045
2050.000000	0.241200
2051.000000	0.242169
2052.000000	0.243009
2053.000000	0.243610
2054.000000	0.244010
2055.000000	0.244661
2056.000000	0.245183
2057.000000	0.246088
2058.000000	0.247960
2059.000000	0.249728
2060.000000	0.251004
2061.000000	0.252178
2062.000000	0.253548
2063.000000	0.254613
2064.000000	0.255550
2065.000000	0.257133
2066.000000	0.258065
2067.000000	0.258426
2068.000000	0.259366
2069.000000	0.259822
2070.000000	0.260848
2071.000000	0.261975
2072.000000	0.262725
2073.000000	0.264083
2074.000000	0.264877
2075.000000	0.265824
2076.000000	0.266521
2077.000000	0.267594
2078.000000	0.269061
2079.000000	0.270159
2080.000000	0.271245
2081.000000	0.272411
2082.000000	0.273507
2083.000000	0.274387
2084.000000	0.275443
2085.000000	0.276285
2086.000000	0.277201
2087.000000	0.278384
2088.000000	0.279943
2089.000000	0.281197
2090.000000	0.282427
2091.000000	0.283683
2092.000000	0.284766
2093.000000	0.285770
2094.000000	0.286778
2095.000000	0.287584
2096.000000	0.288481
2097.000000	0.289387
2098.000000	0.290067
2099.000000	0.291034
2100.000000	0.292146
2101.000000	0.293218
2102.000000	0.294695
2103.000000	0.295802
2104.000000	0.296327
2105.000000	0.297126
2106.000000	0.297692
2107.000000	0.298416
2108.000000	0.299536
2109.000000	0.300308
2110.000000	0.300614
2111.000000	0.301169
2112.000000	0.301687
2113.000000	0.301645
2114.000000	0.302292
2115.000000	0.303182
2116.000000	0.304005
2117.000000	0.304637
2118.000000	0.305812
2119.000000	0.306402
2120.000000	0.307427
2121.000000	0.309221
2122.000000	0.310047
2123.000000	0.310430
2124.000000	0.310953
2125.000000	0.310897
2126.000000	0.311036
2127.000000	0.311600
2128.000000	0.311750
2129.000000	0.311433
2130.000000	0.311221
2131.000000	0.310663
2132.000000	0.310537
2133.000000	0.311871
2134.000000	0.312861
2135.000000	0.314004
2136.000000	0.315245
2137.000000	0.315939
2138.000000	0.316065
2139.000000	0.316276
2140.000000	0.316275
2141.000000	0.316272
2142.000000	0.315891
2143.000000	0.315562
2144.000000	0.315374
2145.000000	0.315353
2146.000000	0.315529
2147.000000	0.315983
2148.000000	0.315984
2149.000000	0.316960
2150.000000	0.317628
2151.000000	0.317135
2152.000000	0.316019
2153.000000	0.314945
2154.000000	0.314288
2155.000000	0.313047
2156.000000	0.313030
2157.000000	0.314402
2158.000000	0.314896
2159.000000	0.315863
2160.000000	0.316620
2161.000000	0.317174
2162.000000	0.317384
2163.000000	0.316745
2164.000000	0.316611
2165.000000	0.316177
2166.000000	0.316407
2167.000000	0.317084
2168.000000	0.317860
2169.000000	0.318266
2170.000000	0.317948
2171.000000	0.317333
2172.000000	0.315835
2173.000000	0.315577
2174.000000	0.315455
2175.000000	0.315330
2176.000000	0.316125
2177.000000	0.316120
2178.000000	0.315009
2179.000000	0.315257
2180.000000	0.316367
2181.000000	0.317317
2182.000000	0.318519
2183.000000	0.319196
2184.000000	0.319342
2185.000000	0.318518
2186.000000	0.317369
2187.000000	0.317785
2188.000000	0.318713
2189.000000	0.319132
2190.000000	0.319815
2191.000000	0.320115
2192.000000	0.319977
2193.000000	0.318780
2194.000000	0.318127
2195.000000	0.318038
2196.000000	0.317096
2197.000000	0.314845
2198.000000	0.313725
2199.000000	0.312819
2200.000000	0.311901
2201.000000	0.312069
2202.000000	0.311808
2203.000000	0.311326
2204.000000	0.309355
2205.000000	0.308637
2206.000000	0.309715
2207.000000	0.311940
2208.000000	0.313624
2209.000000	0.314522
2210.000000	0.316207
2211.000000	0.315199
2212.000000	0.315350
2213.000000	0.315602
2214.000000	0.315365
2215.000000	0.315833
2216.000000	0.317413
2217.000000	0.318024
2218.000000	0.318385
2219.000000	0.319269
2220.000000	0.319952
2221.000000	0.320867
2222.000000	0.323605
2223.000000	0.323285
2224.000000	0.320448
2225.000000	0.319875
2226.000000	0.317448
2227.000000	0.314780
2228.000000	0.314395
2229.000000	0.312588
2230.000000	0.311241
2231.000000	0.311549
2232.000000	0.312770
2233.000000	0.314952
2234.000000	0.315692
2235.000000	0.317764
2236.000000	0.319409
2237.000000	0.321066
2238.000000	0.321745
2239.000000	0.321528
2240.000000	0.322168
2241.000000	0.323103
2242.000000	0.323400
2243.000000	0.324830
2244.000000	0.324727
2245.000000	0.322048
2246.000000	0.320825
2247.000000	0.319568
2248.000000	0.318435
2249.000000	0.318881
2250.000000	0.317276
2251.000000	0.314652
2252.000000	0.313500
2253.000000	0.311237
2254.000000	0.309271
2255.000000	0.308686
2256.000000	0.310419
2257.000000	0.312505
2258.000000	0.314619
2259.000000	0.315366
2260.000000	0.314334
2261.000000	0.312902
2262.000000	0.309359
2263.000000	0.308151
2264.000000	0.306918
2265.000000	0.306655
2266.000000	0.309274
2267.000000	0.308539
2268.000000	0.306673
2269.000000	0.304454
2270.000000	0.299283
2271.000000	0.296635
2272.000000	0.295524
2273.000000	0.294325
2274.000000	0.293932
2275.000000	0.293147
2276.000000	0.292794
2277.000000	0.291059
2278.000000	0.288112
2279.000000	0.285277
2280.000000	0.281221
2281.000000	0.276989
2282.000000	0.274449
2283.000000	0.272631
2284.000000	0.271399
2285.000000	0.271876
2286.000000	0.274675
2287.000000	0.276315
2288.000000	0.278123
2289.000000	0.280402
2290.000000	0.278949
2291.000000	0.276474
2292.000000	0.273491
2293.000000	0.268416
2294.000000	0.266464
2295.000000	0.266337
2296.000000	0.266184
2297.000000	0.268130
2298.000000	0.268952
2299.000000	0.269008
2300.000000	0.269140
2301.000000	0.268937
2302.000000	0.269344
2303.000000	0.269588
2304.000000	0.270974
2305.000000	0.274629
2306.000000	0.275769
2307.000000	0.276477
2308.000000	0.276237
2309.000000	0.273883
2310.000000	0.271477
2311.000000	0.272768
2312.000000	0.273055
2313.000000	0.271997
2314.000000	0.271815
2315.000000	0.270809
2316.000000	0.268447
2317.000000	0.267296
2318.000000	0.269392
2319.000000	0.267217
2320.000000	0.265340
2321.000000	0.266932
2322.000000	0.265398
2323.000000	0.265280
2324.000000	0.267083
2325.000000	0.266850
2326.000000	0.265331
2327.000000	0.265398
2328.000000	0.264085
2329.000000	0.259958
2330.000000	0.257446
2331.000000	0.254697
2332.000000	0.251595
2333.000000	0.249129
2334.000000	0.247370
2335.000000	0.246872
2336.000000	0.247072
2337.000000	0.246540
2338.000000	0.247274
2339.000000	0.245716
2340.000000	0.241222
2341.000000	0.238475
2342.000000	0.236881
2343.000000	0.235546
2344.000000	0.235755
2345.000000	0.234379
2346.000000	0.230121
2347.000000	0.228480
2348.000000	0.228161
2349.000000	0.225743
2350.000000	0.226098
2351.000000	0.228132
2352.000000	0.229281
2353.000000	0.231264
2354.000000	0.231132
2355.000000	0.229303
2356.000000	0.222492
2357.000000	0.214040
2358.000000	0.209738
2359.000000	0.207775
2360.000000	0.207904
2361.000000	0.210050
2362.000000	0.208722
2363.000000	0.205252
2364.000000	0.201658
2365.000000	0.198182
2366.000000	0.197945
2367.000000	0.198119
2368.000000	0.199013
2369.000000	0.199839
2370.000000	0.196048
2371.000000	0.193747
2372.000000	0.192811
2373.000000	0.191622
2374.000000	0.193712
2375.000000	0.191707
2376.000000	0.188549
2377.000000	0.187314
2378.000000	0.185692
2379.000000	0.185637
2380.000000	0.182902
2381.000000	0.180269
2382.000000	0.177956
2383.000000	0.176676
2384.000000	0.178377
2385.000000	0.181372
2386.000000	0.181614
2387.000000	0.177388
2388.000000	0.176093
2389.000000	0.173458
2390.000000	0.172739
2391.000000	0.174481
2392.000000	0.172614
2393.000000	0.169026
2394.000000	0.162246
2395.000000	0.159598
2396.000000	0.156833
2397.000000	0.154049
2398.000000	0.157954
2399.000000	0.162961
2400.000000	0.170037
2401.000000	0.175207
2402.000000	0.178203
2403.000000	0.172002
2404.000000	0.161807
2405.000000	0.157852
2406.000000	0.150583
2407.000000	0.152153
2408.000000	0.154968
2409.000000	0.154064
2410.000000	0.157411
2411.000000	0.155956
2412.000000	0.156408
2413.000000	0.156122
2414.000000	0.161158
2415.000000	0.165662
2416.000000	0.156645
2417.000000	0.152110
2418.000000	0.143907
2419.000000	0.138087
2420.000000	0.141488
2421.000000	0.142226
2422.000000	0.150617
2423.000000	0.155124
2424.000000	0.157169
2425.000000	0.161234
2426.000000	0.151907
2427.000000	0.140508
2428.000000	0.134200
2429.000000	0.126245
2430.000000	0.121717
2431.000000	0.123063
2432.000000	0.115837
2433.000000	0.114578
2434.000000	0.130381
2435.000000	0.141014
2436.000000	0.147716
2437.000000	0.159681
2438.000000	0.163084
2439.000000	0.152660
2440.000000	0.145933
2441.000000	0.138877
2442.000000	0.125930
2443.000000	0.121078
2444.000000	0.121823
2445.000000	0.125624
2446.000000	0.136497
2447.000000	0.136472
2448.000000	0.141544
2449.000000	0.150392
2450.000000	0.133399
2451.000000	0.123308
2452.000000	0.111245
2453.000000	0.105063
2454.000000	0.117830
2455.000000	0.117813
2456.000000	0.127593
2457.000000	0.124494
2458.000000	0.103775
2459.000000	0.109873
2460.000000	0.107513
2461.000000	0.095826
2462.000000	0.100035
2463.000000	0.097819
2464.000000	0.095565
2465.000000	0.104058
2466.000000	0.115483
2467.000000	0.103323
2468.000000	0.088701
2469.000000	0.080644
2470.000000	0.055280
2471.000000	0.058304
2472.000000	0.082863
2473.000000	0.113498
2474.000000	0.131967
2475.000000	0.120321
2476.000000	0.112452
2477.000000	0.082605
2478.000000	0.074117
2479.000000	0.116617
2480.000000	0.121069
2481.000000	0.119419
2482.000000	0.123909
2483.000000	0.100261
2484.000000	0.092613
2485.000000	0.113730
2486.000000	0.118706
2487.000000	0.107062
2488.000000	0.106009
2489.000000	0.079361
2490.000000	0.064544
2491.000000	0.096373
2492.000000	0.094968
2493.000000	0.075431
2494.000000	0.075441
2495.000000	0.079704
2496.000000	0.055911
2497.000000	0.014119
2498.000000	0.002689
2499.000000	-0.011162
2500.000000	-0.009452
