# Wavelength	NAu-1-50_HEX-10_FV7-40_00000.asd.rts.txt
350.000000	0.147534
351.000000	0.174809
352.000000	0.158387
353.000000	0.143588
354.000000	0.150750
355.000000	0.146743
356.000000	0.150318
357.000000	0.159432
358.000000	0.155127
359.000000	0.145147
360.000000	0.138215
361.000000	0.140939
362.000000	0.141138
363.000000	0.140983
364.000000	0.141547
365.000000	0.138960
366.000000	0.135994
367.000000	0.134666
368.000000	0.137280
369.000000	0.137803
370.000000	0.136449
371.000000	0.135951
372.000000	0.143198
373.000000	0.147645
374.000000	0.143349
375.000000	0.136859
376.000000	0.136395
377.000000	0.142263
378.000000	0.147686
379.000000	0.150104
380.000000	0.148826
381.000000	0.145350
382.000000	0.145833
383.000000	0.146669
384.000000	0.145798
385.000000	0.148248
386.000000	0.150230
387.000000	0.150812
388.000000	0.151758
389.000000	0.151641
390.000000	0.151524
391.000000	0.152999
392.000000	0.155863
393.000000	0.157830
394.000000	0.157857
395.000000	0.159560
396.000000	0.161253
397.000000	0.161965
398.000000	0.161465
399.000000	0.162083
400.000000	0.164002
401.000000	0.166306
402.000000	0.167787
403.000000	0.168838
404.000000	0.170091
405.000000	0.171150
406.000000	0.172248
407.000000	0.173418
408.000000	0.174129
409.000000	0.175071
410.000000	0.176314
411.000000	0.177558
412.000000	0.178474
413.000000	0.179196
414.000000	0.179990
415.000000	0.180912
416.000000	0.182221
417.000000	0.183712
418.000000	0.184137
419.000000	0.184243
420.000000	0.184339
421.000000	0.184402
422.000000	0.185062
423.000000	0.185597
424.000000	0.185144
425.000000	0.185329
426.000000	0.185653
427.000000	0.185599
428.000000	0.185442
429.000000	0.185467
430.000000	0.185666
431.000000	0.185608
432.000000	0.185758
433.000000	0.185870
434.000000	0.185512
435.000000	0.185575
436.000000	0.185786
437.000000	0.185710
438.000000	0.185380
439.000000	0.185055
440.000000	0.184799
441.000000	0.183951
442.000000	0.183395
443.000000	0.183235
444.000000	0.183169
445.000000	0.183634
446.000000	0.184238
447.000000	0.184339
448.000000	0.184275
449.000000	0.184863
450.000000	0.186426
451.000000	0.187879
452.000000	0.189535
453.000000	0.191365
454.000000	0.193106
455.000000	0.195293
456.000000	0.197751
457.000000	0.199911
458.000000	0.202294
459.000000	0.204640
460.000000	0.206649
461.000000	0.208101
462.000000	0.209691
463.000000	0.211430
464.000000	0.212454
465.000000	0.213643
466.000000	0.214900
467.000000	0.215644
468.000000	0.216579
469.000000	0.217431
470.000000	0.217970
471.000000	0.219002
472.000000	0.219874
473.000000	0.220224
474.000000	0.220609
475.000000	0.221162
476.000000	0.221955
477.000000	0.222701
478.000000	0.223246
479.000000	0.223825
480.000000	0.224510
481.000000	0.224904
482.000000	0.225300
483.000000	0.225787
484.000000	0.226155
485.000000	0.226559
486.000000	0.227172
487.000000	0.227671
488.000000	0.228161
489.000000	0.228699
490.000000	0.229311
491.000000	0.229955
492.000000	0.230625
493.000000	0.231191
494.000000	0.231582
495.000000	0.232007
496.000000	0.232577
497.000000	0.233239
498.000000	0.233879
499.000000	0.234529
500.000000	0.235238
501.000000	0.235800
502.000000	0.236363
503.000000	0.237141
504.000000	0.237865
505.000000	0.238431
506.000000	0.238859
507.000000	0.239488
508.000000	0.240279
509.000000	0.241124
510.000000	0.241953
511.000000	0.242744
512.000000	0.243504
513.000000	0.244204
514.000000	0.244932
515.000000	0.245693
516.000000	0.246417
517.000000	0.247237
518.000000	0.248072
519.000000	0.248781
520.000000	0.249466
521.000000	0.250259
522.000000	0.251170
523.000000	0.251994
524.000000	0.252923
525.000000	0.253875
526.000000	0.254683
527.000000	0.255620
528.000000	0.256573
529.000000	0.257436
530.000000	0.258354
531.000000	0.259339
532.000000	0.260309
533.000000	0.261331
534.000000	0.262311
535.000000	0.263235
536.000000	0.264200
537.000000	0.265252
538.000000	0.266319
539.000000	0.267273
540.000000	0.268241
541.000000	0.269192
542.000000	0.270132
543.000000	0.271122
544.000000	0.272135
545.000000	0.273096
546.000000	0.274084
547.000000	0.275048
548.000000	0.276018
549.000000	0.276982
550.000000	0.277967
551.000000	0.278973
552.000000	0.279933
553.000000	0.280828
554.000000	0.281774
555.000000	0.282837
556.000000	0.283886
557.000000	0.284771
558.000000	0.285613
559.000000	0.286508
560.000000	0.287360
561.000000	0.288206
562.000000	0.288995
563.000000	0.289802
564.000000	0.290651
565.000000	0.291441
566.000000	0.292251
567.000000	0.293047
568.000000	0.293775
569.000000	0.294434
570.000000	0.295015
571.000000	0.295581
572.000000	0.296311
573.000000	0.296833
574.000000	0.297246
575.000000	0.297850
576.000000	0.298481
577.000000	0.299021
578.000000	0.299473
579.000000	0.299895
580.000000	0.300344
581.000000	0.300815
582.000000	0.301207
583.000000	0.301621
584.000000	0.302043
585.000000	0.302399
586.000000	0.302683
587.000000	0.302938
588.000000	0.303221
589.000000	0.303551
590.000000	0.303849
591.000000	0.304077
592.000000	0.304308
593.000000	0.304534
594.000000	0.304762
595.000000	0.305030
596.000000	0.305195
597.000000	0.305304
598.000000	0.305387
599.000000	0.305519
600.000000	0.305661
601.000000	0.305715
602.000000	0.305915
603.000000	0.306057
604.000000	0.306096
605.000000	0.306268
606.000000	0.306367
607.000000	0.306394
608.000000	0.306468
609.000000	0.306584
610.000000	0.306699
611.000000	0.306765
612.000000	0.306773
613.000000	0.306831
614.000000	0.307008
615.000000	0.307114
616.000000	0.307172
617.000000	0.307188
618.000000	0.307265
619.000000	0.307362
620.000000	0.307432
621.000000	0.307480
622.000000	0.307467
623.000000	0.307422
624.000000	0.307394
625.000000	0.307455
626.000000	0.307548
627.000000	0.307633
628.000000	0.307678
629.000000	0.307831
630.000000	0.307943
631.000000	0.308006
632.000000	0.308109
633.000000	0.308269
634.000000	0.308452
635.000000	0.308615
636.000000	0.308781
637.000000	0.308957
638.000000	0.309185
639.000000	0.309358
640.000000	0.309482
641.000000	0.309477
642.000000	0.309495
643.000000	0.309590
644.000000	0.309769
645.000000	0.309882
646.000000	0.310015
647.000000	0.310199
648.000000	0.310323
649.000000	0.310494
650.000000	0.310704
651.000000	0.310861
652.000000	0.311051
653.000000	0.311286
654.000000	0.311462
655.000000	0.311629
656.000000	0.311835
657.000000	0.312049
658.000000	0.312244
659.000000	0.312484
660.000000	0.312759
661.000000	0.312986
662.000000	0.313189
663.000000	0.313432
664.000000	0.313695
665.000000	0.313934
666.000000	0.314174
667.000000	0.314417
668.000000	0.314669
669.000000	0.314904
670.000000	0.315127
671.000000	0.315405
672.000000	0.315640
673.000000	0.315838
674.000000	0.316114
675.000000	0.316403
676.000000	0.316696
677.000000	0.317011
678.000000	0.317319
679.000000	0.317633
680.000000	0.317964
681.000000	0.318286
682.000000	0.318633
683.000000	0.318959
684.000000	0.319377
685.000000	0.319743
686.000000	0.320091
687.000000	0.320455
688.000000	0.320791
689.000000	0.321142
690.000000	0.321558
691.000000	0.321931
692.000000	0.322255
693.000000	0.322620
694.000000	0.323039
695.000000	0.323414
696.000000	0.323762
697.000000	0.324151
698.000000	0.324581
699.000000	0.325046
700.000000	0.325526
701.000000	0.325914
702.000000	0.326263
703.000000	0.326608
704.000000	0.327033
705.000000	0.327454
706.000000	0.327821
707.000000	0.328202
708.000000	0.328626
709.000000	0.329062
710.000000	0.329496
711.000000	0.329907
712.000000	0.330352
713.000000	0.330836
714.000000	0.331219
715.000000	0.331594
716.000000	0.331996
717.000000	0.332405
718.000000	0.332696
719.000000	0.332970
720.000000	0.333344
721.000000	0.333760
722.000000	0.334167
723.000000	0.334597
724.000000	0.334993
725.000000	0.335361
726.000000	0.335765
727.000000	0.336117
728.000000	0.336430
729.000000	0.336768
730.000000	0.337115
731.000000	0.337475
732.000000	0.337795
733.000000	0.338137
734.000000	0.338589
735.000000	0.338923
736.000000	0.339246
737.000000	0.339514
738.000000	0.339738
739.000000	0.340056
740.000000	0.340364
741.000000	0.340664
742.000000	0.340919
743.000000	0.341122
744.000000	0.341396
745.000000	0.341589
746.000000	0.341774
747.000000	0.341975
748.000000	0.342189
749.000000	0.342411
750.000000	0.342603
751.000000	0.342790
752.000000	0.343038
753.000000	0.343319
754.000000	0.343489
755.000000	0.343644
756.000000	0.343792
757.000000	0.343876
758.000000	0.343961
759.000000	0.344061
760.000000	0.344124
761.000000	0.344294
762.000000	0.344425
763.000000	0.344489
764.000000	0.344618
765.000000	0.344679
766.000000	0.344734
767.000000	0.344843
768.000000	0.344960
769.000000	0.345006
770.000000	0.344985
771.000000	0.345005
772.000000	0.345088
773.000000	0.345119
774.000000	0.345086
775.000000	0.345023
776.000000	0.344904
777.000000	0.344719
778.000000	0.344595
779.000000	0.344525
780.000000	0.344477
781.000000	0.344369
782.000000	0.344288
783.000000	0.344290
784.000000	0.344225
785.000000	0.344186
786.000000	0.344136
787.000000	0.344043
788.000000	0.343920
789.000000	0.343785
790.000000	0.343628
791.000000	0.343474
792.000000	0.343335
793.000000	0.343176
794.000000	0.342986
795.000000	0.342839
796.000000	0.342649
797.000000	0.342399
798.000000	0.342153
799.000000	0.342016
800.000000	0.341917
801.000000	0.341748
802.000000	0.341571
803.000000	0.341356
804.000000	0.341130
805.000000	0.340888
806.000000	0.340642
807.000000	0.340445
808.000000	0.340198
809.000000	0.340010
810.000000	0.339787
811.000000	0.339467
812.000000	0.339225
813.000000	0.339052
814.000000	0.338886
815.000000	0.338637
816.000000	0.338333
817.000000	0.338053
818.000000	0.337778
819.000000	0.337542
820.000000	0.337315
821.000000	0.337051
822.000000	0.336854
823.000000	0.336591
824.000000	0.336252
825.000000	0.335995
826.000000	0.335725
827.000000	0.335478
828.000000	0.335316
829.000000	0.335181
830.000000	0.334836
831.000000	0.334432
832.000000	0.334145
833.000000	0.333879
834.000000	0.333654
835.000000	0.333502
836.000000	0.333275
837.000000	0.333045
838.000000	0.332845
839.000000	0.332631
840.000000	0.332378
841.000000	0.332089
842.000000	0.331748
843.000000	0.331461
844.000000	0.331208
845.000000	0.330976
846.000000	0.330847
847.000000	0.330666
848.000000	0.330428
849.000000	0.330208
850.000000	0.330033
851.000000	0.329741
852.000000	0.329368
853.000000	0.329114
854.000000	0.328843
855.000000	0.328612
856.000000	0.328327
857.000000	0.327981
858.000000	0.327802
859.000000	0.327730
860.000000	0.327475
861.000000	0.327227
862.000000	0.327066
863.000000	0.326923
864.000000	0.326600
865.000000	0.326267
866.000000	0.326044
867.000000	0.325826
868.000000	0.325554
869.000000	0.325231
870.000000	0.324997
871.000000	0.324734
872.000000	0.324475
873.000000	0.324198
874.000000	0.323963
875.000000	0.323744
876.000000	0.323497
877.000000	0.323125
878.000000	0.322844
879.000000	0.322665
880.000000	0.322416
881.000000	0.322139
882.000000	0.321850
883.000000	0.321599
884.000000	0.321374
885.000000	0.321221
886.000000	0.321005
887.000000	0.320726
888.000000	0.320584
889.000000	0.320356
890.000000	0.320001
891.000000	0.319774
892.000000	0.319544
893.000000	0.319335
894.000000	0.319216
895.000000	0.318888
896.000000	0.318569
897.000000	0.318299
898.000000	0.318065
899.000000	0.317931
900.000000	0.317755
901.000000	0.317527
902.000000	0.317573
903.000000	0.317473
904.000000	0.317285
905.000000	0.317074
906.000000	0.316917
907.000000	0.316727
908.000000	0.316504
909.000000	0.316169
910.000000	0.316059
911.000000	0.316005
912.000000	0.315819
913.000000	0.315621
914.000000	0.315433
915.000000	0.315296
916.000000	0.315086
917.000000	0.314848
918.000000	0.314623
919.000000	0.314399
920.000000	0.314108
921.000000	0.314000
922.000000	0.313943
923.000000	0.313636
924.000000	0.313513
925.000000	0.313470
926.000000	0.313402
927.000000	0.313175
928.000000	0.312964
929.000000	0.312808
930.000000	0.312697
931.000000	0.312613
932.000000	0.312390
933.000000	0.312097
934.000000	0.311946
935.000000	0.311803
936.000000	0.311691
937.000000	0.311543
938.000000	0.311371
939.000000	0.311375
940.000000	0.311343
941.000000	0.311037
942.000000	0.310878
943.000000	0.310837
944.000000	0.310767
945.000000	0.310879
946.000000	0.310750
947.000000	0.310470
948.000000	0.310230
949.000000	0.310181
950.000000	0.310060
951.000000	0.309822
952.000000	0.309766
953.000000	0.309698
954.000000	0.309640
955.000000	0.309530
956.000000	0.309285
957.000000	0.309041
958.000000	0.308873
959.000000	0.308892
960.000000	0.308692
961.000000	0.308631
962.000000	0.308704
963.000000	0.308493
964.000000	0.308291
965.000000	0.308275
966.000000	0.308359
967.000000	0.308368
968.000000	0.308098
969.000000	0.307733
970.000000	0.307729
971.000000	0.307820
972.000000	0.307779
973.000000	0.307595
974.000000	0.307693
975.000000	0.307462
976.000000	0.307269
977.000000	0.307445
978.000000	0.307666
979.000000	0.307664
980.000000	0.307371
981.000000	0.307318
982.000000	0.307410
983.000000	0.307401
984.000000	0.307323
985.000000	0.307357
986.000000	0.307510
987.000000	0.307756
988.000000	0.307885
989.000000	0.307730
990.000000	0.307652
991.000000	0.307593
992.000000	0.307479
993.000000	0.307652
994.000000	0.307743
995.000000	0.307826
996.000000	0.307889
997.000000	0.307790
998.000000	0.307811
999.000000	0.308080
1000.000000	0.308162
1001.000000	0.308166
1002.000000	0.308052
1003.000000	0.307835
1004.000000	0.307866
1005.000000	0.307347
1006.000000	0.307062
1007.000000	0.307171
1008.000000	0.307826
1009.000000	0.307468
1010.000000	0.307245
1011.000000	0.307885
1012.000000	0.307986
1013.000000	0.307293
1014.000000	0.306960
1015.000000	0.306595
1016.000000	0.306476
1017.000000	0.307539
1018.000000	0.308945
1019.000000	0.309638
1020.000000	0.310430
1021.000000	0.310260
1022.000000	0.309198
1023.000000	0.308961
1024.000000	0.308270
1025.000000	0.308393
1026.000000	0.309450
1027.000000	0.309954
1028.000000	0.310223
1029.000000	0.310418
1030.000000	0.310143
1031.000000	0.309540
1032.000000	0.309614
1033.000000	0.309943
1034.000000	0.309970
1035.000000	0.309830
1036.000000	0.310151
1037.000000	0.310364
1038.000000	0.310650
1039.000000	0.311487
1040.000000	0.312144
1041.000000	0.312205
1042.000000	0.312834
1043.000000	0.313292
1044.000000	0.313245
1045.000000	0.313410
1046.000000	0.313718
1047.000000	0.313888
1048.000000	0.313826
1049.000000	0.314089
1050.000000	0.314514
1051.000000	0.314791
1052.000000	0.315020
1053.000000	0.315443
1054.000000	0.316351
1055.000000	0.316648
1056.000000	0.316741
1057.000000	0.317069
1058.000000	0.316751
1059.000000	0.316555
1060.000000	0.317262
1061.000000	0.318005
1062.000000	0.318723
1063.000000	0.319359
1064.000000	0.319693
1065.000000	0.319497
1066.000000	0.319648
1067.000000	0.319790
1068.000000	0.319968
1069.000000	0.319861
1070.000000	0.320308
1071.000000	0.321255
1072.000000	0.321897
1073.000000	0.322788
1074.000000	0.323961
1075.000000	0.323995
1076.000000	0.323874
1077.000000	0.324021
1078.000000	0.324131
1079.000000	0.324301
1080.000000	0.324751
1081.000000	0.325130
1082.000000	0.325470
1083.000000	0.325849
1084.000000	0.326453
1085.000000	0.327063
1086.000000	0.327678
1087.000000	0.328143
1088.000000	0.328502
1089.000000	0.328892
1090.000000	0.329124
1091.000000	0.329253
1092.000000	0.329768
1093.000000	0.330321
1094.000000	0.330471
1095.000000	0.330186
1096.000000	0.330513
1097.000000	0.330812
1098.000000	0.331325
1099.000000	0.332274
1100.000000	0.332975
1101.000000	0.333659
1102.000000	0.334088
1103.000000	0.334328
1104.000000	0.334737
1105.000000	0.334901
1106.000000	0.335230
1107.000000	0.335689
1108.000000	0.336198
1109.000000	0.336941
1110.000000	0.337490
1111.000000	0.337921
1112.000000	0.338295
1113.000000	0.338808
1114.000000	0.339282
1115.000000	0.339614
1116.000000	0.340087
1117.000000	0.340395
1118.000000	0.340252
1119.000000	0.340454
1120.000000	0.340952
1121.000000	0.341230
1122.000000	0.341567
1123.000000	0.342061
1124.000000	0.342207
1125.000000	0.342549
1126.000000	0.343074
1127.000000	0.343393
1128.000000	0.343644
1129.000000	0.343872
1130.000000	0.344175
1131.000000	0.344403
1132.000000	0.344657
1133.000000	0.345062
1134.000000	0.345410
1135.000000	0.345588
1136.000000	0.345907
1137.000000	0.346410
1138.000000	0.346662
1139.000000	0.346845
1140.000000	0.347220
1141.000000	0.347555
1142.000000	0.347843
1143.000000	0.348158
1144.000000	0.348566
1145.000000	0.348608
1146.000000	0.348816
1147.000000	0.349093
1148.000000	0.349415
1149.000000	0.349636
1150.000000	0.349866
1151.000000	0.350152
1152.000000	0.350403
1153.000000	0.350618
1154.000000	0.350821
1155.000000	0.350982
1156.000000	0.351022
1157.000000	0.351138
1158.000000	0.351219
1159.000000	0.351394
1160.000000	0.351656
1161.000000	0.351834
1162.000000	0.352147
1163.000000	0.352406
1164.000000	0.352667
1165.000000	0.352902
1166.000000	0.353053
1167.000000	0.353121
1168.000000	0.353257
1169.000000	0.353280
1170.000000	0.353503
1171.000000	0.353997
1172.000000	0.354306
1173.000000	0.354589
1174.000000	0.354826
1175.000000	0.354873
1176.000000	0.355039
1177.000000	0.355381
1178.000000	0.355581
1179.000000	0.355744
1180.000000	0.355878
1181.000000	0.355989
1182.000000	0.356208
1183.000000	0.356289
1184.000000	0.356441
1185.000000	0.356618
1186.000000	0.356715
1187.000000	0.356877
1188.000000	0.357171
1189.000000	0.357380
1190.000000	0.357623
1191.000000	0.357758
1192.000000	0.357964
1193.000000	0.358238
1194.000000	0.358298
1195.000000	0.358464
1196.000000	0.358677
1197.000000	0.358825
1198.000000	0.358967
1199.000000	0.359114
1200.000000	0.359224
1201.000000	0.359383
1202.000000	0.359500
1203.000000	0.359599
1204.000000	0.359709
1205.000000	0.359771
1206.000000	0.359855
1207.000000	0.360053
1208.000000	0.360189
1209.000000	0.360435
1210.000000	0.360555
1211.000000	0.360544
1212.000000	0.360620
1213.000000	0.360738
1214.000000	0.360869
1215.000000	0.361075
1216.000000	0.361243
1217.000000	0.361301
1218.000000	0.361385
1219.000000	0.361565
1220.000000	0.361673
1221.000000	0.361751
1222.000000	0.361800
1223.000000	0.361740
1224.000000	0.361880
1225.000000	0.361927
1226.000000	0.361943
1227.000000	0.362137
1228.000000	0.362255
1229.000000	0.362270
1230.000000	0.362260
1231.000000	0.362184
1232.000000	0.362001
1233.000000	0.362145
1234.000000	0.362533
1235.000000	0.362616
1236.000000	0.362609
1237.000000	0.362628
1238.000000	0.362328
1239.000000	0.362238
1240.000000	0.362334
1241.000000	0.362323
1242.000000	0.362314
1243.000000	0.362453
1244.000000	0.362613
1245.000000	0.362841
1246.000000	0.363113
1247.000000	0.363292
1248.000000	0.363333
1249.000000	0.363451
1250.000000	0.363355
1251.000000	0.363193
1252.000000	0.363177
1253.000000	0.363241
1254.000000	0.363255
1255.000000	0.363364
1256.000000	0.363426
1257.000000	0.363471
1258.000000	0.363521
1259.000000	0.363451
1260.000000	0.363553
1261.000000	0.363686
1262.000000	0.363712
1263.000000	0.363779
1264.000000	0.363862
1265.000000	0.363918
1266.000000	0.363997
1267.000000	0.364141
1268.000000	0.364209
1269.000000	0.364107
1270.000000	0.364158
1271.000000	0.364190
1272.000000	0.364315
1273.000000	0.364454
1274.000000	0.364401
1275.000000	0.364472
1276.000000	0.364626
1277.000000	0.364775
1278.000000	0.364937
1279.000000	0.364936
1280.000000	0.364755
1281.000000	0.364589
1282.000000	0.364342
1283.000000	0.364295
1284.000000	0.364275
1285.000000	0.364200
1286.000000	0.364118
1287.000000	0.364091
1288.000000	0.364012
1289.000000	0.363849
1290.000000	0.363866
1291.000000	0.363820
1292.000000	0.363785
1293.000000	0.364021
1294.000000	0.363981
1295.000000	0.363950
1296.000000	0.364128
1297.000000	0.364058
1298.000000	0.364182
1299.000000	0.364465
1300.000000	0.364427
1301.000000	0.364484
1302.000000	0.364545
1303.000000	0.364773
1304.000000	0.364742
1305.000000	0.364789
1306.000000	0.364735
1307.000000	0.364517
1308.000000	0.364419
1309.000000	0.364378
1310.000000	0.364353
1311.000000	0.364421
1312.000000	0.364244
1313.000000	0.364143
1314.000000	0.364028
1315.000000	0.363861
1316.000000	0.364002
1317.000000	0.364232
1318.000000	0.364260
1319.000000	0.364088
1320.000000	0.363910
1321.000000	0.363829
1322.000000	0.363802
1323.000000	0.363877
1324.000000	0.364082
1325.000000	0.363915
1326.000000	0.363655
1327.000000	0.363706
1328.000000	0.363573
1329.000000	0.363398
1330.000000	0.363437
1331.000000	0.363322
1332.000000	0.362963
1333.000000	0.362792
1334.000000	0.362732
1335.000000	0.362728
1336.000000	0.362872
1337.000000	0.362862
1338.000000	0.362797
1339.000000	0.362715
1340.000000	0.362467
1341.000000	0.362199
1342.000000	0.362075
1343.000000	0.361850
1344.000000	0.361730
1345.000000	0.361709
1346.000000	0.361807
1347.000000	0.361918
1348.000000	0.361879
1349.000000	0.361738
1350.000000	0.361545
1351.000000	0.361298
1352.000000	0.361235
1353.000000	0.361215
1354.000000	0.361312
1355.000000	0.361381
1356.000000	0.361365
1357.000000	0.361213
1358.000000	0.360897
1359.000000	0.360653
1360.000000	0.360489
1361.000000	0.360361
1362.000000	0.360364
1363.000000	0.360520
1364.000000	0.360520
1365.000000	0.360589
1366.000000	0.360533
1367.000000	0.360305
1368.000000	0.360159
1369.000000	0.360163
1370.000000	0.359888
1371.000000	0.359623
1372.000000	0.359343
1373.000000	0.358940
1374.000000	0.358604
1375.000000	0.358297
1376.000000	0.358111
1377.000000	0.357977
1378.000000	0.357666
1379.000000	0.357164
1380.000000	0.356756
1381.000000	0.356343
1382.000000	0.355872
1383.000000	0.355514
1384.000000	0.354978
1385.000000	0.354213
1386.000000	0.353602
1387.000000	0.353020
1388.000000	0.352261
1389.000000	0.351597
1390.000000	0.350856
1391.000000	0.349977
1392.000000	0.349242
1393.000000	0.348395
1394.000000	0.347558
1395.000000	0.346701
1396.000000	0.345773
1397.000000	0.344793
1398.000000	0.343741
1399.000000	0.342719
1400.000000	0.341625
1401.000000	0.340607
1402.000000	0.339696
1403.000000	0.338701
1404.000000	0.337786
1405.000000	0.336873
1406.000000	0.335898
1407.000000	0.334981
1408.000000	0.334036
1409.000000	0.333099
1410.000000	0.332282
1411.000000	0.331502
1412.000000	0.330703
1413.000000	0.330166
1414.000000	0.329704
1415.000000	0.329173
1416.000000	0.328878
1417.000000	0.328701
1418.000000	0.328493
1419.000000	0.328576
1420.000000	0.328595
1421.000000	0.328520
1422.000000	0.328466
1423.000000	0.328372
1424.000000	0.328148
1425.000000	0.327928
1426.000000	0.327617
1427.000000	0.327219
1428.000000	0.326822
1429.000000	0.326427
1430.000000	0.326086
1431.000000	0.325855
1432.000000	0.325654
1433.000000	0.325530
1434.000000	0.325502
1435.000000	0.325612
1436.000000	0.325768
1437.000000	0.325972
1438.000000	0.326355
1439.000000	0.326825
1440.000000	0.327540
1441.000000	0.328656
1442.000000	0.329577
1443.000000	0.330467
1444.000000	0.331403
1445.000000	0.332286
1446.000000	0.333072
1447.000000	0.333942
1448.000000	0.334690
1449.000000	0.335237
1450.000000	0.335714
1451.000000	0.336042
1452.000000	0.336288
1453.000000	0.336648
1454.000000	0.336837
1455.000000	0.337020
1456.000000	0.337327
1457.000000	0.337440
1458.000000	0.337584
1459.000000	0.337702
1460.000000	0.337721
1461.000000	0.337763
1462.000000	0.337730
1463.000000	0.337756
1464.000000	0.337890
1465.000000	0.338005
1466.000000	0.338114
1467.000000	0.338263
1468.000000	0.338447
1469.000000	0.338680
1470.000000	0.338842
1471.000000	0.339049
1472.000000	0.339216
1473.000000	0.339466
1474.000000	0.339721
1475.000000	0.339885
1476.000000	0.340143
1477.000000	0.340456
1478.000000	0.340698
1479.000000	0.341030
1480.000000	0.341398
1481.000000	0.341690
1482.000000	0.341979
1483.000000	0.342298
1484.000000	0.342642
1485.000000	0.342905
1486.000000	0.343056
1487.000000	0.343313
1488.000000	0.343614
1489.000000	0.343871
1490.000000	0.344081
1491.000000	0.344317
1492.000000	0.344385
1493.000000	0.344604
1494.000000	0.344926
1495.000000	0.345099
1496.000000	0.345230
1497.000000	0.345432
1498.000000	0.345629
1499.000000	0.345731
1500.000000	0.346075
1501.000000	0.346448
1502.000000	0.346593
1503.000000	0.346820
1504.000000	0.347014
1505.000000	0.347021
1506.000000	0.347191
1507.000000	0.347424
1508.000000	0.347550
1509.000000	0.347783
1510.000000	0.348013
1511.000000	0.348117
1512.000000	0.348222
1513.000000	0.348365
1514.000000	0.348524
1515.000000	0.348692
1516.000000	0.348892
1517.000000	0.348939
1518.000000	0.349002
1519.000000	0.349103
1520.000000	0.349210
1521.000000	0.349362
1522.000000	0.349544
1523.000000	0.349607
1524.000000	0.349578
1525.000000	0.349703
1526.000000	0.349770
1527.000000	0.349800
1528.000000	0.349984
1529.000000	0.350071
1530.000000	0.349943
1531.000000	0.349982
1532.000000	0.350025
1533.000000	0.350010
1534.000000	0.350235
1535.000000	0.350461
1536.000000	0.350584
1537.000000	0.350873
1538.000000	0.351108
1539.000000	0.351172
1540.000000	0.351268
1541.000000	0.351440
1542.000000	0.351588
1543.000000	0.351696
1544.000000	0.351743
1545.000000	0.351757
1546.000000	0.351822
1547.000000	0.351935
1548.000000	0.352088
1549.000000	0.352172
1550.000000	0.352104
1551.000000	0.352001
1552.000000	0.351979
1553.000000	0.351990
1554.000000	0.351980
1555.000000	0.351993
1556.000000	0.352000
1557.000000	0.351953
1558.000000	0.352030
1559.000000	0.352202
1560.000000	0.352206
1561.000000	0.352244
1562.000000	0.352217
1563.000000	0.352042
1564.000000	0.352041
1565.000000	0.352122
1566.000000	0.352109
1567.000000	0.352234
1568.000000	0.352297
1569.000000	0.352376
1570.000000	0.352449
1571.000000	0.352504
1572.000000	0.352565
1573.000000	0.352702
1574.000000	0.352747
1575.000000	0.352748
1576.000000	0.352759
1577.000000	0.352675
1578.000000	0.352592
1579.000000	0.352622
1580.000000	0.352605
1581.000000	0.352579
1582.000000	0.352573
1583.000000	0.352533
1584.000000	0.352486
1585.000000	0.352621
1586.000000	0.352659
1587.000000	0.352612
1588.000000	0.352660
1589.000000	0.352718
1590.000000	0.352774
1591.000000	0.352898
1592.000000	0.353047
1593.000000	0.353230
1594.000000	0.353332
1595.000000	0.353601
1596.000000	0.353694
1597.000000	0.353579
1598.000000	0.353650
1599.000000	0.353769
1600.000000	0.353801
1601.000000	0.354076
1602.000000	0.354142
1603.000000	0.354027
1604.000000	0.354013
1605.000000	0.353984
1606.000000	0.353945
1607.000000	0.354007
1608.000000	0.354018
1609.000000	0.354064
1610.000000	0.354091
1611.000000	0.354179
1612.000000	0.354111
1613.000000	0.353983
1614.000000	0.353956
1615.000000	0.353981
1616.000000	0.354015
1617.000000	0.354151
1618.000000	0.354118
1619.000000	0.353853
1620.000000	0.353817
1621.000000	0.353883
1622.000000	0.353980
1623.000000	0.354173
1624.000000	0.354242
1625.000000	0.354102
1626.000000	0.354026
1627.000000	0.353911
1628.000000	0.353945
1629.000000	0.354060
1630.000000	0.354174
1631.000000	0.354358
1632.000000	0.354370
1633.000000	0.354282
1634.000000	0.354224
1635.000000	0.354134
1636.000000	0.354077
1637.000000	0.354111
1638.000000	0.354034
1639.000000	0.353937
1640.000000	0.353807
1641.000000	0.353670
1642.000000	0.353615
1643.000000	0.353611
1644.000000	0.353641
1645.000000	0.353756
1646.000000	0.353762
1647.000000	0.353762
1648.000000	0.353754
1649.000000	0.353830
1650.000000	0.353912
1651.000000	0.354018
1652.000000	0.354199
1653.000000	0.354350
1654.000000	0.354534
1655.000000	0.354805
1656.000000	0.354784
1657.000000	0.354698
1658.000000	0.354646
1659.000000	0.354557
1660.000000	0.354553
1661.000000	0.354527
1662.000000	0.354513
1663.000000	0.354490
1664.000000	0.354419
1665.000000	0.354342
1666.000000	0.354347
1667.000000	0.354215
1668.000000	0.354196
1669.000000	0.354258
1670.000000	0.354257
1671.000000	0.354361
1672.000000	0.354444
1673.000000	0.354485
1674.000000	0.354648
1675.000000	0.354826
1676.000000	0.354834
1677.000000	0.354744
1678.000000	0.354482
1679.000000	0.354270
1680.000000	0.354333
1681.000000	0.354484
1682.000000	0.354611
1683.000000	0.354644
1684.000000	0.354518
1685.000000	0.354381
1686.000000	0.354379
1687.000000	0.354629
1688.000000	0.354760
1689.000000	0.354810
1690.000000	0.354804
1691.000000	0.354768
1692.000000	0.354861
1693.000000	0.355020
1694.000000	0.355094
1695.000000	0.355125
1696.000000	0.355049
1697.000000	0.354942
1698.000000	0.354781
1699.000000	0.354792
1700.000000	0.354938
1701.000000	0.355073
1702.000000	0.355111
1703.000000	0.355131
1704.000000	0.355193
1705.000000	0.355194
1706.000000	0.355224
1707.000000	0.355278
1708.000000	0.355274
1709.000000	0.355169
1710.000000	0.355234
1711.000000	0.355157
1712.000000	0.354871
1713.000000	0.354718
1714.000000	0.354537
1715.000000	0.354536
1716.000000	0.354742
1717.000000	0.354859
1718.000000	0.355059
1719.000000	0.355146
1720.000000	0.355268
1721.000000	0.355218
1722.000000	0.354986
1723.000000	0.354889
1724.000000	0.354703
1725.000000	0.354699
1726.000000	0.354863
1727.000000	0.354816
1728.000000	0.354641
1729.000000	0.354444
1730.000000	0.354173
1731.000000	0.354182
1732.000000	0.354398
1733.000000	0.354552
1734.000000	0.354733
1735.000000	0.354759
1736.000000	0.354654
1737.000000	0.354486
1738.000000	0.354204
1739.000000	0.354083
1740.000000	0.353879
1741.000000	0.353855
1742.000000	0.354073
1743.000000	0.354085
1744.000000	0.354061
1745.000000	0.353955
1746.000000	0.353700
1747.000000	0.353654
1748.000000	0.353561
1749.000000	0.353600
1750.000000	0.353506
1751.000000	0.353402
1752.000000	0.353454
1753.000000	0.353419
1754.000000	0.353336
1755.000000	0.353230
1756.000000	0.353119
1757.000000	0.352851
1758.000000	0.352770
1759.000000	0.352850
1760.000000	0.352847
1761.000000	0.352880
1762.000000	0.352823
1763.000000	0.352560
1764.000000	0.352586
1765.000000	0.352801
1766.000000	0.352837
1767.000000	0.352862
1768.000000	0.352837
1769.000000	0.352710
1770.000000	0.352715
1771.000000	0.352831
1772.000000	0.352832
1773.000000	0.352652
1774.000000	0.352662
1775.000000	0.352797
1776.000000	0.352914
1777.000000	0.353134
1778.000000	0.353158
1779.000000	0.353052
1780.000000	0.353051
1781.000000	0.352952
1782.000000	0.352908
1783.000000	0.353008
1784.000000	0.353018
1785.000000	0.352917
1786.000000	0.353064
1787.000000	0.353159
1788.000000	0.353141
1789.000000	0.353105
1790.000000	0.352995
1791.000000	0.352808
1792.000000	0.352673
1793.000000	0.352606
1794.000000	0.352464
1795.000000	0.352485
1796.000000	0.352781
1797.000000	0.352844
1798.000000	0.352855
1799.000000	0.352812
1800.000000	0.352546
1801.000000	0.352554
1802.000000	0.352440
1803.000000	0.353220
1804.000000	0.353730
1805.000000	0.354458
1806.000000	0.354876
1807.000000	0.355745
1808.000000	0.355914
1809.000000	0.355490
1810.000000	0.354912
1811.000000	0.354476
1812.000000	0.353614
1813.000000	0.353339
1814.000000	0.353263
1815.000000	0.353424
1816.000000	0.354344
1817.000000	0.354384
1818.000000	0.354028
1819.000000	0.354307
1820.000000	0.353949
1821.000000	0.353502
1822.000000	0.353060
1823.000000	0.352612
1824.000000	0.352060
1825.000000	0.350786
1826.000000	0.350576
1827.000000	0.350836
1828.000000	0.351008
1829.000000	0.351802
1830.000000	0.352484
1831.000000	0.352905
1832.000000	0.353036
1833.000000	0.353432
1834.000000	0.354149
1835.000000	0.354292
1836.000000	0.354372
1837.000000	0.354101
1838.000000	0.353139
1839.000000	0.351715
1840.000000	0.351504
1841.000000	0.351058
1842.000000	0.350848
1843.000000	0.351262
1844.000000	0.351417
1845.000000	0.351346
1846.000000	0.351356
1847.000000	0.351209
1848.000000	0.351235
1849.000000	0.351519
1850.000000	0.351104
1851.000000	0.350952
1852.000000	0.350941
1853.000000	0.350971
1854.000000	0.350597
1855.000000	0.350604
1856.000000	0.351282
1857.000000	0.350711
1858.000000	0.350118
1859.000000	0.349761
1860.000000	0.349093
1861.000000	0.348696
1862.000000	0.348073
1863.000000	0.347747
1864.000000	0.346914
1865.000000	0.345637
1866.000000	0.344606
1867.000000	0.343306
1868.000000	0.342062
1869.000000	0.341807
1870.000000	0.341124
1871.000000	0.340707
1872.000000	0.340877
1873.000000	0.340205
1874.000000	0.338712
1875.000000	0.337663
1876.000000	0.336353
1877.000000	0.334638
1878.000000	0.333193
1879.000000	0.331742
1880.000000	0.329964
1881.000000	0.327609
1882.000000	0.324913
1883.000000	0.322664
1884.000000	0.320648
1885.000000	0.318934
1886.000000	0.316697
1887.000000	0.314677
1888.000000	0.311865
1889.000000	0.308436
1890.000000	0.305086
1891.000000	0.301583
1892.000000	0.298191
1893.000000	0.295363
1894.000000	0.292088
1895.000000	0.288516
1896.000000	0.284938
1897.000000	0.281380
1898.000000	0.277266
1899.000000	0.274154
1900.000000	0.271818
1901.000000	0.269586
1902.000000	0.267845
1903.000000	0.266111
1904.000000	0.264211
1905.000000	0.262311
1906.000000	0.260583
1907.000000	0.258972
1908.000000	0.257382
1909.000000	0.256031
1910.000000	0.255468
1911.000000	0.255236
1912.000000	0.255031
1913.000000	0.255052
1914.000000	0.254945
1915.000000	0.254837
1916.000000	0.255243
1917.000000	0.255486
1918.000000	0.255999
1919.000000	0.256677
1920.000000	0.256914
1921.000000	0.256665
1922.000000	0.257378
1923.000000	0.258125
1924.000000	0.258853
1925.000000	0.260192
1926.000000	0.260352
1927.000000	0.260734
1928.000000	0.261146
1929.000000	0.261757
1930.000000	0.261358
1931.000000	0.261638
1932.000000	0.261741
1933.000000	0.261628
1934.000000	0.262433
1935.000000	0.263489
1936.000000	0.264593
1937.000000	0.265481
1938.000000	0.266078
1939.000000	0.266547
1940.000000	0.266773
1941.000000	0.267020
1942.000000	0.267216
1943.000000	0.267156
1944.000000	0.267394
1945.000000	0.267620
1946.000000	0.267626
1947.000000	0.267924
1948.000000	0.268389
1949.000000	0.268716
1950.000000	0.268934
1951.000000	0.269158
1952.000000	0.269480
1953.000000	0.269788
1954.000000	0.270135
1955.000000	0.270686
1956.000000	0.271318
1957.000000	0.271867
1958.000000	0.272292
1959.000000	0.272577
1960.000000	0.272378
1961.000000	0.272112
1962.000000	0.272016
1963.000000	0.271783
1964.000000	0.271792
1965.000000	0.272585
1966.000000	0.272962
1967.000000	0.273244
1968.000000	0.273723
1969.000000	0.273624
1970.000000	0.273926
1971.000000	0.273928
1972.000000	0.273795
1973.000000	0.273832
1974.000000	0.273778
1975.000000	0.273972
1976.000000	0.274473
1977.000000	0.275210
1978.000000	0.275767
1979.000000	0.276630
1980.000000	0.277551
1981.000000	0.278271
1982.000000	0.278703
1983.000000	0.279470
1984.000000	0.280096
1985.000000	0.280594
1986.000000	0.281134
1987.000000	0.281884
1988.000000	0.282447
1989.000000	0.282729
1990.000000	0.283306
1991.000000	0.283854
1992.000000	0.284283
1993.000000	0.285196
1994.000000	0.286076
1995.000000	0.286594
1996.000000	0.287073
1997.000000	0.287532
1998.000000	0.287829
1999.000000	0.288311
2000.000000	0.288860
2001.000000	0.289542
2002.000000	0.290198
2003.000000	0.290060
2004.000000	0.290545
2005.000000	0.290469
2006.000000	0.290355
2007.000000	0.291149
2008.000000	0.291588
2009.000000	0.291838
2010.000000	0.292589
2011.000000	0.293640
2012.000000	0.294260
2013.000000	0.294890
2014.000000	0.295119
2015.000000	0.295672
2016.000000	0.295472
2017.000000	0.296115
2018.000000	0.297052
2019.000000	0.297297
2020.000000	0.298299
2021.000000	0.299085
2022.000000	0.299736
2023.000000	0.300398
2024.000000	0.301165
2025.000000	0.301871
2026.000000	0.302400
2027.000000	0.302756
2028.000000	0.303376
2029.000000	0.304272
2030.000000	0.304617
2031.000000	0.304692
2032.000000	0.305240
2033.000000	0.305783
2034.000000	0.305964
2035.000000	0.306429
2036.000000	0.306500
2037.000000	0.305926
2038.000000	0.305779
2039.000000	0.305803
2040.000000	0.306026
2041.000000	0.306177
2042.000000	0.306515
2043.000000	0.306860
2044.000000	0.307055
2045.000000	0.307534
2046.000000	0.308143
2047.000000	0.308674
2048.000000	0.309215
2049.000000	0.309975
2050.000000	0.310533
2051.000000	0.310945
2052.000000	0.311498
2053.000000	0.311658
2054.000000	0.311740
2055.000000	0.311507
2056.000000	0.311525
2057.000000	0.311576
2058.000000	0.312416
2059.000000	0.313117
2060.000000	0.313382
2061.000000	0.313677
2062.000000	0.313929
2063.000000	0.313525
2064.000000	0.313586
2065.000000	0.314500
2066.000000	0.314708
2067.000000	0.314910
2068.000000	0.315202
2069.000000	0.315295
2070.000000	0.315002
2071.000000	0.314849
2072.000000	0.314955
2073.000000	0.314920
2074.000000	0.315268
2075.000000	0.315613
2076.000000	0.316043
2077.000000	0.316445
2078.000000	0.317093
2079.000000	0.317326
2080.000000	0.317398
2081.000000	0.317602
2082.000000	0.317666
2083.000000	0.317700
2084.000000	0.318443
2085.000000	0.318524
2086.000000	0.318479
2087.000000	0.318968
2088.000000	0.319255
2089.000000	0.319600
2090.000000	0.320004
2091.000000	0.320887
2092.000000	0.321186
2093.000000	0.321092
2094.000000	0.321157
2095.000000	0.321056
2096.000000	0.321134
2097.000000	0.321068
2098.000000	0.321569
2099.000000	0.321490
2100.000000	0.321825
2101.000000	0.322492
2102.000000	0.322902
2103.000000	0.323582
2104.000000	0.324070
2105.000000	0.324427
2106.000000	0.324402
2107.000000	0.324650
2108.000000	0.324981
2109.000000	0.325356
2110.000000	0.325671
2111.000000	0.325779
2112.000000	0.325856
2113.000000	0.325410
2114.000000	0.324960
2115.000000	0.324538
2116.000000	0.324551
2117.000000	0.324884
2118.000000	0.325035
2119.000000	0.326104
2120.000000	0.326321
2121.000000	0.326085
2122.000000	0.325764
2123.000000	0.324891
2124.000000	0.324464
2125.000000	0.324143
2126.000000	0.323963
2127.000000	0.324083
2128.000000	0.324290
2129.000000	0.324444
2130.000000	0.324825
2131.000000	0.324864
2132.000000	0.324518
2133.000000	0.325138
2134.000000	0.325893
2135.000000	0.326487
2136.000000	0.327462
2137.000000	0.327598
2138.000000	0.326603
2139.000000	0.326154
2140.000000	0.325834
2141.000000	0.325326
2142.000000	0.324239
2143.000000	0.323828
2144.000000	0.323917
2145.000000	0.323930
2146.000000	0.324435
2147.000000	0.325379
2148.000000	0.325669
2149.000000	0.325486
2150.000000	0.325233
2151.000000	0.325359
2152.000000	0.324468
2153.000000	0.323886
2154.000000	0.323951
2155.000000	0.324117
2156.000000	0.324653
2157.000000	0.326849
2158.000000	0.327093
2159.000000	0.326405
2160.000000	0.326010
2161.000000	0.324529
2162.000000	0.324041
2163.000000	0.324248
2164.000000	0.324041
2165.000000	0.323787
2166.000000	0.323255
2167.000000	0.324120
2168.000000	0.324406
2169.000000	0.325018
2170.000000	0.325635
2171.000000	0.325657
2172.000000	0.324795
2173.000000	0.324522
2174.000000	0.324375
2175.000000	0.324243
2176.000000	0.324230
2177.000000	0.323857
2178.000000	0.323054
2179.000000	0.322955
2180.000000	0.322468
2181.000000	0.323005
2182.000000	0.324202
2183.000000	0.325403
2184.000000	0.325864
2185.000000	0.326445
2186.000000	0.325494
2187.000000	0.324584
2188.000000	0.323416
2189.000000	0.320946
2190.000000	0.319615
2191.000000	0.318053
2192.000000	0.317289
2193.000000	0.317600
2194.000000	0.317659
2195.000000	0.318049
2196.000000	0.318837
2197.000000	0.320274
2198.000000	0.321044
2199.000000	0.322592
2200.000000	0.322858
2201.000000	0.321654
2202.000000	0.320620
2203.000000	0.317891
2204.000000	0.316627
2205.000000	0.316849
2206.000000	0.316725
2207.000000	0.316714
2208.000000	0.318274
2209.000000	0.318952
2210.000000	0.319198
2211.000000	0.321612
2212.000000	0.324213
2213.000000	0.325319
2214.000000	0.326428
2215.000000	0.325657
2216.000000	0.321836
2217.000000	0.320850
2218.000000	0.319581
2219.000000	0.319692
2220.000000	0.323114
2221.000000	0.323820
2222.000000	0.323067
2223.000000	0.322868
2224.000000	0.322046
2225.000000	0.320956
2226.000000	0.321995
2227.000000	0.323356
2228.000000	0.322975
2229.000000	0.321593
2230.000000	0.319092
2231.000000	0.319584
2232.000000	0.321161
2233.000000	0.323002
2234.000000	0.325187
2235.000000	0.322530
2236.000000	0.322165
2237.000000	0.322145
2238.000000	0.321699
2239.000000	0.321151
2240.000000	0.321345
2241.000000	0.321352
2242.000000	0.320377
2243.000000	0.319851
2244.000000	0.319210
2245.000000	0.316385
2246.000000	0.315930
2247.000000	0.317927
2248.000000	0.317863
2249.000000	0.318433
2250.000000	0.317281
2251.000000	0.314560
2252.000000	0.313598
2253.000000	0.312359
2254.000000	0.314027
2255.000000	0.316026
2256.000000	0.316557
2257.000000	0.317851
2258.000000	0.316742
2259.000000	0.314462
2260.000000	0.313184
2261.000000	0.312615
2262.000000	0.312643
2263.000000	0.312364
2264.000000	0.313830
2265.000000	0.311934
2266.000000	0.307475
2267.000000	0.305474
2268.000000	0.302666
2269.000000	0.301387
2270.000000	0.303049
2271.000000	0.301801
2272.000000	0.298790
2273.000000	0.296328
2274.000000	0.293296
2275.000000	0.290528
2276.000000	0.287695
2277.000000	0.285609
2278.000000	0.283303
2279.000000	0.281916
2280.000000	0.280188
2281.000000	0.279576
2282.000000	0.280310
2283.000000	0.279350
2284.000000	0.278846
2285.000000	0.278026
2286.000000	0.276528
2287.000000	0.276070
2288.000000	0.277634
2289.000000	0.279104
2290.000000	0.280712
2291.000000	0.284199
2292.000000	0.285718
2293.000000	0.286981
2294.000000	0.288632
2295.000000	0.289691
2296.000000	0.291182
2297.000000	0.293629
2298.000000	0.294989
2299.000000	0.297012
2300.000000	0.296607
2301.000000	0.293560
2302.000000	0.292359
2303.000000	0.289175
2304.000000	0.288768
2305.000000	0.291059
2306.000000	0.292598
2307.000000	0.295376
2308.000000	0.297861
2309.000000	0.297139
2310.000000	0.299312
2311.000000	0.299980
2312.000000	0.299888
2313.000000	0.302177
2314.000000	0.301302
2315.000000	0.300538
2316.000000	0.300530
2317.000000	0.299378
2318.000000	0.299210
2319.000000	0.297960
2320.000000	0.296684
2321.000000	0.295522
2322.000000	0.294283
2323.000000	0.295838
2324.000000	0.296234
2325.000000	0.295211
2326.000000	0.294217
2327.000000	0.293148
2328.000000	0.293829
2329.000000	0.296379
2330.000000	0.298695
2331.000000	0.298348
2332.000000	0.295309
2333.000000	0.291385
2334.000000	0.287182
2335.000000	0.285844
2336.000000	0.286560
2337.000000	0.288217
2338.000000	0.293530
2339.000000	0.295422
2340.000000	0.295784
2341.000000	0.294875
2342.000000	0.289751
2343.000000	0.289038
2344.000000	0.291379
2345.000000	0.293135
2346.000000	0.299276
2347.000000	0.299469
2348.000000	0.296513
2349.000000	0.292117
2350.000000	0.284431
2351.000000	0.279650
2352.000000	0.278369
2353.000000	0.276781
2354.000000	0.276313
2355.000000	0.276301
2356.000000	0.278372
2357.000000	0.277699
2358.000000	0.277809
2359.000000	0.281280
2360.000000	0.281443
2361.000000	0.283567
2362.000000	0.284318
2363.000000	0.279998
2364.000000	0.273799
2365.000000	0.269905
2366.000000	0.270212
2367.000000	0.273572
2368.000000	0.281256
2369.000000	0.284431
2370.000000	0.281152
2371.000000	0.275882
2372.000000	0.270332
2373.000000	0.266602
2374.000000	0.262240
2375.000000	0.259098
2376.000000	0.257284
2377.000000	0.255627
2378.000000	0.255082
2379.000000	0.256630
2380.000000	0.255337
2381.000000	0.253021
2382.000000	0.253652
2383.000000	0.256000
2384.000000	0.260742
2385.000000	0.262140
2386.000000	0.264867
2387.000000	0.264651
2388.000000	0.262031
2389.000000	0.261863
2390.000000	0.258662
2391.000000	0.256437
2392.000000	0.253126
2393.000000	0.254236
2394.000000	0.253624
2395.000000	0.254800
2396.000000	0.262880
2397.000000	0.265732
2398.000000	0.269194
2399.000000	0.267684
2400.000000	0.256262
2401.000000	0.244655
2402.000000	0.240747
2403.000000	0.240793
2404.000000	0.242397
2405.000000	0.250029
2406.000000	0.255653
2407.000000	0.255739
2408.000000	0.259359
2409.000000	0.258471
2410.000000	0.255246
2411.000000	0.257906
2412.000000	0.255271
2413.000000	0.254300
2414.000000	0.252174
2415.000000	0.246099
2416.000000	0.247171
2417.000000	0.248038
2418.000000	0.246445
2419.000000	0.249720
2420.000000	0.256611
2421.000000	0.259081
2422.000000	0.257310
2423.000000	0.255862
2424.000000	0.254022
2425.000000	0.249040
2426.000000	0.248300
2427.000000	0.250532
2428.000000	0.251192
2429.000000	0.250943
2430.000000	0.252223
2431.000000	0.261140
2432.000000	0.260231
2433.000000	0.268810
2434.000000	0.275737
2435.000000	0.259736
2436.000000	0.256215
2437.000000	0.249963
2438.000000	0.239961
2439.000000	0.244774
2440.000000	0.256940
2441.000000	0.265353
2442.000000	0.267307
2443.000000	0.261262
2444.000000	0.233165
2445.000000	0.214410
2446.000000	0.212152
2447.000000	0.217630
2448.000000	0.239208
2449.000000	0.248703
2450.000000	0.258363
2451.000000	0.264171
2452.000000	0.249735
2453.000000	0.248030
2454.000000	0.223443
2455.000000	0.185207
2456.000000	0.176516
2457.000000	0.164478
2458.000000	0.168434
2459.000000	0.196736
2460.000000	0.211581
2461.000000	0.221464
2462.000000	0.224357
2463.000000	0.219502
2464.000000	0.218255
2465.000000	0.213165
2466.000000	0.207765
2467.000000	0.212452
2468.000000	0.220771
2469.000000	0.223209
2470.000000	0.229876
2471.000000	0.225680
2472.000000	0.207990
2473.000000	0.210489
2474.000000	0.222506
2475.000000	0.230199
2476.000000	0.236355
2477.000000	0.219304
2478.000000	0.188089
2479.000000	0.180341
2480.000000	0.178630
2481.000000	0.179774
2482.000000	0.189229
2483.000000	0.174640
2484.000000	0.183126
2485.000000	0.209347
2486.000000	0.227055
2487.000000	0.258830
2488.000000	0.261992
2489.000000	0.248204
2490.000000	0.232418
2491.000000	0.255825
2492.000000	0.234273
2493.000000	0.197779
2494.000000	0.173879
2495.000000	0.077127
2496.000000	0.036605
2497.000000	0.038074
2498.000000	0.056430
2499.000000	0.144218
2500.000000	0.173355
