# Wavelength	NAu-1-20_HEX-50_FV7-30_00001.asd.rts.txt
350.000000	0.212694
351.000000	0.206034
352.000000	0.212851
353.000000	0.216441
354.000000	0.212010
355.000000	0.208028
356.000000	0.207392
357.000000	0.209255
358.000000	0.206857
359.000000	0.198016
360.000000	0.191110
361.000000	0.193965
362.000000	0.194652
363.000000	0.194519
364.000000	0.194711
365.000000	0.195096
366.000000	0.192031
367.000000	0.187439
368.000000	0.188534
369.000000	0.191822
370.000000	0.193358
371.000000	0.190260
372.000000	0.189304
373.000000	0.194334
374.000000	0.203705
375.000000	0.201671
376.000000	0.198309
377.000000	0.197710
378.000000	0.198804
379.000000	0.201873
380.000000	0.202432
381.000000	0.197127
382.000000	0.199576
383.000000	0.201708
384.000000	0.199058
385.000000	0.203329
386.000000	0.204864
387.000000	0.202895
388.000000	0.205733
389.000000	0.208620
390.000000	0.210309
391.000000	0.210536
392.000000	0.210654
393.000000	0.211894
394.000000	0.214154
395.000000	0.213193
396.000000	0.213146
397.000000	0.214978
398.000000	0.215674
399.000000	0.215937
400.000000	0.217018
401.000000	0.220161
402.000000	0.221321
403.000000	0.221478
404.000000	0.222190
405.000000	0.222535
406.000000	0.224015
407.000000	0.226403
408.000000	0.226150
409.000000	0.226120
410.000000	0.227239
411.000000	0.229406
412.000000	0.230220
413.000000	0.230351
414.000000	0.230952
415.000000	0.231102
416.000000	0.231378
417.000000	0.232048
418.000000	0.232505
419.000000	0.233031
420.000000	0.233719
421.000000	0.234536
422.000000	0.234969
423.000000	0.235064
424.000000	0.235128
425.000000	0.235014
426.000000	0.235155
427.000000	0.235720
428.000000	0.236023
429.000000	0.236186
430.000000	0.236322
431.000000	0.236531
432.000000	0.236694
433.000000	0.236687
434.000000	0.236508
435.000000	0.236525
436.000000	0.236815
437.000000	0.237235
438.000000	0.237070
439.000000	0.236831
440.000000	0.236891
441.000000	0.236970
442.000000	0.237095
443.000000	0.236970
444.000000	0.236218
445.000000	0.236406
446.000000	0.237047
447.000000	0.237080
448.000000	0.237559
449.000000	0.238194
450.000000	0.238777
451.000000	0.239614
452.000000	0.240963
453.000000	0.242596
454.000000	0.243918
455.000000	0.245318
456.000000	0.246850
457.000000	0.248300
458.000000	0.249942
459.000000	0.251589
460.000000	0.253051
461.000000	0.254177
462.000000	0.255264
463.000000	0.256306
464.000000	0.257260
465.000000	0.258178
466.000000	0.258958
467.000000	0.259544
468.000000	0.260359
469.000000	0.261096
470.000000	0.261521
471.000000	0.261931
472.000000	0.262380
473.000000	0.262890
474.000000	0.263363
475.000000	0.263773
476.000000	0.264304
477.000000	0.265045
478.000000	0.265389
479.000000	0.265722
480.000000	0.266420
481.000000	0.266815
482.000000	0.267137
483.000000	0.267479
484.000000	0.267992
485.000000	0.268355
486.000000	0.268646
487.000000	0.269073
488.000000	0.269420
489.000000	0.269816
490.000000	0.270600
491.000000	0.271114
492.000000	0.271440
493.000000	0.271728
494.000000	0.272185
495.000000	0.272755
496.000000	0.273310
497.000000	0.273784
498.000000	0.274295
499.000000	0.274882
500.000000	0.275273
501.000000	0.275756
502.000000	0.276355
503.000000	0.276885
504.000000	0.277422
505.000000	0.277940
506.000000	0.278424
507.000000	0.278937
508.000000	0.279546
509.000000	0.280193
510.000000	0.280725
511.000000	0.281229
512.000000	0.281802
513.000000	0.282511
514.000000	0.283055
515.000000	0.283595
516.000000	0.284331
517.000000	0.285052
518.000000	0.285715
519.000000	0.286261
520.000000	0.286948
521.000000	0.287530
522.000000	0.288000
523.000000	0.288715
524.000000	0.289410
525.000000	0.290051
526.000000	0.290763
527.000000	0.291495
528.000000	0.292150
529.000000	0.292728
530.000000	0.293458
531.000000	0.294304
532.000000	0.295085
533.000000	0.295684
534.000000	0.296326
535.000000	0.297060
536.000000	0.297820
537.000000	0.298562
538.000000	0.299277
539.000000	0.299959
540.000000	0.300607
541.000000	0.301294
542.000000	0.302082
543.000000	0.302724
544.000000	0.303432
545.000000	0.304209
546.000000	0.304926
547.000000	0.305580
548.000000	0.306253
549.000000	0.306988
550.000000	0.307662
551.000000	0.308367
552.000000	0.309160
553.000000	0.309788
554.000000	0.310411
555.000000	0.311159
556.000000	0.311922
557.000000	0.312574
558.000000	0.313228
559.000000	0.313911
560.000000	0.314571
561.000000	0.315247
562.000000	0.315851
563.000000	0.316486
564.000000	0.317133
565.000000	0.317646
566.000000	0.318176
567.000000	0.318754
568.000000	0.319338
569.000000	0.319824
570.000000	0.320340
571.000000	0.320900
572.000000	0.321449
573.000000	0.322022
574.000000	0.322521
575.000000	0.322900
576.000000	0.323448
577.000000	0.323939
578.000000	0.324278
579.000000	0.324755
580.000000	0.325242
581.000000	0.325656
582.000000	0.325989
583.000000	0.326323
584.000000	0.326692
585.000000	0.327098
586.000000	0.327454
587.000000	0.327757
588.000000	0.328034
589.000000	0.328322
590.000000	0.328574
591.000000	0.328793
592.000000	0.329137
593.000000	0.329401
594.000000	0.329566
595.000000	0.329815
596.000000	0.330060
597.000000	0.330333
598.000000	0.330585
599.000000	0.330739
600.000000	0.330913
601.000000	0.331121
602.000000	0.331360
603.000000	0.331488
604.000000	0.331520
605.000000	0.331726
606.000000	0.331913
607.000000	0.332055
608.000000	0.332209
609.000000	0.332385
610.000000	0.332544
611.000000	0.332653
612.000000	0.332822
613.000000	0.333045
614.000000	0.333301
615.000000	0.333378
616.000000	0.333401
617.000000	0.333452
618.000000	0.333717
619.000000	0.333816
620.000000	0.333791
621.000000	0.333901
622.000000	0.333989
623.000000	0.334049
624.000000	0.334101
625.000000	0.334216
626.000000	0.334343
627.000000	0.334448
628.000000	0.334493
629.000000	0.334642
630.000000	0.334777
631.000000	0.334952
632.000000	0.335109
633.000000	0.335233
634.000000	0.335327
635.000000	0.335553
636.000000	0.335811
637.000000	0.335999
638.000000	0.336099
639.000000	0.336268
640.000000	0.336529
641.000000	0.336606
642.000000	0.336708
643.000000	0.336860
644.000000	0.337035
645.000000	0.337210
646.000000	0.337368
647.000000	0.337496
648.000000	0.337726
649.000000	0.337927
650.000000	0.338064
651.000000	0.338291
652.000000	0.338466
653.000000	0.338627
654.000000	0.338793
655.000000	0.338934
656.000000	0.339164
657.000000	0.339487
658.000000	0.339729
659.000000	0.339939
660.000000	0.340138
661.000000	0.340350
662.000000	0.340530
663.000000	0.340741
664.000000	0.340987
665.000000	0.341204
666.000000	0.341396
667.000000	0.341562
668.000000	0.341822
669.000000	0.342103
670.000000	0.342355
671.000000	0.342579
672.000000	0.342856
673.000000	0.343180
674.000000	0.343509
675.000000	0.343734
676.000000	0.343903
677.000000	0.344133
678.000000	0.344442
679.000000	0.344748
680.000000	0.345008
681.000000	0.345241
682.000000	0.345549
683.000000	0.345845
684.000000	0.346106
685.000000	0.346302
686.000000	0.346534
687.000000	0.346863
688.000000	0.347114
689.000000	0.347340
690.000000	0.347638
691.000000	0.347984
692.000000	0.348332
693.000000	0.348708
694.000000	0.349011
695.000000	0.349273
696.000000	0.349530
697.000000	0.349822
698.000000	0.350138
699.000000	0.350471
700.000000	0.350822
701.000000	0.351157
702.000000	0.351501
703.000000	0.351830
704.000000	0.352111
705.000000	0.352393
706.000000	0.352635
707.000000	0.352878
708.000000	0.353217
709.000000	0.353566
710.000000	0.353868
711.000000	0.354161
712.000000	0.354432
713.000000	0.354694
714.000000	0.354932
715.000000	0.355248
716.000000	0.355597
717.000000	0.355844
718.000000	0.356086
719.000000	0.356359
720.000000	0.356688
721.000000	0.357031
722.000000	0.357339
723.000000	0.357647
724.000000	0.357870
725.000000	0.358107
726.000000	0.358406
727.000000	0.358612
728.000000	0.358866
729.000000	0.359172
730.000000	0.359446
731.000000	0.359689
732.000000	0.359920
733.000000	0.360189
734.000000	0.360457
735.000000	0.360693
736.000000	0.361001
737.000000	0.361241
738.000000	0.361421
739.000000	0.361671
740.000000	0.361889
741.000000	0.362165
742.000000	0.362407
743.000000	0.362577
744.000000	0.362797
745.000000	0.362940
746.000000	0.363056
747.000000	0.363149
748.000000	0.363381
749.000000	0.363616
750.000000	0.363727
751.000000	0.363861
752.000000	0.364011
753.000000	0.364174
754.000000	0.364316
755.000000	0.364496
756.000000	0.364681
757.000000	0.364770
758.000000	0.364836
759.000000	0.364921
760.000000	0.364981
761.000000	0.365127
762.000000	0.365234
763.000000	0.365303
764.000000	0.365499
765.000000	0.365591
766.000000	0.365621
767.000000	0.365655
768.000000	0.365626
769.000000	0.365650
770.000000	0.365742
771.000000	0.365747
772.000000	0.365797
773.000000	0.365819
774.000000	0.365831
775.000000	0.365858
776.000000	0.365904
777.000000	0.365933
778.000000	0.365897
779.000000	0.365876
780.000000	0.365869
781.000000	0.365765
782.000000	0.365731
783.000000	0.365780
784.000000	0.365695
785.000000	0.365697
786.000000	0.365672
787.000000	0.365583
788.000000	0.365600
789.000000	0.365618
790.000000	0.365577
791.000000	0.365498
792.000000	0.365468
793.000000	0.365441
794.000000	0.365380
795.000000	0.365323
796.000000	0.365313
797.000000	0.365303
798.000000	0.365170
799.000000	0.365112
800.000000	0.365077
801.000000	0.364971
802.000000	0.364941
803.000000	0.364908
804.000000	0.364857
805.000000	0.364772
806.000000	0.364609
807.000000	0.364484
808.000000	0.364396
809.000000	0.364252
810.000000	0.364151
811.000000	0.364118
812.000000	0.363927
813.000000	0.363794
814.000000	0.363760
815.000000	0.363735
816.000000	0.363630
817.000000	0.363487
818.000000	0.363274
819.000000	0.363043
820.000000	0.362930
821.000000	0.362881
822.000000	0.362753
823.000000	0.362693
824.000000	0.362604
825.000000	0.362466
826.000000	0.362354
827.000000	0.362214
828.000000	0.362079
829.000000	0.362014
830.000000	0.361918
831.000000	0.361826
832.000000	0.361652
833.000000	0.361473
834.000000	0.361295
835.000000	0.361141
836.000000	0.360920
837.000000	0.360779
838.000000	0.360708
839.000000	0.360526
840.000000	0.360403
841.000000	0.360325
842.000000	0.360197
843.000000	0.360032
844.000000	0.359911
845.000000	0.359824
846.000000	0.359743
847.000000	0.359559
848.000000	0.359350
849.000000	0.359241
850.000000	0.359041
851.000000	0.358834
852.000000	0.358711
853.000000	0.358637
854.000000	0.358454
855.000000	0.358292
856.000000	0.358144
857.000000	0.358014
858.000000	0.357949
859.000000	0.357852
860.000000	0.357673
861.000000	0.357493
862.000000	0.357357
863.000000	0.357203
864.000000	0.357098
865.000000	0.357006
866.000000	0.356903
867.000000	0.356695
868.000000	0.356479
869.000000	0.356255
870.000000	0.356106
871.000000	0.355922
872.000000	0.355688
873.000000	0.355380
874.000000	0.355197
875.000000	0.354912
876.000000	0.354609
877.000000	0.354416
878.000000	0.354291
879.000000	0.354271
880.000000	0.354180
881.000000	0.353993
882.000000	0.353790
883.000000	0.353619
884.000000	0.353438
885.000000	0.353323
886.000000	0.353122
887.000000	0.352835
888.000000	0.352672
889.000000	0.352509
890.000000	0.352259
891.000000	0.352083
892.000000	0.351692
893.000000	0.351468
894.000000	0.351576
895.000000	0.351277
896.000000	0.351008
897.000000	0.350818
898.000000	0.350637
899.000000	0.350458
900.000000	0.350320
901.000000	0.350185
902.000000	0.350056
903.000000	0.349879
904.000000	0.349691
905.000000	0.349459
906.000000	0.349463
907.000000	0.349272
908.000000	0.348921
909.000000	0.348757
910.000000	0.348680
911.000000	0.348625
912.000000	0.348525
913.000000	0.348208
914.000000	0.347884
915.000000	0.347686
916.000000	0.347489
917.000000	0.347419
918.000000	0.347367
919.000000	0.347203
920.000000	0.346924
921.000000	0.346689
922.000000	0.346541
923.000000	0.346406
924.000000	0.346148
925.000000	0.345904
926.000000	0.345780
927.000000	0.345641
928.000000	0.345442
929.000000	0.345240
930.000000	0.345105
931.000000	0.344916
932.000000	0.344618
933.000000	0.344373
934.000000	0.344424
935.000000	0.344324
936.000000	0.344188
937.000000	0.344091
938.000000	0.344105
939.000000	0.343955
940.000000	0.343602
941.000000	0.343342
942.000000	0.343081
943.000000	0.342940
944.000000	0.342777
945.000000	0.342418
946.000000	0.342119
947.000000	0.342063
948.000000	0.342202
949.000000	0.342045
950.000000	0.341784
951.000000	0.341550
952.000000	0.341510
953.000000	0.341459
954.000000	0.341371
955.000000	0.341181
956.000000	0.340949
957.000000	0.340725
958.000000	0.340475
959.000000	0.340280
960.000000	0.340166
961.000000	0.339977
962.000000	0.339730
963.000000	0.339715
964.000000	0.339558
965.000000	0.339292
966.000000	0.338949
967.000000	0.338880
968.000000	0.338766
969.000000	0.338484
970.000000	0.338204
971.000000	0.338166
972.000000	0.338214
973.000000	0.338146
974.000000	0.337974
975.000000	0.337911
976.000000	0.337747
977.000000	0.337397
978.000000	0.337462
979.000000	0.337345
980.000000	0.336957
981.000000	0.336930
982.000000	0.336861
983.000000	0.336791
984.000000	0.336802
985.000000	0.336808
986.000000	0.336563
987.000000	0.336513
988.000000	0.336727
989.000000	0.336611
990.000000	0.336479
991.000000	0.336434
992.000000	0.336531
993.000000	0.336668
994.000000	0.336645
995.000000	0.336528
996.000000	0.336203
997.000000	0.336405
998.000000	0.336363
999.000000	0.335997
1000.000000	0.336200
1001.000000	0.335239
1002.000000	0.336244
1003.000000	0.337077
1004.000000	0.336785
1005.000000	0.336169
1006.000000	0.335840
1007.000000	0.334725
1008.000000	0.333518
1009.000000	0.333693
1010.000000	0.334229
1011.000000	0.334506
1012.000000	0.335002
1013.000000	0.335238
1014.000000	0.334979
1015.000000	0.334451
1016.000000	0.333735
1017.000000	0.333352
1018.000000	0.334006
1019.000000	0.334351
1020.000000	0.335190
1021.000000	0.335083
1022.000000	0.334458
1023.000000	0.334698
1024.000000	0.334703
1025.000000	0.335414
1026.000000	0.336355
1027.000000	0.336102
1028.000000	0.335931
1029.000000	0.336122
1030.000000	0.335963
1031.000000	0.336041
1032.000000	0.336633
1033.000000	0.337030
1034.000000	0.337228
1035.000000	0.337860
1036.000000	0.338035
1037.000000	0.337357
1038.000000	0.337146
1039.000000	0.337058
1040.000000	0.337406
1041.000000	0.337729
1042.000000	0.338024
1043.000000	0.338101
1044.000000	0.338111
1045.000000	0.338290
1046.000000	0.338127
1047.000000	0.338231
1048.000000	0.338548
1049.000000	0.338621
1050.000000	0.338424
1051.000000	0.338771
1052.000000	0.339376
1053.000000	0.339613
1054.000000	0.340418
1055.000000	0.340702
1056.000000	0.340487
1057.000000	0.340255
1058.000000	0.340167
1059.000000	0.340478
1060.000000	0.340834
1061.000000	0.341206
1062.000000	0.341841
1063.000000	0.342260
1064.000000	0.342670
1065.000000	0.342956
1066.000000	0.343451
1067.000000	0.343994
1068.000000	0.344427
1069.000000	0.345175
1070.000000	0.345520
1071.000000	0.345471
1072.000000	0.345453
1073.000000	0.345185
1074.000000	0.345255
1075.000000	0.345315
1076.000000	0.345347
1077.000000	0.345618
1078.000000	0.345956
1079.000000	0.346292
1080.000000	0.346836
1081.000000	0.347176
1082.000000	0.347433
1083.000000	0.347827
1084.000000	0.348296
1085.000000	0.348785
1086.000000	0.349630
1087.000000	0.349952
1088.000000	0.349488
1089.000000	0.349673
1090.000000	0.349961
1091.000000	0.350283
1092.000000	0.350508
1093.000000	0.350713
1094.000000	0.350994
1095.000000	0.350708
1096.000000	0.351012
1097.000000	0.352069
1098.000000	0.352454
1099.000000	0.352362
1100.000000	0.352704
1101.000000	0.352980
1102.000000	0.353338
1103.000000	0.353955
1104.000000	0.354452
1105.000000	0.354769
1106.000000	0.355292
1107.000000	0.356282
1108.000000	0.356602
1109.000000	0.356669
1110.000000	0.356567
1111.000000	0.356764
1112.000000	0.356577
1113.000000	0.356885
1114.000000	0.357858
1115.000000	0.358291
1116.000000	0.358567
1117.000000	0.358770
1118.000000	0.358764
1119.000000	0.358875
1120.000000	0.358949
1121.000000	0.359045
1122.000000	0.359275
1123.000000	0.359714
1124.000000	0.359999
1125.000000	0.360283
1126.000000	0.360610
1127.000000	0.360835
1128.000000	0.360986
1129.000000	0.360990
1130.000000	0.361244
1131.000000	0.361639
1132.000000	0.361824
1133.000000	0.362172
1134.000000	0.362284
1135.000000	0.362049
1136.000000	0.361997
1137.000000	0.361888
1138.000000	0.361858
1139.000000	0.361958
1140.000000	0.362173
1141.000000	0.362509
1142.000000	0.362723
1143.000000	0.362746
1144.000000	0.363077
1145.000000	0.363436
1146.000000	0.363534
1147.000000	0.363647
1148.000000	0.363751
1149.000000	0.363839
1150.000000	0.363707
1151.000000	0.363856
1152.000000	0.364163
1153.000000	0.364352
1154.000000	0.364497
1155.000000	0.364659
1156.000000	0.364796
1157.000000	0.364955
1158.000000	0.365211
1159.000000	0.365266
1160.000000	0.365147
1161.000000	0.365098
1162.000000	0.364992
1163.000000	0.365017
1164.000000	0.365296
1165.000000	0.365379
1166.000000	0.365529
1167.000000	0.365718
1168.000000	0.365748
1169.000000	0.365669
1170.000000	0.365742
1171.000000	0.365782
1172.000000	0.366023
1173.000000	0.366506
1174.000000	0.366717
1175.000000	0.366873
1176.000000	0.366959
1177.000000	0.366983
1178.000000	0.366976
1179.000000	0.366937
1180.000000	0.366846
1181.000000	0.366717
1182.000000	0.366631
1183.000000	0.366636
1184.000000	0.366812
1185.000000	0.366909
1186.000000	0.367043
1187.000000	0.367123
1188.000000	0.367213
1189.000000	0.367187
1190.000000	0.367068
1191.000000	0.367158
1192.000000	0.367439
1193.000000	0.367670
1194.000000	0.367925
1195.000000	0.368064
1196.000000	0.367903
1197.000000	0.367935
1198.000000	0.368128
1199.000000	0.368256
1200.000000	0.368430
1201.000000	0.368502
1202.000000	0.368568
1203.000000	0.368522
1204.000000	0.368547
1205.000000	0.368650
1206.000000	0.368631
1207.000000	0.368674
1208.000000	0.368712
1209.000000	0.368733
1210.000000	0.368861
1211.000000	0.369143
1212.000000	0.369227
1213.000000	0.369329
1214.000000	0.369414
1215.000000	0.369334
1216.000000	0.369370
1217.000000	0.369479
1218.000000	0.369479
1219.000000	0.369458
1220.000000	0.369496
1221.000000	0.369535
1222.000000	0.369472
1223.000000	0.369520
1224.000000	0.369578
1225.000000	0.369430
1226.000000	0.369451
1227.000000	0.369476
1228.000000	0.369610
1229.000000	0.369678
1230.000000	0.369844
1231.000000	0.369777
1232.000000	0.369659
1233.000000	0.369723
1234.000000	0.369786
1235.000000	0.369857
1236.000000	0.369909
1237.000000	0.369989
1238.000000	0.369983
1239.000000	0.369954
1240.000000	0.369964
1241.000000	0.369935
1242.000000	0.369741
1243.000000	0.369840
1244.000000	0.369997
1245.000000	0.370183
1246.000000	0.370390
1247.000000	0.370442
1248.000000	0.370444
1249.000000	0.370654
1250.000000	0.370768
1251.000000	0.370852
1252.000000	0.370887
1253.000000	0.370819
1254.000000	0.370810
1255.000000	0.370826
1256.000000	0.370852
1257.000000	0.370963
1258.000000	0.371012
1259.000000	0.370937
1260.000000	0.370936
1261.000000	0.370851
1262.000000	0.370812
1263.000000	0.370805
1264.000000	0.370835
1265.000000	0.370881
1266.000000	0.370841
1267.000000	0.370839
1268.000000	0.370729
1269.000000	0.370671
1270.000000	0.370853
1271.000000	0.370967
1272.000000	0.371181
1273.000000	0.371346
1274.000000	0.371267
1275.000000	0.371296
1276.000000	0.371414
1277.000000	0.371449
1278.000000	0.371331
1279.000000	0.371260
1280.000000	0.371000
1281.000000	0.370821
1282.000000	0.370866
1283.000000	0.370913
1284.000000	0.370823
1285.000000	0.370786
1286.000000	0.370868
1287.000000	0.370589
1288.000000	0.370450
1289.000000	0.370587
1290.000000	0.370482
1291.000000	0.370466
1292.000000	0.370615
1293.000000	0.370727
1294.000000	0.370864
1295.000000	0.371056
1296.000000	0.371111
1297.000000	0.370980
1298.000000	0.370930
1299.000000	0.370855
1300.000000	0.370850
1301.000000	0.370985
1302.000000	0.370899
1303.000000	0.370866
1304.000000	0.370758
1305.000000	0.370561
1306.000000	0.370431
1307.000000	0.370447
1308.000000	0.370383
1309.000000	0.370292
1310.000000	0.370239
1311.000000	0.370137
1312.000000	0.370150
1313.000000	0.370265
1314.000000	0.370077
1315.000000	0.369835
1316.000000	0.369807
1317.000000	0.369802
1318.000000	0.369740
1319.000000	0.369716
1320.000000	0.369666
1321.000000	0.369545
1322.000000	0.369469
1323.000000	0.369453
1324.000000	0.369267
1325.000000	0.368977
1326.000000	0.368955
1327.000000	0.368851
1328.000000	0.368795
1329.000000	0.368625
1330.000000	0.368257
1331.000000	0.368102
1332.000000	0.368159
1333.000000	0.368091
1334.000000	0.368221
1335.000000	0.368235
1336.000000	0.368010
1337.000000	0.367861
1338.000000	0.367684
1339.000000	0.367536
1340.000000	0.367336
1341.000000	0.367263
1342.000000	0.367213
1343.000000	0.367102
1344.000000	0.366990
1345.000000	0.366833
1346.000000	0.366727
1347.000000	0.366424
1348.000000	0.366034
1349.000000	0.365745
1350.000000	0.365583
1351.000000	0.365400
1352.000000	0.365281
1353.000000	0.365117
1354.000000	0.364873
1355.000000	0.364681
1356.000000	0.364745
1357.000000	0.364725
1358.000000	0.364465
1359.000000	0.364177
1360.000000	0.363972
1361.000000	0.363677
1362.000000	0.363533
1363.000000	0.363647
1364.000000	0.363584
1365.000000	0.363413
1366.000000	0.363233
1367.000000	0.363008
1368.000000	0.362727
1369.000000	0.362547
1370.000000	0.362375
1371.000000	0.362167
1372.000000	0.361879
1373.000000	0.361576
1374.000000	0.361202
1375.000000	0.360844
1376.000000	0.360621
1377.000000	0.360357
1378.000000	0.360070
1379.000000	0.359660
1380.000000	0.359231
1381.000000	0.358809
1382.000000	0.358348
1383.000000	0.358029
1384.000000	0.357511
1385.000000	0.356802
1386.000000	0.356317
1387.000000	0.355758
1388.000000	0.355185
1389.000000	0.354702
1390.000000	0.354092
1391.000000	0.353354
1392.000000	0.352542
1393.000000	0.351745
1394.000000	0.350972
1395.000000	0.350106
1396.000000	0.349264
1397.000000	0.348356
1398.000000	0.347245
1399.000000	0.346249
1400.000000	0.345245
1401.000000	0.344201
1402.000000	0.343207
1403.000000	0.342209
1404.000000	0.341242
1405.000000	0.340286
1406.000000	0.339212
1407.000000	0.338167
1408.000000	0.336908
1409.000000	0.335662
1410.000000	0.334543
1411.000000	0.333307
1412.000000	0.332141
1413.000000	0.331051
1414.000000	0.330074
1415.000000	0.329231
1416.000000	0.328318
1417.000000	0.327518
1418.000000	0.326570
1419.000000	0.325588
1420.000000	0.324817
1421.000000	0.324091
1422.000000	0.323322
1423.000000	0.322576
1424.000000	0.321611
1425.000000	0.320602
1426.000000	0.319595
1427.000000	0.318610
1428.000000	0.317717
1429.000000	0.316942
1430.000000	0.316274
1431.000000	0.315600
1432.000000	0.314914
1433.000000	0.314248
1434.000000	0.313682
1435.000000	0.313213
1436.000000	0.312780
1437.000000	0.312456
1438.000000	0.312115
1439.000000	0.311767
1440.000000	0.311550
1441.000000	0.311485
1442.000000	0.311357
1443.000000	0.311180
1444.000000	0.311079
1445.000000	0.311003
1446.000000	0.310946
1447.000000	0.310902
1448.000000	0.310840
1449.000000	0.310626
1450.000000	0.310429
1451.000000	0.310333
1452.000000	0.310123
1453.000000	0.309999
1454.000000	0.309877
1455.000000	0.309605
1456.000000	0.309422
1457.000000	0.309347
1458.000000	0.309240
1459.000000	0.309147
1460.000000	0.309085
1461.000000	0.308898
1462.000000	0.308686
1463.000000	0.308503
1464.000000	0.308392
1465.000000	0.308361
1466.000000	0.308262
1467.000000	0.308203
1468.000000	0.308239
1469.000000	0.308350
1470.000000	0.308337
1471.000000	0.308320
1472.000000	0.308315
1473.000000	0.308358
1474.000000	0.308520
1475.000000	0.308777
1476.000000	0.309055
1477.000000	0.309391
1478.000000	0.309673
1479.000000	0.309844
1480.000000	0.310082
1481.000000	0.310307
1482.000000	0.310489
1483.000000	0.310777
1484.000000	0.311104
1485.000000	0.311502
1486.000000	0.312012
1487.000000	0.312433
1488.000000	0.312949
1489.000000	0.313400
1490.000000	0.313561
1491.000000	0.313924
1492.000000	0.314321
1493.000000	0.314719
1494.000000	0.315229
1495.000000	0.315536
1496.000000	0.315668
1497.000000	0.316007
1498.000000	0.316382
1499.000000	0.316669
1500.000000	0.317142
1501.000000	0.317525
1502.000000	0.317703
1503.000000	0.318081
1504.000000	0.318495
1505.000000	0.318760
1506.000000	0.319047
1507.000000	0.319243
1508.000000	0.319483
1509.000000	0.319809
1510.000000	0.320184
1511.000000	0.320571
1512.000000	0.320909
1513.000000	0.321236
1514.000000	0.321392
1515.000000	0.321497
1516.000000	0.321642
1517.000000	0.321667
1518.000000	0.321813
1519.000000	0.321913
1520.000000	0.321974
1521.000000	0.322035
1522.000000	0.322054
1523.000000	0.322219
1524.000000	0.322338
1525.000000	0.322461
1526.000000	0.322770
1527.000000	0.322971
1528.000000	0.323107
1529.000000	0.323286
1530.000000	0.323252
1531.000000	0.323305
1532.000000	0.323473
1533.000000	0.323527
1534.000000	0.323530
1535.000000	0.323512
1536.000000	0.323448
1537.000000	0.323509
1538.000000	0.323645
1539.000000	0.323637
1540.000000	0.323578
1541.000000	0.323591
1542.000000	0.323691
1543.000000	0.323895
1544.000000	0.324151
1545.000000	0.324371
1546.000000	0.324458
1547.000000	0.324481
1548.000000	0.324491
1549.000000	0.324467
1550.000000	0.324402
1551.000000	0.324385
1552.000000	0.324442
1553.000000	0.324390
1554.000000	0.324410
1555.000000	0.324528
1556.000000	0.324569
1557.000000	0.324679
1558.000000	0.324745
1559.000000	0.324708
1560.000000	0.324708
1561.000000	0.324728
1562.000000	0.324768
1563.000000	0.324926
1564.000000	0.324913
1565.000000	0.324803
1566.000000	0.324706
1567.000000	0.324634
1568.000000	0.324607
1569.000000	0.324718
1570.000000	0.324735
1571.000000	0.324646
1572.000000	0.324654
1573.000000	0.324726
1574.000000	0.324774
1575.000000	0.324911
1576.000000	0.324930
1577.000000	0.324838
1578.000000	0.324779
1579.000000	0.324729
1580.000000	0.324717
1581.000000	0.324811
1582.000000	0.324851
1583.000000	0.324890
1584.000000	0.324877
1585.000000	0.324879
1586.000000	0.324936
1587.000000	0.325029
1588.000000	0.325068
1589.000000	0.325119
1590.000000	0.325195
1591.000000	0.325232
1592.000000	0.325286
1593.000000	0.325488
1594.000000	0.325537
1595.000000	0.325522
1596.000000	0.325606
1597.000000	0.325705
1598.000000	0.325722
1599.000000	0.325799
1600.000000	0.325801
1601.000000	0.325737
1602.000000	0.325795
1603.000000	0.326018
1604.000000	0.326064
1605.000000	0.326104
1606.000000	0.326077
1607.000000	0.325908
1608.000000	0.325884
1609.000000	0.326041
1610.000000	0.326046
1611.000000	0.326038
1612.000000	0.326016
1613.000000	0.325941
1614.000000	0.325965
1615.000000	0.326210
1616.000000	0.326324
1617.000000	0.326323
1618.000000	0.326374
1619.000000	0.326373
1620.000000	0.326392
1621.000000	0.326470
1622.000000	0.326670
1623.000000	0.326863
1624.000000	0.326983
1625.000000	0.327088
1626.000000	0.327108
1627.000000	0.327004
1628.000000	0.327061
1629.000000	0.327101
1630.000000	0.327256
1631.000000	0.327472
1632.000000	0.327612
1633.000000	0.327880
1634.000000	0.327992
1635.000000	0.327987
1636.000000	0.328038
1637.000000	0.328086
1638.000000	0.328111
1639.000000	0.328165
1640.000000	0.328282
1641.000000	0.328439
1642.000000	0.328641
1643.000000	0.329017
1644.000000	0.329251
1645.000000	0.329455
1646.000000	0.329590
1647.000000	0.329699
1648.000000	0.329744
1649.000000	0.329779
1650.000000	0.329924
1651.000000	0.330100
1652.000000	0.330335
1653.000000	0.330617
1654.000000	0.330907
1655.000000	0.331155
1656.000000	0.331319
1657.000000	0.331580
1658.000000	0.331753
1659.000000	0.331954
1660.000000	0.332169
1661.000000	0.332299
1662.000000	0.332384
1663.000000	0.332351
1664.000000	0.332461
1665.000000	0.332624
1666.000000	0.332830
1667.000000	0.332996
1668.000000	0.333262
1669.000000	0.333527
1670.000000	0.333722
1671.000000	0.334188
1672.000000	0.334414
1673.000000	0.334377
1674.000000	0.334537
1675.000000	0.334715
1676.000000	0.334839
1677.000000	0.335034
1678.000000	0.335106
1679.000000	0.335126
1680.000000	0.335115
1681.000000	0.335074
1682.000000	0.335123
1683.000000	0.335120
1684.000000	0.335003
1685.000000	0.335156
1686.000000	0.335379
1687.000000	0.335486
1688.000000	0.335665
1689.000000	0.335781
1690.000000	0.335760
1691.000000	0.335878
1692.000000	0.336036
1693.000000	0.336228
1694.000000	0.336373
1695.000000	0.336502
1696.000000	0.336534
1697.000000	0.336535
1698.000000	0.336480
1699.000000	0.336548
1700.000000	0.336724
1701.000000	0.336922
1702.000000	0.337007
1703.000000	0.337080
1704.000000	0.337231
1705.000000	0.337297
1706.000000	0.337414
1707.000000	0.337455
1708.000000	0.337324
1709.000000	0.337224
1710.000000	0.337163
1711.000000	0.337184
1712.000000	0.337317
1713.000000	0.337393
1714.000000	0.337532
1715.000000	0.337681
1716.000000	0.337796
1717.000000	0.337958
1718.000000	0.338216
1719.000000	0.338322
1720.000000	0.338382
1721.000000	0.338505
1722.000000	0.338580
1723.000000	0.338677
1724.000000	0.338950
1725.000000	0.339026
1726.000000	0.338812
1727.000000	0.338817
1728.000000	0.338783
1729.000000	0.338702
1730.000000	0.338855
1731.000000	0.338893
1732.000000	0.338786
1733.000000	0.338925
1734.000000	0.339106
1735.000000	0.339146
1736.000000	0.339171
1737.000000	0.339156
1738.000000	0.339009
1739.000000	0.339008
1740.000000	0.339037
1741.000000	0.339155
1742.000000	0.339338
1743.000000	0.339611
1744.000000	0.340038
1745.000000	0.340178
1746.000000	0.340272
1747.000000	0.340082
1748.000000	0.339925
1749.000000	0.339698
1750.000000	0.339551
1751.000000	0.339586
1752.000000	0.339739
1753.000000	0.339916
1754.000000	0.340040
1755.000000	0.340129
1756.000000	0.340208
1757.000000	0.340233
1758.000000	0.340305
1759.000000	0.340380
1760.000000	0.340474
1761.000000	0.340557
1762.000000	0.340624
1763.000000	0.340743
1764.000000	0.340807
1765.000000	0.340773
1766.000000	0.340802
1767.000000	0.340737
1768.000000	0.340705
1769.000000	0.340784
1770.000000	0.340932
1771.000000	0.341157
1772.000000	0.341215
1773.000000	0.341142
1774.000000	0.341203
1775.000000	0.341351
1776.000000	0.341310
1777.000000	0.341235
1778.000000	0.341164
1779.000000	0.340772
1780.000000	0.340831
1781.000000	0.341197
1782.000000	0.341361
1783.000000	0.341638
1784.000000	0.341868
1785.000000	0.341966
1786.000000	0.342177
1787.000000	0.342614
1788.000000	0.342959
1789.000000	0.343017
1790.000000	0.342717
1791.000000	0.342660
1792.000000	0.342665
1793.000000	0.342739
1794.000000	0.343211
1795.000000	0.343437
1796.000000	0.343419
1797.000000	0.343550
1798.000000	0.343745
1799.000000	0.343774
1800.000000	0.343922
1801.000000	0.344067
1802.000000	0.344026
1803.000000	0.343347
1804.000000	0.343187
1805.000000	0.343371
1806.000000	0.343332
1807.000000	0.343020
1808.000000	0.343057
1809.000000	0.343196
1810.000000	0.343293
1811.000000	0.343826
1812.000000	0.345091
1813.000000	0.345536
1814.000000	0.346157
1815.000000	0.346210
1816.000000	0.345355
1817.000000	0.344764
1818.000000	0.343609
1819.000000	0.343529
1820.000000	0.343973
1821.000000	0.344271
1822.000000	0.344701
1823.000000	0.346102
1824.000000	0.346108
1825.000000	0.345276
1826.000000	0.344750
1827.000000	0.343667
1828.000000	0.342055
1829.000000	0.342168
1830.000000	0.343143
1831.000000	0.343658
1832.000000	0.345348
1833.000000	0.345601
1834.000000	0.344730
1835.000000	0.344376
1836.000000	0.343389
1837.000000	0.343135
1838.000000	0.342954
1839.000000	0.343670
1840.000000	0.343811
1841.000000	0.343581
1842.000000	0.343396
1843.000000	0.342602
1844.000000	0.342191
1845.000000	0.341880
1846.000000	0.341720
1847.000000	0.341544
1848.000000	0.341536
1849.000000	0.341082
1850.000000	0.340544
1851.000000	0.340051
1852.000000	0.338899
1853.000000	0.338687
1854.000000	0.338889
1855.000000	0.338929
1856.000000	0.339478
1857.000000	0.339427
1858.000000	0.338886
1859.000000	0.337932
1860.000000	0.336319
1861.000000	0.334779
1862.000000	0.333336
1863.000000	0.331610
1864.000000	0.330621
1865.000000	0.330086
1866.000000	0.329486
1867.000000	0.329413
1868.000000	0.328999
1869.000000	0.328169
1870.000000	0.326604
1871.000000	0.325284
1872.000000	0.324343
1873.000000	0.322733
1874.000000	0.321262
1875.000000	0.319308
1876.000000	0.316577
1877.000000	0.313022
1878.000000	0.310557
1879.000000	0.307178
1880.000000	0.304705
1881.000000	0.303269
1882.000000	0.300918
1883.000000	0.298949
1884.000000	0.296715
1885.000000	0.293868
1886.000000	0.290821
1887.000000	0.287596
1888.000000	0.284427
1889.000000	0.280668
1890.000000	0.277381
1891.000000	0.274140
1892.000000	0.270915
1893.000000	0.267923
1894.000000	0.264250
1895.000000	0.260190
1896.000000	0.255669
1897.000000	0.251454
1898.000000	0.247045
1899.000000	0.243369
1900.000000	0.240914
1901.000000	0.237808
1902.000000	0.234088
1903.000000	0.231227
1904.000000	0.228369
1905.000000	0.224848
1906.000000	0.221799
1907.000000	0.219403
1908.000000	0.216369
1909.000000	0.213325
1910.000000	0.211870
1911.000000	0.209830
1912.000000	0.207589
1913.000000	0.205877
1914.000000	0.203551
1915.000000	0.201182
1916.000000	0.199965
1917.000000	0.198598
1918.000000	0.197454
1919.000000	0.196009
1920.000000	0.195337
1921.000000	0.194143
1922.000000	0.192830
1923.000000	0.192688
1924.000000	0.192403
1925.000000	0.191807
1926.000000	0.191761
1927.000000	0.191607
1928.000000	0.191228
1929.000000	0.190446
1930.000000	0.190859
1931.000000	0.191080
1932.000000	0.190415
1933.000000	0.190370
1934.000000	0.190029
1935.000000	0.189918
1936.000000	0.190613
1937.000000	0.191083
1938.000000	0.191190
1939.000000	0.191171
1940.000000	0.190758
1941.000000	0.190164
1942.000000	0.190066
1943.000000	0.190198
1944.000000	0.190055
1945.000000	0.190201
1946.000000	0.190501
1947.000000	0.190362
1948.000000	0.190428
1949.000000	0.189960
1950.000000	0.189060
1951.000000	0.188352
1952.000000	0.187677
1953.000000	0.186763
1954.000000	0.186397
1955.000000	0.185957
1956.000000	0.185718
1957.000000	0.185724
1958.000000	0.185087
1959.000000	0.185055
1960.000000	0.185148
1961.000000	0.184996
1962.000000	0.185107
1963.000000	0.185797
1964.000000	0.186067
1965.000000	0.186128
1966.000000	0.186438
1967.000000	0.186169
1968.000000	0.186231
1969.000000	0.186227
1970.000000	0.186227
1971.000000	0.186888
1972.000000	0.187094
1973.000000	0.187350
1974.000000	0.187882
1975.000000	0.188016
1976.000000	0.187790
1977.000000	0.188029
1978.000000	0.187886
1979.000000	0.187818
1980.000000	0.187958
1981.000000	0.188149
1982.000000	0.189044
1983.000000	0.189543
1984.000000	0.190049
1985.000000	0.190953
1986.000000	0.191462
1987.000000	0.191462
1988.000000	0.192107
1989.000000	0.192787
1990.000000	0.193252
1991.000000	0.193850
1992.000000	0.194126
1993.000000	0.194762
1994.000000	0.195196
1995.000000	0.195355
1996.000000	0.195882
1997.000000	0.196366
1998.000000	0.196706
1999.000000	0.197338
2000.000000	0.198372
2001.000000	0.198866
2002.000000	0.199693
2003.000000	0.200899
2004.000000	0.201764
2005.000000	0.202931
2006.000000	0.204206
2007.000000	0.204695
2008.000000	0.205848
2009.000000	0.207669
2010.000000	0.208766
2011.000000	0.209825
2012.000000	0.210649
2013.000000	0.210788
2014.000000	0.210890
2015.000000	0.211873
2016.000000	0.212951
2017.000000	0.214574
2018.000000	0.215567
2019.000000	0.216404
2020.000000	0.217651
2021.000000	0.218511
2022.000000	0.219037
2023.000000	0.220225
2024.000000	0.221599
2025.000000	0.222542
2026.000000	0.223492
2027.000000	0.224493
2028.000000	0.225109
2029.000000	0.225888
2030.000000	0.227514
2031.000000	0.228154
2032.000000	0.228203
2033.000000	0.229170
2034.000000	0.229773
2035.000000	0.230039
2036.000000	0.230818
2037.000000	0.232088
2038.000000	0.232996
2039.000000	0.234048
2040.000000	0.235160
2041.000000	0.235622
2042.000000	0.235503
2043.000000	0.235397
2044.000000	0.235056
2045.000000	0.234840
2046.000000	0.235428
2047.000000	0.236119
2048.000000	0.236980
2049.000000	0.238342
2050.000000	0.240232
2051.000000	0.241405
2052.000000	0.242635
2053.000000	0.243433
2054.000000	0.243712
2055.000000	0.244399
2056.000000	0.245183
2057.000000	0.245668
2058.000000	0.245727
2059.000000	0.245774
2060.000000	0.246090
2061.000000	0.246164
2062.000000	0.246748
2063.000000	0.248021
2064.000000	0.248832
2065.000000	0.249825
2066.000000	0.250694
2067.000000	0.251601
2068.000000	0.252770
2069.000000	0.253699
2070.000000	0.254290
2071.000000	0.254962
2072.000000	0.255223
2073.000000	0.255781
2074.000000	0.256250
2075.000000	0.256756
2076.000000	0.257364
2077.000000	0.257838
2078.000000	0.258272
2079.000000	0.258697
2080.000000	0.259070
2081.000000	0.259526
2082.000000	0.259995
2083.000000	0.260206
2084.000000	0.261325
2085.000000	0.262323
2086.000000	0.263012
2087.000000	0.264249
2088.000000	0.264830
2089.000000	0.265285
2090.000000	0.266096
2091.000000	0.267060
2092.000000	0.268230
2093.000000	0.270071
2094.000000	0.271043
2095.000000	0.272076
2096.000000	0.272702
2097.000000	0.272729
2098.000000	0.272334
2099.000000	0.271721
2100.000000	0.271203
2101.000000	0.271627
2102.000000	0.272528
2103.000000	0.273600
2104.000000	0.274711
2105.000000	0.275631
2106.000000	0.275892
2107.000000	0.276760
2108.000000	0.278313
2109.000000	0.279221
2110.000000	0.279514
2111.000000	0.280249
2112.000000	0.281047
2113.000000	0.281194
2114.000000	0.282306
2115.000000	0.283196
2116.000000	0.282858
2117.000000	0.283010
2118.000000	0.282998
2119.000000	0.282606
2120.000000	0.282745
2121.000000	0.283330
2122.000000	0.283892
2123.000000	0.284495
2124.000000	0.285202
2125.000000	0.286457
2126.000000	0.286968
2127.000000	0.287463
2128.000000	0.287676
2129.000000	0.287081
2130.000000	0.286636
2131.000000	0.286460
2132.000000	0.286638
2133.000000	0.287861
2134.000000	0.287957
2135.000000	0.287806
2136.000000	0.287843
2137.000000	0.287664
2138.000000	0.287168
2139.000000	0.287091
2140.000000	0.287044
2141.000000	0.287028
2142.000000	0.287019
2143.000000	0.286847
2144.000000	0.286777
2145.000000	0.287055
2146.000000	0.287779
2147.000000	0.288296
2148.000000	0.288638
2149.000000	0.289371
2150.000000	0.289396
2151.000000	0.288988
2152.000000	0.288094
2153.000000	0.287402
2154.000000	0.286894
2155.000000	0.285891
2156.000000	0.286043
2157.000000	0.287544
2158.000000	0.287775
2159.000000	0.288091
2160.000000	0.288226
2161.000000	0.287213
2162.000000	0.287120
2163.000000	0.287808
2164.000000	0.287937
2165.000000	0.287876
2166.000000	0.288328
2167.000000	0.287807
2168.000000	0.286947
2169.000000	0.286989
2170.000000	0.286716
2171.000000	0.286687
2172.000000	0.287387
2173.000000	0.287332
2174.000000	0.286759
2175.000000	0.286610
2176.000000	0.286159
2177.000000	0.286343
2178.000000	0.287082
2179.000000	0.287690
2180.000000	0.289154
2181.000000	0.289674
2182.000000	0.289002
2183.000000	0.288581
2184.000000	0.288147
2185.000000	0.286948
2186.000000	0.285881
2187.000000	0.285920
2188.000000	0.285188
2189.000000	0.284988
2190.000000	0.285306
2191.000000	0.285180
2192.000000	0.285101
2193.000000	0.284627
2194.000000	0.284414
2195.000000	0.285104
2196.000000	0.284248
2197.000000	0.282219
2198.000000	0.281196
2199.000000	0.278529
2200.000000	0.278185
2201.000000	0.280175
2202.000000	0.281499
2203.000000	0.283644
2204.000000	0.286769
2205.000000	0.285880
2206.000000	0.286347
2207.000000	0.286936
2208.000000	0.285301
2209.000000	0.287050
2210.000000	0.288935
2211.000000	0.287875
2212.000000	0.285628
2213.000000	0.283057
2214.000000	0.276436
2215.000000	0.275930
2216.000000	0.279026
2217.000000	0.280674
2218.000000	0.286135
2219.000000	0.287369
2220.000000	0.284175
2221.000000	0.283577
2222.000000	0.282758
2223.000000	0.282921
2224.000000	0.283569
2225.000000	0.286591
2226.000000	0.288917
2227.000000	0.290407
2228.000000	0.291672
2229.000000	0.290765
2230.000000	0.289098
2231.000000	0.287393
2232.000000	0.286245
2233.000000	0.286308
2234.000000	0.287335
2235.000000	0.288603
2236.000000	0.289332
2237.000000	0.290233
2238.000000	0.290968
2239.000000	0.291887
2240.000000	0.291292
2241.000000	0.288931
2242.000000	0.288671
2243.000000	0.287491
2244.000000	0.288385
2245.000000	0.293521
2246.000000	0.294577
2247.000000	0.294559
2248.000000	0.293795
2249.000000	0.290021
2250.000000	0.288668
2251.000000	0.286039
2252.000000	0.282838
2253.000000	0.282511
2254.000000	0.281820
2255.000000	0.282511
2256.000000	0.286848
2257.000000	0.289592
2258.000000	0.288973
2259.000000	0.288858
2260.000000	0.288136
2261.000000	0.288244
2262.000000	0.288812
2263.000000	0.289306
2264.000000	0.290098
2265.000000	0.290209
2266.000000	0.290464
2267.000000	0.289415
2268.000000	0.288453
2269.000000	0.287043
2270.000000	0.282912
2271.000000	0.280326
2272.000000	0.278144
2273.000000	0.275748
2274.000000	0.274663
2275.000000	0.273433
2276.000000	0.271960
2277.000000	0.270306
2278.000000	0.268689
2279.000000	0.265416
2280.000000	0.264620
2281.000000	0.262837
2282.000000	0.261536
2283.000000	0.262555
2284.000000	0.263706
2285.000000	0.266326
2286.000000	0.268259
2287.000000	0.268930
2288.000000	0.269009
2289.000000	0.267364
2290.000000	0.265755
2291.000000	0.265597
2292.000000	0.265098
2293.000000	0.265232
2294.000000	0.264681
2295.000000	0.265056
2296.000000	0.262974
2297.000000	0.256749
2298.000000	0.256416
2299.000000	0.258498
2300.000000	0.260008
2301.000000	0.266079
2302.000000	0.268123
2303.000000	0.267172
2304.000000	0.266495
2305.000000	0.264938
2306.000000	0.263195
2307.000000	0.260048
2308.000000	0.258196
2309.000000	0.257562
2310.000000	0.257939
2311.000000	0.259198
2312.000000	0.260380
2313.000000	0.260106
2314.000000	0.256408
2315.000000	0.254474
2316.000000	0.253265
2317.000000	0.251801
2318.000000	0.254558
2319.000000	0.255440
2320.000000	0.254952
2321.000000	0.255332
2322.000000	0.256234
2323.000000	0.257665
2324.000000	0.256584
2325.000000	0.255516
2326.000000	0.252777
2327.000000	0.249550
2328.000000	0.249078
2329.000000	0.248457
2330.000000	0.248691
2331.000000	0.250522
2332.000000	0.249388
2333.000000	0.245283
2334.000000	0.240562
2335.000000	0.238244
2336.000000	0.234253
2337.000000	0.235142
2338.000000	0.243166
2339.000000	0.244474
2340.000000	0.243755
2341.000000	0.241734
2342.000000	0.233961
2343.000000	0.232668
2344.000000	0.235799
2345.000000	0.236232
2346.000000	0.239636
2347.000000	0.239893
2348.000000	0.236639
2349.000000	0.233822
2350.000000	0.233501
2351.000000	0.229141
2352.000000	0.226391
2353.000000	0.224958
2354.000000	0.220406
2355.000000	0.218236
2356.000000	0.215217
2357.000000	0.213194
2358.000000	0.213499
2359.000000	0.212937
2360.000000	0.216130
2361.000000	0.216746
2362.000000	0.214985
2363.000000	0.215130
2364.000000	0.212694
2365.000000	0.214279
2366.000000	0.216368
2367.000000	0.218221
2368.000000	0.219000
2369.000000	0.216129
2370.000000	0.214261
2371.000000	0.210715
2372.000000	0.209550
2373.000000	0.208674
2374.000000	0.208406
2375.000000	0.211157
2376.000000	0.211281
2377.000000	0.210359
2378.000000	0.206486
2379.000000	0.201191
2380.000000	0.200092
2381.000000	0.199147
2382.000000	0.200013
2383.000000	0.199856
2384.000000	0.195154
2385.000000	0.192228
2386.000000	0.189431
2387.000000	0.190083
2388.000000	0.194239
2389.000000	0.195315
2390.000000	0.195739
2391.000000	0.193048
2392.000000	0.186180
2393.000000	0.183195
2394.000000	0.181362
2395.000000	0.180526
2396.000000	0.183786
2397.000000	0.186466
2398.000000	0.188520
2399.000000	0.186630
2400.000000	0.183962
2401.000000	0.187313
2402.000000	0.190287
2403.000000	0.191845
2404.000000	0.196792
2405.000000	0.189102
2406.000000	0.180708
2407.000000	0.181974
2408.000000	0.170362
2409.000000	0.168824
2410.000000	0.170970
2411.000000	0.163895
2412.000000	0.174279
2413.000000	0.184934
2414.000000	0.188121
2415.000000	0.191865
2416.000000	0.190497
2417.000000	0.182790
2418.000000	0.172223
2419.000000	0.166855
2420.000000	0.159830
2421.000000	0.153442
2422.000000	0.162130
2423.000000	0.177376
2424.000000	0.186195
2425.000000	0.191932
2426.000000	0.188732
2427.000000	0.174676
2428.000000	0.173348
2429.000000	0.183973
2430.000000	0.182994
2431.000000	0.184083
2432.000000	0.187564
2433.000000	0.172385
2434.000000	0.162895
2435.000000	0.157985
2436.000000	0.150634
2437.000000	0.157267
2438.000000	0.162987
2439.000000	0.170865
2440.000000	0.175393
2441.000000	0.168010
2442.000000	0.170867
2443.000000	0.171678
2444.000000	0.167044
2445.000000	0.167996
2446.000000	0.167512
2447.000000	0.153103
2448.000000	0.144538
2449.000000	0.149790
2450.000000	0.140381
2451.000000	0.142737
2452.000000	0.162954
2453.000000	0.167177
2454.000000	0.170357
2455.000000	0.180086
2456.000000	0.165778
2457.000000	0.142518
2458.000000	0.131311
2459.000000	0.118362
2460.000000	0.117136
2461.000000	0.116852
2462.000000	0.107758
2463.000000	0.104178
2464.000000	0.097880
2465.000000	0.101685
2466.000000	0.114672
2467.000000	0.112677
2468.000000	0.112837
2469.000000	0.123960
2470.000000	0.119747
2471.000000	0.128774
2472.000000	0.143300
2473.000000	0.130750
2474.000000	0.131846
2475.000000	0.142431
2476.000000	0.141418
2477.000000	0.129534
2478.000000	0.134931
2479.000000	0.139632
2480.000000	0.112523
2481.000000	0.126814
2482.000000	0.129865
2483.000000	0.110993
2484.000000	0.149543
2485.000000	0.155782
2486.000000	0.128336
2487.000000	0.112695
2488.000000	0.073565
2489.000000	0.043510
2490.000000	0.045421
2491.000000	0.053770
2492.000000	0.060874
2493.000000	0.104262
2494.000000	0.113149
2495.000000	0.093839
2496.000000	0.084361
2497.000000	0.020818
2498.000000	0.012474
2499.000000	0.055333
2500.000000	0.064065
