# Wavelength	NAu-2-10_HEX-50_FV7-40_00001.asd.rts.txt
350.000000	0.192711
351.000000	0.190143
352.000000	0.167029
353.000000	0.154095
354.000000	0.165216
355.000000	0.177693
356.000000	0.179237
357.000000	0.172721
358.000000	0.168893
359.000000	0.171647
360.000000	0.181026
361.000000	0.192849
362.000000	0.185267
363.000000	0.176297
364.000000	0.178249
365.000000	0.186342
366.000000	0.185572
367.000000	0.178153
368.000000	0.181688
369.000000	0.184522
370.000000	0.184076
371.000000	0.181250
372.000000	0.184432
373.000000	0.185217
374.000000	0.180714
375.000000	0.185908
376.000000	0.187736
377.000000	0.184698
378.000000	0.186138
379.000000	0.189430
380.000000	0.191142
381.000000	0.189121
382.000000	0.190268
383.000000	0.192187
384.000000	0.192548
385.000000	0.190941
386.000000	0.191538
387.000000	0.193832
388.000000	0.191768
389.000000	0.192188
390.000000	0.194001
391.000000	0.193442
392.000000	0.192001
393.000000	0.192108
394.000000	0.194400
395.000000	0.193272
396.000000	0.194479
397.000000	0.198100
398.000000	0.196514
399.000000	0.195126
400.000000	0.194850
401.000000	0.194894
402.000000	0.196203
403.000000	0.197948
404.000000	0.199209
405.000000	0.199151
406.000000	0.198959
407.000000	0.199341
408.000000	0.200251
409.000000	0.200501
410.000000	0.200415
411.000000	0.201165
412.000000	0.201681
413.000000	0.202024
414.000000	0.202358
415.000000	0.201656
416.000000	0.201324
417.000000	0.201984
418.000000	0.202239
419.000000	0.202978
420.000000	0.203978
421.000000	0.204044
422.000000	0.204349
423.000000	0.204778
424.000000	0.204930
425.000000	0.204934
426.000000	0.205111
427.000000	0.205589
428.000000	0.205966
429.000000	0.206083
430.000000	0.206094
431.000000	0.206586
432.000000	0.207186
433.000000	0.207441
434.000000	0.207012
435.000000	0.207556
436.000000	0.208445
437.000000	0.208760
438.000000	0.208588
439.000000	0.208356
440.000000	0.208459
441.000000	0.209045
442.000000	0.209369
443.000000	0.209353
444.000000	0.209532
445.000000	0.209717
446.000000	0.209888
447.000000	0.209945
448.000000	0.210233
449.000000	0.210521
450.000000	0.210754
451.000000	0.211527
452.000000	0.212247
453.000000	0.212564
454.000000	0.212507
455.000000	0.212752
456.000000	0.213239
457.000000	0.213455
458.000000	0.213836
459.000000	0.214247
460.000000	0.214553
461.000000	0.214770
462.000000	0.215037
463.000000	0.215327
464.000000	0.215790
465.000000	0.216204
466.000000	0.216441
467.000000	0.216548
468.000000	0.216814
469.000000	0.217051
470.000000	0.217150
471.000000	0.217354
472.000000	0.217543
473.000000	0.217674
474.000000	0.217885
475.000000	0.218177
476.000000	0.218571
477.000000	0.218793
478.000000	0.218978
479.000000	0.219309
480.000000	0.219668
481.000000	0.219825
482.000000	0.219997
483.000000	0.220211
484.000000	0.220406
485.000000	0.220665
486.000000	0.221078
487.000000	0.221226
488.000000	0.221271
489.000000	0.221441
490.000000	0.222024
491.000000	0.222284
492.000000	0.222419
493.000000	0.222689
494.000000	0.222701
495.000000	0.222867
496.000000	0.223359
497.000000	0.223655
498.000000	0.223852
499.000000	0.224090
500.000000	0.224404
501.000000	0.224772
502.000000	0.225074
503.000000	0.225090
504.000000	0.225281
505.000000	0.225505
506.000000	0.225604
507.000000	0.225912
508.000000	0.226319
509.000000	0.226689
510.000000	0.226967
511.000000	0.227333
512.000000	0.227758
513.000000	0.227997
514.000000	0.228280
515.000000	0.228588
516.000000	0.228799
517.000000	0.229173
518.000000	0.229632
519.000000	0.229998
520.000000	0.230243
521.000000	0.230663
522.000000	0.231245
523.000000	0.231462
524.000000	0.231726
525.000000	0.232094
526.000000	0.232503
527.000000	0.233005
528.000000	0.233477
529.000000	0.233853
530.000000	0.234320
531.000000	0.234872
532.000000	0.235412
533.000000	0.235978
534.000000	0.236535
535.000000	0.237071
536.000000	0.237633
537.000000	0.238213
538.000000	0.238792
539.000000	0.239332
540.000000	0.239840
541.000000	0.240309
542.000000	0.240775
543.000000	0.241299
544.000000	0.241806
545.000000	0.242222
546.000000	0.242676
547.000000	0.243195
548.000000	0.243778
549.000000	0.244304
550.000000	0.244793
551.000000	0.245276
552.000000	0.245758
553.000000	0.246430
554.000000	0.247096
555.000000	0.247656
556.000000	0.248410
557.000000	0.249083
558.000000	0.249737
559.000000	0.250561
560.000000	0.251245
561.000000	0.251860
562.000000	0.252522
563.000000	0.253148
564.000000	0.253808
565.000000	0.254467
566.000000	0.255056
567.000000	0.255606
568.000000	0.256146
569.000000	0.256754
570.000000	0.257360
571.000000	0.257911
572.000000	0.258385
573.000000	0.258784
574.000000	0.259167
575.000000	0.259640
576.000000	0.259956
577.000000	0.260226
578.000000	0.260607
579.000000	0.260949
580.000000	0.261228
581.000000	0.261452
582.000000	0.261683
583.000000	0.261931
584.000000	0.262197
585.000000	0.262465
586.000000	0.262699
587.000000	0.262897
588.000000	0.263071
589.000000	0.263203
590.000000	0.263334
591.000000	0.263480
592.000000	0.263563
593.000000	0.263725
594.000000	0.263939
595.000000	0.264005
596.000000	0.264063
597.000000	0.264172
598.000000	0.264268
599.000000	0.264288
600.000000	0.264298
601.000000	0.264296
602.000000	0.264321
603.000000	0.264312
604.000000	0.264262
605.000000	0.264241
606.000000	0.264154
607.000000	0.264058
608.000000	0.264101
609.000000	0.264054
610.000000	0.263930
611.000000	0.263826
612.000000	0.263876
613.000000	0.263934
614.000000	0.263930
615.000000	0.263908
616.000000	0.263927
617.000000	0.263966
618.000000	0.264004
619.000000	0.264073
620.000000	0.264118
621.000000	0.264117
622.000000	0.264119
623.000000	0.264185
624.000000	0.264320
625.000000	0.264317
626.000000	0.264324
627.000000	0.264415
628.000000	0.264531
629.000000	0.264664
630.000000	0.264731
631.000000	0.264865
632.000000	0.264905
633.000000	0.264921
634.000000	0.264989
635.000000	0.265057
636.000000	0.265081
637.000000	0.265052
638.000000	0.265090
639.000000	0.265188
640.000000	0.265343
641.000000	0.265394
642.000000	0.265446
643.000000	0.265526
644.000000	0.265642
645.000000	0.265795
646.000000	0.265964
647.000000	0.266104
648.000000	0.266201
649.000000	0.266361
650.000000	0.266597
651.000000	0.266865
652.000000	0.267032
653.000000	0.267155
654.000000	0.267309
655.000000	0.267481
656.000000	0.267678
657.000000	0.267864
658.000000	0.268113
659.000000	0.268438
660.000000	0.268781
661.000000	0.268998
662.000000	0.269220
663.000000	0.269506
664.000000	0.269785
665.000000	0.270088
666.000000	0.270403
667.000000	0.270690
668.000000	0.271037
669.000000	0.271380
670.000000	0.271694
671.000000	0.272059
672.000000	0.272404
673.000000	0.272731
674.000000	0.273118
675.000000	0.273495
676.000000	0.273862
677.000000	0.274251
678.000000	0.274636
679.000000	0.275017
680.000000	0.275414
681.000000	0.275859
682.000000	0.276310
683.000000	0.276688
684.000000	0.277084
685.000000	0.277490
686.000000	0.277929
687.000000	0.278378
688.000000	0.278842
689.000000	0.279317
690.000000	0.279826
691.000000	0.280325
692.000000	0.280793
693.000000	0.281291
694.000000	0.281815
695.000000	0.282358
696.000000	0.282904
697.000000	0.283439
698.000000	0.284015
699.000000	0.284584
700.000000	0.285113
701.000000	0.285643
702.000000	0.286177
703.000000	0.286717
704.000000	0.287326
705.000000	0.287928
706.000000	0.288486
707.000000	0.289068
708.000000	0.289691
709.000000	0.290284
710.000000	0.290822
711.000000	0.291415
712.000000	0.292020
713.000000	0.292630
714.000000	0.293245
715.000000	0.293798
716.000000	0.294316
717.000000	0.294847
718.000000	0.295412
719.000000	0.295993
720.000000	0.296581
721.000000	0.297151
722.000000	0.297694
723.000000	0.298262
724.000000	0.298813
725.000000	0.299323
726.000000	0.299864
727.000000	0.300383
728.000000	0.300864
729.000000	0.301389
730.000000	0.301957
731.000000	0.302495
732.000000	0.303040
733.000000	0.303607
734.000000	0.304066
735.000000	0.304524
736.000000	0.305068
737.000000	0.305527
738.000000	0.305955
739.000000	0.306412
740.000000	0.306779
741.000000	0.307195
742.000000	0.307613
743.000000	0.308002
744.000000	0.308435
745.000000	0.308794
746.000000	0.309134
747.000000	0.309466
748.000000	0.309820
749.000000	0.310206
750.000000	0.310575
751.000000	0.310853
752.000000	0.311115
753.000000	0.311416
754.000000	0.311766
755.000000	0.312072
756.000000	0.312366
757.000000	0.312661
758.000000	0.312973
759.000000	0.313309
760.000000	0.313592
761.000000	0.313865
762.000000	0.314056
763.000000	0.314196
764.000000	0.314458
765.000000	0.314673
766.000000	0.314889
767.000000	0.315152
768.000000	0.315323
769.000000	0.315428
770.000000	0.315511
771.000000	0.315624
772.000000	0.315824
773.000000	0.316025
774.000000	0.316221
775.000000	0.316449
776.000000	0.316678
777.000000	0.316853
778.000000	0.316957
779.000000	0.317076
780.000000	0.317197
781.000000	0.317194
782.000000	0.317230
783.000000	0.317391
784.000000	0.317543
785.000000	0.317723
786.000000	0.317882
787.000000	0.317994
788.000000	0.318106
789.000000	0.318175
790.000000	0.318176
791.000000	0.318154
792.000000	0.318165
793.000000	0.318212
794.000000	0.318293
795.000000	0.318413
796.000000	0.318502
797.000000	0.318556
798.000000	0.318644
799.000000	0.318684
800.000000	0.318687
801.000000	0.318697
802.000000	0.318705
803.000000	0.318754
804.000000	0.318875
805.000000	0.318935
806.000000	0.318927
807.000000	0.318943
808.000000	0.318961
809.000000	0.318938
810.000000	0.318964
811.000000	0.319064
812.000000	0.319063
813.000000	0.319030
814.000000	0.318999
815.000000	0.319002
816.000000	0.319021
817.000000	0.319047
818.000000	0.318996
819.000000	0.318999
820.000000	0.319003
821.000000	0.318955
822.000000	0.318964
823.000000	0.318978
824.000000	0.318962
825.000000	0.319000
826.000000	0.319010
827.000000	0.318940
828.000000	0.318840
829.000000	0.318804
830.000000	0.318746
831.000000	0.318704
832.000000	0.318601
833.000000	0.318522
834.000000	0.318455
835.000000	0.318410
836.000000	0.318348
837.000000	0.318298
838.000000	0.318292
839.000000	0.318310
840.000000	0.318353
841.000000	0.318407
842.000000	0.318402
843.000000	0.318267
844.000000	0.318136
845.000000	0.318023
846.000000	0.317891
847.000000	0.317851
848.000000	0.317849
849.000000	0.317831
850.000000	0.317811
851.000000	0.317765
852.000000	0.317706
853.000000	0.317587
854.000000	0.317416
855.000000	0.317338
856.000000	0.317302
857.000000	0.317148
858.000000	0.317058
859.000000	0.317015
860.000000	0.316893
861.000000	0.316826
862.000000	0.316802
863.000000	0.316684
864.000000	0.316549
865.000000	0.316437
866.000000	0.316375
867.000000	0.316306
868.000000	0.316215
869.000000	0.316007
870.000000	0.315714
871.000000	0.315545
872.000000	0.315433
873.000000	0.315258
874.000000	0.315077
875.000000	0.314965
876.000000	0.314868
877.000000	0.314617
878.000000	0.314326
879.000000	0.314092
880.000000	0.313847
881.000000	0.313751
882.000000	0.313576
883.000000	0.313398
884.000000	0.313321
885.000000	0.313169
886.000000	0.313017
887.000000	0.312919
888.000000	0.312750
889.000000	0.312684
890.000000	0.312590
891.000000	0.312454
892.000000	0.312191
893.000000	0.311864
894.000000	0.311652
895.000000	0.311489
896.000000	0.311355
897.000000	0.311208
898.000000	0.311007
899.000000	0.310769
900.000000	0.310505
901.000000	0.310240
902.000000	0.310166
903.000000	0.309980
904.000000	0.309807
905.000000	0.309705
906.000000	0.309472
907.000000	0.309148
908.000000	0.308863
909.000000	0.308649
910.000000	0.308472
911.000000	0.308349
912.000000	0.308291
913.000000	0.308190
914.000000	0.308027
915.000000	0.307849
916.000000	0.307592
917.000000	0.307390
918.000000	0.307179
919.000000	0.306911
920.000000	0.306771
921.000000	0.306531
922.000000	0.306213
923.000000	0.305927
924.000000	0.305639
925.000000	0.305454
926.000000	0.305378
927.000000	0.305102
928.000000	0.304746
929.000000	0.304471
930.000000	0.304390
931.000000	0.304222
932.000000	0.303992
933.000000	0.303754
934.000000	0.303462
935.000000	0.303109
936.000000	0.302735
937.000000	0.302324
938.000000	0.302107
939.000000	0.302011
940.000000	0.301888
941.000000	0.301717
942.000000	0.301486
943.000000	0.301286
944.000000	0.301064
945.000000	0.300920
946.000000	0.300621
947.000000	0.300378
948.000000	0.300335
949.000000	0.299963
950.000000	0.299616
951.000000	0.299354
952.000000	0.299056
953.000000	0.299011
954.000000	0.298940
955.000000	0.298580
956.000000	0.298266
957.000000	0.298177
958.000000	0.298067
959.000000	0.297701
960.000000	0.297335
961.000000	0.297039
962.000000	0.296773
963.000000	0.296447
964.000000	0.296266
965.000000	0.296306
966.000000	0.296351
967.000000	0.295935
968.000000	0.295650
969.000000	0.295465
970.000000	0.295203
971.000000	0.295074
972.000000	0.294864
973.000000	0.294494
974.000000	0.294274
975.000000	0.294086
976.000000	0.293942
977.000000	0.293829
978.000000	0.293643
979.000000	0.293481
980.000000	0.293112
981.000000	0.292728
982.000000	0.292764
983.000000	0.292630
984.000000	0.292242
985.000000	0.291965
986.000000	0.291851
987.000000	0.291780
988.000000	0.291542
989.000000	0.291242
990.000000	0.290965
991.000000	0.290757
992.000000	0.290680
993.000000	0.290694
994.000000	0.290589
995.000000	0.290480
996.000000	0.290343
997.000000	0.290308
998.000000	0.290312
999.000000	0.290287
1000.000000	0.289967
1001.000000	0.290447
1002.000000	0.290353
1003.000000	0.289766
1004.000000	0.289488
1005.000000	0.289160
1006.000000	0.288786
1007.000000	0.288344
1008.000000	0.288498
1009.000000	0.288635
1010.000000	0.287779
1011.000000	0.287746
1012.000000	0.288156
1013.000000	0.287859
1014.000000	0.287378
1015.000000	0.287345
1016.000000	0.287646
1017.000000	0.287746
1018.000000	0.288411
1019.000000	0.288615
1020.000000	0.288439
1021.000000	0.288097
1022.000000	0.287744
1023.000000	0.287664
1024.000000	0.287397
1025.000000	0.287518
1026.000000	0.287905
1027.000000	0.287850
1028.000000	0.287848
1029.000000	0.287931
1030.000000	0.287777
1031.000000	0.287892
1032.000000	0.288168
1033.000000	0.288369
1034.000000	0.288314
1035.000000	0.287791
1036.000000	0.287847
1037.000000	0.288015
1038.000000	0.287994
1039.000000	0.288269
1040.000000	0.288769
1041.000000	0.288290
1042.000000	0.288351
1043.000000	0.288920
1044.000000	0.289213
1045.000000	0.289442
1046.000000	0.289670
1047.000000	0.289902
1048.000000	0.289890
1049.000000	0.289848
1050.000000	0.289800
1051.000000	0.289853
1052.000000	0.289720
1053.000000	0.289647
1054.000000	0.289953
1055.000000	0.290265
1056.000000	0.290573
1057.000000	0.290852
1058.000000	0.291046
1059.000000	0.291151
1060.000000	0.291260
1061.000000	0.291347
1062.000000	0.291483
1063.000000	0.291680
1064.000000	0.291917
1065.000000	0.292153
1066.000000	0.292241
1067.000000	0.292196
1068.000000	0.292368
1069.000000	0.292274
1070.000000	0.292570
1071.000000	0.293602
1072.000000	0.294092
1073.000000	0.294527
1074.000000	0.294999
1075.000000	0.294906
1076.000000	0.294509
1077.000000	0.294229
1078.000000	0.294077
1079.000000	0.294113
1080.000000	0.294413
1081.000000	0.294644
1082.000000	0.295041
1083.000000	0.295309
1084.000000	0.295638
1085.000000	0.296027
1086.000000	0.296380
1087.000000	0.296767
1088.000000	0.297090
1089.000000	0.297387
1090.000000	0.297374
1091.000000	0.298068
1092.000000	0.298462
1093.000000	0.298337
1094.000000	0.298254
1095.000000	0.297616
1096.000000	0.297773
1097.000000	0.298381
1098.000000	0.298571
1099.000000	0.298861
1100.000000	0.299147
1101.000000	0.298931
1102.000000	0.299133
1103.000000	0.299800
1104.000000	0.300225
1105.000000	0.300730
1106.000000	0.301022
1107.000000	0.300993
1108.000000	0.301120
1109.000000	0.301341
1110.000000	0.301318
1111.000000	0.301528
1112.000000	0.301987
1113.000000	0.302167
1114.000000	0.302092
1115.000000	0.302459
1116.000000	0.303157
1117.000000	0.303355
1118.000000	0.303525
1119.000000	0.303672
1120.000000	0.303429
1121.000000	0.303348
1122.000000	0.303558
1123.000000	0.303867
1124.000000	0.303887
1125.000000	0.304001
1126.000000	0.304227
1127.000000	0.304376
1128.000000	0.304479
1129.000000	0.304521
1130.000000	0.304635
1131.000000	0.304781
1132.000000	0.304887
1133.000000	0.305049
1134.000000	0.305181
1135.000000	0.305225
1136.000000	0.305321
1137.000000	0.305452
1138.000000	0.305484
1139.000000	0.305583
1140.000000	0.305716
1141.000000	0.305745
1142.000000	0.305804
1143.000000	0.305878
1144.000000	0.305971
1145.000000	0.305693
1146.000000	0.305648
1147.000000	0.305820
1148.000000	0.306057
1149.000000	0.306230
1150.000000	0.306772
1151.000000	0.306853
1152.000000	0.306444
1153.000000	0.306465
1154.000000	0.306520
1155.000000	0.306538
1156.000000	0.306720
1157.000000	0.306816
1158.000000	0.306762
1159.000000	0.306755
1160.000000	0.306775
1161.000000	0.306815
1162.000000	0.307001
1163.000000	0.307052
1164.000000	0.307049
1165.000000	0.307153
1166.000000	0.307227
1167.000000	0.307197
1168.000000	0.307202
1169.000000	0.307337
1170.000000	0.307318
1171.000000	0.307190
1172.000000	0.307219
1173.000000	0.307235
1174.000000	0.307251
1175.000000	0.307311
1176.000000	0.307331
1177.000000	0.307410
1178.000000	0.307424
1179.000000	0.307393
1180.000000	0.307363
1181.000000	0.307431
1182.000000	0.307346
1183.000000	0.307361
1184.000000	0.307465
1185.000000	0.307453
1186.000000	0.307357
1187.000000	0.307316
1188.000000	0.307311
1189.000000	0.307169
1190.000000	0.306954
1191.000000	0.306926
1192.000000	0.306966
1193.000000	0.307102
1194.000000	0.307369
1195.000000	0.307489
1196.000000	0.307498
1197.000000	0.307500
1198.000000	0.307439
1199.000000	0.307427
1200.000000	0.307354
1201.000000	0.307362
1202.000000	0.307507
1203.000000	0.307599
1204.000000	0.307591
1205.000000	0.307577
1206.000000	0.307556
1207.000000	0.307571
1208.000000	0.307501
1209.000000	0.307479
1210.000000	0.307441
1211.000000	0.307310
1212.000000	0.307220
1213.000000	0.307169
1214.000000	0.307212
1215.000000	0.307322
1216.000000	0.307321
1217.000000	0.307290
1218.000000	0.307332
1219.000000	0.307370
1220.000000	0.307354
1221.000000	0.307561
1222.000000	0.307759
1223.000000	0.307760
1224.000000	0.307725
1225.000000	0.307661
1226.000000	0.307627
1227.000000	0.307641
1228.000000	0.307696
1229.000000	0.307610
1230.000000	0.307353
1231.000000	0.307259
1232.000000	0.307262
1233.000000	0.307375
1234.000000	0.307681
1235.000000	0.307790
1236.000000	0.307809
1237.000000	0.307791
1238.000000	0.307549
1239.000000	0.307458
1240.000000	0.307385
1241.000000	0.307303
1242.000000	0.307387
1243.000000	0.307564
1244.000000	0.307684
1245.000000	0.307893
1246.000000	0.307925
1247.000000	0.308007
1248.000000	0.308097
1249.000000	0.308046
1250.000000	0.308096
1251.000000	0.308098
1252.000000	0.308178
1253.000000	0.308433
1254.000000	0.308481
1255.000000	0.308477
1256.000000	0.308478
1257.000000	0.308318
1258.000000	0.308271
1259.000000	0.308299
1260.000000	0.308288
1261.000000	0.308103
1262.000000	0.308101
1263.000000	0.308230
1264.000000	0.308256
1265.000000	0.308392
1266.000000	0.308586
1267.000000	0.308634
1268.000000	0.308596
1269.000000	0.308441
1270.000000	0.308417
1271.000000	0.308366
1272.000000	0.308355
1273.000000	0.308555
1274.000000	0.308697
1275.000000	0.308839
1276.000000	0.309144
1277.000000	0.309252
1278.000000	0.309162
1279.000000	0.309096
1280.000000	0.308783
1281.000000	0.308651
1282.000000	0.308686
1283.000000	0.308695
1284.000000	0.308674
1285.000000	0.308726
1286.000000	0.308839
1287.000000	0.308744
1288.000000	0.308773
1289.000000	0.308795
1290.000000	0.308550
1291.000000	0.308435
1292.000000	0.308462
1293.000000	0.308397
1294.000000	0.308393
1295.000000	0.308558
1296.000000	0.308652
1297.000000	0.308656
1298.000000	0.308694
1299.000000	0.308698
1300.000000	0.308793
1301.000000	0.308854
1302.000000	0.308724
1303.000000	0.308530
1304.000000	0.308448
1305.000000	0.308373
1306.000000	0.308354
1307.000000	0.308569
1308.000000	0.308657
1309.000000	0.308634
1310.000000	0.308593
1311.000000	0.308527
1312.000000	0.308577
1313.000000	0.308563
1314.000000	0.308490
1315.000000	0.308453
1316.000000	0.308409
1317.000000	0.308284
1318.000000	0.308246
1319.000000	0.308082
1320.000000	0.307981
1321.000000	0.308058
1322.000000	0.307912
1323.000000	0.307791
1324.000000	0.307843
1325.000000	0.307759
1326.000000	0.307639
1327.000000	0.307548
1328.000000	0.307443
1329.000000	0.307284
1330.000000	0.307001
1331.000000	0.306931
1332.000000	0.307052
1333.000000	0.307010
1334.000000	0.307055
1335.000000	0.307031
1336.000000	0.306897
1337.000000	0.306790
1338.000000	0.306646
1339.000000	0.306443
1340.000000	0.306283
1341.000000	0.306179
1342.000000	0.306057
1343.000000	0.305978
1344.000000	0.305916
1345.000000	0.305872
1346.000000	0.305919
1347.000000	0.305834
1348.000000	0.305765
1349.000000	0.305482
1350.000000	0.305210
1351.000000	0.305174
1352.000000	0.305148
1353.000000	0.305198
1354.000000	0.305180
1355.000000	0.304890
1356.000000	0.304682
1357.000000	0.304426
1358.000000	0.304200
1359.000000	0.304187
1360.000000	0.304110
1361.000000	0.304078
1362.000000	0.303965
1363.000000	0.303804
1364.000000	0.303710
1365.000000	0.303580
1366.000000	0.303538
1367.000000	0.303619
1368.000000	0.303487
1369.000000	0.303469
1370.000000	0.303280
1371.000000	0.302907
1372.000000	0.302619
1373.000000	0.302417
1374.000000	0.302331
1375.000000	0.302302
1376.000000	0.302322
1377.000000	0.302304
1378.000000	0.302193
1379.000000	0.301904
1380.000000	0.301594
1381.000000	0.301173
1382.000000	0.300597
1383.000000	0.300286
1384.000000	0.300008
1385.000000	0.299606
1386.000000	0.299332
1387.000000	0.299121
1388.000000	0.298640
1389.000000	0.298263
1390.000000	0.298080
1391.000000	0.297461
1392.000000	0.296994
1393.000000	0.296516
1394.000000	0.296004
1395.000000	0.295459
1396.000000	0.294972
1397.000000	0.294353
1398.000000	0.293609
1399.000000	0.292911
1400.000000	0.292162
1401.000000	0.291469
1402.000000	0.290862
1403.000000	0.290162
1404.000000	0.289490
1405.000000	0.288689
1406.000000	0.287816
1407.000000	0.287121
1408.000000	0.286274
1409.000000	0.285518
1410.000000	0.284924
1411.000000	0.284191
1412.000000	0.283566
1413.000000	0.282920
1414.000000	0.282162
1415.000000	0.281440
1416.000000	0.280674
1417.000000	0.279999
1418.000000	0.279324
1419.000000	0.278600
1420.000000	0.277795
1421.000000	0.277078
1422.000000	0.276535
1423.000000	0.276037
1424.000000	0.275449
1425.000000	0.274942
1426.000000	0.274330
1427.000000	0.273693
1428.000000	0.273145
1429.000000	0.272573
1430.000000	0.271946
1431.000000	0.271374
1432.000000	0.270810
1433.000000	0.270272
1434.000000	0.269720
1435.000000	0.269276
1436.000000	0.268776
1437.000000	0.268211
1438.000000	0.267742
1439.000000	0.267368
1440.000000	0.266959
1441.000000	0.266536
1442.000000	0.266233
1443.000000	0.265931
1444.000000	0.265636
1445.000000	0.265450
1446.000000	0.265244
1447.000000	0.264934
1448.000000	0.264721
1449.000000	0.264550
1450.000000	0.264398
1451.000000	0.264295
1452.000000	0.264061
1453.000000	0.263882
1454.000000	0.263780
1455.000000	0.263622
1456.000000	0.263630
1457.000000	0.263559
1458.000000	0.263356
1459.000000	0.263277
1460.000000	0.263199
1461.000000	0.263049
1462.000000	0.262868
1463.000000	0.262709
1464.000000	0.262554
1465.000000	0.262469
1466.000000	0.262482
1467.000000	0.262449
1468.000000	0.262310
1469.000000	0.262150
1470.000000	0.261959
1471.000000	0.261876
1472.000000	0.261893
1473.000000	0.262033
1474.000000	0.262141
1475.000000	0.262262
1476.000000	0.262422
1477.000000	0.262617
1478.000000	0.262897
1479.000000	0.263066
1480.000000	0.263237
1481.000000	0.263444
1482.000000	0.263673
1483.000000	0.263908
1484.000000	0.264210
1485.000000	0.264469
1486.000000	0.264611
1487.000000	0.264872
1488.000000	0.265281
1489.000000	0.265623
1490.000000	0.265897
1491.000000	0.266163
1492.000000	0.266278
1493.000000	0.266523
1494.000000	0.266800
1495.000000	0.267102
1496.000000	0.267479
1497.000000	0.267808
1498.000000	0.268164
1499.000000	0.268413
1500.000000	0.268640
1501.000000	0.268945
1502.000000	0.269256
1503.000000	0.269516
1504.000000	0.269773
1505.000000	0.270062
1506.000000	0.270192
1507.000000	0.270330
1508.000000	0.270583
1509.000000	0.270748
1510.000000	0.270930
1511.000000	0.271190
1512.000000	0.271309
1513.000000	0.271350
1514.000000	0.271437
1515.000000	0.271387
1516.000000	0.271478
1517.000000	0.271677
1518.000000	0.271810
1519.000000	0.271932
1520.000000	0.272078
1521.000000	0.272225
1522.000000	0.272421
1523.000000	0.272635
1524.000000	0.272705
1525.000000	0.272739
1526.000000	0.272729
1527.000000	0.272761
1528.000000	0.272849
1529.000000	0.272892
1530.000000	0.272993
1531.000000	0.273123
1532.000000	0.273193
1533.000000	0.273292
1534.000000	0.273321
1535.000000	0.273279
1536.000000	0.273326
1537.000000	0.273466
1538.000000	0.273529
1539.000000	0.273615
1540.000000	0.273710
1541.000000	0.273685
1542.000000	0.273675
1543.000000	0.273672
1544.000000	0.273694
1545.000000	0.273781
1546.000000	0.273874
1547.000000	0.273992
1548.000000	0.274060
1549.000000	0.274068
1550.000000	0.274034
1551.000000	0.273988
1552.000000	0.273993
1553.000000	0.273975
1554.000000	0.274023
1555.000000	0.274123
1556.000000	0.274105
1557.000000	0.274284
1558.000000	0.274384
1559.000000	0.274366
1560.000000	0.274350
1561.000000	0.274392
1562.000000	0.274323
1563.000000	0.274246
1564.000000	0.274260
1565.000000	0.274250
1566.000000	0.274152
1567.000000	0.274130
1568.000000	0.274103
1569.000000	0.274081
1570.000000	0.274099
1571.000000	0.274177
1572.000000	0.274192
1573.000000	0.274163
1574.000000	0.274157
1575.000000	0.274172
1576.000000	0.274220
1577.000000	0.274310
1578.000000	0.274268
1579.000000	0.274245
1580.000000	0.274203
1581.000000	0.274074
1582.000000	0.274045
1583.000000	0.274102
1584.000000	0.274015
1585.000000	0.273941
1586.000000	0.273944
1587.000000	0.273941
1588.000000	0.273913
1589.000000	0.273939
1590.000000	0.273991
1591.000000	0.274058
1592.000000	0.274056
1593.000000	0.274042
1594.000000	0.274055
1595.000000	0.274065
1596.000000	0.274107
1597.000000	0.274268
1598.000000	0.274388
1599.000000	0.274513
1600.000000	0.274549
1601.000000	0.274666
1602.000000	0.274688
1603.000000	0.274544
1604.000000	0.274523
1605.000000	0.274584
1606.000000	0.274630
1607.000000	0.274806
1608.000000	0.274848
1609.000000	0.274868
1610.000000	0.274840
1611.000000	0.274711
1612.000000	0.274670
1613.000000	0.274752
1614.000000	0.274751
1615.000000	0.274763
1616.000000	0.274894
1617.000000	0.275025
1618.000000	0.275098
1619.000000	0.275224
1620.000000	0.275300
1621.000000	0.275323
1622.000000	0.275422
1623.000000	0.275513
1624.000000	0.275603
1625.000000	0.275546
1626.000000	0.275574
1627.000000	0.275719
1628.000000	0.275837
1629.000000	0.275976
1630.000000	0.276055
1631.000000	0.275980
1632.000000	0.276029
1633.000000	0.276146
1634.000000	0.276228
1635.000000	0.276425
1636.000000	0.276489
1637.000000	0.276436
1638.000000	0.276439
1639.000000	0.276437
1640.000000	0.276528
1641.000000	0.276755
1642.000000	0.276944
1643.000000	0.277217
1644.000000	0.277418
1645.000000	0.277609
1646.000000	0.277686
1647.000000	0.277712
1648.000000	0.277791
1649.000000	0.277851
1650.000000	0.278004
1651.000000	0.278341
1652.000000	0.278551
1653.000000	0.278690
1654.000000	0.278825
1655.000000	0.278810
1656.000000	0.278856
1657.000000	0.279048
1658.000000	0.279099
1659.000000	0.279205
1660.000000	0.279276
1661.000000	0.279081
1662.000000	0.279175
1663.000000	0.279422
1664.000000	0.279587
1665.000000	0.279838
1666.000000	0.280098
1667.000000	0.280255
1668.000000	0.280418
1669.000000	0.280595
1670.000000	0.280724
1671.000000	0.280852
1672.000000	0.281113
1673.000000	0.281467
1674.000000	0.281801
1675.000000	0.281977
1676.000000	0.282095
1677.000000	0.282134
1678.000000	0.282099
1679.000000	0.282185
1680.000000	0.282184
1681.000000	0.282100
1682.000000	0.282096
1683.000000	0.282123
1684.000000	0.282220
1685.000000	0.282382
1686.000000	0.282472
1687.000000	0.282503
1688.000000	0.282484
1689.000000	0.282504
1690.000000	0.282529
1691.000000	0.282587
1692.000000	0.282525
1693.000000	0.282540
1694.000000	0.282551
1695.000000	0.282580
1696.000000	0.283010
1697.000000	0.283116
1698.000000	0.283156
1699.000000	0.283267
1700.000000	0.283136
1701.000000	0.283213
1702.000000	0.283373
1703.000000	0.283447
1704.000000	0.283621
1705.000000	0.283693
1706.000000	0.283697
1707.000000	0.283777
1708.000000	0.283772
1709.000000	0.283819
1710.000000	0.284131
1711.000000	0.284260
1712.000000	0.284338
1713.000000	0.284367
1714.000000	0.284307
1715.000000	0.284267
1716.000000	0.284234
1717.000000	0.284200
1718.000000	0.284092
1719.000000	0.284022
1720.000000	0.284058
1721.000000	0.284015
1722.000000	0.283906
1723.000000	0.283906
1724.000000	0.283898
1725.000000	0.284019
1726.000000	0.284247
1727.000000	0.284371
1728.000000	0.284506
1729.000000	0.284461
1730.000000	0.284308
1731.000000	0.284391
1732.000000	0.284486
1733.000000	0.284747
1734.000000	0.285196
1735.000000	0.285367
1736.000000	0.285393
1737.000000	0.285529
1738.000000	0.285589
1739.000000	0.285764
1740.000000	0.286051
1741.000000	0.286266
1742.000000	0.286527
1743.000000	0.286615
1744.000000	0.286619
1745.000000	0.286623
1746.000000	0.286477
1747.000000	0.286454
1748.000000	0.286401
1749.000000	0.286320
1750.000000	0.286195
1751.000000	0.286123
1752.000000	0.286207
1753.000000	0.286191
1754.000000	0.286242
1755.000000	0.286452
1756.000000	0.286544
1757.000000	0.286655
1758.000000	0.286642
1759.000000	0.286349
1760.000000	0.286321
1761.000000	0.286314
1762.000000	0.286332
1763.000000	0.286626
1764.000000	0.286751
1765.000000	0.286641
1766.000000	0.286751
1767.000000	0.286984
1768.000000	0.286977
1769.000000	0.286928
1770.000000	0.287083
1771.000000	0.287232
1772.000000	0.287213
1773.000000	0.287238
1774.000000	0.287257
1775.000000	0.287040
1776.000000	0.287070
1777.000000	0.287333
1778.000000	0.287450
1779.000000	0.287516
1780.000000	0.287592
1781.000000	0.287649
1782.000000	0.287712
1783.000000	0.287790
1784.000000	0.287819
1785.000000	0.287889
1786.000000	0.287954
1787.000000	0.288022
1788.000000	0.288251
1789.000000	0.288401
1790.000000	0.288545
1791.000000	0.288623
1792.000000	0.288703
1793.000000	0.288759
1794.000000	0.288794
1795.000000	0.288838
1796.000000	0.288720
1797.000000	0.288840
1798.000000	0.289270
1799.000000	0.289351
1800.000000	0.289385
1801.000000	0.288913
1802.000000	0.289137
1803.000000	0.289955
1804.000000	0.290337
1805.000000	0.290940
1806.000000	0.291340
1807.000000	0.291918
1808.000000	0.291746
1809.000000	0.291180
1810.000000	0.290505
1811.000000	0.289825
1812.000000	0.288128
1813.000000	0.287916
1814.000000	0.288557
1815.000000	0.288964
1816.000000	0.290151
1817.000000	0.290604
1818.000000	0.290634
1819.000000	0.291102
1820.000000	0.291354
1821.000000	0.291329
1822.000000	0.291387
1823.000000	0.291516
1824.000000	0.291149
1825.000000	0.290099
1826.000000	0.289873
1827.000000	0.289651
1828.000000	0.289655
1829.000000	0.289756
1830.000000	0.289245
1831.000000	0.288605
1832.000000	0.286989
1833.000000	0.286419
1834.000000	0.286099
1835.000000	0.285996
1836.000000	0.286175
1837.000000	0.286507
1838.000000	0.287045
1839.000000	0.287827
1840.000000	0.288326
1841.000000	0.288091
1842.000000	0.287966
1843.000000	0.287078
1844.000000	0.286960
1845.000000	0.287410
1846.000000	0.287387
1847.000000	0.287243
1848.000000	0.286850
1849.000000	0.286435
1850.000000	0.286233
1851.000000	0.286202
1852.000000	0.286716
1853.000000	0.286682
1854.000000	0.286493
1855.000000	0.285810
1856.000000	0.284623
1857.000000	0.283261
1858.000000	0.282082
1859.000000	0.281251
1860.000000	0.281059
1861.000000	0.280931
1862.000000	0.280626
1863.000000	0.280525
1864.000000	0.280349
1865.000000	0.280308
1866.000000	0.279802
1867.000000	0.279017
1868.000000	0.278230
1869.000000	0.277394
1870.000000	0.276287
1871.000000	0.275295
1872.000000	0.273880
1873.000000	0.272514
1874.000000	0.270473
1875.000000	0.269086
1876.000000	0.268042
1877.000000	0.266494
1878.000000	0.264499
1879.000000	0.262961
1880.000000	0.261249
1881.000000	0.259303
1882.000000	0.257855
1883.000000	0.255941
1884.000000	0.253937
1885.000000	0.251731
1886.000000	0.249447
1887.000000	0.247070
1888.000000	0.244041
1889.000000	0.241106
1890.000000	0.237884
1891.000000	0.234926
1892.000000	0.232509
1893.000000	0.230167
1894.000000	0.228066
1895.000000	0.225331
1896.000000	0.222460
1897.000000	0.219076
1898.000000	0.215569
1899.000000	0.212262
1900.000000	0.209408
1901.000000	0.206971
1902.000000	0.204914
1903.000000	0.202644
1904.000000	0.200269
1905.000000	0.198383
1906.000000	0.196467
1907.000000	0.194708
1908.000000	0.193007
1909.000000	0.191490
1910.000000	0.189710
1911.000000	0.187675
1912.000000	0.186008
1913.000000	0.184555
1914.000000	0.182747
1915.000000	0.181360
1916.000000	0.180425
1917.000000	0.179120
1918.000000	0.177476
1919.000000	0.176852
1920.000000	0.176216
1921.000000	0.174934
1922.000000	0.174862
1923.000000	0.174398
1924.000000	0.174104
1925.000000	0.174289
1926.000000	0.173953
1927.000000	0.173843
1928.000000	0.173553
1929.000000	0.173081
1930.000000	0.172637
1931.000000	0.172125
1932.000000	0.171817
1933.000000	0.171797
1934.000000	0.171597
1935.000000	0.172004
1936.000000	0.172145
1937.000000	0.171622
1938.000000	0.171141
1939.000000	0.170676
1940.000000	0.169805
1941.000000	0.169520
1942.000000	0.169653
1943.000000	0.169530
1944.000000	0.169698
1945.000000	0.169198
1946.000000	0.168672
1947.000000	0.168455
1948.000000	0.168148
1949.000000	0.168122
1950.000000	0.167963
1951.000000	0.167628
1952.000000	0.167195
1953.000000	0.166470
1954.000000	0.166252
1955.000000	0.166743
1956.000000	0.167437
1957.000000	0.168616
1958.000000	0.169048
1959.000000	0.168451
1960.000000	0.167604
1961.000000	0.166300
1962.000000	0.165327
1963.000000	0.164279
1964.000000	0.163864
1965.000000	0.163533
1966.000000	0.163580
1967.000000	0.163711
1968.000000	0.163329
1969.000000	0.163090
1970.000000	0.162728
1971.000000	0.162435
1972.000000	0.162686
1973.000000	0.162961
1974.000000	0.163702
1975.000000	0.164274
1976.000000	0.165164
1977.000000	0.165479
1978.000000	0.165115
1979.000000	0.164868
1980.000000	0.164913
1981.000000	0.164987
1982.000000	0.165673
1983.000000	0.166142
1984.000000	0.166555
1985.000000	0.166679
1986.000000	0.167209
1987.000000	0.167935
1988.000000	0.168945
1989.000000	0.169768
1990.000000	0.170098
1991.000000	0.170801
1992.000000	0.171105
1993.000000	0.171247
1994.000000	0.172092
1995.000000	0.172242
1996.000000	0.172453
1997.000000	0.172810
1998.000000	0.173026
1999.000000	0.173497
2000.000000	0.174278
2001.000000	0.175049
2002.000000	0.175610
2003.000000	0.176636
2004.000000	0.177516
2005.000000	0.177813
2006.000000	0.178687
2007.000000	0.179986
2008.000000	0.180882
2009.000000	0.181771
2010.000000	0.182631
2011.000000	0.183175
2012.000000	0.183674
2013.000000	0.183899
2014.000000	0.184633
2015.000000	0.185460
2016.000000	0.185715
2017.000000	0.186371
2018.000000	0.187105
2019.000000	0.187709
2020.000000	0.188630
2021.000000	0.189416
2022.000000	0.190086
2023.000000	0.191042
2024.000000	0.192485
2025.000000	0.193352
2026.000000	0.194154
2027.000000	0.194630
2028.000000	0.194696
2029.000000	0.194202
2030.000000	0.193943
2031.000000	0.194060
2032.000000	0.194955
2033.000000	0.196133
2034.000000	0.197240
2035.000000	0.199286
2036.000000	0.200289
2037.000000	0.200971
2038.000000	0.201361
2039.000000	0.201199
2040.000000	0.201328
2041.000000	0.201055
2042.000000	0.201043
2043.000000	0.201778
2044.000000	0.202152
2045.000000	0.203064
2046.000000	0.204354
2047.000000	0.205479
2048.000000	0.206729
2049.000000	0.207769
2050.000000	0.208506
2051.000000	0.209184
2052.000000	0.209670
2053.000000	0.210186
2054.000000	0.210806
2055.000000	0.211427
2056.000000	0.211934
2057.000000	0.212424
2058.000000	0.212974
2059.000000	0.213416
2060.000000	0.213877
2061.000000	0.214330
2062.000000	0.214557
2063.000000	0.214841
2064.000000	0.214874
2065.000000	0.214734
2066.000000	0.214654
2067.000000	0.214434
2068.000000	0.214703
2069.000000	0.215402
2070.000000	0.216343
2071.000000	0.217357
2072.000000	0.218106
2073.000000	0.218952
2074.000000	0.219464
2075.000000	0.219878
2076.000000	0.220173
2077.000000	0.220785
2078.000000	0.221442
2079.000000	0.221734
2080.000000	0.222308
2081.000000	0.222726
2082.000000	0.222417
2083.000000	0.222465
2084.000000	0.223450
2085.000000	0.224482
2086.000000	0.225832
2087.000000	0.226443
2088.000000	0.227100
2089.000000	0.227785
2090.000000	0.228413
2091.000000	0.229378
2092.000000	0.230017
2093.000000	0.230195
2094.000000	0.230559
2095.000000	0.230611
2096.000000	0.230908
2097.000000	0.231046
2098.000000	0.232208
2099.000000	0.233290
2100.000000	0.234227
2101.000000	0.234759
2102.000000	0.235244
2103.000000	0.235053
2104.000000	0.234563
2105.000000	0.234606
2106.000000	0.234846
2107.000000	0.235011
2108.000000	0.235294
2109.000000	0.235931
2110.000000	0.236848
2111.000000	0.237300
2112.000000	0.237957
2113.000000	0.237855
2114.000000	0.237605
2115.000000	0.237387
2116.000000	0.237671
2117.000000	0.238531
2118.000000	0.239204
2119.000000	0.239595
2120.000000	0.240028
2121.000000	0.240068
2122.000000	0.240568
2123.000000	0.241689
2124.000000	0.242093
2125.000000	0.242577
2126.000000	0.242554
2127.000000	0.241492
2128.000000	0.241105
2129.000000	0.240407
2130.000000	0.240379
2131.000000	0.241173
2132.000000	0.241369
2133.000000	0.242468
2134.000000	0.244213
2135.000000	0.245054
2136.000000	0.245896
2137.000000	0.245761
2138.000000	0.244142
2139.000000	0.243497
2140.000000	0.242498
2141.000000	0.242153
2142.000000	0.242477
2143.000000	0.242621
2144.000000	0.243090
2145.000000	0.243527
2146.000000	0.244450
2147.000000	0.245021
2148.000000	0.244938
2149.000000	0.244776
2150.000000	0.244796
2151.000000	0.245708
2152.000000	0.245871
2153.000000	0.245871
2154.000000	0.245430
2155.000000	0.243364
2156.000000	0.242854
2157.000000	0.243281
2158.000000	0.243201
2159.000000	0.243419
2160.000000	0.243841
2161.000000	0.244071
2162.000000	0.244369
2163.000000	0.245274
2164.000000	0.245614
2165.000000	0.245104
2166.000000	0.245513
2167.000000	0.246039
2168.000000	0.245706
2169.000000	0.246415
2170.000000	0.247144
2171.000000	0.247480
2172.000000	0.248121
2173.000000	0.248072
2174.000000	0.247392
2175.000000	0.246496
2176.000000	0.244565
2177.000000	0.243821
2178.000000	0.243386
2179.000000	0.243170
2180.000000	0.243992
2181.000000	0.244457
2182.000000	0.244284
2183.000000	0.244064
2184.000000	0.244318
2185.000000	0.243864
2186.000000	0.243781
2187.000000	0.244679
2188.000000	0.245283
2189.000000	0.246205
2190.000000	0.247160
2191.000000	0.247477
2192.000000	0.247318
2193.000000	0.246436
2194.000000	0.246015
2195.000000	0.244545
2196.000000	0.244457
2197.000000	0.245397
2198.000000	0.246159
2199.000000	0.249230
2200.000000	0.250001
2201.000000	0.249447
2202.000000	0.248814
2203.000000	0.246550
2204.000000	0.242897
2205.000000	0.241037
2206.000000	0.239998
2207.000000	0.242516
2208.000000	0.244538
2209.000000	0.246150
2210.000000	0.249412
2211.000000	0.248871
2212.000000	0.248761
2213.000000	0.248916
2214.000000	0.248481
2215.000000	0.248925
2216.000000	0.250200
2217.000000	0.250754
2218.000000	0.252725
2219.000000	0.252663
2220.000000	0.250562
2221.000000	0.249330
2222.000000	0.246307
2223.000000	0.244854
2224.000000	0.243414
2225.000000	0.245576
2226.000000	0.247178
2227.000000	0.248135
2228.000000	0.245955
2229.000000	0.243229
2230.000000	0.240683
2231.000000	0.239646
2232.000000	0.241069
2233.000000	0.241221
2234.000000	0.241524
2235.000000	0.242457
2236.000000	0.243980
2237.000000	0.246764
2238.000000	0.248879
2239.000000	0.252132
2240.000000	0.252868
2241.000000	0.252884
2242.000000	0.251934
2243.000000	0.247441
2244.000000	0.245908
2245.000000	0.244111
2246.000000	0.244283
2247.000000	0.248394
2248.000000	0.249702
2249.000000	0.251168
2250.000000	0.251569
2251.000000	0.249827
2252.000000	0.247049
2253.000000	0.244648
2254.000000	0.244071
2255.000000	0.244080
2256.000000	0.245114
2257.000000	0.247901
2258.000000	0.249693
2259.000000	0.249760
2260.000000	0.250414
2261.000000	0.250100
2262.000000	0.247936
2263.000000	0.247275
2264.000000	0.247172
2265.000000	0.246942
2266.000000	0.247490
2267.000000	0.246666
2268.000000	0.244850
2269.000000	0.243928
2270.000000	0.242222
2271.000000	0.241605
2272.000000	0.241996
2273.000000	0.241939
2274.000000	0.242389
2275.000000	0.242892
2276.000000	0.243413
2277.000000	0.244444
2278.000000	0.244147
2279.000000	0.241696
2280.000000	0.237786
2281.000000	0.235706
2282.000000	0.235410
2283.000000	0.235487
2284.000000	0.237260
2285.000000	0.236756
2286.000000	0.235701
2287.000000	0.234817
2288.000000	0.233043
2289.000000	0.233624
2290.000000	0.233825
2291.000000	0.233283
2292.000000	0.232226
2293.000000	0.230059
2294.000000	0.230180
2295.000000	0.231143
2296.000000	0.232195
2297.000000	0.237275
2298.000000	0.236750
2299.000000	0.232377
2300.000000	0.230182
2301.000000	0.223976
2302.000000	0.222643
2303.000000	0.227084
2304.000000	0.227529
2305.000000	0.227669
2306.000000	0.227237
2307.000000	0.225602
2308.000000	0.221568
2309.000000	0.220341
2310.000000	0.222626
2311.000000	0.223435
2312.000000	0.224156
2313.000000	0.223023
2314.000000	0.221458
2315.000000	0.219170
2316.000000	0.217213
2317.000000	0.216303
2318.000000	0.215213
2319.000000	0.215766
2320.000000	0.215788
2321.000000	0.217218
2322.000000	0.218389
2323.000000	0.218529
2324.000000	0.219942
2325.000000	0.220532
2326.000000	0.220194
2327.000000	0.220191
2328.000000	0.222020
2329.000000	0.223152
2330.000000	0.224513
2331.000000	0.226271
2332.000000	0.224748
2333.000000	0.222779
2334.000000	0.219797
2335.000000	0.217432
2336.000000	0.213329
2337.000000	0.212236
2338.000000	0.213942
2339.000000	0.214070
2340.000000	0.215339
2341.000000	0.214751
2342.000000	0.210552
2343.000000	0.209139
2344.000000	0.207861
2345.000000	0.208581
2346.000000	0.213305
2347.000000	0.215097
2348.000000	0.216886
2349.000000	0.218686
2350.000000	0.215273
2351.000000	0.211784
2352.000000	0.208209
2353.000000	0.204569
2354.000000	0.201965
2355.000000	0.199887
2356.000000	0.199570
2357.000000	0.198487
2358.000000	0.196155
2359.000000	0.196378
2360.000000	0.196863
2361.000000	0.195956
2362.000000	0.196656
2363.000000	0.195720
2364.000000	0.192520
2365.000000	0.188934
2366.000000	0.185246
2367.000000	0.184156
2368.000000	0.185409
2369.000000	0.186168
2370.000000	0.187396
2371.000000	0.188248
2372.000000	0.187439
2373.000000	0.186929
2374.000000	0.185514
2375.000000	0.183430
2376.000000	0.180242
2377.000000	0.177188
2378.000000	0.175241
2379.000000	0.173305
2380.000000	0.173324
2381.000000	0.173343
2382.000000	0.174401
2383.000000	0.173764
2384.000000	0.170936
2385.000000	0.170719
2386.000000	0.169014
2387.000000	0.169134
2388.000000	0.169124
2389.000000	0.166236
2390.000000	0.165670
2391.000000	0.162393
2392.000000	0.157808
2393.000000	0.158518
2394.000000	0.160797
2395.000000	0.160464
2396.000000	0.164708
2397.000000	0.168394
2398.000000	0.165370
2399.000000	0.167791
2400.000000	0.167946
2401.000000	0.162925
2402.000000	0.161633
2403.000000	0.156279
2404.000000	0.149289
2405.000000	0.149416
2406.000000	0.148661
2407.000000	0.145579
2408.000000	0.147106
2409.000000	0.148486
2410.000000	0.149120
2411.000000	0.150597
2412.000000	0.151447
2413.000000	0.148685
2414.000000	0.147465
2415.000000	0.154045
2416.000000	0.167209
2417.000000	0.177689
2418.000000	0.173631
2419.000000	0.166241
2420.000000	0.153789
2421.000000	0.146859
2422.000000	0.161041
2423.000000	0.174217
2424.000000	0.177007
2425.000000	0.179069
2426.000000	0.176717
2427.000000	0.161622
2428.000000	0.151668
2429.000000	0.156760
2430.000000	0.158176
2431.000000	0.161528
2432.000000	0.176983
2433.000000	0.177119
2434.000000	0.166316
2435.000000	0.175760
2436.000000	0.177267
2437.000000	0.166868
2438.000000	0.169587
2439.000000	0.165107
2440.000000	0.162414
2441.000000	0.178099
2442.000000	0.197555
2443.000000	0.196325
2444.000000	0.178218
2445.000000	0.162795
2446.000000	0.143237
2447.000000	0.140860
2448.000000	0.154590
2449.000000	0.161409
2450.000000	0.174086
2451.000000	0.175949
2452.000000	0.174194
2453.000000	0.187426
2454.000000	0.185599
2455.000000	0.173645
2456.000000	0.172018
2457.000000	0.164037
2458.000000	0.142103
2459.000000	0.141324
2460.000000	0.141723
2461.000000	0.137478
2462.000000	0.158489
2463.000000	0.167631
2464.000000	0.173595
2465.000000	0.192051
2466.000000	0.191841
2467.000000	0.182042
2468.000000	0.179059
2469.000000	0.156776
2470.000000	0.142151
2471.000000	0.146115
2472.000000	0.141231
2473.000000	0.135438
2474.000000	0.112657
2475.000000	0.115705
2476.000000	0.136493
2477.000000	0.141474
2478.000000	0.185800
2479.000000	0.196466
2480.000000	0.161965
2481.000000	0.151517
2482.000000	0.128767
2483.000000	0.108320
2484.000000	0.098107
2485.000000	0.093064
2486.000000	0.092226
2487.000000	0.073143
2488.000000	0.069094
2489.000000	0.072774
2490.000000	0.066107
2491.000000	0.083869
2492.000000	0.093120
2493.000000	0.122295
2494.000000	0.119832
2495.000000	0.077171
2496.000000	0.058857
2497.000000	0.017063
2498.000000	0.003050
2499.000000	0.059829
2500.000000	0.042341
