# Wavelength	NAu-1-60_HEX-20_FV7-20_00002.asd.rts.txt
350.000000	0.137828
351.000000	0.093023
352.000000	0.113758
353.000000	0.131143
354.000000	0.114392
355.000000	0.107789
356.000000	0.098997
357.000000	0.094039
358.000000	0.110820
359.000000	0.118151
360.000000	0.117125
361.000000	0.115653
362.000000	0.110344
363.000000	0.110042
364.000000	0.117567
365.000000	0.122582
366.000000	0.119157
367.000000	0.111417
368.000000	0.112918
369.000000	0.115832
370.000000	0.118367
371.000000	0.119790
372.000000	0.113922
373.000000	0.112965
374.000000	0.121055
375.000000	0.116083
376.000000	0.111902
377.000000	0.113844
378.000000	0.120539
379.000000	0.120561
380.000000	0.117682
381.000000	0.120084
382.000000	0.121492
383.000000	0.121693
384.000000	0.121845
385.000000	0.124513
386.000000	0.126724
387.000000	0.127847
388.000000	0.129369
389.000000	0.131198
390.000000	0.132758
391.000000	0.133286
392.000000	0.134648
393.000000	0.136205
394.000000	0.137258
395.000000	0.137884
396.000000	0.139697
397.000000	0.142350
398.000000	0.142822
399.000000	0.144092
400.000000	0.145932
401.000000	0.146815
402.000000	0.147744
403.000000	0.149225
404.000000	0.151226
405.000000	0.151174
406.000000	0.152460
407.000000	0.155789
408.000000	0.157135
409.000000	0.158610
410.000000	0.160018
411.000000	0.159988
412.000000	0.161166
413.000000	0.162762
414.000000	0.163526
415.000000	0.164373
416.000000	0.165100
417.000000	0.165701
418.000000	0.166914
419.000000	0.167481
420.000000	0.167377
421.000000	0.167589
422.000000	0.168191
423.000000	0.168680
424.000000	0.168479
425.000000	0.167982
426.000000	0.167510
427.000000	0.167335
428.000000	0.167806
429.000000	0.168127
430.000000	0.168073
431.000000	0.168108
432.000000	0.168237
433.000000	0.168137
434.000000	0.167457
435.000000	0.167570
436.000000	0.167804
437.000000	0.167438
438.000000	0.167607
439.000000	0.167542
440.000000	0.166951
441.000000	0.166304
442.000000	0.165860
443.000000	0.165582
444.000000	0.165298
445.000000	0.164966
446.000000	0.164895
447.000000	0.165331
448.000000	0.166200
449.000000	0.167402
450.000000	0.168826
451.000000	0.170290
452.000000	0.171976
453.000000	0.173920
454.000000	0.176155
455.000000	0.179030
456.000000	0.182206
457.000000	0.184963
458.000000	0.187690
459.000000	0.190121
460.000000	0.192157
461.000000	0.194584
462.000000	0.196792
463.000000	0.198378
464.000000	0.199646
465.000000	0.201088
466.000000	0.202627
467.000000	0.203894
468.000000	0.204887
469.000000	0.205742
470.000000	0.206734
471.000000	0.207615
472.000000	0.208426
473.000000	0.209220
474.000000	0.209936
475.000000	0.210519
476.000000	0.211120
477.000000	0.211842
478.000000	0.212497
479.000000	0.213170
480.000000	0.213752
481.000000	0.214172
482.000000	0.214742
483.000000	0.215505
484.000000	0.216199
485.000000	0.216820
486.000000	0.217491
487.000000	0.218052
488.000000	0.218497
489.000000	0.219002
490.000000	0.219867
491.000000	0.220470
492.000000	0.221049
493.000000	0.221865
494.000000	0.222475
495.000000	0.223046
496.000000	0.223716
497.000000	0.224557
498.000000	0.225318
499.000000	0.225997
500.000000	0.226712
501.000000	0.227445
502.000000	0.228207
503.000000	0.228940
504.000000	0.229740
505.000000	0.230500
506.000000	0.231168
507.000000	0.232104
508.000000	0.233059
509.000000	0.233865
510.000000	0.234677
511.000000	0.235488
512.000000	0.236333
513.000000	0.237227
514.000000	0.238186
515.000000	0.239181
516.000000	0.240114
517.000000	0.241037
518.000000	0.242032
519.000000	0.243070
520.000000	0.244105
521.000000	0.245169
522.000000	0.246251
523.000000	0.247230
524.000000	0.248304
525.000000	0.249419
526.000000	0.250432
527.000000	0.251608
528.000000	0.252753
529.000000	0.253723
530.000000	0.254966
531.000000	0.256316
532.000000	0.257538
533.000000	0.258634
534.000000	0.259885
535.000000	0.261265
536.000000	0.262466
537.000000	0.263660
538.000000	0.264899
539.000000	0.266182
540.000000	0.267457
541.000000	0.268715
542.000000	0.269988
543.000000	0.271287
544.000000	0.272567
545.000000	0.273776
546.000000	0.275088
547.000000	0.276367
548.000000	0.277579
549.000000	0.278653
550.000000	0.279869
551.000000	0.281183
552.000000	0.282414
553.000000	0.283674
554.000000	0.284892
555.000000	0.286069
556.000000	0.287515
557.000000	0.288762
558.000000	0.289830
559.000000	0.290973
560.000000	0.292042
561.000000	0.293148
562.000000	0.294351
563.000000	0.295480
564.000000	0.296554
565.000000	0.297528
566.000000	0.298564
567.000000	0.299519
568.000000	0.300322
569.000000	0.301175
570.000000	0.301982
571.000000	0.302728
572.000000	0.303495
573.000000	0.304257
574.000000	0.304966
575.000000	0.305631
576.000000	0.306280
577.000000	0.306836
578.000000	0.307332
579.000000	0.307891
580.000000	0.308486
581.000000	0.309068
582.000000	0.309555
583.000000	0.309922
584.000000	0.310271
585.000000	0.310789
586.000000	0.311136
587.000000	0.311406
588.000000	0.311763
589.000000	0.312135
590.000000	0.312440
591.000000	0.312655
592.000000	0.312888
593.000000	0.313115
594.000000	0.313335
595.000000	0.313571
596.000000	0.313771
597.000000	0.313928
598.000000	0.313960
599.000000	0.314005
600.000000	0.314114
601.000000	0.314218
602.000000	0.314316
603.000000	0.314415
604.000000	0.314510
605.000000	0.314527
606.000000	0.314551
607.000000	0.314596
608.000000	0.314628
609.000000	0.314713
610.000000	0.314822
611.000000	0.314900
612.000000	0.314897
613.000000	0.314962
614.000000	0.315154
615.000000	0.315092
616.000000	0.315090
617.000000	0.315168
618.000000	0.315159
619.000000	0.315203
620.000000	0.315248
621.000000	0.315244
622.000000	0.315244
623.000000	0.315254
624.000000	0.315267
625.000000	0.315245
626.000000	0.315287
627.000000	0.315403
628.000000	0.315459
629.000000	0.315548
630.000000	0.315582
631.000000	0.315684
632.000000	0.315824
633.000000	0.315979
634.000000	0.316106
635.000000	0.316180
636.000000	0.316297
637.000000	0.316473
638.000000	0.316638
639.000000	0.316730
640.000000	0.316790
641.000000	0.316778
642.000000	0.316879
643.000000	0.317045
644.000000	0.317167
645.000000	0.317346
646.000000	0.317547
647.000000	0.317713
648.000000	0.317910
649.000000	0.318105
650.000000	0.318271
651.000000	0.318435
652.000000	0.318664
653.000000	0.318954
654.000000	0.319174
655.000000	0.319399
656.000000	0.319667
657.000000	0.319937
658.000000	0.320229
659.000000	0.320535
660.000000	0.320822
661.000000	0.321059
662.000000	0.321257
663.000000	0.321494
664.000000	0.321783
665.000000	0.322123
666.000000	0.322464
667.000000	0.322733
668.000000	0.323008
669.000000	0.323369
670.000000	0.323816
671.000000	0.324160
672.000000	0.324497
673.000000	0.324856
674.000000	0.325238
675.000000	0.325547
676.000000	0.325831
677.000000	0.326192
678.000000	0.326588
679.000000	0.326989
680.000000	0.327385
681.000000	0.327794
682.000000	0.328197
683.000000	0.328536
684.000000	0.328955
685.000000	0.329383
686.000000	0.329845
687.000000	0.330325
688.000000	0.330794
689.000000	0.331232
690.000000	0.331685
691.000000	0.332234
692.000000	0.332746
693.000000	0.333256
694.000000	0.333808
695.000000	0.334323
696.000000	0.334787
697.000000	0.335222
698.000000	0.335756
699.000000	0.336343
700.000000	0.336913
701.000000	0.337375
702.000000	0.337843
703.000000	0.338356
704.000000	0.338918
705.000000	0.339514
706.000000	0.340089
707.000000	0.340676
708.000000	0.341239
709.000000	0.341770
710.000000	0.342301
711.000000	0.342876
712.000000	0.343450
713.000000	0.344032
714.000000	0.344654
715.000000	0.345243
716.000000	0.345791
717.000000	0.346302
718.000000	0.346914
719.000000	0.347495
720.000000	0.347961
721.000000	0.348505
722.000000	0.348971
723.000000	0.349408
724.000000	0.349966
725.000000	0.350421
726.000000	0.350896
727.000000	0.351457
728.000000	0.352010
729.000000	0.352585
730.000000	0.353137
731.000000	0.353619
732.000000	0.354059
733.000000	0.354516
734.000000	0.354964
735.000000	0.355352
736.000000	0.355804
737.000000	0.356216
738.000000	0.356611
739.000000	0.357082
740.000000	0.357487
741.000000	0.357848
742.000000	0.358294
743.000000	0.358762
744.000000	0.359074
745.000000	0.359292
746.000000	0.359568
747.000000	0.359938
748.000000	0.360263
749.000000	0.360554
750.000000	0.360801
751.000000	0.361037
752.000000	0.361331
753.000000	0.361626
754.000000	0.361725
755.000000	0.361898
756.000000	0.362159
757.000000	0.362393
758.000000	0.362571
759.000000	0.362724
760.000000	0.362811
761.000000	0.362947
762.000000	0.363037
763.000000	0.363094
764.000000	0.363278
765.000000	0.363366
766.000000	0.363395
767.000000	0.363435
768.000000	0.363501
769.000000	0.363505
770.000000	0.363443
771.000000	0.363426
772.000000	0.363502
773.000000	0.363520
774.000000	0.363419
775.000000	0.363372
776.000000	0.363303
777.000000	0.363141
778.000000	0.363023
779.000000	0.362932
780.000000	0.362832
781.000000	0.362645
782.000000	0.362524
783.000000	0.362497
784.000000	0.362352
785.000000	0.362197
786.000000	0.362032
787.000000	0.361844
788.000000	0.361617
789.000000	0.361446
790.000000	0.361289
791.000000	0.361088
792.000000	0.360832
793.000000	0.360523
794.000000	0.360192
795.000000	0.359928
796.000000	0.359671
797.000000	0.359379
798.000000	0.359043
799.000000	0.358794
800.000000	0.358584
801.000000	0.358322
802.000000	0.358007
803.000000	0.357686
804.000000	0.357411
805.000000	0.357078
806.000000	0.356706
807.000000	0.356388
808.000000	0.356076
809.000000	0.355734
810.000000	0.355443
811.000000	0.355198
812.000000	0.354755
813.000000	0.354320
814.000000	0.353983
815.000000	0.353752
816.000000	0.353420
817.000000	0.353088
818.000000	0.352790
819.000000	0.352423
820.000000	0.352130
821.000000	0.351861
822.000000	0.351450
823.000000	0.351093
824.000000	0.350699
825.000000	0.350253
826.000000	0.349945
827.000000	0.349635
828.000000	0.349296
829.000000	0.349055
830.000000	0.348730
831.000000	0.348342
832.000000	0.347837
833.000000	0.347408
834.000000	0.347030
835.000000	0.346679
836.000000	0.346303
837.000000	0.345926
838.000000	0.345553
839.000000	0.345125
840.000000	0.344783
841.000000	0.344427
842.000000	0.343966
843.000000	0.343819
844.000000	0.343527
845.000000	0.343027
846.000000	0.342794
847.000000	0.342415
848.000000	0.341965
849.000000	0.341636
850.000000	0.341266
851.000000	0.340928
852.000000	0.340665
853.000000	0.340341
854.000000	0.340034
855.000000	0.339788
856.000000	0.339447
857.000000	0.339157
858.000000	0.338853
859.000000	0.338438
860.000000	0.338062
861.000000	0.337664
862.000000	0.337270
863.000000	0.336864
864.000000	0.336638
865.000000	0.336391
866.000000	0.336085
867.000000	0.335964
868.000000	0.335735
869.000000	0.335352
870.000000	0.334998
871.000000	0.334648
872.000000	0.334376
873.000000	0.334155
874.000000	0.334003
875.000000	0.333723
876.000000	0.333342
877.000000	0.332917
878.000000	0.332468
879.000000	0.332144
880.000000	0.331883
881.000000	0.331772
882.000000	0.331525
883.000000	0.331234
884.000000	0.331050
885.000000	0.330803
886.000000	0.330513
887.000000	0.330229
888.000000	0.329909
889.000000	0.329661
890.000000	0.329379
891.000000	0.329121
892.000000	0.328734
893.000000	0.328461
894.000000	0.328452
895.000000	0.328225
896.000000	0.328038
897.000000	0.327867
898.000000	0.327625
899.000000	0.327401
900.000000	0.327217
901.000000	0.327030
902.000000	0.326854
903.000000	0.326767
904.000000	0.326676
905.000000	0.326389
906.000000	0.326214
907.000000	0.326049
908.000000	0.325928
909.000000	0.325843
910.000000	0.325749
911.000000	0.325601
912.000000	0.325404
913.000000	0.325222
914.000000	0.325098
915.000000	0.325055
916.000000	0.324916
917.000000	0.324685
918.000000	0.324443
919.000000	0.324251
920.000000	0.324183
921.000000	0.324022
922.000000	0.323858
923.000000	0.323874
924.000000	0.323783
925.000000	0.323715
926.000000	0.323694
927.000000	0.323332
928.000000	0.323129
929.000000	0.323046
930.000000	0.322909
931.000000	0.322900
932.000000	0.322746
933.000000	0.322552
934.000000	0.322718
935.000000	0.322559
936.000000	0.322308
937.000000	0.322166
938.000000	0.321998
939.000000	0.322078
940.000000	0.322204
941.000000	0.322098
942.000000	0.322044
943.000000	0.322139
944.000000	0.322208
945.000000	0.322099
946.000000	0.321938
947.000000	0.321839
948.000000	0.321815
949.000000	0.321885
950.000000	0.321874
951.000000	0.321734
952.000000	0.321675
953.000000	0.321535
954.000000	0.321352
955.000000	0.321121
956.000000	0.320919
957.000000	0.320955
958.000000	0.321053
959.000000	0.321054
960.000000	0.321163
961.000000	0.321282
962.000000	0.321300
963.000000	0.321192
964.000000	0.321261
965.000000	0.321421
966.000000	0.321427
967.000000	0.321408
968.000000	0.321414
969.000000	0.321416
970.000000	0.321438
971.000000	0.321086
972.000000	0.320947
973.000000	0.321142
974.000000	0.321322
975.000000	0.321242
976.000000	0.321184
977.000000	0.321345
978.000000	0.321331
979.000000	0.321527
980.000000	0.321622
981.000000	0.321595
982.000000	0.321611
983.000000	0.321685
984.000000	0.321809
985.000000	0.321800
986.000000	0.321795
987.000000	0.322017
988.000000	0.322323
989.000000	0.322150
990.000000	0.322270
991.000000	0.322630
992.000000	0.322903
993.000000	0.322716
994.000000	0.322867
995.000000	0.323397
996.000000	0.323388
997.000000	0.323408
998.000000	0.323695
999.000000	0.324231
1000.000000	0.324429
1001.000000	0.324283
1002.000000	0.323940
1003.000000	0.324132
1004.000000	0.324471
1005.000000	0.324825
1006.000000	0.325132
1007.000000	0.326011
1008.000000	0.326238
1009.000000	0.325578
1010.000000	0.324884
1011.000000	0.324893
1012.000000	0.325425
1013.000000	0.326140
1014.000000	0.326440
1015.000000	0.326600
1016.000000	0.326752
1017.000000	0.326374
1018.000000	0.326881
1019.000000	0.327232
1020.000000	0.327557
1021.000000	0.327534
1022.000000	0.327673
1023.000000	0.328251
1024.000000	0.328909
1025.000000	0.329413
1026.000000	0.329826
1027.000000	0.329859
1028.000000	0.329381
1029.000000	0.329246
1030.000000	0.329471
1031.000000	0.329722
1032.000000	0.330110
1033.000000	0.330606
1034.000000	0.331082
1035.000000	0.331772
1036.000000	0.332216
1037.000000	0.332436
1038.000000	0.332806
1039.000000	0.333439
1040.000000	0.333842
1041.000000	0.333731
1042.000000	0.334045
1043.000000	0.334417
1044.000000	0.334775
1045.000000	0.335690
1046.000000	0.336221
1047.000000	0.336671
1048.000000	0.336891
1049.000000	0.337067
1050.000000	0.337004
1051.000000	0.337189
1052.000000	0.337347
1053.000000	0.337467
1054.000000	0.337732
1055.000000	0.338339
1056.000000	0.339277
1057.000000	0.339837
1058.000000	0.340448
1059.000000	0.341054
1060.000000	0.341390
1061.000000	0.341419
1062.000000	0.341640
1063.000000	0.342649
1064.000000	0.343419
1065.000000	0.344407
1066.000000	0.345045
1067.000000	0.345535
1068.000000	0.345900
1069.000000	0.345829
1070.000000	0.346160
1071.000000	0.346760
1072.000000	0.347252
1073.000000	0.348047
1074.000000	0.348472
1075.000000	0.348784
1076.000000	0.349548
1077.000000	0.349969
1078.000000	0.350341
1079.000000	0.350687
1080.000000	0.350767
1081.000000	0.351217
1082.000000	0.352071
1083.000000	0.352655
1084.000000	0.353461
1085.000000	0.354023
1086.000000	0.354092
1087.000000	0.354508
1088.000000	0.355043
1089.000000	0.355421
1090.000000	0.355448
1091.000000	0.356210
1092.000000	0.356919
1093.000000	0.357188
1094.000000	0.357818
1095.000000	0.358680
1096.000000	0.359345
1097.000000	0.359983
1098.000000	0.360655
1099.000000	0.361273
1100.000000	0.361860
1101.000000	0.362303
1102.000000	0.362868
1103.000000	0.363352
1104.000000	0.364024
1105.000000	0.365008
1106.000000	0.365703
1107.000000	0.366246
1108.000000	0.366796
1109.000000	0.367106
1110.000000	0.367758
1111.000000	0.368185
1112.000000	0.368578
1113.000000	0.369136
1114.000000	0.369656
1115.000000	0.370258
1116.000000	0.371218
1117.000000	0.371729
1118.000000	0.371831
1119.000000	0.372265
1120.000000	0.372771
1121.000000	0.373165
1122.000000	0.373914
1123.000000	0.374547
1124.000000	0.374400
1125.000000	0.374794
1126.000000	0.375468
1127.000000	0.375930
1128.000000	0.376401
1129.000000	0.377090
1130.000000	0.377670
1131.000000	0.378191
1132.000000	0.378496
1133.000000	0.378641
1134.000000	0.379242
1135.000000	0.379933
1136.000000	0.380324
1137.000000	0.380967
1138.000000	0.381365
1139.000000	0.381226
1140.000000	0.381592
1141.000000	0.382308
1142.000000	0.382855
1143.000000	0.383337
1144.000000	0.383944
1145.000000	0.384422
1146.000000	0.384721
1147.000000	0.385059
1148.000000	0.385244
1149.000000	0.385576
1150.000000	0.385963
1151.000000	0.386290
1152.000000	0.386548
1153.000000	0.386939
1154.000000	0.387279
1155.000000	0.387632
1156.000000	0.388133
1157.000000	0.388540
1158.000000	0.388855
1159.000000	0.389119
1160.000000	0.389202
1161.000000	0.389503
1162.000000	0.389985
1163.000000	0.390479
1164.000000	0.390974
1165.000000	0.391487
1166.000000	0.391907
1167.000000	0.392135
1168.000000	0.392373
1169.000000	0.392621
1170.000000	0.392920
1171.000000	0.393184
1172.000000	0.393541
1173.000000	0.394010
1174.000000	0.394383
1175.000000	0.394676
1176.000000	0.394977
1177.000000	0.395375
1178.000000	0.395689
1179.000000	0.395955
1180.000000	0.396171
1181.000000	0.396420
1182.000000	0.396670
1183.000000	0.396957
1184.000000	0.397291
1185.000000	0.397633
1186.000000	0.398014
1187.000000	0.398309
1188.000000	0.398614
1189.000000	0.398889
1190.000000	0.399126
1191.000000	0.399413
1192.000000	0.399879
1193.000000	0.400317
1194.000000	0.400612
1195.000000	0.400923
1196.000000	0.401108
1197.000000	0.401384
1198.000000	0.401756
1199.000000	0.402053
1200.000000	0.402350
1201.000000	0.402629
1202.000000	0.402768
1203.000000	0.402964
1204.000000	0.403166
1205.000000	0.403287
1206.000000	0.403476
1207.000000	0.403865
1208.000000	0.404026
1209.000000	0.404169
1210.000000	0.404382
1211.000000	0.404512
1212.000000	0.404679
1213.000000	0.405023
1214.000000	0.405300
1215.000000	0.405514
1216.000000	0.405697
1217.000000	0.405716
1218.000000	0.405917
1219.000000	0.406290
1220.000000	0.406528
1221.000000	0.406749
1222.000000	0.407130
1223.000000	0.407367
1224.000000	0.407557
1225.000000	0.407875
1226.000000	0.408130
1227.000000	0.408128
1228.000000	0.408259
1229.000000	0.408303
1230.000000	0.408232
1231.000000	0.408226
1232.000000	0.408342
1233.000000	0.408551
1234.000000	0.408869
1235.000000	0.409016
1236.000000	0.409056
1237.000000	0.409185
1238.000000	0.409070
1239.000000	0.409139
1240.000000	0.409329
1241.000000	0.409581
1242.000000	0.409791
1243.000000	0.410040
1244.000000	0.410275
1245.000000	0.410490
1246.000000	0.410538
1247.000000	0.410611
1248.000000	0.410763
1249.000000	0.410886
1250.000000	0.411201
1251.000000	0.411570
1252.000000	0.411709
1253.000000	0.411790
1254.000000	0.411804
1255.000000	0.411544
1256.000000	0.411555
1257.000000	0.411669
1258.000000	0.411857
1259.000000	0.412165
1260.000000	0.412359
1261.000000	0.412439
1262.000000	0.412536
1263.000000	0.412575
1264.000000	0.412672
1265.000000	0.412805
1266.000000	0.413035
1267.000000	0.413176
1268.000000	0.413175
1269.000000	0.413223
1270.000000	0.413340
1271.000000	0.413455
1272.000000	0.413605
1273.000000	0.413740
1274.000000	0.413854
1275.000000	0.413954
1276.000000	0.414132
1277.000000	0.414232
1278.000000	0.414164
1279.000000	0.414126
1280.000000	0.413896
1281.000000	0.413799
1282.000000	0.413801
1283.000000	0.413901
1284.000000	0.414028
1285.000000	0.414161
1286.000000	0.414334
1287.000000	0.414462
1288.000000	0.414640
1289.000000	0.414757
1290.000000	0.414672
1291.000000	0.414603
1292.000000	0.414538
1293.000000	0.414536
1294.000000	0.414674
1295.000000	0.414858
1296.000000	0.415062
1297.000000	0.415167
1298.000000	0.415223
1299.000000	0.415270
1300.000000	0.415167
1301.000000	0.414935
1302.000000	0.414762
1303.000000	0.414677
1304.000000	0.414609
1305.000000	0.414789
1306.000000	0.414798
1307.000000	0.414773
1308.000000	0.414771
1309.000000	0.414752
1310.000000	0.414664
1311.000000	0.414576
1312.000000	0.414489
1313.000000	0.414273
1314.000000	0.414240
1315.000000	0.414135
1316.000000	0.414024
1317.000000	0.414116
1318.000000	0.413987
1319.000000	0.413740
1320.000000	0.413671
1321.000000	0.413425
1322.000000	0.413202
1323.000000	0.413206
1324.000000	0.413200
1325.000000	0.413069
1326.000000	0.412966
1327.000000	0.412978
1328.000000	0.412906
1329.000000	0.412773
1330.000000	0.412744
1331.000000	0.412631
1332.000000	0.412400
1333.000000	0.412306
1334.000000	0.412328
1335.000000	0.412291
1336.000000	0.412277
1337.000000	0.412253
1338.000000	0.412172
1339.000000	0.412060
1340.000000	0.411862
1341.000000	0.411724
1342.000000	0.411515
1343.000000	0.411361
1344.000000	0.411240
1345.000000	0.411022
1346.000000	0.410867
1347.000000	0.410484
1348.000000	0.410298
1349.000000	0.410147
1350.000000	0.409931
1351.000000	0.409819
1352.000000	0.409694
1353.000000	0.409445
1354.000000	0.409280
1355.000000	0.409208
1356.000000	0.409078
1357.000000	0.408839
1358.000000	0.408548
1359.000000	0.408233
1360.000000	0.407980
1361.000000	0.407757
1362.000000	0.407556
1363.000000	0.407470
1364.000000	0.407301
1365.000000	0.407031
1366.000000	0.406796
1367.000000	0.406595
1368.000000	0.406256
1369.000000	0.405899
1370.000000	0.405528
1371.000000	0.405146
1372.000000	0.404707
1373.000000	0.404325
1374.000000	0.404057
1375.000000	0.403592
1376.000000	0.403045
1377.000000	0.402611
1378.000000	0.402072
1379.000000	0.401312
1380.000000	0.400674
1381.000000	0.399919
1382.000000	0.398833
1383.000000	0.397789
1384.000000	0.396570
1385.000000	0.395267
1386.000000	0.394239
1387.000000	0.393096
1388.000000	0.391791
1389.000000	0.390561
1390.000000	0.389172
1391.000000	0.387777
1392.000000	0.386485
1393.000000	0.384994
1394.000000	0.383364
1395.000000	0.381795
1396.000000	0.380152
1397.000000	0.378481
1398.000000	0.376743
1399.000000	0.375010
1400.000000	0.373232
1401.000000	0.371496
1402.000000	0.369830
1403.000000	0.368122
1404.000000	0.366538
1405.000000	0.364906
1406.000000	0.363168
1407.000000	0.361516
1408.000000	0.359895
1409.000000	0.358302
1410.000000	0.356894
1411.000000	0.355543
1412.000000	0.354088
1413.000000	0.352857
1414.000000	0.351822
1415.000000	0.350915
1416.000000	0.350266
1417.000000	0.349759
1418.000000	0.349235
1419.000000	0.348775
1420.000000	0.348234
1421.000000	0.347803
1422.000000	0.347454
1423.000000	0.347150
1424.000000	0.346792
1425.000000	0.346263
1426.000000	0.345484
1427.000000	0.344722
1428.000000	0.343941
1429.000000	0.343143
1430.000000	0.342546
1431.000000	0.342079
1432.000000	0.341745
1433.000000	0.341639
1434.000000	0.341575
1435.000000	0.341646
1436.000000	0.341912
1437.000000	0.342187
1438.000000	0.342821
1439.000000	0.343861
1440.000000	0.344888
1441.000000	0.346261
1442.000000	0.347479
1443.000000	0.348567
1444.000000	0.349796
1445.000000	0.351000
1446.000000	0.352165
1447.000000	0.353455
1448.000000	0.354456
1449.000000	0.355343
1450.000000	0.356150
1451.000000	0.356663
1452.000000	0.357116
1453.000000	0.357480
1454.000000	0.357569
1455.000000	0.357640
1456.000000	0.357779
1457.000000	0.357876
1458.000000	0.358043
1459.000000	0.358203
1460.000000	0.358298
1461.000000	0.358361
1462.000000	0.358398
1463.000000	0.358442
1464.000000	0.358539
1465.000000	0.358715
1466.000000	0.358877
1467.000000	0.359077
1468.000000	0.359301
1469.000000	0.359579
1470.000000	0.359817
1471.000000	0.360159
1472.000000	0.360588
1473.000000	0.361067
1474.000000	0.361547
1475.000000	0.361988
1476.000000	0.362454
1477.000000	0.362982
1478.000000	0.363520
1479.000000	0.363984
1480.000000	0.364329
1481.000000	0.364761
1482.000000	0.365262
1483.000000	0.365710
1484.000000	0.366201
1485.000000	0.366668
1486.000000	0.366965
1487.000000	0.367434
1488.000000	0.368025
1489.000000	0.368670
1490.000000	0.369366
1491.000000	0.369950
1492.000000	0.370442
1493.000000	0.370963
1494.000000	0.371302
1495.000000	0.371700
1496.000000	0.372197
1497.000000	0.372677
1498.000000	0.373152
1499.000000	0.373660
1500.000000	0.374167
1501.000000	0.374602
1502.000000	0.375020
1503.000000	0.375483
1504.000000	0.376015
1505.000000	0.376430
1506.000000	0.376861
1507.000000	0.377238
1508.000000	0.377521
1509.000000	0.377877
1510.000000	0.378213
1511.000000	0.378517
1512.000000	0.378733
1513.000000	0.378932
1514.000000	0.379156
1515.000000	0.379375
1516.000000	0.379696
1517.000000	0.379940
1518.000000	0.380211
1519.000000	0.380453
1520.000000	0.380724
1521.000000	0.380992
1522.000000	0.381269
1523.000000	0.381518
1524.000000	0.381531
1525.000000	0.381677
1526.000000	0.381821
1527.000000	0.381911
1528.000000	0.382197
1529.000000	0.382430
1530.000000	0.382581
1531.000000	0.382883
1532.000000	0.383186
1533.000000	0.383368
1534.000000	0.383543
1535.000000	0.383729
1536.000000	0.383807
1537.000000	0.384072
1538.000000	0.384413
1539.000000	0.384546
1540.000000	0.384721
1541.000000	0.384927
1542.000000	0.385067
1543.000000	0.385247
1544.000000	0.385367
1545.000000	0.385547
1546.000000	0.385712
1547.000000	0.385749
1548.000000	0.385905
1549.000000	0.386040
1550.000000	0.386102
1551.000000	0.386260
1552.000000	0.386322
1553.000000	0.386263
1554.000000	0.386208
1555.000000	0.386135
1556.000000	0.386242
1557.000000	0.386503
1558.000000	0.386623
1559.000000	0.386684
1560.000000	0.386727
1561.000000	0.386630
1562.000000	0.386674
1563.000000	0.386934
1564.000000	0.387032
1565.000000	0.387112
1566.000000	0.387065
1567.000000	0.386945
1568.000000	0.386977
1569.000000	0.387163
1570.000000	0.387279
1571.000000	0.387434
1572.000000	0.387504
1573.000000	0.387446
1574.000000	0.387526
1575.000000	0.387743
1576.000000	0.387860
1577.000000	0.387976
1578.000000	0.388045
1579.000000	0.388042
1580.000000	0.388114
1581.000000	0.388352
1582.000000	0.388462
1583.000000	0.388508
1584.000000	0.388570
1585.000000	0.388720
1586.000000	0.388804
1587.000000	0.388874
1588.000000	0.388979
1589.000000	0.389060
1590.000000	0.389103
1591.000000	0.389214
1592.000000	0.389228
1593.000000	0.389170
1594.000000	0.389191
1595.000000	0.389313
1596.000000	0.389371
1597.000000	0.389471
1598.000000	0.389433
1599.000000	0.389309
1600.000000	0.389206
1601.000000	0.389139
1602.000000	0.389100
1603.000000	0.389141
1604.000000	0.389149
1605.000000	0.389213
1606.000000	0.389165
1607.000000	0.389070
1608.000000	0.389052
1609.000000	0.389120
1610.000000	0.389098
1611.000000	0.389165
1612.000000	0.389154
1613.000000	0.389055
1614.000000	0.389075
1615.000000	0.389222
1616.000000	0.389388
1617.000000	0.389587
1618.000000	0.389759
1619.000000	0.389978
1620.000000	0.390087
1621.000000	0.390178
1622.000000	0.390310
1623.000000	0.390276
1624.000000	0.390397
1625.000000	0.390449
1626.000000	0.390470
1627.000000	0.390588
1628.000000	0.390707
1629.000000	0.390809
1630.000000	0.390914
1631.000000	0.390911
1632.000000	0.390953
1633.000000	0.391030
1634.000000	0.391061
1635.000000	0.391176
1636.000000	0.391256
1637.000000	0.391255
1638.000000	0.391299
1639.000000	0.391467
1640.000000	0.391550
1641.000000	0.391691
1642.000000	0.391828
1643.000000	0.391988
1644.000000	0.392112
1645.000000	0.392243
1646.000000	0.392270
1647.000000	0.392263
1648.000000	0.392240
1649.000000	0.392221
1650.000000	0.392340
1651.000000	0.392620
1652.000000	0.392790
1653.000000	0.392897
1654.000000	0.393058
1655.000000	0.393143
1656.000000	0.393073
1657.000000	0.393099
1658.000000	0.393071
1659.000000	0.392910
1660.000000	0.393028
1661.000000	0.393224
1662.000000	0.393371
1663.000000	0.393593
1664.000000	0.393725
1665.000000	0.393819
1666.000000	0.393999
1667.000000	0.394047
1668.000000	0.394158
1669.000000	0.394309
1670.000000	0.394262
1671.000000	0.394248
1672.000000	0.394458
1673.000000	0.394639
1674.000000	0.394979
1675.000000	0.395221
1676.000000	0.395161
1677.000000	0.394947
1678.000000	0.394937
1679.000000	0.395006
1680.000000	0.395092
1681.000000	0.395426
1682.000000	0.395555
1683.000000	0.395545
1684.000000	0.395696
1685.000000	0.395759
1686.000000	0.395761
1687.000000	0.395892
1688.000000	0.395829
1689.000000	0.395705
1690.000000	0.395642
1691.000000	0.395675
1692.000000	0.395763
1693.000000	0.395875
1694.000000	0.395895
1695.000000	0.395986
1696.000000	0.396053
1697.000000	0.396020
1698.000000	0.396029
1699.000000	0.396099
1700.000000	0.396115
1701.000000	0.396248
1702.000000	0.396385
1703.000000	0.396355
1704.000000	0.396257
1705.000000	0.396245
1706.000000	0.396239
1707.000000	0.396242
1708.000000	0.396301
1709.000000	0.396259
1710.000000	0.396268
1711.000000	0.396301
1712.000000	0.396355
1713.000000	0.396398
1714.000000	0.396512
1715.000000	0.396565
1716.000000	0.396654
1717.000000	0.396642
1718.000000	0.396401
1719.000000	0.396377
1720.000000	0.396535
1721.000000	0.396545
1722.000000	0.396642
1723.000000	0.396661
1724.000000	0.396502
1725.000000	0.396523
1726.000000	0.396606
1727.000000	0.396555
1728.000000	0.396367
1729.000000	0.396214
1730.000000	0.396127
1731.000000	0.396112
1732.000000	0.396214
1733.000000	0.396342
1734.000000	0.396406
1735.000000	0.396344
1736.000000	0.396129
1737.000000	0.396129
1738.000000	0.396166
1739.000000	0.396130
1740.000000	0.396188
1741.000000	0.396221
1742.000000	0.396087
1743.000000	0.396240
1744.000000	0.396660
1745.000000	0.396687
1746.000000	0.396591
1747.000000	0.396479
1748.000000	0.396334
1749.000000	0.396258
1750.000000	0.396163
1751.000000	0.396199
1752.000000	0.396273
1753.000000	0.396196
1754.000000	0.396172
1755.000000	0.396113
1756.000000	0.395994
1757.000000	0.395858
1758.000000	0.395778
1759.000000	0.395649
1760.000000	0.395518
1761.000000	0.395358
1762.000000	0.395263
1763.000000	0.395244
1764.000000	0.395128
1765.000000	0.394879
1766.000000	0.394878
1767.000000	0.394825
1768.000000	0.394781
1769.000000	0.395148
1770.000000	0.395262
1771.000000	0.395058
1772.000000	0.395073
1773.000000	0.395104
1774.000000	0.395105
1775.000000	0.395308
1776.000000	0.395263
1777.000000	0.394928
1778.000000	0.394869
1779.000000	0.394809
1780.000000	0.394821
1781.000000	0.395005
1782.000000	0.395026
1783.000000	0.394988
1784.000000	0.395010
1785.000000	0.395092
1786.000000	0.395345
1787.000000	0.395633
1788.000000	0.395861
1789.000000	0.395918
1790.000000	0.395857
1791.000000	0.395690
1792.000000	0.395462
1793.000000	0.395368
1794.000000	0.395272
1795.000000	0.395260
1796.000000	0.395423
1797.000000	0.395438
1798.000000	0.395351
1799.000000	0.395328
1800.000000	0.395391
1801.000000	0.395980
1802.000000	0.395445
1803.000000	0.394645
1804.000000	0.395007
1805.000000	0.396251
1806.000000	0.396660
1807.000000	0.398007
1808.000000	0.398401
1809.000000	0.398271
1810.000000	0.396735
1811.000000	0.396010
1812.000000	0.395097
1813.000000	0.394935
1814.000000	0.394950
1815.000000	0.395172
1816.000000	0.396277
1817.000000	0.396670
1818.000000	0.396717
1819.000000	0.397346
1820.000000	0.397687
1821.000000	0.396952
1822.000000	0.396828
1823.000000	0.396555
1824.000000	0.396035
1825.000000	0.395311
1826.000000	0.395153
1827.000000	0.394810
1828.000000	0.394588
1829.000000	0.394942
1830.000000	0.395206
1831.000000	0.394824
1832.000000	0.393295
1833.000000	0.393398
1834.000000	0.394230
1835.000000	0.394178
1836.000000	0.394603
1837.000000	0.394788
1838.000000	0.393963
1839.000000	0.393409
1840.000000	0.393536
1841.000000	0.393384
1842.000000	0.392821
1843.000000	0.391327
1844.000000	0.390897
1845.000000	0.390366
1846.000000	0.390362
1847.000000	0.391027
1848.000000	0.391617
1849.000000	0.391810
1850.000000	0.391794
1851.000000	0.391378
1852.000000	0.390272
1853.000000	0.389603
1854.000000	0.388427
1855.000000	0.387468
1856.000000	0.386402
1857.000000	0.385765
1858.000000	0.384970
1859.000000	0.384881
1860.000000	0.384465
1861.000000	0.383872
1862.000000	0.383173
1863.000000	0.382050
1864.000000	0.381129
1865.000000	0.380625
1866.000000	0.379470
1867.000000	0.377691
1868.000000	0.376873
1869.000000	0.374863
1870.000000	0.372669
1871.000000	0.370974
1872.000000	0.368177
1873.000000	0.365897
1874.000000	0.363801
1875.000000	0.361698
1876.000000	0.359115
1877.000000	0.357126
1878.000000	0.354984
1879.000000	0.351665
1880.000000	0.349025
1881.000000	0.345766
1882.000000	0.341370
1883.000000	0.337976
1884.000000	0.334582
1885.000000	0.331060
1886.000000	0.326881
1887.000000	0.322853
1888.000000	0.318053
1889.000000	0.312881
1890.000000	0.308125
1891.000000	0.303461
1892.000000	0.299121
1893.000000	0.294341
1894.000000	0.287990
1895.000000	0.282182
1896.000000	0.276389
1897.000000	0.270944
1898.000000	0.265071
1899.000000	0.260608
1900.000000	0.256761
1901.000000	0.252440
1902.000000	0.248545
1903.000000	0.245032
1904.000000	0.241460
1905.000000	0.238318
1906.000000	0.235559
1907.000000	0.233271
1908.000000	0.231089
1909.000000	0.229709
1910.000000	0.229070
1911.000000	0.228461
1912.000000	0.228395
1913.000000	0.228213
1914.000000	0.227650
1915.000000	0.227147
1916.000000	0.227000
1917.000000	0.226965
1918.000000	0.227336
1919.000000	0.227487
1920.000000	0.227689
1921.000000	0.228028
1922.000000	0.228318
1923.000000	0.228739
1924.000000	0.229577
1925.000000	0.229874
1926.000000	0.229421
1927.000000	0.230122
1928.000000	0.230798
1929.000000	0.231433
1930.000000	0.232332
1931.000000	0.234484
1932.000000	0.235450
1933.000000	0.235844
1934.000000	0.236546
1935.000000	0.236442
1936.000000	0.236389
1937.000000	0.236576
1938.000000	0.236529
1939.000000	0.236751
1940.000000	0.237063
1941.000000	0.237631
1942.000000	0.238277
1943.000000	0.238880
1944.000000	0.239611
1945.000000	0.240303
1946.000000	0.240828
1947.000000	0.241118
1948.000000	0.241417
1949.000000	0.241474
1950.000000	0.240960
1951.000000	0.240818
1952.000000	0.240996
1953.000000	0.241047
1954.000000	0.240890
1955.000000	0.241614
1956.000000	0.242836
1957.000000	0.243387
1958.000000	0.243616
1959.000000	0.244344
1960.000000	0.244452
1961.000000	0.244732
1962.000000	0.245106
1963.000000	0.246019
1964.000000	0.246283
1965.000000	0.246881
1966.000000	0.246957
1967.000000	0.246735
1968.000000	0.247034
1969.000000	0.246655
1970.000000	0.246564
1971.000000	0.246763
1972.000000	0.246769
1973.000000	0.247186
1974.000000	0.248111
1975.000000	0.248793
1976.000000	0.249644
1977.000000	0.250882
1978.000000	0.251497
1979.000000	0.251728
1980.000000	0.252425
1981.000000	0.253120
1982.000000	0.253894
1983.000000	0.255276
1984.000000	0.256283
1985.000000	0.257359
1986.000000	0.258118
1987.000000	0.258852
1988.000000	0.259207
1989.000000	0.259336
1990.000000	0.259413
1991.000000	0.258513
1992.000000	0.258347
1993.000000	0.259099
1994.000000	0.260040
1995.000000	0.261837
1996.000000	0.263398
1997.000000	0.264594
1998.000000	0.265243
1999.000000	0.266312
2000.000000	0.267500
2001.000000	0.268524
2002.000000	0.269438
2003.000000	0.270353
2004.000000	0.270671
2005.000000	0.270571
2006.000000	0.271069
2007.000000	0.272100
2008.000000	0.273139
2009.000000	0.274702
2010.000000	0.276209
2011.000000	0.277592
2012.000000	0.278707
2013.000000	0.279778
2014.000000	0.280733
2015.000000	0.281547
2016.000000	0.282632
2017.000000	0.284058
2018.000000	0.286121
2019.000000	0.287738
2020.000000	0.288863
2021.000000	0.289848
2022.000000	0.290156
2023.000000	0.290749
2024.000000	0.291271
2025.000000	0.292055
2026.000000	0.293013
2027.000000	0.293767
2028.000000	0.293896
2029.000000	0.294660
2030.000000	0.295285
2031.000000	0.295265
2032.000000	0.296407
2033.000000	0.297310
2034.000000	0.297977
2035.000000	0.298779
2036.000000	0.299536
2037.000000	0.300148
2038.000000	0.300964
2039.000000	0.302322
2040.000000	0.302840
2041.000000	0.302977
2042.000000	0.303378
2043.000000	0.304117
2044.000000	0.305111
2045.000000	0.306423
2046.000000	0.307313
2047.000000	0.307933
2048.000000	0.307814
2049.000000	0.308454
2050.000000	0.308935
2051.000000	0.309313
2052.000000	0.309761
2053.000000	0.309851
2054.000000	0.309596
2055.000000	0.310022
2056.000000	0.310704
2057.000000	0.311704
2058.000000	0.313091
2059.000000	0.314540
2060.000000	0.315449
2061.000000	0.316116
2062.000000	0.316611
2063.000000	0.316582
2064.000000	0.316764
2065.000000	0.317335
2066.000000	0.317365
2067.000000	0.317181
2068.000000	0.317718
2069.000000	0.317828
2070.000000	0.318318
2071.000000	0.319476
2072.000000	0.320226
2073.000000	0.320517
2074.000000	0.320559
2075.000000	0.320962
2076.000000	0.321146
2077.000000	0.321754
2078.000000	0.323033
2079.000000	0.323872
2080.000000	0.324865
2081.000000	0.325337
2082.000000	0.325581
2083.000000	0.325560
2084.000000	0.324910
2085.000000	0.324466
2086.000000	0.324986
2087.000000	0.326243
2088.000000	0.328251
2089.000000	0.330428
2090.000000	0.331639
2091.000000	0.332337
2092.000000	0.332800
2093.000000	0.332430
2094.000000	0.332563
2095.000000	0.332584
2096.000000	0.332970
2097.000000	0.333559
2098.000000	0.334208
2099.000000	0.334551
2100.000000	0.335338
2101.000000	0.335729
2102.000000	0.335322
2103.000000	0.335559
2104.000000	0.336062
2105.000000	0.336389
2106.000000	0.336944
2107.000000	0.337365
2108.000000	0.337234
2109.000000	0.337777
2110.000000	0.338952
2111.000000	0.339435
2112.000000	0.339923
2113.000000	0.339862
2114.000000	0.339152
2115.000000	0.338354
2116.000000	0.338740
2117.000000	0.339046
2118.000000	0.339848
2119.000000	0.340632
2120.000000	0.341062
2121.000000	0.340997
2122.000000	0.341547
2123.000000	0.342450
2124.000000	0.342830
2125.000000	0.343252
2126.000000	0.343302
2127.000000	0.342497
2128.000000	0.342513
2129.000000	0.342470
2130.000000	0.343275
2131.000000	0.344122
2132.000000	0.344028
2133.000000	0.343691
2134.000000	0.343036
2135.000000	0.342440
2136.000000	0.342330
2137.000000	0.342380
2138.000000	0.342956
2139.000000	0.343244
2140.000000	0.343970
2141.000000	0.343966
2142.000000	0.343459
2143.000000	0.343007
2144.000000	0.342279
2145.000000	0.341629
2146.000000	0.341163
2147.000000	0.340881
2148.000000	0.340614
2149.000000	0.340761
2150.000000	0.340781
2151.000000	0.341272
2152.000000	0.341249
2153.000000	0.341051
2154.000000	0.340934
2155.000000	0.340867
2156.000000	0.340526
2157.000000	0.339900
2158.000000	0.339695
2159.000000	0.339579
2160.000000	0.339835
2161.000000	0.341059
2162.000000	0.341411
2163.000000	0.340798
2164.000000	0.340716
2165.000000	0.340717
2166.000000	0.340115
2167.000000	0.340393
2168.000000	0.341963
2169.000000	0.342592
2170.000000	0.342511
2171.000000	0.342418
2172.000000	0.341664
2173.000000	0.341421
2174.000000	0.341247
2175.000000	0.341362
2176.000000	0.342058
2177.000000	0.341906
2178.000000	0.341536
2179.000000	0.341240
2180.000000	0.340312
2181.000000	0.339879
2182.000000	0.338889
2183.000000	0.338366
2184.000000	0.338520
2185.000000	0.338400
2186.000000	0.339505
2187.000000	0.340449
2188.000000	0.340197
2189.000000	0.339887
2190.000000	0.339249
2191.000000	0.339191
2192.000000	0.339166
2193.000000	0.340201
2194.000000	0.339508
2195.000000	0.337888
2196.000000	0.336429
2197.000000	0.332812
2198.000000	0.331803
2199.000000	0.332645
2200.000000	0.333017
2201.000000	0.336165
2202.000000	0.336430
2203.000000	0.333423
2204.000000	0.332898
2205.000000	0.331846
2206.000000	0.330129
2207.000000	0.331582
2208.000000	0.332156
2209.000000	0.330231
2210.000000	0.329668
2211.000000	0.328604
2212.000000	0.328852
2213.000000	0.329358
2214.000000	0.331123
2215.000000	0.332037
2216.000000	0.332981
2217.000000	0.333771
2218.000000	0.334560
2219.000000	0.335006
2220.000000	0.334641
2221.000000	0.335432
2222.000000	0.337073
2223.000000	0.338148
2224.000000	0.339531
2225.000000	0.341146
2226.000000	0.340611
2227.000000	0.340594
2228.000000	0.341424
2229.000000	0.338374
2230.000000	0.336539
2231.000000	0.333656
2232.000000	0.329327
2233.000000	0.328365
2234.000000	0.328287
2235.000000	0.329198
2236.000000	0.329803
2237.000000	0.332188
2238.000000	0.332843
2239.000000	0.331751
2240.000000	0.332008
2241.000000	0.332582
2242.000000	0.332933
2243.000000	0.333689
2244.000000	0.334673
2245.000000	0.336215
2246.000000	0.336937
2247.000000	0.336781
2248.000000	0.336874
2249.000000	0.336463
2250.000000	0.336887
2251.000000	0.336135
2252.000000	0.336621
2253.000000	0.336829
2254.000000	0.333430
2255.000000	0.331579
2256.000000	0.332068
2257.000000	0.332473
2258.000000	0.333182
2259.000000	0.332612
2260.000000	0.329891
2261.000000	0.327772
2262.000000	0.324441
2263.000000	0.322443
2264.000000	0.321584
2265.000000	0.319900
2266.000000	0.318035
2267.000000	0.315698
2268.000000	0.311852
2269.000000	0.310234
2270.000000	0.310463
2271.000000	0.308835
2272.000000	0.308147
2273.000000	0.306351
2274.000000	0.301802
2275.000000	0.298887
2276.000000	0.296726
2277.000000	0.294251
2278.000000	0.291930
2279.000000	0.288894
2280.000000	0.287150
2281.000000	0.284836
2282.000000	0.282708
2283.000000	0.282876
2284.000000	0.282802
2285.000000	0.282439
2286.000000	0.282893
2287.000000	0.282942
2288.000000	0.283154
2289.000000	0.283269
2290.000000	0.282910
2291.000000	0.284996
2292.000000	0.286376
2293.000000	0.286769
2294.000000	0.287573
2295.000000	0.288369
2296.000000	0.288719
2297.000000	0.288908
2298.000000	0.289575
2299.000000	0.289102
2300.000000	0.290830
2301.000000	0.294116
2302.000000	0.296613
2303.000000	0.301161
2304.000000	0.303975
2305.000000	0.306442
2306.000000	0.307598
2307.000000	0.307500
2308.000000	0.306310
2309.000000	0.306034
2310.000000	0.303190
2311.000000	0.303182
2312.000000	0.303174
2313.000000	0.301574
2314.000000	0.301873
2315.000000	0.298931
2316.000000	0.297743
2317.000000	0.299933
2318.000000	0.300049
2319.000000	0.303344
2320.000000	0.306277
2321.000000	0.305604
2322.000000	0.305839
2323.000000	0.304392
2324.000000	0.304141
2325.000000	0.305503
2326.000000	0.304018
2327.000000	0.303769
2328.000000	0.302668
2329.000000	0.298583
2330.000000	0.297117
2331.000000	0.294864
2332.000000	0.293420
2333.000000	0.295175
2334.000000	0.294054
2335.000000	0.293707
2336.000000	0.292633
2337.000000	0.292406
2338.000000	0.294062
2339.000000	0.293748
2340.000000	0.291729
2341.000000	0.291414
2342.000000	0.289711
2343.000000	0.288806
2344.000000	0.291503
2345.000000	0.291686
2346.000000	0.290944
2347.000000	0.287992
2348.000000	0.282109
2349.000000	0.278838
2350.000000	0.276296
2351.000000	0.275577
2352.000000	0.276575
2353.000000	0.275224
2354.000000	0.271862
2355.000000	0.268568
2356.000000	0.268139
2357.000000	0.269148
2358.000000	0.270474
2359.000000	0.272745
2360.000000	0.273343
2361.000000	0.272489
2362.000000	0.273244
2363.000000	0.272901
2364.000000	0.274557
2365.000000	0.277462
2366.000000	0.274096
2367.000000	0.271359
2368.000000	0.266864
2369.000000	0.261837
2370.000000	0.262215
2371.000000	0.263778
2372.000000	0.264250
2373.000000	0.261709
2374.000000	0.257932
2375.000000	0.252580
2376.000000	0.248947
2377.000000	0.249290
2378.000000	0.253504
2379.000000	0.256770
2380.000000	0.255195
2381.000000	0.255576
2382.000000	0.254352
2383.000000	0.253814
2384.000000	0.255723
2385.000000	0.252266
2386.000000	0.246554
2387.000000	0.241639
2388.000000	0.238094
2389.000000	0.235357
2390.000000	0.233987
2391.000000	0.233168
2392.000000	0.232856
2393.000000	0.236916
2394.000000	0.235899
2395.000000	0.230479
2396.000000	0.225419
2397.000000	0.213335
2398.000000	0.210839
2399.000000	0.218657
2400.000000	0.220350
2401.000000	0.223661
2402.000000	0.227515
2403.000000	0.224339
2404.000000	0.219268
2405.000000	0.220593
2406.000000	0.222675
2407.000000	0.219582
2408.000000	0.218933
2409.000000	0.216995
2410.000000	0.215407
2411.000000	0.220224
2412.000000	0.227826
2413.000000	0.237292
2414.000000	0.244371
2415.000000	0.247699
2416.000000	0.250993
2417.000000	0.250302
2418.000000	0.240642
2419.000000	0.229616
2420.000000	0.219377
2421.000000	0.210920
2422.000000	0.213523
2423.000000	0.213661
2424.000000	0.210737
2425.000000	0.215345
2426.000000	0.217699
2427.000000	0.227206
2428.000000	0.239291
2429.000000	0.244653
2430.000000	0.241725
2431.000000	0.228886
2432.000000	0.221441
2433.000000	0.211573
2434.000000	0.210750
2435.000000	0.220608
2436.000000	0.227213
2437.000000	0.235177
2438.000000	0.235932
2439.000000	0.233807
2440.000000	0.236381
2441.000000	0.238720
2442.000000	0.240244
2443.000000	0.243229
2444.000000	0.227852
2445.000000	0.220657
2446.000000	0.227559
2447.000000	0.222544
2448.000000	0.231461
2449.000000	0.227870
2450.000000	0.214170
2451.000000	0.218322
2452.000000	0.216595
2453.000000	0.215504
2454.000000	0.210433
2455.000000	0.186902
2456.000000	0.179104
2457.000000	0.186026
2458.000000	0.193020
2459.000000	0.213384
2460.000000	0.214994
2461.000000	0.200294
2462.000000	0.196159
2463.000000	0.180236
2464.000000	0.176317
2465.000000	0.188212
2466.000000	0.177204
2467.000000	0.176816
2468.000000	0.197354
2469.000000	0.197629
2470.000000	0.208581
2471.000000	0.214488
2472.000000	0.191731
2473.000000	0.186135
2474.000000	0.179068
2475.000000	0.187830
2476.000000	0.208737
2477.000000	0.212430
2478.000000	0.225996
2479.000000	0.216703
2480.000000	0.200498
2481.000000	0.188537
2482.000000	0.158994
2483.000000	0.139219
2484.000000	0.111177
2485.000000	0.095598
2486.000000	0.086840
2487.000000	0.069911
2488.000000	0.098351
2489.000000	0.119541
2490.000000	0.160179
2491.000000	0.250833
2492.000000	0.263054
2493.000000	0.231347
2494.000000	0.202909
2495.000000	0.098909
2496.000000	0.075989
2497.000000	0.082088
2498.000000	0.092230
2499.000000	0.162704
2500.000000	0.204817
