# Wavelength	NAu-2-60_HEX-10_FV7-30_00001.asd.rts.txt
350.000000	0.116116
351.000000	0.109468
352.000000	0.100402
353.000000	0.095601
354.000000	0.098463
355.000000	0.101994
356.000000	0.109052
357.000000	0.116080
358.000000	0.112308
359.000000	0.109078
360.000000	0.107218
361.000000	0.105080
362.000000	0.103816
363.000000	0.104876
364.000000	0.107255
365.000000	0.104440
366.000000	0.105048
367.000000	0.108644
368.000000	0.107542
369.000000	0.103963
370.000000	0.100839
371.000000	0.101371
372.000000	0.105710
373.000000	0.108978
374.000000	0.108564
375.000000	0.106408
376.000000	0.108594
377.000000	0.112798
378.000000	0.108507
379.000000	0.108511
380.000000	0.110352
381.000000	0.108204
382.000000	0.109314
383.000000	0.109222
384.000000	0.105365
385.000000	0.102597
386.000000	0.102571
387.000000	0.104712
388.000000	0.106010
389.000000	0.107505
390.000000	0.108278
391.000000	0.107061
392.000000	0.107131
393.000000	0.108367
394.000000	0.109615
395.000000	0.107744
396.000000	0.107675
397.000000	0.110003
398.000000	0.109666
399.000000	0.109436
400.000000	0.109733
401.000000	0.110099
402.000000	0.110551
403.000000	0.111058
404.000000	0.111497
405.000000	0.110919
406.000000	0.110444
407.000000	0.110697
408.000000	0.111613
409.000000	0.111703
410.000000	0.111261
411.000000	0.111602
412.000000	0.112367
413.000000	0.112702
414.000000	0.112112
415.000000	0.112757
416.000000	0.113390
417.000000	0.113360
418.000000	0.113838
419.000000	0.114177
420.000000	0.114302
421.000000	0.114575
422.000000	0.115161
423.000000	0.115506
424.000000	0.115041
425.000000	0.115024
426.000000	0.115430
427.000000	0.116023
428.000000	0.116573
429.000000	0.117129
430.000000	0.117605
431.000000	0.117698
432.000000	0.117444
433.000000	0.117284
434.000000	0.117878
435.000000	0.118458
436.000000	0.118713
437.000000	0.118617
438.000000	0.118954
439.000000	0.119670
440.000000	0.120462
441.000000	0.120347
442.000000	0.120466
443.000000	0.120870
444.000000	0.120953
445.000000	0.121131
446.000000	0.121391
447.000000	0.121592
448.000000	0.122279
449.000000	0.123122
450.000000	0.123771
451.000000	0.124035
452.000000	0.124136
453.000000	0.124205
454.000000	0.124392
455.000000	0.124774
456.000000	0.125332
457.000000	0.125878
458.000000	0.125963
459.000000	0.126237
460.000000	0.127140
461.000000	0.127316
462.000000	0.127554
463.000000	0.128062
464.000000	0.128140
465.000000	0.128396
466.000000	0.128842
467.000000	0.129201
468.000000	0.129408
469.000000	0.129557
470.000000	0.129871
471.000000	0.130368
472.000000	0.130928
473.000000	0.131406
474.000000	0.131518
475.000000	0.131715
476.000000	0.132151
477.000000	0.132511
478.000000	0.132648
479.000000	0.132867
480.000000	0.133451
481.000000	0.133909
482.000000	0.134268
483.000000	0.134513
484.000000	0.134687
485.000000	0.134801
486.000000	0.134999
487.000000	0.135418
488.000000	0.135654
489.000000	0.135684
490.000000	0.135725
491.000000	0.135960
492.000000	0.136266
493.000000	0.136399
494.000000	0.136645
495.000000	0.136815
496.000000	0.136798
497.000000	0.136931
498.000000	0.137096
499.000000	0.137260
500.000000	0.137374
501.000000	0.137562
502.000000	0.137782
503.000000	0.137887
504.000000	0.138053
505.000000	0.138264
506.000000	0.138477
507.000000	0.138682
508.000000	0.138875
509.000000	0.139069
510.000000	0.139371
511.000000	0.139824
512.000000	0.140329
513.000000	0.140621
514.000000	0.140945
515.000000	0.141361
516.000000	0.141825
517.000000	0.142222
518.000000	0.142538
519.000000	0.142789
520.000000	0.143247
521.000000	0.143747
522.000000	0.144219
523.000000	0.144706
524.000000	0.145301
525.000000	0.145984
526.000000	0.146699
527.000000	0.147624
528.000000	0.148639
529.000000	0.149627
530.000000	0.150714
531.000000	0.151948
532.000000	0.153249
533.000000	0.154430
534.000000	0.155653
535.000000	0.156968
536.000000	0.158359
537.000000	0.159644
538.000000	0.160862
539.000000	0.162122
540.000000	0.163259
541.000000	0.164340
542.000000	0.165450
543.000000	0.166466
544.000000	0.167479
545.000000	0.168501
546.000000	0.169535
547.000000	0.170597
548.000000	0.171708
549.000000	0.172830
550.000000	0.174080
551.000000	0.175415
552.000000	0.176736
553.000000	0.178180
554.000000	0.179749
555.000000	0.181413
556.000000	0.183095
557.000000	0.184794
558.000000	0.186589
559.000000	0.188424
560.000000	0.190205
561.000000	0.191966
562.000000	0.193702
563.000000	0.195387
564.000000	0.197065
565.000000	0.198699
566.000000	0.200215
567.000000	0.201645
568.000000	0.202996
569.000000	0.204277
570.000000	0.205393
571.000000	0.206394
572.000000	0.207491
573.000000	0.208469
574.000000	0.209268
575.000000	0.209929
576.000000	0.210514
577.000000	0.211015
578.000000	0.211456
579.000000	0.211783
580.000000	0.212043
581.000000	0.212251
582.000000	0.212379
583.000000	0.212429
584.000000	0.212420
585.000000	0.212381
586.000000	0.212367
587.000000	0.212317
588.000000	0.212159
589.000000	0.211934
590.000000	0.211678
591.000000	0.211393
592.000000	0.210973
593.000000	0.210598
594.000000	0.210259
595.000000	0.209758
596.000000	0.209229
597.000000	0.208694
598.000000	0.208082
599.000000	0.207518
600.000000	0.206984
601.000000	0.206388
602.000000	0.205764
603.000000	0.205109
604.000000	0.204436
605.000000	0.203760
606.000000	0.203137
607.000000	0.202564
608.000000	0.201992
609.000000	0.201355
610.000000	0.200716
611.000000	0.200149
612.000000	0.199542
613.000000	0.198995
614.000000	0.198559
615.000000	0.198002
616.000000	0.197447
617.000000	0.196913
618.000000	0.196386
619.000000	0.195888
620.000000	0.195362
621.000000	0.194781
622.000000	0.194370
623.000000	0.194019
624.000000	0.193608
625.000000	0.193176
626.000000	0.192813
627.000000	0.192518
628.000000	0.192131
629.000000	0.191810
630.000000	0.191522
631.000000	0.191315
632.000000	0.190968
633.000000	0.190694
634.000000	0.190670
635.000000	0.190412
636.000000	0.190201
637.000000	0.190168
638.000000	0.190081
639.000000	0.189952
640.000000	0.189827
641.000000	0.189690
642.000000	0.189661
643.000000	0.189711
644.000000	0.189768
645.000000	0.189813
646.000000	0.189858
647.000000	0.189907
648.000000	0.189999
649.000000	0.190143
650.000000	0.190312
651.000000	0.190471
652.000000	0.190625
653.000000	0.190838
654.000000	0.191138
655.000000	0.191468
656.000000	0.191833
657.000000	0.192210
658.000000	0.192595
659.000000	0.193006
660.000000	0.193449
661.000000	0.193946
662.000000	0.194404
663.000000	0.194888
664.000000	0.195487
665.000000	0.196094
666.000000	0.196721
667.000000	0.197381
668.000000	0.198040
669.000000	0.198781
670.000000	0.199613
671.000000	0.200357
672.000000	0.201156
673.000000	0.202031
674.000000	0.202931
675.000000	0.203828
676.000000	0.204746
677.000000	0.205734
678.000000	0.206782
679.000000	0.207830
680.000000	0.208860
681.000000	0.209949
682.000000	0.211079
683.000000	0.212213
684.000000	0.213443
685.000000	0.214661
686.000000	0.215931
687.000000	0.217313
688.000000	0.218649
689.000000	0.219987
690.000000	0.221408
691.000000	0.222890
692.000000	0.224364
693.000000	0.225880
694.000000	0.227505
695.000000	0.229064
696.000000	0.230585
697.000000	0.232178
698.000000	0.233834
699.000000	0.235590
700.000000	0.237440
701.000000	0.239201
702.000000	0.240994
703.000000	0.242844
704.000000	0.244684
705.000000	0.246588
706.000000	0.248520
707.000000	0.250475
708.000000	0.252485
709.000000	0.254498
710.000000	0.256480
711.000000	0.258448
712.000000	0.260440
713.000000	0.262502
714.000000	0.264638
715.000000	0.266767
716.000000	0.268884
717.000000	0.271006
718.000000	0.273130
719.000000	0.275262
720.000000	0.277413
721.000000	0.279524
722.000000	0.281653
723.000000	0.283846
724.000000	0.285966
725.000000	0.288096
726.000000	0.290299
727.000000	0.292471
728.000000	0.294546
729.000000	0.296611
730.000000	0.298700
731.000000	0.300819
732.000000	0.302918
733.000000	0.304994
734.000000	0.306994
735.000000	0.309000
736.000000	0.311058
737.000000	0.312949
738.000000	0.314790
739.000000	0.316682
740.000000	0.318527
741.000000	0.320493
742.000000	0.322359
743.000000	0.324066
744.000000	0.325832
745.000000	0.327532
746.000000	0.329231
747.000000	0.330936
748.000000	0.332595
749.000000	0.334219
750.000000	0.335777
751.000000	0.337216
752.000000	0.338580
753.000000	0.339920
754.000000	0.341275
755.000000	0.342641
756.000000	0.343966
757.000000	0.345157
758.000000	0.346349
759.000000	0.347539
760.000000	0.348646
761.000000	0.349750
762.000000	0.350800
763.000000	0.351785
764.000000	0.352805
765.000000	0.353738
766.000000	0.354598
767.000000	0.355427
768.000000	0.356291
769.000000	0.357139
770.000000	0.357934
771.000000	0.358655
772.000000	0.359361
773.000000	0.360028
774.000000	0.360740
775.000000	0.361366
776.000000	0.361940
777.000000	0.362486
778.000000	0.363040
779.000000	0.363563
780.000000	0.364026
781.000000	0.364380
782.000000	0.364774
783.000000	0.365259
784.000000	0.365643
785.000000	0.365999
786.000000	0.366324
787.000000	0.366616
788.000000	0.366907
789.000000	0.367172
790.000000	0.367430
791.000000	0.367761
792.000000	0.367958
793.000000	0.368143
794.000000	0.368410
795.000000	0.368519
796.000000	0.368622
797.000000	0.368770
798.000000	0.368932
799.000000	0.369048
800.000000	0.369101
801.000000	0.369113
802.000000	0.369155
803.000000	0.369253
804.000000	0.369408
805.000000	0.369427
806.000000	0.369400
807.000000	0.369417
808.000000	0.369394
809.000000	0.369476
810.000000	0.369568
811.000000	0.369571
812.000000	0.369551
813.000000	0.369499
814.000000	0.369430
815.000000	0.369399
816.000000	0.369332
817.000000	0.369242
818.000000	0.369079
819.000000	0.369020
820.000000	0.368988
821.000000	0.368879
822.000000	0.368751
823.000000	0.368573
824.000000	0.368350
825.000000	0.368249
826.000000	0.368280
827.000000	0.368193
828.000000	0.367942
829.000000	0.367791
830.000000	0.367612
831.000000	0.367481
832.000000	0.367366
833.000000	0.367186
834.000000	0.366960
835.000000	0.366730
836.000000	0.366377
837.000000	0.366103
838.000000	0.365933
839.000000	0.365701
840.000000	0.365427
841.000000	0.365217
842.000000	0.365103
843.000000	0.365004
844.000000	0.364847
845.000000	0.364581
846.000000	0.364273
847.000000	0.363986
848.000000	0.363780
849.000000	0.363692
850.000000	0.363429
851.000000	0.363100
852.000000	0.362844
853.000000	0.362698
854.000000	0.362374
855.000000	0.362063
856.000000	0.361841
857.000000	0.361506
858.000000	0.361339
859.000000	0.361281
860.000000	0.360960
861.000000	0.360599
862.000000	0.360307
863.000000	0.360043
864.000000	0.359697
865.000000	0.359369
866.000000	0.359126
867.000000	0.358846
868.000000	0.358668
869.000000	0.358478
870.000000	0.358204
871.000000	0.357865
872.000000	0.357475
873.000000	0.357028
874.000000	0.356752
875.000000	0.356461
876.000000	0.356124
877.000000	0.355701
878.000000	0.355279
879.000000	0.355049
880.000000	0.354864
881.000000	0.354492
882.000000	0.354031
883.000000	0.353673
884.000000	0.353525
885.000000	0.353323
886.000000	0.353086
887.000000	0.352868
888.000000	0.352613
889.000000	0.352361
890.000000	0.351995
891.000000	0.351625
892.000000	0.351298
893.000000	0.351002
894.000000	0.350813
895.000000	0.350518
896.000000	0.350073
897.000000	0.349567
898.000000	0.349135
899.000000	0.348767
900.000000	0.348421
901.000000	0.348073
902.000000	0.347885
903.000000	0.347574
904.000000	0.347210
905.000000	0.346851
906.000000	0.346697
907.000000	0.346460
908.000000	0.346180
909.000000	0.346051
910.000000	0.345706
911.000000	0.345233
912.000000	0.344848
913.000000	0.344736
914.000000	0.344405
915.000000	0.343895
916.000000	0.343480
917.000000	0.343270
918.000000	0.343043
919.000000	0.342673
920.000000	0.342570
921.000000	0.342359
922.000000	0.341959
923.000000	0.341442
924.000000	0.341104
925.000000	0.340842
926.000000	0.340609
927.000000	0.340426
928.000000	0.340193
929.000000	0.339872
930.000000	0.339487
931.000000	0.339223
932.000000	0.338973
933.000000	0.338672
934.000000	0.338211
935.000000	0.338021
936.000000	0.337868
937.000000	0.337454
938.000000	0.337319
939.000000	0.337162
940.000000	0.336842
941.000000	0.336513
942.000000	0.336184
943.000000	0.335852
944.000000	0.335509
945.000000	0.335658
946.000000	0.335495
947.000000	0.335121
948.000000	0.334809
949.000000	0.334454
950.000000	0.334183
951.000000	0.333968
952.000000	0.333767
953.000000	0.333538
954.000000	0.333287
955.000000	0.332968
956.000000	0.332714
957.000000	0.332440
958.000000	0.332084
959.000000	0.331731
960.000000	0.331309
961.000000	0.331026
962.000000	0.330876
963.000000	0.330654
964.000000	0.330582
965.000000	0.330596
966.000000	0.330439
967.000000	0.330030
968.000000	0.329796
969.000000	0.329604
970.000000	0.329267
971.000000	0.329274
972.000000	0.329223
973.000000	0.328890
974.000000	0.328576
975.000000	0.328429
976.000000	0.328255
977.000000	0.327943
978.000000	0.327886
979.000000	0.328065
980.000000	0.328014
981.000000	0.327707
982.000000	0.327496
983.000000	0.327330
984.000000	0.327169
985.000000	0.326867
986.000000	0.326778
987.000000	0.326708
988.000000	0.326427
989.000000	0.326332
990.000000	0.326401
991.000000	0.326232
992.000000	0.325615
993.000000	0.325597
994.000000	0.325567
995.000000	0.325562
996.000000	0.325672
997.000000	0.325826
998.000000	0.325730
999.000000	0.325432
1000.000000	0.325240
1001.000000	0.325658
1002.000000	0.325177
1003.000000	0.325566
1004.000000	0.325503
1005.000000	0.324761
1006.000000	0.324496
1007.000000	0.324760
1008.000000	0.324382
1009.000000	0.323565
1010.000000	0.323516
1011.000000	0.323500
1012.000000	0.323254
1013.000000	0.323233
1014.000000	0.323332
1015.000000	0.323966
1016.000000	0.324572
1017.000000	0.324653
1018.000000	0.324792
1019.000000	0.324876
1020.000000	0.324455
1021.000000	0.324120
1022.000000	0.324260
1023.000000	0.324471
1024.000000	0.324345
1025.000000	0.324585
1026.000000	0.325076
1027.000000	0.325236
1028.000000	0.325031
1029.000000	0.325082
1030.000000	0.325147
1031.000000	0.324969
1032.000000	0.324997
1033.000000	0.324814
1034.000000	0.324821
1035.000000	0.324772
1036.000000	0.325044
1037.000000	0.325662
1038.000000	0.326022
1039.000000	0.326636
1040.000000	0.326949
1041.000000	0.326896
1042.000000	0.327183
1043.000000	0.327255
1044.000000	0.326947
1045.000000	0.327220
1046.000000	0.327293
1047.000000	0.327396
1048.000000	0.327641
1049.000000	0.327689
1050.000000	0.327612
1051.000000	0.327602
1052.000000	0.327223
1053.000000	0.327280
1054.000000	0.327746
1055.000000	0.328163
1056.000000	0.328795
1057.000000	0.329712
1058.000000	0.329819
1059.000000	0.329858
1060.000000	0.330405
1061.000000	0.331003
1062.000000	0.331303
1063.000000	0.331584
1064.000000	0.331815
1065.000000	0.331328
1066.000000	0.331407
1067.000000	0.332070
1068.000000	0.332226
1069.000000	0.331999
1070.000000	0.332035
1071.000000	0.332178
1072.000000	0.332258
1073.000000	0.332263
1074.000000	0.332759
1075.000000	0.332963
1076.000000	0.332870
1077.000000	0.333164
1078.000000	0.333128
1079.000000	0.333416
1080.000000	0.333848
1081.000000	0.334407
1082.000000	0.335531
1083.000000	0.335952
1084.000000	0.336089
1085.000000	0.336428
1086.000000	0.336443
1087.000000	0.336590
1088.000000	0.336954
1089.000000	0.337140
1090.000000	0.337064
1091.000000	0.336968
1092.000000	0.337238
1093.000000	0.337635
1094.000000	0.337973
1095.000000	0.338394
1096.000000	0.338768
1097.000000	0.339186
1098.000000	0.339411
1099.000000	0.339362
1100.000000	0.339675
1101.000000	0.340124
1102.000000	0.340252
1103.000000	0.340225
1104.000000	0.340571
1105.000000	0.340863
1106.000000	0.341108
1107.000000	0.341869
1108.000000	0.342163
1109.000000	0.341940
1110.000000	0.341803
1111.000000	0.342004
1112.000000	0.342290
1113.000000	0.342680
1114.000000	0.343521
1115.000000	0.343862
1116.000000	0.343965
1117.000000	0.344184
1118.000000	0.344224
1119.000000	0.344357
1120.000000	0.344681
1121.000000	0.344813
1122.000000	0.344905
1123.000000	0.345204
1124.000000	0.345192
1125.000000	0.345365
1126.000000	0.345817
1127.000000	0.345913
1128.000000	0.345870
1129.000000	0.345603
1130.000000	0.345860
1131.000000	0.346165
1132.000000	0.346411
1133.000000	0.347155
1134.000000	0.347496
1135.000000	0.347462
1136.000000	0.347479
1137.000000	0.347481
1138.000000	0.347437
1139.000000	0.347237
1140.000000	0.347320
1141.000000	0.347545
1142.000000	0.347712
1143.000000	0.347859
1144.000000	0.348147
1145.000000	0.348285
1146.000000	0.348405
1147.000000	0.348494
1148.000000	0.348516
1149.000000	0.348536
1150.000000	0.348484
1151.000000	0.348540
1152.000000	0.348527
1153.000000	0.348663
1154.000000	0.348907
1155.000000	0.349039
1156.000000	0.349181
1157.000000	0.349359
1158.000000	0.349415
1159.000000	0.349542
1160.000000	0.349748
1161.000000	0.349927
1162.000000	0.350115
1163.000000	0.350492
1164.000000	0.350865
1165.000000	0.351120
1166.000000	0.351273
1167.000000	0.351278
1168.000000	0.351370
1169.000000	0.351423
1170.000000	0.351475
1171.000000	0.351642
1172.000000	0.351762
1173.000000	0.351698
1174.000000	0.351797
1175.000000	0.352014
1176.000000	0.352090
1177.000000	0.352249
1178.000000	0.352361
1179.000000	0.352341
1180.000000	0.352359
1181.000000	0.352505
1182.000000	0.352591
1183.000000	0.352678
1184.000000	0.352952
1185.000000	0.353209
1186.000000	0.353570
1187.000000	0.353683
1188.000000	0.353731
1189.000000	0.353782
1190.000000	0.353717
1191.000000	0.353778
1192.000000	0.354088
1193.000000	0.354323
1194.000000	0.354376
1195.000000	0.354447
1196.000000	0.354384
1197.000000	0.354490
1198.000000	0.354729
1199.000000	0.354881
1200.000000	0.355072
1201.000000	0.355240
1202.000000	0.355344
1203.000000	0.355520
1204.000000	0.355652
1205.000000	0.355768
1206.000000	0.355799
1207.000000	0.355814
1208.000000	0.355788
1209.000000	0.355752
1210.000000	0.355816
1211.000000	0.355890
1212.000000	0.355923
1213.000000	0.356076
1214.000000	0.356197
1215.000000	0.356160
1216.000000	0.356305
1217.000000	0.356610
1218.000000	0.356776
1219.000000	0.356977
1220.000000	0.357170
1221.000000	0.357274
1222.000000	0.357303
1223.000000	0.357447
1224.000000	0.357643
1225.000000	0.357923
1226.000000	0.358214
1227.000000	0.358218
1228.000000	0.358249
1229.000000	0.358205
1230.000000	0.357835
1231.000000	0.357802
1232.000000	0.358129
1233.000000	0.358368
1234.000000	0.358699
1235.000000	0.358876
1236.000000	0.358815
1237.000000	0.358918
1238.000000	0.359026
1239.000000	0.359110
1240.000000	0.359234
1241.000000	0.359330
1242.000000	0.359454
1243.000000	0.359539
1244.000000	0.359640
1245.000000	0.359950
1246.000000	0.360035
1247.000000	0.360066
1248.000000	0.360211
1249.000000	0.360284
1250.000000	0.360404
1251.000000	0.360630
1252.000000	0.360758
1253.000000	0.360874
1254.000000	0.360940
1255.000000	0.360932
1256.000000	0.361000
1257.000000	0.361128
1258.000000	0.361265
1259.000000	0.361339
1260.000000	0.361478
1261.000000	0.361526
1262.000000	0.361662
1263.000000	0.361876
1264.000000	0.362139
1265.000000	0.362511
1266.000000	0.362605
1267.000000	0.362575
1268.000000	0.362618
1269.000000	0.362513
1270.000000	0.362634
1271.000000	0.362807
1272.000000	0.362896
1273.000000	0.363079
1274.000000	0.363136
1275.000000	0.363148
1276.000000	0.363121
1277.000000	0.363299
1278.000000	0.363420
1279.000000	0.363486
1280.000000	0.363578
1281.000000	0.363628
1282.000000	0.363608
1283.000000	0.363727
1284.000000	0.363962
1285.000000	0.364073
1286.000000	0.364111
1287.000000	0.363997
1288.000000	0.364142
1289.000000	0.364232
1290.000000	0.364136
1291.000000	0.364292
1292.000000	0.364376
1293.000000	0.364295
1294.000000	0.364469
1295.000000	0.364703
1296.000000	0.364955
1297.000000	0.365168
1298.000000	0.365231
1299.000000	0.365328
1300.000000	0.365343
1301.000000	0.365339
1302.000000	0.365324
1303.000000	0.365474
1304.000000	0.365528
1305.000000	0.365678
1306.000000	0.365721
1307.000000	0.365779
1308.000000	0.365837
1309.000000	0.365848
1310.000000	0.365827
1311.000000	0.365809
1312.000000	0.365764
1313.000000	0.365802
1314.000000	0.365821
1315.000000	0.365916
1316.000000	0.366209
1317.000000	0.366368
1318.000000	0.366285
1319.000000	0.366044
1320.000000	0.365925
1321.000000	0.365860
1322.000000	0.365805
1323.000000	0.365967
1324.000000	0.366097
1325.000000	0.365922
1326.000000	0.365806
1327.000000	0.365890
1328.000000	0.365832
1329.000000	0.365712
1330.000000	0.365672
1331.000000	0.365651
1332.000000	0.365520
1333.000000	0.365544
1334.000000	0.365856
1335.000000	0.366041
1336.000000	0.366184
1337.000000	0.366267
1338.000000	0.366273
1339.000000	0.366213
1340.000000	0.366172
1341.000000	0.366258
1342.000000	0.366471
1343.000000	0.366543
1344.000000	0.366608
1345.000000	0.366522
1346.000000	0.366449
1347.000000	0.366473
1348.000000	0.366371
1349.000000	0.366278
1350.000000	0.366286
1351.000000	0.366105
1352.000000	0.365964
1353.000000	0.365838
1354.000000	0.365609
1355.000000	0.365520
1356.000000	0.365706
1357.000000	0.365799
1358.000000	0.365838
1359.000000	0.365831
1360.000000	0.365768
1361.000000	0.365576
1362.000000	0.365440
1363.000000	0.365285
1364.000000	0.365199
1365.000000	0.365093
1366.000000	0.365001
1367.000000	0.364968
1368.000000	0.364886
1369.000000	0.364872
1370.000000	0.364580
1371.000000	0.364266
1372.000000	0.364009
1373.000000	0.363540
1374.000000	0.363265
1375.000000	0.363121
1376.000000	0.362881
1377.000000	0.362679
1378.000000	0.362410
1379.000000	0.361959
1380.000000	0.361464
1381.000000	0.360846
1382.000000	0.360178
1383.000000	0.359582
1384.000000	0.358818
1385.000000	0.357932
1386.000000	0.357049
1387.000000	0.356047
1388.000000	0.355019
1389.000000	0.354022
1390.000000	0.352956
1391.000000	0.351751
1392.000000	0.350361
1393.000000	0.348893
1394.000000	0.347365
1395.000000	0.345869
1396.000000	0.344289
1397.000000	0.342609
1398.000000	0.340885
1399.000000	0.339105
1400.000000	0.337064
1401.000000	0.335328
1402.000000	0.333776
1403.000000	0.332183
1404.000000	0.330670
1405.000000	0.329353
1406.000000	0.328027
1407.000000	0.326879
1408.000000	0.326036
1409.000000	0.325247
1410.000000	0.324514
1411.000000	0.323747
1412.000000	0.322976
1413.000000	0.322380
1414.000000	0.321962
1415.000000	0.321629
1416.000000	0.321278
1417.000000	0.321020
1418.000000	0.320707
1419.000000	0.320497
1420.000000	0.320410
1421.000000	0.320377
1422.000000	0.320264
1423.000000	0.320187
1424.000000	0.320078
1425.000000	0.319920
1426.000000	0.319786
1427.000000	0.319715
1428.000000	0.319646
1429.000000	0.319660
1430.000000	0.319734
1431.000000	0.319800
1432.000000	0.319796
1433.000000	0.319726
1434.000000	0.319694
1435.000000	0.319761
1436.000000	0.319782
1437.000000	0.319724
1438.000000	0.319804
1439.000000	0.319880
1440.000000	0.320129
1441.000000	0.320580
1442.000000	0.321121
1443.000000	0.321684
1444.000000	0.322403
1445.000000	0.323215
1446.000000	0.324020
1447.000000	0.324849
1448.000000	0.325665
1449.000000	0.326450
1450.000000	0.327236
1451.000000	0.328023
1452.000000	0.328659
1453.000000	0.329242
1454.000000	0.329800
1455.000000	0.330300
1456.000000	0.330832
1457.000000	0.331325
1458.000000	0.331804
1459.000000	0.332223
1460.000000	0.332576
1461.000000	0.332939
1462.000000	0.333282
1463.000000	0.333653
1464.000000	0.334055
1465.000000	0.334424
1466.000000	0.334703
1467.000000	0.334965
1468.000000	0.335238
1469.000000	0.335634
1470.000000	0.336071
1471.000000	0.336508
1472.000000	0.336993
1473.000000	0.337555
1474.000000	0.338008
1475.000000	0.338429
1476.000000	0.338873
1477.000000	0.339288
1478.000000	0.339615
1479.000000	0.339983
1480.000000	0.340416
1481.000000	0.340816
1482.000000	0.341299
1483.000000	0.341767
1484.000000	0.342193
1485.000000	0.342629
1486.000000	0.343044
1487.000000	0.343497
1488.000000	0.344065
1489.000000	0.344539
1490.000000	0.344819
1491.000000	0.345185
1492.000000	0.345465
1493.000000	0.345782
1494.000000	0.346105
1495.000000	0.346430
1496.000000	0.346736
1497.000000	0.347093
1498.000000	0.347532
1499.000000	0.347877
1500.000000	0.348223
1501.000000	0.348417
1502.000000	0.348539
1503.000000	0.348770
1504.000000	0.348995
1505.000000	0.349284
1506.000000	0.349740
1507.000000	0.350156
1508.000000	0.350609
1509.000000	0.351048
1510.000000	0.351195
1511.000000	0.351305
1512.000000	0.351392
1513.000000	0.351477
1514.000000	0.351730
1515.000000	0.351966
1516.000000	0.352218
1517.000000	0.352352
1518.000000	0.352447
1519.000000	0.352567
1520.000000	0.352778
1521.000000	0.353018
1522.000000	0.353317
1523.000000	0.353569
1524.000000	0.353632
1525.000000	0.353785
1526.000000	0.353894
1527.000000	0.354055
1528.000000	0.354305
1529.000000	0.354466
1530.000000	0.354557
1531.000000	0.354635
1532.000000	0.354775
1533.000000	0.354868
1534.000000	0.354948
1535.000000	0.355139
1536.000000	0.355217
1537.000000	0.355376
1538.000000	0.355464
1539.000000	0.355299
1540.000000	0.355358
1541.000000	0.355456
1542.000000	0.355505
1543.000000	0.355721
1544.000000	0.355774
1545.000000	0.355759
1546.000000	0.355877
1547.000000	0.355982
1548.000000	0.355977
1549.000000	0.355981
1550.000000	0.356037
1551.000000	0.356070
1552.000000	0.356254
1553.000000	0.356531
1554.000000	0.356666
1555.000000	0.356814
1556.000000	0.356929
1557.000000	0.356856
1558.000000	0.356946
1559.000000	0.357033
1560.000000	0.357127
1561.000000	0.357377
1562.000000	0.357438
1563.000000	0.357437
1564.000000	0.357501
1565.000000	0.357474
1566.000000	0.357467
1567.000000	0.357633
1568.000000	0.357715
1569.000000	0.357840
1570.000000	0.357966
1571.000000	0.358048
1572.000000	0.358130
1573.000000	0.358278
1574.000000	0.358371
1575.000000	0.358417
1576.000000	0.358553
1577.000000	0.358703
1578.000000	0.358727
1579.000000	0.358899
1580.000000	0.358883
1581.000000	0.358673
1582.000000	0.358660
1583.000000	0.358653
1584.000000	0.358617
1585.000000	0.358800
1586.000000	0.358850
1587.000000	0.358797
1588.000000	0.358792
1589.000000	0.358784
1590.000000	0.358786
1591.000000	0.358805
1592.000000	0.358812
1593.000000	0.358870
1594.000000	0.358940
1595.000000	0.359043
1596.000000	0.359168
1597.000000	0.359397
1598.000000	0.359482
1599.000000	0.359559
1600.000000	0.359556
1601.000000	0.359500
1602.000000	0.359568
1603.000000	0.359721
1604.000000	0.359776
1605.000000	0.359902
1606.000000	0.359942
1607.000000	0.359917
1608.000000	0.359902
1609.000000	0.359956
1610.000000	0.359965
1611.000000	0.359887
1612.000000	0.359952
1613.000000	0.360268
1614.000000	0.360353
1615.000000	0.360510
1616.000000	0.360593
1617.000000	0.360433
1618.000000	0.360392
1619.000000	0.360376
1620.000000	0.360326
1621.000000	0.360288
1622.000000	0.360343
1623.000000	0.360395
1624.000000	0.360421
1625.000000	0.360323
1626.000000	0.360282
1627.000000	0.360205
1628.000000	0.360273
1629.000000	0.360470
1630.000000	0.360602
1631.000000	0.360675
1632.000000	0.360784
1633.000000	0.360927
1634.000000	0.361046
1635.000000	0.361253
1636.000000	0.361364
1637.000000	0.361412
1638.000000	0.361418
1639.000000	0.361417
1640.000000	0.361517
1641.000000	0.361695
1642.000000	0.361821
1643.000000	0.362152
1644.000000	0.362168
1645.000000	0.361931
1646.000000	0.361824
1647.000000	0.361639
1648.000000	0.361528
1649.000000	0.361637
1650.000000	0.361653
1651.000000	0.361672
1652.000000	0.361742
1653.000000	0.361758
1654.000000	0.361830
1655.000000	0.361905
1656.000000	0.361861
1657.000000	0.361848
1658.000000	0.361842
1659.000000	0.361927
1660.000000	0.362005
1661.000000	0.361995
1662.000000	0.362032
1663.000000	0.362051
1664.000000	0.362063
1665.000000	0.362124
1666.000000	0.362159
1667.000000	0.362001
1668.000000	0.361986
1669.000000	0.362024
1670.000000	0.361927
1671.000000	0.361946
1672.000000	0.362070
1673.000000	0.362072
1674.000000	0.362286
1675.000000	0.362579
1676.000000	0.362574
1677.000000	0.362537
1678.000000	0.362556
1679.000000	0.362585
1680.000000	0.362559
1681.000000	0.362701
1682.000000	0.362925
1683.000000	0.362981
1684.000000	0.363024
1685.000000	0.363220
1686.000000	0.363342
1687.000000	0.363310
1688.000000	0.363250
1689.000000	0.363205
1690.000000	0.362973
1691.000000	0.362962
1692.000000	0.363072
1693.000000	0.363048
1694.000000	0.363067
1695.000000	0.363111
1696.000000	0.363244
1697.000000	0.363255
1698.000000	0.363361
1699.000000	0.363405
1700.000000	0.363265
1701.000000	0.363289
1702.000000	0.363232
1703.000000	0.363075
1704.000000	0.362889
1705.000000	0.362878
1706.000000	0.363037
1707.000000	0.363031
1708.000000	0.363059
1709.000000	0.362981
1710.000000	0.362783
1711.000000	0.362674
1712.000000	0.362693
1713.000000	0.362618
1714.000000	0.362533
1715.000000	0.362441
1716.000000	0.362294
1717.000000	0.362219
1718.000000	0.362122
1719.000000	0.362058
1720.000000	0.362129
1721.000000	0.362165
1722.000000	0.362197
1723.000000	0.362252
1724.000000	0.362347
1725.000000	0.362468
1726.000000	0.362492
1727.000000	0.362596
1728.000000	0.362763
1729.000000	0.362699
1730.000000	0.362721
1731.000000	0.362668
1732.000000	0.362401
1733.000000	0.362424
1734.000000	0.362432
1735.000000	0.362448
1736.000000	0.362509
1737.000000	0.362569
1738.000000	0.362662
1739.000000	0.362692
1740.000000	0.362712
1741.000000	0.362716
1742.000000	0.362661
1743.000000	0.362705
1744.000000	0.362827
1745.000000	0.362748
1746.000000	0.362603
1747.000000	0.362183
1748.000000	0.361976
1749.000000	0.362005
1750.000000	0.361882
1751.000000	0.361953
1752.000000	0.362117
1753.000000	0.362054
1754.000000	0.362029
1755.000000	0.362115
1756.000000	0.362086
1757.000000	0.361904
1758.000000	0.361822
1759.000000	0.361773
1760.000000	0.361661
1761.000000	0.361446
1762.000000	0.361337
1763.000000	0.361278
1764.000000	0.361209
1765.000000	0.361216
1766.000000	0.361155
1767.000000	0.360806
1768.000000	0.360735
1769.000000	0.360992
1770.000000	0.361078
1771.000000	0.361248
1772.000000	0.361218
1773.000000	0.360829
1774.000000	0.360718
1775.000000	0.360697
1776.000000	0.360785
1777.000000	0.361056
1778.000000	0.361109
1779.000000	0.361127
1780.000000	0.361130
1781.000000	0.360940
1782.000000	0.360930
1783.000000	0.361095
1784.000000	0.361244
1785.000000	0.361103
1786.000000	0.360876
1787.000000	0.360805
1788.000000	0.360673
1789.000000	0.360694
1790.000000	0.360780
1791.000000	0.360674
1792.000000	0.360434
1793.000000	0.360322
1794.000000	0.360258
1795.000000	0.360177
1796.000000	0.360169
1797.000000	0.360127
1798.000000	0.359935
1799.000000	0.359893
1800.000000	0.360063
1801.000000	0.360178
1802.000000	0.360007
1803.000000	0.359705
1804.000000	0.359347
1805.000000	0.359123
1806.000000	0.359167
1807.000000	0.358834
1808.000000	0.359002
1809.000000	0.359785
1810.000000	0.360993
1811.000000	0.361286
1812.000000	0.361333
1813.000000	0.361179
1814.000000	0.360680
1815.000000	0.360042
1816.000000	0.358684
1817.000000	0.358144
1818.000000	0.357740
1819.000000	0.357784
1820.000000	0.358385
1821.000000	0.358404
1822.000000	0.358157
1823.000000	0.356778
1824.000000	0.356653
1825.000000	0.356940
1826.000000	0.357157
1827.000000	0.357542
1828.000000	0.358432
1829.000000	0.359302
1830.000000	0.359484
1831.000000	0.359040
1832.000000	0.357943
1833.000000	0.357546
1834.000000	0.356349
1835.000000	0.356046
1836.000000	0.356976
1837.000000	0.357212
1838.000000	0.357222
1839.000000	0.357014
1840.000000	0.356396
1841.000000	0.355850
1842.000000	0.355401
1843.000000	0.354343
1844.000000	0.354214
1845.000000	0.354774
1846.000000	0.354879
1847.000000	0.354888
1848.000000	0.355375
1849.000000	0.354997
1850.000000	0.354450
1851.000000	0.354185
1852.000000	0.354005
1853.000000	0.353537
1854.000000	0.352702
1855.000000	0.352183
1856.000000	0.351642
1857.000000	0.350739
1858.000000	0.350397
1859.000000	0.349754
1860.000000	0.348422
1861.000000	0.347767
1862.000000	0.347086
1863.000000	0.346468
1864.000000	0.345849
1865.000000	0.345696
1866.000000	0.344884
1867.000000	0.343588
1868.000000	0.342642
1869.000000	0.340965
1870.000000	0.338987
1871.000000	0.337299
1872.000000	0.336145
1873.000000	0.334718
1874.000000	0.333799
1875.000000	0.332299
1876.000000	0.330561
1877.000000	0.327460
1878.000000	0.324757
1879.000000	0.321514
1880.000000	0.318237
1881.000000	0.314604
1882.000000	0.310117
1883.000000	0.306479
1884.000000	0.302861
1885.000000	0.298963
1886.000000	0.295190
1887.000000	0.292160
1888.000000	0.287990
1889.000000	0.283102
1890.000000	0.278108
1891.000000	0.272456
1892.000000	0.266994
1893.000000	0.261749
1894.000000	0.256560
1895.000000	0.251531
1896.000000	0.246910
1897.000000	0.242181
1898.000000	0.237544
1899.000000	0.233630
1900.000000	0.230232
1901.000000	0.227243
1902.000000	0.224843
1903.000000	0.222627
1904.000000	0.220876
1905.000000	0.219376
1906.000000	0.218467
1907.000000	0.217979
1908.000000	0.218429
1909.000000	0.218843
1910.000000	0.219340
1911.000000	0.219876
1912.000000	0.220450
1913.000000	0.221634
1914.000000	0.222994
1915.000000	0.224063
1916.000000	0.225059
1917.000000	0.226096
1918.000000	0.226963
1919.000000	0.228113
1920.000000	0.229749
1921.000000	0.231292
1922.000000	0.232248
1923.000000	0.233295
1924.000000	0.234032
1925.000000	0.234839
1926.000000	0.236525
1927.000000	0.237794
1928.000000	0.238686
1929.000000	0.239508
1930.000000	0.240143
1931.000000	0.240198
1932.000000	0.240836
1933.000000	0.242092
1934.000000	0.243349
1935.000000	0.244386
1936.000000	0.245123
1937.000000	0.245416
1938.000000	0.245086
1939.000000	0.245053
1940.000000	0.244967
1941.000000	0.245006
1942.000000	0.245412
1943.000000	0.246330
1944.000000	0.246728
1945.000000	0.247064
1946.000000	0.247374
1947.000000	0.247478
1948.000000	0.247895
1949.000000	0.248345
1950.000000	0.248384
1951.000000	0.248455
1952.000000	0.248356
1953.000000	0.248526
1954.000000	0.248715
1955.000000	0.248999
1956.000000	0.249387
1957.000000	0.249644
1958.000000	0.249897
1959.000000	0.250702
1960.000000	0.251409
1961.000000	0.251718
1962.000000	0.251990
1963.000000	0.252301
1964.000000	0.252164
1965.000000	0.251939
1966.000000	0.251834
1967.000000	0.252073
1968.000000	0.252941
1969.000000	0.253418
1970.000000	0.253935
1971.000000	0.254505
1972.000000	0.254424
1973.000000	0.254432
1974.000000	0.254507
1975.000000	0.254892
1976.000000	0.255274
1977.000000	0.255804
1978.000000	0.256893
1979.000000	0.257982
1980.000000	0.258622
1981.000000	0.259270
1982.000000	0.259516
1983.000000	0.259803
1984.000000	0.260205
1985.000000	0.260635
1986.000000	0.261253
1987.000000	0.262051
1988.000000	0.263089
1989.000000	0.264192
1990.000000	0.264542
1991.000000	0.264434
1992.000000	0.264331
1993.000000	0.264377
1994.000000	0.264705
1995.000000	0.265790
1996.000000	0.267274
1997.000000	0.268376
1998.000000	0.269835
1999.000000	0.270779
2000.000000	0.271559
2001.000000	0.271526
2002.000000	0.271519
2003.000000	0.271729
2004.000000	0.272249
2005.000000	0.273093
2006.000000	0.274272
2007.000000	0.275857
2008.000000	0.276936
2009.000000	0.277708
2010.000000	0.278560
2011.000000	0.278956
2012.000000	0.279647
2013.000000	0.280295
2014.000000	0.281562
2015.000000	0.282401
2016.000000	0.282768
2017.000000	0.282891
2018.000000	0.282669
2019.000000	0.283103
2020.000000	0.283954
2021.000000	0.284436
2022.000000	0.284871
2023.000000	0.285600
2024.000000	0.286081
2025.000000	0.286851
2026.000000	0.288004
2027.000000	0.289269
2028.000000	0.289415
2029.000000	0.290121
2030.000000	0.290726
2031.000000	0.291152
2032.000000	0.292481
2033.000000	0.293422
2034.000000	0.294281
2035.000000	0.295433
2036.000000	0.295849
2037.000000	0.295868
2038.000000	0.296134
2039.000000	0.296147
2040.000000	0.296137
2041.000000	0.296686
2042.000000	0.297555
2043.000000	0.298243
2044.000000	0.298457
2045.000000	0.298666
2046.000000	0.298670
2047.000000	0.299105
2048.000000	0.299728
2049.000000	0.300622
2050.000000	0.301724
2051.000000	0.302462
2052.000000	0.303034
2053.000000	0.303421
2054.000000	0.303811
2055.000000	0.304123
2056.000000	0.304667
2057.000000	0.305199
2058.000000	0.305396
2059.000000	0.305570
2060.000000	0.305545
2061.000000	0.305044
2062.000000	0.304973
2063.000000	0.305060
2064.000000	0.304955
2065.000000	0.305072
2066.000000	0.305145
2067.000000	0.305406
2068.000000	0.305798
2069.000000	0.306269
2070.000000	0.307025
2071.000000	0.307547
2072.000000	0.307943
2073.000000	0.308377
2074.000000	0.308798
2075.000000	0.309187
2076.000000	0.309511
2077.000000	0.310045
2078.000000	0.310629
2079.000000	0.311017
2080.000000	0.311804
2081.000000	0.312025
2082.000000	0.311662
2083.000000	0.311597
2084.000000	0.311637
2085.000000	0.312196
2086.000000	0.312793
2087.000000	0.313339
2088.000000	0.313600
2089.000000	0.312964
2090.000000	0.312901
2091.000000	0.312723
2092.000000	0.313138
2093.000000	0.314238
2094.000000	0.314865
2095.000000	0.315874
2096.000000	0.316532
2097.000000	0.316744
2098.000000	0.316859
2099.000000	0.317050
2100.000000	0.316559
2101.000000	0.316342
2102.000000	0.316318
2103.000000	0.316364
2104.000000	0.316857
2105.000000	0.317098
2106.000000	0.317326
2107.000000	0.317512
2108.000000	0.317521
2109.000000	0.317657
2110.000000	0.317664
2111.000000	0.317757
2112.000000	0.317637
2113.000000	0.317919
2114.000000	0.318146
2115.000000	0.318045
2116.000000	0.318073
2117.000000	0.317706
2118.000000	0.317962
2119.000000	0.318335
2120.000000	0.318636
2121.000000	0.319209
2122.000000	0.319721
2123.000000	0.320086
2124.000000	0.320503
2125.000000	0.321061
2126.000000	0.321408
2127.000000	0.321620
2128.000000	0.321951
2129.000000	0.321888
2130.000000	0.322656
2131.000000	0.322923
2132.000000	0.323655
2133.000000	0.324621
2134.000000	0.325408
2135.000000	0.326127
2136.000000	0.325798
2137.000000	0.325403
2138.000000	0.324200
2139.000000	0.323493
2140.000000	0.322674
2141.000000	0.322156
2142.000000	0.321315
2143.000000	0.321442
2144.000000	0.323072
2145.000000	0.323576
2146.000000	0.324510
2147.000000	0.325162
2148.000000	0.324522
2149.000000	0.323974
2150.000000	0.323994
2151.000000	0.324244
2152.000000	0.324554
2153.000000	0.324644
2154.000000	0.324487
2155.000000	0.324269
2156.000000	0.323850
2157.000000	0.322592
2158.000000	0.322434
2159.000000	0.322783
2160.000000	0.323288
2161.000000	0.324786
2162.000000	0.325585
2163.000000	0.325982
2164.000000	0.326173
2165.000000	0.325961
2166.000000	0.325970
2167.000000	0.325682
2168.000000	0.325779
2169.000000	0.325599
2170.000000	0.325630
2171.000000	0.325329
2172.000000	0.324876
2173.000000	0.324397
2174.000000	0.323578
2175.000000	0.323072
2176.000000	0.322306
2177.000000	0.322536
2178.000000	0.323552
2179.000000	0.324424
2180.000000	0.326535
2181.000000	0.327557
2182.000000	0.327460
2183.000000	0.327082
2184.000000	0.325901
2185.000000	0.324109
2186.000000	0.322649
2187.000000	0.321902
2188.000000	0.322134
2189.000000	0.323072
2190.000000	0.324289
2191.000000	0.325541
2192.000000	0.325614
2193.000000	0.324683
2194.000000	0.323911
2195.000000	0.321795
2196.000000	0.320848
2197.000000	0.320172
2198.000000	0.320249
2199.000000	0.321402
2200.000000	0.322671
2201.000000	0.325673
2202.000000	0.326940
2203.000000	0.327668
2204.000000	0.327066
2205.000000	0.326112
2206.000000	0.323775
2207.000000	0.321887
2208.000000	0.322356
2209.000000	0.322810
2210.000000	0.323708
2211.000000	0.323419
2212.000000	0.323890
2213.000000	0.324428
2214.000000	0.324834
2215.000000	0.324325
2216.000000	0.324889
2217.000000	0.323165
2218.000000	0.318398
2219.000000	0.316346
2220.000000	0.313136
2221.000000	0.312790
2222.000000	0.315928
2223.000000	0.317009
2224.000000	0.318134
2225.000000	0.320733
2226.000000	0.320479
2227.000000	0.321329
2228.000000	0.322356
2229.000000	0.320677
2230.000000	0.319325
2231.000000	0.315924
2232.000000	0.312840
2233.000000	0.312659
2234.000000	0.311680
2235.000000	0.313622
2236.000000	0.313611
2237.000000	0.313092
2238.000000	0.311975
2239.000000	0.309349
2240.000000	0.307999
2241.000000	0.307675
2242.000000	0.306895
2243.000000	0.306304
2244.000000	0.305925
2245.000000	0.304484
2246.000000	0.304360
2247.000000	0.305617
2248.000000	0.305906
2249.000000	0.306851
2250.000000	0.306684
2251.000000	0.305474
2252.000000	0.305620
2253.000000	0.307229
2254.000000	0.310023
2255.000000	0.309561
2256.000000	0.311378
2257.000000	0.312510
2258.000000	0.309823
2259.000000	0.310136
2260.000000	0.309114
2261.000000	0.307907
2262.000000	0.305494
2263.000000	0.304478
2264.000000	0.303759
2265.000000	0.303990
2266.000000	0.305436
2267.000000	0.305941
2268.000000	0.306490
2269.000000	0.306927
2270.000000	0.307430
2271.000000	0.306461
2272.000000	0.306133
2273.000000	0.303844
2274.000000	0.299000
2275.000000	0.294962
2276.000000	0.289681
2277.000000	0.284730
2278.000000	0.283016
2279.000000	0.280354
2280.000000	0.280781
2281.000000	0.282084
2282.000000	0.281708
2283.000000	0.282444
2284.000000	0.280627
2285.000000	0.278047
2286.000000	0.275695
2287.000000	0.271865
2288.000000	0.269682
2289.000000	0.268026
2290.000000	0.265318
2291.000000	0.263394
2292.000000	0.261108
2293.000000	0.258179
2294.000000	0.256228
2295.000000	0.254071
2296.000000	0.253879
2297.000000	0.255645
2298.000000	0.256118
2299.000000	0.257687
2300.000000	0.258134
2301.000000	0.257181
2302.000000	0.256923
2303.000000	0.256589
2304.000000	0.256814
2305.000000	0.256795
2306.000000	0.257798
2307.000000	0.259405
2308.000000	0.261342
2309.000000	0.266332
2310.000000	0.270704
2311.000000	0.274374
2312.000000	0.278569
2313.000000	0.277415
2314.000000	0.275000
2315.000000	0.275499
2316.000000	0.275299
2317.000000	0.277743
2318.000000	0.281391
2319.000000	0.280297
2320.000000	0.278856
2321.000000	0.278588
2322.000000	0.278301
2323.000000	0.278340
2324.000000	0.278110
2325.000000	0.277628
2326.000000	0.277217
2327.000000	0.278193
2328.000000	0.280210
2329.000000	0.284423
2330.000000	0.286235
2331.000000	0.288689
2332.000000	0.292464
2333.000000	0.291272
2334.000000	0.290274
2335.000000	0.290443
2336.000000	0.290557
2337.000000	0.289217
2338.000000	0.287957
2339.000000	0.286399
2340.000000	0.281006
2341.000000	0.278910
2342.000000	0.280229
2343.000000	0.280486
2344.000000	0.281298
2345.000000	0.281868
2346.000000	0.283140
2347.000000	0.282791
2348.000000	0.281565
2349.000000	0.280380
2350.000000	0.277077
2351.000000	0.274703
2352.000000	0.273199
2353.000000	0.272445
2354.000000	0.276009
2355.000000	0.276829
2356.000000	0.276308
2357.000000	0.277131
2358.000000	0.275470
2359.000000	0.275514
2360.000000	0.275852
2361.000000	0.273708
2362.000000	0.270445
2363.000000	0.267421
2364.000000	0.264075
2365.000000	0.263987
2366.000000	0.263573
2367.000000	0.261127
2368.000000	0.260235
2369.000000	0.257691
2370.000000	0.257055
2371.000000	0.258622
2372.000000	0.261340
2373.000000	0.262990
2374.000000	0.264005
2375.000000	0.263937
2376.000000	0.261306
2377.000000	0.260564
2378.000000	0.256783
2379.000000	0.252106
2380.000000	0.247064
2381.000000	0.245084
2382.000000	0.247958
2383.000000	0.251245
2384.000000	0.255840
2385.000000	0.256007
2386.000000	0.255968
2387.000000	0.254038
2388.000000	0.250222
2389.000000	0.246881
2390.000000	0.241232
2391.000000	0.241444
2392.000000	0.242650
2393.000000	0.242303
2394.000000	0.241083
2395.000000	0.238130
2396.000000	0.240203
2397.000000	0.242553
2398.000000	0.250207
2399.000000	0.256592
2400.000000	0.249164
2401.000000	0.244384
2402.000000	0.237703
2403.000000	0.229770
2404.000000	0.229896
2405.000000	0.228181
2406.000000	0.230251
2407.000000	0.231247
2408.000000	0.228854
2409.000000	0.235420
2410.000000	0.235784
2411.000000	0.228063
2412.000000	0.230868
2413.000000	0.233207
2414.000000	0.232748
2415.000000	0.236465
2416.000000	0.239139
2417.000000	0.239378
2418.000000	0.233848
2419.000000	0.234676
2420.000000	0.235730
2421.000000	0.229018
2422.000000	0.231672
2423.000000	0.233972
2424.000000	0.231087
2425.000000	0.229956
2426.000000	0.233106
2427.000000	0.241283
2428.000000	0.246182
2429.000000	0.248926
2430.000000	0.244594
2431.000000	0.241569
2432.000000	0.246340
2433.000000	0.249092
2434.000000	0.252103
2435.000000	0.246177
2436.000000	0.237551
2437.000000	0.236635
2438.000000	0.237966
2439.000000	0.230862
2440.000000	0.217855
2441.000000	0.214055
2442.000000	0.202271
2443.000000	0.198213
2444.000000	0.214440
2445.000000	0.220585
2446.000000	0.225433
2447.000000	0.227617
2448.000000	0.227753
2449.000000	0.224377
2450.000000	0.210317
2451.000000	0.211295
2452.000000	0.205009
2453.000000	0.200855
2454.000000	0.218141
2455.000000	0.222085
2456.000000	0.233156
2457.000000	0.247880
2458.000000	0.244403
2459.000000	0.255620
2460.000000	0.258702
2461.000000	0.231313
2462.000000	0.229089
2463.000000	0.223326
2464.000000	0.205028
2465.000000	0.225605
2466.000000	0.246143
2467.000000	0.254265
2468.000000	0.272531
2469.000000	0.260900
2470.000000	0.228887
2471.000000	0.212306
2472.000000	0.209100
2473.000000	0.212845
2474.000000	0.215364
2475.000000	0.203782
2476.000000	0.177513
2477.000000	0.157451
2478.000000	0.137912
2479.000000	0.142878
2480.000000	0.144840
2481.000000	0.113965
2482.000000	0.133761
2483.000000	0.147063
2484.000000	0.155838
2485.000000	0.211004
2486.000000	0.201034
2487.000000	0.199415
2488.000000	0.229908
2489.000000	0.212123
2490.000000	0.245422
2491.000000	0.255044
2492.000000	0.231811
2493.000000	0.187996
2494.000000	0.177372
2495.000000	0.153592
2496.000000	0.144517
2497.000000	0.191109
2498.000000	0.178623
2499.000000	0.117307
2500.000000	0.106121
