# Wavelength	NAu-2-10_HEX-80_FV7-10_00002.asd.rts.txt
350.000000	0.277870
351.000000	0.282091
352.000000	0.288124
353.000000	0.281940
354.000000	0.265128
355.000000	0.256683
356.000000	0.265272
357.000000	0.281848
358.000000	0.279698
359.000000	0.274492
360.000000	0.271719
361.000000	0.273510
362.000000	0.279965
363.000000	0.281857
364.000000	0.275985
365.000000	0.277358
366.000000	0.278461
367.000000	0.276171
368.000000	0.270872
369.000000	0.277710
370.000000	0.285682
371.000000	0.279816
372.000000	0.279219
373.000000	0.282262
374.000000	0.284613
375.000000	0.277912
376.000000	0.275052
377.000000	0.277830
378.000000	0.278091
379.000000	0.279356
380.000000	0.281132
381.000000	0.282671
382.000000	0.280713
383.000000	0.279574
384.000000	0.281771
385.000000	0.281825
386.000000	0.281553
387.000000	0.281881
388.000000	0.282462
389.000000	0.282948
390.000000	0.282996
391.000000	0.282109
392.000000	0.281924
393.000000	0.282806
394.000000	0.284275
395.000000	0.283589
396.000000	0.284899
397.000000	0.288028
398.000000	0.286964
399.000000	0.286975
400.000000	0.287562
401.000000	0.286035
402.000000	0.286769
403.000000	0.288080
404.000000	0.288173
405.000000	0.288415
406.000000	0.288722
407.000000	0.288857
408.000000	0.287982
409.000000	0.288387
410.000000	0.289546
411.000000	0.289271
412.000000	0.289740
413.000000	0.290425
414.000000	0.290532
415.000000	0.291329
416.000000	0.291664
417.000000	0.291244
418.000000	0.292037
419.000000	0.292698
420.000000	0.293073
421.000000	0.293966
422.000000	0.294505
423.000000	0.294560
424.000000	0.294413
425.000000	0.294734
426.000000	0.295334
427.000000	0.295863
428.000000	0.295950
429.000000	0.295966
430.000000	0.296158
431.000000	0.296654
432.000000	0.297151
433.000000	0.297378
434.000000	0.297263
435.000000	0.297915
436.000000	0.298517
437.000000	0.298329
438.000000	0.298931
439.000000	0.299546
440.000000	0.299807
441.000000	0.299856
442.000000	0.300065
443.000000	0.300411
444.000000	0.300781
445.000000	0.301394
446.000000	0.302160
447.000000	0.302672
448.000000	0.302722
449.000000	0.303014
450.000000	0.303831
451.000000	0.303979
452.000000	0.304250
453.000000	0.304711
454.000000	0.304877
455.000000	0.305146
456.000000	0.305584
457.000000	0.305925
458.000000	0.306423
459.000000	0.306943
460.000000	0.307370
461.000000	0.307557
462.000000	0.307987
463.000000	0.308564
464.000000	0.308737
465.000000	0.309074
466.000000	0.309543
467.000000	0.309918
468.000000	0.310237
469.000000	0.310537
470.000000	0.311016
471.000000	0.311225
472.000000	0.311556
473.000000	0.312198
474.000000	0.312453
475.000000	0.312697
476.000000	0.313128
477.000000	0.313313
478.000000	0.313646
479.000000	0.314222
480.000000	0.314586
481.000000	0.314771
482.000000	0.314976
483.000000	0.315130
484.000000	0.315420
485.000000	0.315849
486.000000	0.316436
487.000000	0.316457
488.000000	0.316625
489.000000	0.317028
490.000000	0.317338
491.000000	0.317524
492.000000	0.317793
493.000000	0.318170
494.000000	0.318231
495.000000	0.318313
496.000000	0.318616
497.000000	0.319000
498.000000	0.319258
499.000000	0.319452
500.000000	0.319743
501.000000	0.319903
502.000000	0.320026
503.000000	0.320228
504.000000	0.320524
505.000000	0.320829
506.000000	0.321073
507.000000	0.321291
508.000000	0.321635
509.000000	0.322062
510.000000	0.322273
511.000000	0.322665
512.000000	0.323227
513.000000	0.323561
514.000000	0.323924
515.000000	0.324377
516.000000	0.324839
517.000000	0.325259
518.000000	0.325710
519.000000	0.326146
520.000000	0.326560
521.000000	0.326992
522.000000	0.327469
523.000000	0.327978
524.000000	0.328543
525.000000	0.329151
526.000000	0.329828
527.000000	0.330502
528.000000	0.331214
529.000000	0.332074
530.000000	0.332925
531.000000	0.333841
532.000000	0.334786
533.000000	0.335849
534.000000	0.336967
535.000000	0.338036
536.000000	0.338947
537.000000	0.339893
538.000000	0.340883
539.000000	0.341840
540.000000	0.342835
541.000000	0.343755
542.000000	0.344552
543.000000	0.345330
544.000000	0.346178
545.000000	0.347014
546.000000	0.347711
547.000000	0.348582
548.000000	0.349619
549.000000	0.350473
550.000000	0.351357
551.000000	0.352367
552.000000	0.353483
553.000000	0.354632
554.000000	0.355799
555.000000	0.356998
556.000000	0.358276
557.000000	0.359558
558.000000	0.360937
559.000000	0.362217
560.000000	0.363545
561.000000	0.364990
562.000000	0.366381
563.000000	0.367654
564.000000	0.368865
565.000000	0.369968
566.000000	0.371167
567.000000	0.372291
568.000000	0.373243
569.000000	0.374240
570.000000	0.375182
571.000000	0.376010
572.000000	0.376712
573.000000	0.377412
574.000000	0.378086
575.000000	0.378723
576.000000	0.379229
577.000000	0.379636
578.000000	0.380064
579.000000	0.380453
580.000000	0.380817
581.000000	0.381141
582.000000	0.381364
583.000000	0.381506
584.000000	0.381629
585.000000	0.381821
586.000000	0.381885
587.000000	0.381883
588.000000	0.381922
589.000000	0.381944
590.000000	0.381939
591.000000	0.381897
592.000000	0.381768
593.000000	0.381711
594.000000	0.381676
595.000000	0.381394
596.000000	0.381220
597.000000	0.381134
598.000000	0.380858
599.000000	0.380618
600.000000	0.380364
601.000000	0.379974
602.000000	0.379790
603.000000	0.379556
604.000000	0.379173
605.000000	0.378786
606.000000	0.378394
607.000000	0.377979
608.000000	0.377500
609.000000	0.377141
610.000000	0.376822
611.000000	0.376431
612.000000	0.376207
613.000000	0.376015
614.000000	0.375778
615.000000	0.375439
616.000000	0.375136
617.000000	0.374898
618.000000	0.374783
619.000000	0.374706
620.000000	0.374505
621.000000	0.374100
622.000000	0.373803
623.000000	0.373594
624.000000	0.373415
625.000000	0.373283
626.000000	0.373211
627.000000	0.373179
628.000000	0.373113
629.000000	0.373110
630.000000	0.372987
631.000000	0.372783
632.000000	0.372760
633.000000	0.372752
634.000000	0.372550
635.000000	0.372404
636.000000	0.372399
637.000000	0.372486
638.000000	0.372425
639.000000	0.372421
640.000000	0.372524
641.000000	0.372461
642.000000	0.372411
643.000000	0.372430
644.000000	0.372527
645.000000	0.372565
646.000000	0.372651
647.000000	0.372826
648.000000	0.373004
649.000000	0.373241
650.000000	0.373515
651.000000	0.373779
652.000000	0.374008
653.000000	0.374246
654.000000	0.374468
655.000000	0.374735
656.000000	0.375040
657.000000	0.375310
658.000000	0.375663
659.000000	0.376067
660.000000	0.376474
661.000000	0.376861
662.000000	0.377265
663.000000	0.377741
664.000000	0.378222
665.000000	0.378705
666.000000	0.379221
667.000000	0.379751
668.000000	0.380258
669.000000	0.380756
670.000000	0.381284
671.000000	0.381892
672.000000	0.382538
673.000000	0.383203
674.000000	0.383912
675.000000	0.384597
676.000000	0.385298
677.000000	0.386090
678.000000	0.386879
679.000000	0.387643
680.000000	0.388389
681.000000	0.389112
682.000000	0.389968
683.000000	0.390879
684.000000	0.391822
685.000000	0.392769
686.000000	0.393732
687.000000	0.394667
688.000000	0.395595
689.000000	0.396493
690.000000	0.397430
691.000000	0.398581
692.000000	0.399712
693.000000	0.400829
694.000000	0.401993
695.000000	0.403111
696.000000	0.404195
697.000000	0.405302
698.000000	0.406455
699.000000	0.407679
700.000000	0.408961
701.000000	0.410103
702.000000	0.411305
703.000000	0.412598
704.000000	0.413867
705.000000	0.415139
706.000000	0.416409
707.000000	0.417787
708.000000	0.419083
709.000000	0.420362
710.000000	0.421738
711.000000	0.423207
712.000000	0.424632
713.000000	0.425991
714.000000	0.427349
715.000000	0.428699
716.000000	0.430034
717.000000	0.431317
718.000000	0.432708
719.000000	0.434087
720.000000	0.435366
721.000000	0.436654
722.000000	0.437958
723.000000	0.439318
724.000000	0.440551
725.000000	0.441818
726.000000	0.443198
727.000000	0.444493
728.000000	0.445758
729.000000	0.446995
730.000000	0.448156
731.000000	0.449434
732.000000	0.450713
733.000000	0.452007
734.000000	0.453335
735.000000	0.454449
736.000000	0.455581
737.000000	0.456753
738.000000	0.457776
739.000000	0.458850
740.000000	0.459897
741.000000	0.461039
742.000000	0.462168
743.000000	0.463200
744.000000	0.464211
745.000000	0.465121
746.000000	0.466067
747.000000	0.467075
748.000000	0.468069
749.000000	0.468965
750.000000	0.469719
751.000000	0.470616
752.000000	0.471440
753.000000	0.472161
754.000000	0.472861
755.000000	0.473634
756.000000	0.474436
757.000000	0.475118
758.000000	0.475768
759.000000	0.476465
760.000000	0.477129
761.000000	0.477762
762.000000	0.478414
763.000000	0.479023
764.000000	0.479586
765.000000	0.480138
766.000000	0.480628
767.000000	0.481016
768.000000	0.481435
769.000000	0.481924
770.000000	0.482462
771.000000	0.482929
772.000000	0.483407
773.000000	0.483799
774.000000	0.484158
775.000000	0.484473
776.000000	0.484811
777.000000	0.485183
778.000000	0.485558
779.000000	0.485846
780.000000	0.486078
781.000000	0.486368
782.000000	0.486571
783.000000	0.486809
784.000000	0.486984
785.000000	0.487225
786.000000	0.487431
787.000000	0.487545
788.000000	0.487620
789.000000	0.487767
790.000000	0.487962
791.000000	0.488184
792.000000	0.488464
793.000000	0.488729
794.000000	0.488929
795.000000	0.489124
796.000000	0.489138
797.000000	0.489010
798.000000	0.489030
799.000000	0.489054
800.000000	0.489135
801.000000	0.489347
802.000000	0.489577
803.000000	0.489780
804.000000	0.489935
805.000000	0.489810
806.000000	0.489741
807.000000	0.489861
808.000000	0.489944
809.000000	0.489979
810.000000	0.489934
811.000000	0.489802
812.000000	0.489702
813.000000	0.489698
814.000000	0.489760
815.000000	0.489807
816.000000	0.489746
817.000000	0.489670
818.000000	0.489571
819.000000	0.489544
820.000000	0.489549
821.000000	0.489518
822.000000	0.489601
823.000000	0.489674
824.000000	0.489593
825.000000	0.489428
826.000000	0.489262
827.000000	0.489163
828.000000	0.489190
829.000000	0.489138
830.000000	0.489022
831.000000	0.488952
832.000000	0.488835
833.000000	0.488727
834.000000	0.488676
835.000000	0.488709
836.000000	0.488590
837.000000	0.488333
838.000000	0.488136
839.000000	0.488264
840.000000	0.488326
841.000000	0.488305
842.000000	0.488191
843.000000	0.487980
844.000000	0.487822
845.000000	0.487726
846.000000	0.487677
847.000000	0.487648
848.000000	0.487556
849.000000	0.487389
850.000000	0.487220
851.000000	0.487036
852.000000	0.486906
853.000000	0.486835
854.000000	0.486700
855.000000	0.486677
856.000000	0.486682
857.000000	0.486502
858.000000	0.486384
859.000000	0.486299
860.000000	0.486108
861.000000	0.485948
862.000000	0.485839
863.000000	0.485638
864.000000	0.485422
865.000000	0.485121
866.000000	0.484803
867.000000	0.484693
868.000000	0.484645
869.000000	0.484474
870.000000	0.484196
871.000000	0.483996
872.000000	0.483793
873.000000	0.483474
874.000000	0.483247
875.000000	0.483099
876.000000	0.482987
877.000000	0.482751
878.000000	0.482472
879.000000	0.482290
880.000000	0.482064
881.000000	0.481903
882.000000	0.481891
883.000000	0.481901
884.000000	0.481648
885.000000	0.481435
886.000000	0.481311
887.000000	0.481254
888.000000	0.481028
889.000000	0.480694
890.000000	0.480236
891.000000	0.479969
892.000000	0.479791
893.000000	0.479616
894.000000	0.479522
895.000000	0.479218
896.000000	0.478952
897.000000	0.478731
898.000000	0.478484
899.000000	0.478200
900.000000	0.477974
901.000000	0.477761
902.000000	0.477536
903.000000	0.477287
904.000000	0.477042
905.000000	0.476716
906.000000	0.476705
907.000000	0.476566
908.000000	0.476266
909.000000	0.475970
910.000000	0.475666
911.000000	0.475519
912.000000	0.475583
913.000000	0.475294
914.000000	0.474820
915.000000	0.474460
916.000000	0.474310
917.000000	0.474099
918.000000	0.473975
919.000000	0.473975
920.000000	0.473816
921.000000	0.473500
922.000000	0.473241
923.000000	0.473243
924.000000	0.473019
925.000000	0.472668
926.000000	0.472370
927.000000	0.472138
928.000000	0.471935
929.000000	0.471648
930.000000	0.471227
931.000000	0.471000
932.000000	0.470787
933.000000	0.470563
934.000000	0.470328
935.000000	0.470025
936.000000	0.469729
937.000000	0.469402
938.000000	0.469289
939.000000	0.469254
940.000000	0.468999
941.000000	0.468475
942.000000	0.468269
943.000000	0.468204
944.000000	0.467944
945.000000	0.467740
946.000000	0.467261
947.000000	0.466921
948.000000	0.467037
949.000000	0.466851
950.000000	0.466451
951.000000	0.465993
952.000000	0.465828
953.000000	0.465577
954.000000	0.465363
955.000000	0.465212
956.000000	0.465160
957.000000	0.464887
958.000000	0.464412
959.000000	0.464090
960.000000	0.463898
961.000000	0.463575
962.000000	0.463176
963.000000	0.463214
964.000000	0.462905
965.000000	0.462494
966.000000	0.462148
967.000000	0.461905
968.000000	0.461642
969.000000	0.461354
970.000000	0.461257
971.000000	0.461016
972.000000	0.460709
973.000000	0.460376
974.000000	0.460251
975.000000	0.460175
976.000000	0.459918
977.000000	0.459449
978.000000	0.459363
979.000000	0.459513
980.000000	0.459421
981.000000	0.459269
982.000000	0.459099
983.000000	0.458845
984.000000	0.458623
985.000000	0.458502
986.000000	0.458554
987.000000	0.458608
988.000000	0.458343
989.000000	0.457837
990.000000	0.457672
991.000000	0.457702
992.000000	0.457654
993.000000	0.457727
994.000000	0.457810
995.000000	0.457904
996.000000	0.457562
997.000000	0.457530
998.000000	0.457574
999.000000	0.457510
1000.000000	0.457041
1001.000000	0.458266
1002.000000	0.457150
1003.000000	0.456710
1004.000000	0.456622
1005.000000	0.456792
1006.000000	0.456665
1007.000000	0.457227
1008.000000	0.456844
1009.000000	0.455926
1010.000000	0.455851
1011.000000	0.456735
1012.000000	0.457450
1013.000000	0.457108
1014.000000	0.456657
1015.000000	0.456050
1016.000000	0.455248
1017.000000	0.455195
1018.000000	0.455756
1019.000000	0.456249
1020.000000	0.457482
1021.000000	0.457328
1022.000000	0.456799
1023.000000	0.456911
1024.000000	0.456234
1025.000000	0.456497
1026.000000	0.457233
1027.000000	0.457214
1028.000000	0.457209
1029.000000	0.457055
1030.000000	0.456828
1031.000000	0.457276
1032.000000	0.457761
1033.000000	0.457697
1034.000000	0.457792
1035.000000	0.457777
1036.000000	0.458016
1037.000000	0.458526
1038.000000	0.458668
1039.000000	0.458957
1040.000000	0.459298
1041.000000	0.459237
1042.000000	0.458875
1043.000000	0.458617
1044.000000	0.458668
1045.000000	0.458868
1046.000000	0.458960
1047.000000	0.459342
1048.000000	0.460164
1049.000000	0.460479
1050.000000	0.460755
1051.000000	0.460899
1052.000000	0.460351
1053.000000	0.460444
1054.000000	0.461353
1055.000000	0.461700
1056.000000	0.462039
1057.000000	0.462704
1058.000000	0.462593
1059.000000	0.462044
1060.000000	0.462196
1061.000000	0.462629
1062.000000	0.462985
1063.000000	0.463805
1064.000000	0.464132
1065.000000	0.464104
1066.000000	0.464258
1067.000000	0.464099
1068.000000	0.464204
1069.000000	0.464701
1070.000000	0.464820
1071.000000	0.464753
1072.000000	0.464906
1073.000000	0.465108
1074.000000	0.465243
1075.000000	0.465435
1076.000000	0.465950
1077.000000	0.466380
1078.000000	0.466216
1079.000000	0.466062
1080.000000	0.465664
1081.000000	0.465721
1082.000000	0.465816
1083.000000	0.466112
1084.000000	0.467148
1085.000000	0.467581
1086.000000	0.467671
1087.000000	0.467868
1088.000000	0.467795
1089.000000	0.467753
1090.000000	0.467667
1091.000000	0.467492
1092.000000	0.467538
1093.000000	0.467794
1094.000000	0.468066
1095.000000	0.468415
1096.000000	0.468892
1097.000000	0.469554
1098.000000	0.470006
1099.000000	0.470441
1100.000000	0.470851
1101.000000	0.471045
1102.000000	0.471242
1103.000000	0.471390
1104.000000	0.471642
1105.000000	0.471878
1106.000000	0.472052
1107.000000	0.472367
1108.000000	0.472397
1109.000000	0.472386
1110.000000	0.471995
1111.000000	0.471960
1112.000000	0.471795
1113.000000	0.472067
1114.000000	0.472760
1115.000000	0.473160
1116.000000	0.473842
1117.000000	0.473998
1118.000000	0.473644
1119.000000	0.473592
1120.000000	0.473346
1121.000000	0.473346
1122.000000	0.473891
1123.000000	0.474345
1124.000000	0.474422
1125.000000	0.474615
1126.000000	0.474742
1127.000000	0.474716
1128.000000	0.474626
1129.000000	0.474555
1130.000000	0.474525
1131.000000	0.474347
1132.000000	0.474350
1133.000000	0.474721
1134.000000	0.474725
1135.000000	0.474400
1136.000000	0.474383
1137.000000	0.474261
1138.000000	0.474278
1139.000000	0.474827
1140.000000	0.475136
1141.000000	0.475362
1142.000000	0.475422
1143.000000	0.475121
1144.000000	0.475129
1145.000000	0.474773
1146.000000	0.474588
1147.000000	0.474510
1148.000000	0.474493
1149.000000	0.474407
1150.000000	0.474511
1151.000000	0.474317
1152.000000	0.473701
1153.000000	0.473578
1154.000000	0.473517
1155.000000	0.473368
1156.000000	0.473588
1157.000000	0.473476
1158.000000	0.472936
1159.000000	0.472559
1160.000000	0.472044
1161.000000	0.471741
1162.000000	0.471635
1163.000000	0.471733
1164.000000	0.471763
1165.000000	0.471586
1166.000000	0.471633
1167.000000	0.471644
1168.000000	0.471553
1169.000000	0.471686
1170.000000	0.471522
1171.000000	0.470983
1172.000000	0.470881
1173.000000	0.470881
1174.000000	0.470821
1175.000000	0.470872
1176.000000	0.470868
1177.000000	0.470871
1178.000000	0.470898
1179.000000	0.471084
1180.000000	0.471012
1181.000000	0.470844
1182.000000	0.470734
1183.000000	0.470734
1184.000000	0.470860
1185.000000	0.470886
1186.000000	0.470994
1187.000000	0.470999
1188.000000	0.470878
1189.000000	0.470825
1190.000000	0.470980
1191.000000	0.470901
1192.000000	0.470764
1193.000000	0.470871
1194.000000	0.470856
1195.000000	0.470803
1196.000000	0.470778
1197.000000	0.470696
1198.000000	0.470445
1199.000000	0.470351
1200.000000	0.470410
1201.000000	0.470335
1202.000000	0.470209
1203.000000	0.470228
1204.000000	0.470192
1205.000000	0.470208
1206.000000	0.470154
1207.000000	0.470248
1208.000000	0.470196
1209.000000	0.470137
1210.000000	0.470139
1211.000000	0.470206
1212.000000	0.470142
1213.000000	0.470039
1214.000000	0.470011
1215.000000	0.469882
1216.000000	0.469872
1217.000000	0.470001
1218.000000	0.470024
1219.000000	0.470082
1220.000000	0.470096
1221.000000	0.470155
1222.000000	0.470134
1223.000000	0.470122
1224.000000	0.470111
1225.000000	0.470184
1226.000000	0.470364
1227.000000	0.470349
1228.000000	0.470447
1229.000000	0.470402
1230.000000	0.470081
1231.000000	0.469915
1232.000000	0.469947
1233.000000	0.470108
1234.000000	0.470430
1235.000000	0.470547
1236.000000	0.470505
1237.000000	0.470613
1238.000000	0.470548
1239.000000	0.470548
1240.000000	0.470672
1241.000000	0.470851
1242.000000	0.470708
1243.000000	0.470544
1244.000000	0.470616
1245.000000	0.470843
1246.000000	0.471126
1247.000000	0.471420
1248.000000	0.471569
1249.000000	0.471565
1250.000000	0.471564
1251.000000	0.471735
1252.000000	0.471795
1253.000000	0.471858
1254.000000	0.471904
1255.000000	0.471916
1256.000000	0.471942
1257.000000	0.472033
1258.000000	0.472086
1259.000000	0.471962
1260.000000	0.471994
1261.000000	0.471921
1262.000000	0.471992
1263.000000	0.472218
1264.000000	0.472470
1265.000000	0.472726
1266.000000	0.472913
1267.000000	0.473036
1268.000000	0.473173
1269.000000	0.473180
1270.000000	0.473252
1271.000000	0.473344
1272.000000	0.473469
1273.000000	0.473630
1274.000000	0.473686
1275.000000	0.473703
1276.000000	0.473635
1277.000000	0.473736
1278.000000	0.473755
1279.000000	0.473772
1280.000000	0.473751
1281.000000	0.473695
1282.000000	0.473695
1283.000000	0.473780
1284.000000	0.473762
1285.000000	0.473831
1286.000000	0.473920
1287.000000	0.473934
1288.000000	0.474238
1289.000000	0.474435
1290.000000	0.474329
1291.000000	0.474336
1292.000000	0.474278
1293.000000	0.474128
1294.000000	0.474136
1295.000000	0.474201
1296.000000	0.474237
1297.000000	0.474257
1298.000000	0.474304
1299.000000	0.474412
1300.000000	0.474407
1301.000000	0.474232
1302.000000	0.474037
1303.000000	0.473910
1304.000000	0.473765
1305.000000	0.473747
1306.000000	0.473651
1307.000000	0.473597
1308.000000	0.473538
1309.000000	0.473502
1310.000000	0.473406
1311.000000	0.473314
1312.000000	0.473164
1313.000000	0.473091
1314.000000	0.472809
1315.000000	0.472476
1316.000000	0.472279
1317.000000	0.471951
1318.000000	0.471686
1319.000000	0.471516
1320.000000	0.471374
1321.000000	0.471066
1322.000000	0.470564
1323.000000	0.470168
1324.000000	0.469862
1325.000000	0.469519
1326.000000	0.469248
1327.000000	0.469009
1328.000000	0.468870
1329.000000	0.468524
1330.000000	0.468132
1331.000000	0.467800
1332.000000	0.467409
1333.000000	0.467001
1334.000000	0.466870
1335.000000	0.466555
1336.000000	0.466034
1337.000000	0.465611
1338.000000	0.465113
1339.000000	0.464511
1340.000000	0.464165
1341.000000	0.463924
1342.000000	0.463491
1343.000000	0.463197
1344.000000	0.462673
1345.000000	0.461777
1346.000000	0.461319
1347.000000	0.460707
1348.000000	0.460072
1349.000000	0.459579
1350.000000	0.459096
1351.000000	0.458575
1352.000000	0.457902
1353.000000	0.457234
1354.000000	0.456645
1355.000000	0.455997
1356.000000	0.455618
1357.000000	0.455241
1358.000000	0.454637
1359.000000	0.454079
1360.000000	0.453523
1361.000000	0.452931
1362.000000	0.452420
1363.000000	0.452015
1364.000000	0.451514
1365.000000	0.450939
1366.000000	0.450380
1367.000000	0.449798
1368.000000	0.449150
1369.000000	0.448650
1370.000000	0.448150
1371.000000	0.447568
1372.000000	0.446841
1373.000000	0.446074
1374.000000	0.445396
1375.000000	0.444695
1376.000000	0.444174
1377.000000	0.443725
1378.000000	0.443061
1379.000000	0.442216
1380.000000	0.441480
1381.000000	0.440352
1382.000000	0.438934
1383.000000	0.437967
1384.000000	0.436729
1385.000000	0.435404
1386.000000	0.434457
1387.000000	0.433163
1388.000000	0.431570
1389.000000	0.430043
1390.000000	0.428424
1391.000000	0.426525
1392.000000	0.424762
1393.000000	0.422935
1394.000000	0.421094
1395.000000	0.419171
1396.000000	0.417370
1397.000000	0.415125
1398.000000	0.412492
1399.000000	0.410112
1400.000000	0.407635
1401.000000	0.405120
1402.000000	0.402787
1403.000000	0.400198
1404.000000	0.397600
1405.000000	0.394977
1406.000000	0.392370
1407.000000	0.389932
1408.000000	0.387302
1409.000000	0.384605
1410.000000	0.382027
1411.000000	0.379397
1412.000000	0.376779
1413.000000	0.374230
1414.000000	0.371616
1415.000000	0.369038
1416.000000	0.366550
1417.000000	0.364004
1418.000000	0.361414
1419.000000	0.359007
1420.000000	0.356524
1421.000000	0.354213
1422.000000	0.351972
1423.000000	0.349721
1424.000000	0.347509
1425.000000	0.345318
1426.000000	0.343058
1427.000000	0.340862
1428.000000	0.338802
1429.000000	0.336769
1430.000000	0.334934
1431.000000	0.333279
1432.000000	0.331506
1433.000000	0.329683
1434.000000	0.328018
1435.000000	0.326418
1436.000000	0.324912
1437.000000	0.323618
1438.000000	0.322162
1439.000000	0.320679
1440.000000	0.319326
1441.000000	0.317945
1442.000000	0.316697
1443.000000	0.315511
1444.000000	0.314427
1445.000000	0.313339
1446.000000	0.312451
1447.000000	0.311624
1448.000000	0.310833
1449.000000	0.310151
1450.000000	0.309388
1451.000000	0.308662
1452.000000	0.308017
1453.000000	0.307418
1454.000000	0.306846
1455.000000	0.306281
1456.000000	0.305805
1457.000000	0.305418
1458.000000	0.304991
1459.000000	0.304613
1460.000000	0.304322
1461.000000	0.303827
1462.000000	0.303391
1463.000000	0.303138
1464.000000	0.302784
1465.000000	0.302524
1466.000000	0.302319
1467.000000	0.302067
1468.000000	0.301878
1469.000000	0.301782
1470.000000	0.301707
1471.000000	0.301724
1472.000000	0.301861
1473.000000	0.302063
1474.000000	0.302223
1475.000000	0.302543
1476.000000	0.302912
1477.000000	0.303325
1478.000000	0.303834
1479.000000	0.304349
1480.000000	0.304916
1481.000000	0.305503
1482.000000	0.306179
1483.000000	0.306975
1484.000000	0.307838
1485.000000	0.308716
1486.000000	0.309762
1487.000000	0.310668
1488.000000	0.311493
1489.000000	0.312374
1490.000000	0.313136
1491.000000	0.313924
1492.000000	0.314736
1493.000000	0.315519
1494.000000	0.316239
1495.000000	0.316871
1496.000000	0.317385
1497.000000	0.317981
1498.000000	0.318519
1499.000000	0.319194
1500.000000	0.319983
1501.000000	0.320792
1502.000000	0.321628
1503.000000	0.322368
1504.000000	0.322983
1505.000000	0.323604
1506.000000	0.324180
1507.000000	0.324743
1508.000000	0.325461
1509.000000	0.326110
1510.000000	0.326572
1511.000000	0.327101
1512.000000	0.327575
1513.000000	0.327909
1514.000000	0.328411
1515.000000	0.328820
1516.000000	0.329075
1517.000000	0.329497
1518.000000	0.330016
1519.000000	0.330347
1520.000000	0.330693
1521.000000	0.330984
1522.000000	0.331105
1523.000000	0.331320
1524.000000	0.331649
1525.000000	0.332024
1526.000000	0.332336
1527.000000	0.332657
1528.000000	0.332956
1529.000000	0.333123
1530.000000	0.333297
1531.000000	0.333499
1532.000000	0.333679
1533.000000	0.333952
1534.000000	0.334169
1535.000000	0.334346
1536.000000	0.334503
1537.000000	0.334647
1538.000000	0.334899
1539.000000	0.335137
1540.000000	0.335214
1541.000000	0.335312
1542.000000	0.335406
1543.000000	0.335455
1544.000000	0.335606
1545.000000	0.335729
1546.000000	0.335748
1547.000000	0.335730
1548.000000	0.335708
1549.000000	0.335766
1550.000000	0.335757
1551.000000	0.335752
1552.000000	0.335777
1553.000000	0.335704
1554.000000	0.335713
1555.000000	0.335775
1556.000000	0.335892
1557.000000	0.335992
1558.000000	0.336009
1559.000000	0.335953
1560.000000	0.335820
1561.000000	0.335530
1562.000000	0.335400
1563.000000	0.335342
1564.000000	0.335289
1565.000000	0.335315
1566.000000	0.335297
1567.000000	0.335368
1568.000000	0.335406
1569.000000	0.335544
1570.000000	0.335576
1571.000000	0.335527
1572.000000	0.335485
1573.000000	0.335398
1574.000000	0.335371
1575.000000	0.335350
1576.000000	0.335428
1577.000000	0.335643
1578.000000	0.335673
1579.000000	0.335751
1580.000000	0.335722
1581.000000	0.335521
1582.000000	0.335494
1583.000000	0.335555
1584.000000	0.335527
1585.000000	0.335587
1586.000000	0.335713
1587.000000	0.335844
1588.000000	0.335931
1589.000000	0.336148
1590.000000	0.336178
1591.000000	0.335993
1592.000000	0.336039
1593.000000	0.336172
1594.000000	0.336278
1595.000000	0.336574
1596.000000	0.336735
1597.000000	0.336860
1598.000000	0.336908
1599.000000	0.336910
1600.000000	0.336909
1601.000000	0.336907
1602.000000	0.336965
1603.000000	0.337119
1604.000000	0.337160
1605.000000	0.337157
1606.000000	0.337213
1607.000000	0.337302
1608.000000	0.337443
1609.000000	0.337737
1610.000000	0.337878
1611.000000	0.337982
1612.000000	0.338144
1613.000000	0.338388
1614.000000	0.338596
1615.000000	0.338892
1616.000000	0.339158
1617.000000	0.339289
1618.000000	0.339538
1619.000000	0.339857
1620.000000	0.340138
1621.000000	0.340530
1622.000000	0.340869
1623.000000	0.341079
1624.000000	0.341345
1625.000000	0.341411
1626.000000	0.341645
1627.000000	0.342068
1628.000000	0.342409
1629.000000	0.342739
1630.000000	0.343150
1631.000000	0.343442
1632.000000	0.343836
1633.000000	0.344428
1634.000000	0.344866
1635.000000	0.345282
1636.000000	0.345682
1637.000000	0.346009
1638.000000	0.346430
1639.000000	0.347003
1640.000000	0.347445
1641.000000	0.347947
1642.000000	0.348378
1643.000000	0.348719
1644.000000	0.349160
1645.000000	0.349683
1646.000000	0.350067
1647.000000	0.350427
1648.000000	0.350786
1649.000000	0.351188
1650.000000	0.351598
1651.000000	0.352060
1652.000000	0.352594
1653.000000	0.353046
1654.000000	0.353580
1655.000000	0.354211
1656.000000	0.354669
1657.000000	0.355163
1658.000000	0.355595
1659.000000	0.356088
1660.000000	0.356505
1661.000000	0.356657
1662.000000	0.357139
1663.000000	0.357712
1664.000000	0.358229
1665.000000	0.358944
1666.000000	0.359504
1667.000000	0.359778
1668.000000	0.360241
1669.000000	0.360774
1670.000000	0.361155
1671.000000	0.361659
1672.000000	0.362101
1673.000000	0.362399
1674.000000	0.362724
1675.000000	0.363015
1676.000000	0.363368
1677.000000	0.363750
1678.000000	0.363948
1679.000000	0.364258
1680.000000	0.364529
1681.000000	0.364740
1682.000000	0.365169
1683.000000	0.365677
1684.000000	0.366114
1685.000000	0.366550
1686.000000	0.366909
1687.000000	0.367102
1688.000000	0.367167
1689.000000	0.367335
1690.000000	0.367515
1691.000000	0.367846
1692.000000	0.368130
1693.000000	0.368342
1694.000000	0.368641
1695.000000	0.368985
1696.000000	0.369353
1697.000000	0.369576
1698.000000	0.369685
1699.000000	0.369886
1700.000000	0.370003
1701.000000	0.370355
1702.000000	0.370712
1703.000000	0.371004
1704.000000	0.371522
1705.000000	0.371866
1706.000000	0.372194
1707.000000	0.372395
1708.000000	0.372341
1709.000000	0.372413
1710.000000	0.372588
1711.000000	0.372722
1712.000000	0.372895
1713.000000	0.373121
1714.000000	0.373353
1715.000000	0.373658
1716.000000	0.374199
1717.000000	0.374521
1718.000000	0.374598
1719.000000	0.374894
1720.000000	0.375340
1721.000000	0.375660
1722.000000	0.376100
1723.000000	0.376409
1724.000000	0.376526
1725.000000	0.376795
1726.000000	0.376984
1727.000000	0.377302
1728.000000	0.377670
1729.000000	0.377896
1730.000000	0.378353
1731.000000	0.378602
1732.000000	0.378594
1733.000000	0.378958
1734.000000	0.379271
1735.000000	0.379647
1736.000000	0.380232
1737.000000	0.380578
1738.000000	0.380852
1739.000000	0.381046
1740.000000	0.381116
1741.000000	0.381222
1742.000000	0.381167
1743.000000	0.381582
1744.000000	0.382236
1745.000000	0.382575
1746.000000	0.383068
1747.000000	0.383084
1748.000000	0.383152
1749.000000	0.383350
1750.000000	0.383443
1751.000000	0.383548
1752.000000	0.383828
1753.000000	0.383999
1754.000000	0.384208
1755.000000	0.384524
1756.000000	0.384710
1757.000000	0.384782
1758.000000	0.384942
1759.000000	0.384998
1760.000000	0.385198
1761.000000	0.385562
1762.000000	0.385765
1763.000000	0.385968
1764.000000	0.386163
1765.000000	0.386064
1766.000000	0.386354
1767.000000	0.386963
1768.000000	0.387164
1769.000000	0.387461
1770.000000	0.387724
1771.000000	0.387598
1772.000000	0.387700
1773.000000	0.387907
1774.000000	0.388149
1775.000000	0.388498
1776.000000	0.388775
1777.000000	0.389131
1778.000000	0.389293
1779.000000	0.389174
1780.000000	0.389408
1781.000000	0.389773
1782.000000	0.389906
1783.000000	0.390127
1784.000000	0.390212
1785.000000	0.390289
1786.000000	0.390733
1787.000000	0.391359
1788.000000	0.391944
1789.000000	0.392405
1790.000000	0.392729
1791.000000	0.393026
1792.000000	0.393314
1793.000000	0.393600
1794.000000	0.393989
1795.000000	0.394267
1796.000000	0.394348
1797.000000	0.394581
1798.000000	0.394852
1799.000000	0.395085
1800.000000	0.395450
1801.000000	0.395463
1802.000000	0.395530
1803.000000	0.394393
1804.000000	0.394265
1805.000000	0.394101
1806.000000	0.394332
1807.000000	0.395257
1808.000000	0.395643
1809.000000	0.396554
1810.000000	0.396192
1811.000000	0.395916
1812.000000	0.394878
1813.000000	0.395004
1814.000000	0.395335
1815.000000	0.395723
1816.000000	0.396871
1817.000000	0.397577
1818.000000	0.398156
1819.000000	0.398940
1820.000000	0.399867
1821.000000	0.399475
1822.000000	0.398952
1823.000000	0.396890
1824.000000	0.396482
1825.000000	0.396356
1826.000000	0.396541
1827.000000	0.397899
1828.000000	0.398393
1829.000000	0.398159
1830.000000	0.397659
1831.000000	0.397273
1832.000000	0.396150
1833.000000	0.396096
1834.000000	0.396740
1835.000000	0.397015
1836.000000	0.398118
1837.000000	0.398012
1838.000000	0.396957
1839.000000	0.395679
1840.000000	0.394712
1841.000000	0.393582
1842.000000	0.393049
1843.000000	0.393777
1844.000000	0.393325
1845.000000	0.392116
1846.000000	0.391533
1847.000000	0.391051
1848.000000	0.389607
1849.000000	0.388862
1850.000000	0.388029
1851.000000	0.387175
1852.000000	0.386133
1853.000000	0.385308
1854.000000	0.384416
1855.000000	0.383334
1856.000000	0.382352
1857.000000	0.380744
1858.000000	0.378456
1859.000000	0.376293
1860.000000	0.374136
1861.000000	0.371612
1862.000000	0.369234
1863.000000	0.367455
1864.000000	0.365174
1865.000000	0.362301
1866.000000	0.359877
1867.000000	0.357822
1868.000000	0.355138
1869.000000	0.352078
1870.000000	0.348803
1871.000000	0.344848
1872.000000	0.341094
1873.000000	0.337450
1874.000000	0.334050
1875.000000	0.330334
1876.000000	0.326489
1877.000000	0.321940
1878.000000	0.317746
1879.000000	0.313340
1880.000000	0.307780
1881.000000	0.302437
1882.000000	0.296646
1883.000000	0.290703
1884.000000	0.285226
1885.000000	0.279980
1886.000000	0.274791
1887.000000	0.269944
1888.000000	0.264407
1889.000000	0.258860
1890.000000	0.253698
1891.000000	0.247604
1892.000000	0.241155
1893.000000	0.235030
1894.000000	0.228671
1895.000000	0.222510
1896.000000	0.216483
1897.000000	0.210839
1898.000000	0.204869
1899.000000	0.200063
1900.000000	0.195045
1901.000000	0.189437
1902.000000	0.185349
1903.000000	0.180183
1904.000000	0.175094
1905.000000	0.170885
1906.000000	0.166282
1907.000000	0.161182
1908.000000	0.157102
1909.000000	0.153228
1910.000000	0.150092
1911.000000	0.147461
1912.000000	0.144180
1913.000000	0.141574
1914.000000	0.138938
1915.000000	0.136337
1916.000000	0.134456
1917.000000	0.132456
1918.000000	0.130603
1919.000000	0.128545
1920.000000	0.126582
1921.000000	0.124896
1922.000000	0.123300
1923.000000	0.121614
1924.000000	0.120369
1925.000000	0.119598
1926.000000	0.118842
1927.000000	0.118676
1928.000000	0.118521
1929.000000	0.118895
1930.000000	0.118487
1931.000000	0.118234
1932.000000	0.117716
1933.000000	0.117069
1934.000000	0.117400
1935.000000	0.117075
1936.000000	0.116809
1937.000000	0.117158
1938.000000	0.116918
1939.000000	0.116672
1940.000000	0.116390
1941.000000	0.116894
1942.000000	0.117175
1943.000000	0.116537
1944.000000	0.116669
1945.000000	0.116438
1946.000000	0.115276
1947.000000	0.115008
1948.000000	0.114509
1949.000000	0.113799
1950.000000	0.113559
1951.000000	0.113247
1952.000000	0.112945
1953.000000	0.112970
1954.000000	0.112880
1955.000000	0.112211
1956.000000	0.111591
1957.000000	0.110652
1958.000000	0.109499
1959.000000	0.108739
1960.000000	0.108289
1961.000000	0.108044
1962.000000	0.107870
1963.000000	0.108111
1964.000000	0.108274
1965.000000	0.107946
1966.000000	0.107865
1967.000000	0.107656
1968.000000	0.107398
1969.000000	0.107094
1970.000000	0.106814
1971.000000	0.106819
1972.000000	0.106241
1973.000000	0.105979
1974.000000	0.106023
1975.000000	0.105955
1976.000000	0.105551
1977.000000	0.106124
1978.000000	0.106710
1979.000000	0.107293
1980.000000	0.107996
1981.000000	0.108737
1982.000000	0.109524
1983.000000	0.110054
1984.000000	0.110720
1985.000000	0.111639
1986.000000	0.112310
1987.000000	0.112891
1988.000000	0.113560
1989.000000	0.113829
1990.000000	0.113501
1991.000000	0.113294
1992.000000	0.113189
1993.000000	0.114062
1994.000000	0.115354
1995.000000	0.116225
1996.000000	0.117600
1997.000000	0.118713
1998.000000	0.119526
1999.000000	0.120376
2000.000000	0.121317
2001.000000	0.122087
2002.000000	0.123008
2003.000000	0.123938
2004.000000	0.125569
2005.000000	0.127282
2006.000000	0.128849
2007.000000	0.130285
2008.000000	0.131166
2009.000000	0.131327
2010.000000	0.132130
2011.000000	0.132359
2012.000000	0.133440
2013.000000	0.135338
2014.000000	0.136840
2015.000000	0.138452
2016.000000	0.140013
2017.000000	0.141527
2018.000000	0.143161
2019.000000	0.144274
2020.000000	0.145181
2021.000000	0.146244
2022.000000	0.146754
2023.000000	0.148066
2024.000000	0.150084
2025.000000	0.151791
2026.000000	0.153884
2027.000000	0.155175
2028.000000	0.156127
2029.000000	0.157205
2030.000000	0.158551
2031.000000	0.159710
2032.000000	0.161090
2033.000000	0.162837
2034.000000	0.163966
2035.000000	0.164745
2036.000000	0.165633
2037.000000	0.166340
2038.000000	0.167047
2039.000000	0.167819
2040.000000	0.168344
2041.000000	0.169110
2042.000000	0.170343
2043.000000	0.171930
2044.000000	0.173837
2045.000000	0.175691
2046.000000	0.176945
2047.000000	0.178031
2048.000000	0.178541
2049.000000	0.179587
2050.000000	0.180355
2051.000000	0.181357
2052.000000	0.182764
2053.000000	0.183761
2054.000000	0.184684
2055.000000	0.185658
2056.000000	0.186658
2057.000000	0.187637
2058.000000	0.188811
2059.000000	0.190297
2060.000000	0.191388
2061.000000	0.192137
2062.000000	0.193422
2063.000000	0.194846
2064.000000	0.195985
2065.000000	0.197868
2066.000000	0.198951
2067.000000	0.199543
2068.000000	0.200136
2069.000000	0.201136
2070.000000	0.201803
2071.000000	0.202828
2072.000000	0.204471
2073.000000	0.204912
2074.000000	0.205835
2075.000000	0.207122
2076.000000	0.208386
2077.000000	0.209703
2078.000000	0.211779
2079.000000	0.213121
2080.000000	0.214171
2081.000000	0.215244
2082.000000	0.215988
2083.000000	0.217071
2084.000000	0.218240
2085.000000	0.219033
2086.000000	0.220283
2087.000000	0.221517
2088.000000	0.222468
2089.000000	0.223882
2090.000000	0.225242
2091.000000	0.226774
2092.000000	0.228122
2093.000000	0.229498
2094.000000	0.230781
2095.000000	0.231788
2096.000000	0.233064
2097.000000	0.234466
2098.000000	0.236026
2099.000000	0.237041
2100.000000	0.238118
2101.000000	0.239258
2102.000000	0.239633
2103.000000	0.240176
2104.000000	0.241178
2105.000000	0.242118
2106.000000	0.243193
2107.000000	0.244056
2108.000000	0.244810
2109.000000	0.245605
2110.000000	0.246113
2111.000000	0.246900
2112.000000	0.247778
2113.000000	0.248640
2114.000000	0.249835
2115.000000	0.250121
2116.000000	0.250675
2117.000000	0.251628
2118.000000	0.252687
2119.000000	0.253955
2120.000000	0.255003
2121.000000	0.256339
2122.000000	0.257022
2123.000000	0.257028
2124.000000	0.257413
2125.000000	0.257318
2126.000000	0.257972
2127.000000	0.259629
2128.000000	0.260543
2129.000000	0.261455
2130.000000	0.262281
2131.000000	0.261544
2132.000000	0.260985
2133.000000	0.261176
2134.000000	0.261805
2135.000000	0.263238
2136.000000	0.265204
2137.000000	0.266129
2138.000000	0.266625
2139.000000	0.266589
2140.000000	0.265579
2141.000000	0.265155
2142.000000	0.264533
2143.000000	0.264245
2144.000000	0.263961
2145.000000	0.264428
2146.000000	0.265475
2147.000000	0.267021
2148.000000	0.268721
2149.000000	0.270344
2150.000000	0.270924
2151.000000	0.270977
2152.000000	0.271053
2153.000000	0.271356
2154.000000	0.271110
2155.000000	0.270212
2156.000000	0.270200
2157.000000	0.270259
2158.000000	0.270321
2159.000000	0.271458
2160.000000	0.272156
2161.000000	0.272336
2162.000000	0.272591
2163.000000	0.273027
2164.000000	0.272832
2165.000000	0.272019
2166.000000	0.271152
2167.000000	0.270637
2168.000000	0.271255
2169.000000	0.272233
2170.000000	0.273210
2171.000000	0.273428
2172.000000	0.273136
2173.000000	0.272658
2174.000000	0.271378
2175.000000	0.271076
2176.000000	0.271037
2177.000000	0.271225
2178.000000	0.271641
2179.000000	0.272371
2180.000000	0.273671
2181.000000	0.274748
2182.000000	0.275503
2183.000000	0.276729
2184.000000	0.277374
2185.000000	0.277244
2186.000000	0.276855
2187.000000	0.276887
2188.000000	0.276879
2189.000000	0.276547
2190.000000	0.276332
2191.000000	0.276860
2192.000000	0.276444
2193.000000	0.274995
2194.000000	0.274696
2195.000000	0.274677
2196.000000	0.274547
2197.000000	0.275452
2198.000000	0.275264
2199.000000	0.273504
2200.000000	0.273095
2201.000000	0.272968
2202.000000	0.273587
2203.000000	0.275208
2204.000000	0.277426
2205.000000	0.278921
2206.000000	0.278511
2207.000000	0.277355
2208.000000	0.276072
2209.000000	0.273316
2210.000000	0.272158
2211.000000	0.274295
2212.000000	0.275714
2213.000000	0.276014
2214.000000	0.277947
2215.000000	0.277378
2216.000000	0.272859
2217.000000	0.271524
2218.000000	0.270821
2219.000000	0.270952
2220.000000	0.272233
2221.000000	0.273681
2222.000000	0.276760
2223.000000	0.278051
2224.000000	0.279039
2225.000000	0.279293
2226.000000	0.278238
2227.000000	0.277586
2228.000000	0.278810
2229.000000	0.279948
2230.000000	0.278935
2231.000000	0.279436
2232.000000	0.278979
2233.000000	0.276186
2234.000000	0.276378
2235.000000	0.277506
2236.000000	0.277563
2237.000000	0.277524
2238.000000	0.277563
2239.000000	0.276544
2240.000000	0.276706
2241.000000	0.278598
2242.000000	0.278793
2243.000000	0.278075
2244.000000	0.277972
2245.000000	0.276536
2246.000000	0.276436
2247.000000	0.277757
2248.000000	0.279171
2249.000000	0.282870
2250.000000	0.282821
2251.000000	0.280283
2252.000000	0.278822
2253.000000	0.276601
2254.000000	0.274249
2255.000000	0.272967
2256.000000	0.273083
2257.000000	0.272646
2258.000000	0.271096
2259.000000	0.272250
2260.000000	0.274565
2261.000000	0.273946
2262.000000	0.271797
2263.000000	0.271010
2264.000000	0.267874
2265.000000	0.267213
2266.000000	0.269150
2267.000000	0.269812
2268.000000	0.271133
2269.000000	0.271412
2270.000000	0.271850
2271.000000	0.270642
2272.000000	0.266922
2273.000000	0.265742
2274.000000	0.264497
2275.000000	0.263187
2276.000000	0.263852
2277.000000	0.263071
2278.000000	0.259568
2279.000000	0.257603
2280.000000	0.255842
2281.000000	0.254750
2282.000000	0.256035
2283.000000	0.256558
2284.000000	0.255674
2285.000000	0.254169
2286.000000	0.251288
2287.000000	0.248077
2288.000000	0.244325
2289.000000	0.240647
2290.000000	0.237645
2291.000000	0.236221
2292.000000	0.235348
2293.000000	0.235605
2294.000000	0.235320
2295.000000	0.234447
2296.000000	0.234692
2297.000000	0.235421
2298.000000	0.235595
2299.000000	0.237004
2300.000000	0.236683
2301.000000	0.234772
2302.000000	0.234203
2303.000000	0.234137
2304.000000	0.233163
2305.000000	0.230838
2306.000000	0.230840
2307.000000	0.231879
2308.000000	0.231714
2309.000000	0.233419
2310.000000	0.234988
2311.000000	0.232725
2312.000000	0.231288
2313.000000	0.230931
2314.000000	0.229789
2315.000000	0.227343
2316.000000	0.226081
2317.000000	0.222791
2318.000000	0.218208
2319.000000	0.217166
2320.000000	0.214395
2321.000000	0.212342
2322.000000	0.210506
2323.000000	0.207799
2324.000000	0.207258
2325.000000	0.207510
2326.000000	0.209900
2327.000000	0.211731
2328.000000	0.209144
2329.000000	0.205437
2330.000000	0.201786
2331.000000	0.197578
2332.000000	0.198219
2333.000000	0.198355
2334.000000	0.195850
2335.000000	0.194744
2336.000000	0.191762
2337.000000	0.190750
2338.000000	0.192619
2339.000000	0.192693
2340.000000	0.193730
2341.000000	0.194029
2342.000000	0.192255
2343.000000	0.191472
2344.000000	0.191570
2345.000000	0.190334
2346.000000	0.188625
2347.000000	0.185771
2348.000000	0.182114
2349.000000	0.177236
2350.000000	0.172371
2351.000000	0.171940
2352.000000	0.171789
2353.000000	0.171276
2354.000000	0.169796
2355.000000	0.167194
2356.000000	0.164210
2357.000000	0.159952
2358.000000	0.158046
2359.000000	0.155744
2360.000000	0.154811
2361.000000	0.156487
2362.000000	0.153415
2363.000000	0.150780
2364.000000	0.147137
2365.000000	0.141959
2366.000000	0.141707
2367.000000	0.143512
2368.000000	0.143627
2369.000000	0.142957
2370.000000	0.142850
2371.000000	0.141307
2372.000000	0.139622
2373.000000	0.139149
2374.000000	0.139239
2375.000000	0.139348
2376.000000	0.137782
2377.000000	0.135903
2378.000000	0.132249
2379.000000	0.125287
2380.000000	0.123900
2381.000000	0.124264
2382.000000	0.120540
2383.000000	0.123531
2384.000000	0.124040
2385.000000	0.119779
2386.000000	0.123138
2387.000000	0.122692
2388.000000	0.118964
2389.000000	0.117249
2390.000000	0.111034
2391.000000	0.106248
2392.000000	0.107537
2393.000000	0.108609
2394.000000	0.109766
2395.000000	0.110115
2396.000000	0.102435
2397.000000	0.094599
2398.000000	0.087891
2399.000000	0.083993
2400.000000	0.083730
2401.000000	0.081369
2402.000000	0.085966
2403.000000	0.087080
2404.000000	0.084720
2405.000000	0.091321
2406.000000	0.093381
2407.000000	0.095758
2408.000000	0.099082
2409.000000	0.099531
2410.000000	0.100030
2411.000000	0.099138
2412.000000	0.104326
2413.000000	0.104278
2414.000000	0.098275
2415.000000	0.095474
2416.000000	0.088464
2417.000000	0.080079
2418.000000	0.076247
2419.000000	0.077120
2420.000000	0.073223
2421.000000	0.069167
2422.000000	0.075094
2423.000000	0.068426
2424.000000	0.056717
2425.000000	0.060366
2426.000000	0.055663
2427.000000	0.053098
2428.000000	0.067489
2429.000000	0.073933
2430.000000	0.075923
2431.000000	0.084525
2432.000000	0.083902
2433.000000	0.071952
2434.000000	0.065840
2435.000000	0.052539
2436.000000	0.045811
2437.000000	0.056145
2438.000000	0.055692
2439.000000	0.069166
2440.000000	0.080935
2441.000000	0.069527
2442.000000	0.073842
2443.000000	0.076015
2444.000000	0.069062
2445.000000	0.075390
2446.000000	0.070870
2447.000000	0.048695
2448.000000	0.032547
2449.000000	0.024455
2450.000000	0.020817
2451.000000	0.039939
2452.000000	0.059180
2453.000000	0.057421
2454.000000	0.052040
2455.000000	0.044972
2456.000000	0.042377
2457.000000	0.044696
2458.000000	0.056342
2459.000000	0.068601
2460.000000	0.060970
2461.000000	0.060088
2462.000000	0.061998
2463.000000	0.048449
2464.000000	0.048355
2465.000000	0.044426
2466.000000	0.047544
2467.000000	0.059973
2468.000000	0.043191
2469.000000	0.044749
2470.000000	0.046593
2471.000000	0.038934
2472.000000	0.047003
2473.000000	0.025824
2474.000000	0.005153
2475.000000	0.006917
2476.000000	0.021588
2477.000000	0.048956
2478.000000	0.061002
2479.000000	0.042842
2480.000000	0.008598
2481.000000	-0.024448
2482.000000	-0.048827
2483.000000	-0.053542
2484.000000	-0.051992
2485.000000	-0.029540
2486.000000	0.006724
2487.000000	0.029394
2488.000000	0.061057
2489.000000	0.076202
2490.000000	0.089149
2491.000000	0.067143
2492.000000	0.054251
2493.000000	0.047347
2494.000000	0.042785
2495.000000	0.060358
2496.000000	0.054439
2497.000000	0.016851
2498.000000	-0.000572
2499.000000	-0.038989
2500.000000	-0.050693
