# Wavelength	Nau-1_40_FV7_60_00001.asd.rts.txt
350.000000	0.131250
351.000000	0.122539
352.000000	0.115426
353.000000	0.127424
354.000000	0.153252
355.000000	0.142074
356.000000	0.138801
357.000000	0.148587
358.000000	0.147105
359.000000	0.148551
360.000000	0.148785
361.000000	0.142240
362.000000	0.146514
363.000000	0.149332
364.000000	0.145140
365.000000	0.152004
366.000000	0.154241
367.000000	0.149935
368.000000	0.148833
369.000000	0.150196
370.000000	0.151464
371.000000	0.150190
372.000000	0.152554
373.000000	0.153331
374.000000	0.150747
375.000000	0.154043
376.000000	0.155111
377.000000	0.153787
378.000000	0.157671
379.000000	0.159668
380.000000	0.159382
381.000000	0.159329
382.000000	0.162848
383.000000	0.163819
384.000000	0.160261
385.000000	0.163234
386.000000	0.165953
387.000000	0.166488
388.000000	0.167379
389.000000	0.168142
390.000000	0.169325
391.000000	0.171446
392.000000	0.173979
393.000000	0.175430
394.000000	0.175277
395.000000	0.176343
396.000000	0.176810
397.000000	0.176762
398.000000	0.179138
399.000000	0.181536
400.000000	0.182541
401.000000	0.181266
402.000000	0.183505
403.000000	0.186225
404.000000	0.186463
405.000000	0.187508
406.000000	0.188427
407.000000	0.189025
408.000000	0.190617
409.000000	0.191738
410.000000	0.192430
411.000000	0.193539
412.000000	0.194447
413.000000	0.195180
414.000000	0.195916
415.000000	0.196695
416.000000	0.197589
417.000000	0.198450
418.000000	0.198632
419.000000	0.198524
420.000000	0.198459
421.000000	0.198776
422.000000	0.198999
423.000000	0.199307
424.000000	0.200051
425.000000	0.200559
426.000000	0.200775
427.000000	0.200738
428.000000	0.200426
429.000000	0.200680
430.000000	0.201463
431.000000	0.201559
432.000000	0.201505
433.000000	0.201434
434.000000	0.201433
435.000000	0.201237
436.000000	0.201125
437.000000	0.201309
438.000000	0.201378
439.000000	0.200967
440.000000	0.200284
441.000000	0.200410
442.000000	0.200452
443.000000	0.200288
444.000000	0.200426
445.000000	0.200050
446.000000	0.199949
447.000000	0.200914
448.000000	0.201443
449.000000	0.201932
450.000000	0.202847
451.000000	0.204342
452.000000	0.205689
453.000000	0.206734
454.000000	0.208142
455.000000	0.209781
456.000000	0.211579
457.000000	0.213315
458.000000	0.215145
459.000000	0.217033
460.000000	0.218834
461.000000	0.219791
462.000000	0.220752
463.000000	0.222000
464.000000	0.223320
465.000000	0.224078
466.000000	0.224418
467.000000	0.225137
468.000000	0.225798
469.000000	0.226334
470.000000	0.226928
471.000000	0.227700
472.000000	0.228287
473.000000	0.228579
474.000000	0.229158
475.000000	0.229473
476.000000	0.229686
477.000000	0.230454
478.000000	0.230961
479.000000	0.231241
480.000000	0.231361
481.000000	0.231703
482.000000	0.232349
483.000000	0.233017
484.000000	0.233342
485.000000	0.233557
486.000000	0.233930
487.000000	0.234198
488.000000	0.234598
489.000000	0.235186
490.000000	0.235878
491.000000	0.236463
492.000000	0.236998
493.000000	0.237478
494.000000	0.237852
495.000000	0.238311
496.000000	0.238893
497.000000	0.239296
498.000000	0.239792
499.000000	0.240434
500.000000	0.240816
501.000000	0.241288
502.000000	0.241846
503.000000	0.242275
504.000000	0.242841
505.000000	0.243392
506.000000	0.243804
507.000000	0.244450
508.000000	0.245139
509.000000	0.245710
510.000000	0.246220
511.000000	0.246776
512.000000	0.247385
513.000000	0.247915
514.000000	0.248573
515.000000	0.249305
516.000000	0.249922
517.000000	0.250483
518.000000	0.251056
519.000000	0.251623
520.000000	0.252296
521.000000	0.252907
522.000000	0.253435
523.000000	0.254055
524.000000	0.254766
525.000000	0.255497
526.000000	0.256170
527.000000	0.256856
528.000000	0.257533
529.000000	0.258221
530.000000	0.258919
531.000000	0.259638
532.000000	0.260311
533.000000	0.261016
534.000000	0.261760
535.000000	0.262502
536.000000	0.263178
537.000000	0.263922
538.000000	0.264747
539.000000	0.265592
540.000000	0.266270
541.000000	0.266938
542.000000	0.267757
543.000000	0.268441
544.000000	0.269177
545.000000	0.269965
546.000000	0.270665
547.000000	0.271339
548.000000	0.272071
549.000000	0.272886
550.000000	0.273632
551.000000	0.274350
552.000000	0.275075
553.000000	0.275792
554.000000	0.276494
555.000000	0.277205
556.000000	0.278038
557.000000	0.278755
558.000000	0.279400
559.000000	0.279992
560.000000	0.280602
561.000000	0.281278
562.000000	0.281895
563.000000	0.282488
564.000000	0.283124
565.000000	0.283739
566.000000	0.284234
567.000000	0.284814
568.000000	0.285510
569.000000	0.286014
570.000000	0.286455
571.000000	0.286906
572.000000	0.287437
573.000000	0.287958
574.000000	0.288435
575.000000	0.288910
576.000000	0.289282
577.000000	0.289632
578.000000	0.290077
579.000000	0.290445
580.000000	0.290840
581.000000	0.291267
582.000000	0.291565
583.000000	0.291870
584.000000	0.292219
585.000000	0.292602
586.000000	0.292922
587.000000	0.293178
588.000000	0.293407
589.000000	0.293702
590.000000	0.294003
591.000000	0.294256
592.000000	0.294413
593.000000	0.294649
594.000000	0.294965
595.000000	0.295192
596.000000	0.295344
597.000000	0.295522
598.000000	0.295755
599.000000	0.295869
600.000000	0.296025
601.000000	0.296261
602.000000	0.296351
603.000000	0.296446
604.000000	0.296614
605.000000	0.296744
606.000000	0.296861
607.000000	0.296969
608.000000	0.297061
609.000000	0.297227
610.000000	0.297384
611.000000	0.297432
612.000000	0.297452
613.000000	0.297540
614.000000	0.297742
615.000000	0.297822
616.000000	0.297883
617.000000	0.297962
618.000000	0.298148
619.000000	0.298222
620.000000	0.298232
621.000000	0.298378
622.000000	0.298472
623.000000	0.298495
624.000000	0.298498
625.000000	0.298723
626.000000	0.298896
627.000000	0.298937
628.000000	0.299085
629.000000	0.299329
630.000000	0.299499
631.000000	0.299618
632.000000	0.299725
633.000000	0.299869
634.000000	0.300044
635.000000	0.300078
636.000000	0.300135
637.000000	0.300265
638.000000	0.300283
639.000000	0.300367
640.000000	0.300551
641.000000	0.300582
642.000000	0.300717
643.000000	0.300919
644.000000	0.301075
645.000000	0.301235
646.000000	0.301391
647.000000	0.301517
648.000000	0.301669
649.000000	0.301914
650.000000	0.302178
651.000000	0.302240
652.000000	0.302341
653.000000	0.302486
654.000000	0.302506
655.000000	0.302625
656.000000	0.302793
657.000000	0.302904
658.000000	0.303166
659.000000	0.303415
660.000000	0.303569
661.000000	0.303748
662.000000	0.303935
663.000000	0.304165
664.000000	0.304388
665.000000	0.304596
666.000000	0.304841
667.000000	0.305129
668.000000	0.305362
669.000000	0.305605
670.000000	0.305870
671.000000	0.305996
672.000000	0.306151
673.000000	0.306374
674.000000	0.306636
675.000000	0.306859
676.000000	0.307079
677.000000	0.307376
678.000000	0.307741
679.000000	0.308007
680.000000	0.308122
681.000000	0.308308
682.000000	0.308604
683.000000	0.308904
684.000000	0.309172
685.000000	0.309427
686.000000	0.309713
687.000000	0.310013
688.000000	0.310246
689.000000	0.310513
690.000000	0.310900
691.000000	0.311221
692.000000	0.311510
693.000000	0.311856
694.000000	0.312237
695.000000	0.312564
696.000000	0.312838
697.000000	0.313107
698.000000	0.313398
699.000000	0.313707
700.000000	0.314022
701.000000	0.314295
702.000000	0.314601
703.000000	0.314920
704.000000	0.315152
705.000000	0.315390
706.000000	0.315616
707.000000	0.315865
708.000000	0.316110
709.000000	0.316402
710.000000	0.316792
711.000000	0.317206
712.000000	0.317544
713.000000	0.317828
714.000000	0.318194
715.000000	0.318538
716.000000	0.318847
717.000000	0.319121
718.000000	0.319359
719.000000	0.319582
720.000000	0.319826
721.000000	0.320115
722.000000	0.320402
723.000000	0.320720
724.000000	0.321035
725.000000	0.321232
726.000000	0.321414
727.000000	0.321605
728.000000	0.321818
729.000000	0.322087
730.000000	0.322369
731.000000	0.322641
732.000000	0.322910
733.000000	0.323217
734.000000	0.323524
735.000000	0.323724
736.000000	0.323963
737.000000	0.324206
738.000000	0.324361
739.000000	0.324555
740.000000	0.324709
741.000000	0.324871
742.000000	0.325084
743.000000	0.325289
744.000000	0.325402
745.000000	0.325501
746.000000	0.325631
747.000000	0.325727
748.000000	0.325907
749.000000	0.326115
750.000000	0.326268
751.000000	0.326394
752.000000	0.326560
753.000000	0.326747
754.000000	0.326834
755.000000	0.326938
756.000000	0.327084
757.000000	0.327218
758.000000	0.327396
759.000000	0.327534
760.000000	0.327556
761.000000	0.327711
762.000000	0.327891
763.000000	0.327990
764.000000	0.327980
765.000000	0.328051
766.000000	0.328166
767.000000	0.328246
768.000000	0.328333
769.000000	0.328424
770.000000	0.328465
771.000000	0.328294
772.000000	0.328219
773.000000	0.328215
774.000000	0.328249
775.000000	0.328185
776.000000	0.328152
777.000000	0.328209
778.000000	0.328180
779.000000	0.328182
780.000000	0.328208
781.000000	0.328118
782.000000	0.328030
783.000000	0.328095
784.000000	0.328225
785.000000	0.328246
786.000000	0.328224
787.000000	0.328200
788.000000	0.328151
789.000000	0.328087
790.000000	0.327984
791.000000	0.327857
792.000000	0.327718
793.000000	0.327627
794.000000	0.327607
795.000000	0.327522
796.000000	0.327411
797.000000	0.327298
798.000000	0.327194
799.000000	0.327038
800.000000	0.326845
801.000000	0.326668
802.000000	0.326551
803.000000	0.326458
804.000000	0.326392
805.000000	0.326313
806.000000	0.326140
807.000000	0.326004
808.000000	0.325964
809.000000	0.325841
810.000000	0.325643
811.000000	0.325410
812.000000	0.325232
813.000000	0.325099
814.000000	0.325012
815.000000	0.324998
816.000000	0.324935
817.000000	0.324834
818.000000	0.324668
819.000000	0.324615
820.000000	0.324479
821.000000	0.324200
822.000000	0.324110
823.000000	0.323931
824.000000	0.323655
825.000000	0.323485
826.000000	0.323344
827.000000	0.323208
828.000000	0.323089
829.000000	0.322902
830.000000	0.322649
831.000000	0.322437
832.000000	0.322249
833.000000	0.322001
834.000000	0.321872
835.000000	0.321951
836.000000	0.321811
837.000000	0.321632
838.000000	0.321463
839.000000	0.321206
840.000000	0.320987
841.000000	0.320845
842.000000	0.320735
843.000000	0.320615
844.000000	0.320507
845.000000	0.320364
846.000000	0.320147
847.000000	0.320025
848.000000	0.319923
849.000000	0.319757
850.000000	0.319532
851.000000	0.319361
852.000000	0.319260
853.000000	0.318999
854.000000	0.318694
855.000000	0.318494
856.000000	0.318328
857.000000	0.318103
858.000000	0.317952
859.000000	0.317838
860.000000	0.317695
861.000000	0.317484
862.000000	0.317231
863.000000	0.316923
864.000000	0.316687
865.000000	0.316516
866.000000	0.316427
867.000000	0.316458
868.000000	0.316270
869.000000	0.315909
870.000000	0.315685
871.000000	0.315414
872.000000	0.315179
873.000000	0.314975
874.000000	0.314793
875.000000	0.314668
876.000000	0.314470
877.000000	0.313992
878.000000	0.313734
879.000000	0.313581
880.000000	0.313321
881.000000	0.313224
882.000000	0.312957
883.000000	0.312607
884.000000	0.312352
885.000000	0.312189
886.000000	0.311951
887.000000	0.311644
888.000000	0.311541
889.000000	0.311437
890.000000	0.311168
891.000000	0.310853
892.000000	0.310612
893.000000	0.310428
894.000000	0.310366
895.000000	0.310250
896.000000	0.310053
897.000000	0.309819
898.000000	0.309624
899.000000	0.309470
900.000000	0.309328
901.000000	0.309169
902.000000	0.309100
903.000000	0.308967
904.000000	0.308775
905.000000	0.308491
906.000000	0.308327
907.000000	0.308135
908.000000	0.307908
909.000000	0.307629
910.000000	0.307371
911.000000	0.307189
912.000000	0.307115
913.000000	0.307079
914.000000	0.306889
915.000000	0.306575
916.000000	0.306180
917.000000	0.305855
918.000000	0.305614
919.000000	0.305408
920.000000	0.305213
921.000000	0.305008
922.000000	0.304826
923.000000	0.304693
924.000000	0.304622
925.000000	0.304532
926.000000	0.304401
927.000000	0.304196
928.000000	0.304013
929.000000	0.303777
930.000000	0.303414
931.000000	0.303155
932.000000	0.302899
933.000000	0.302683
934.000000	0.302586
935.000000	0.302260
936.000000	0.301964
937.000000	0.301826
938.000000	0.301542
939.000000	0.301438
940.000000	0.301382
941.000000	0.301165
942.000000	0.301026
943.000000	0.300912
944.000000	0.300685
945.000000	0.300566
946.000000	0.300352
947.000000	0.300172
948.000000	0.300082
949.000000	0.299623
950.000000	0.299254
951.000000	0.299095
952.000000	0.299021
953.000000	0.298905
954.000000	0.298736
955.000000	0.298489
956.000000	0.298293
957.000000	0.298322
958.000000	0.298278
959.000000	0.297915
960.000000	0.297806
961.000000	0.297841
962.000000	0.297845
963.000000	0.297690
964.000000	0.297436
965.000000	0.297286
966.000000	0.297251
967.000000	0.297240
968.000000	0.297180
969.000000	0.296885
970.000000	0.296382
971.000000	0.296445
972.000000	0.296494
973.000000	0.296282
974.000000	0.296297
975.000000	0.296031
976.000000	0.295702
977.000000	0.295547
978.000000	0.295411
979.000000	0.295514
980.000000	0.295485
981.000000	0.295257
982.000000	0.295039
983.000000	0.294798
984.000000	0.294615
985.000000	0.294529
986.000000	0.294254
987.000000	0.294122
988.000000	0.294185
989.000000	0.294028
990.000000	0.293799
991.000000	0.293801
992.000000	0.294230
993.000000	0.294278
994.000000	0.294186
995.000000	0.294155
996.000000	0.293977
997.000000	0.294268
998.000000	0.294364
999.000000	0.294187
1000.000000	0.294467
1001.000000	0.294650
1002.000000	0.294413
1003.000000	0.293955
1004.000000	0.293940
1005.000000	0.295100
1006.000000	0.295265
1007.000000	0.294940
1008.000000	0.294822
1009.000000	0.295276
1010.000000	0.294658
1011.000000	0.294149
1012.000000	0.294162
1013.000000	0.293518
1014.000000	0.292832
1015.000000	0.292526
1016.000000	0.292804
1017.000000	0.293022
1018.000000	0.293365
1019.000000	0.294040
1020.000000	0.295586
1021.000000	0.295797
1022.000000	0.296096
1023.000000	0.296292
1024.000000	0.295660
1025.000000	0.294977
1026.000000	0.295428
1027.000000	0.295314
1028.000000	0.295453
1029.000000	0.295754
1030.000000	0.294965
1031.000000	0.294352
1032.000000	0.294245
1033.000000	0.294587
1034.000000	0.294884
1035.000000	0.295932
1036.000000	0.296197
1037.000000	0.295874
1038.000000	0.295685
1039.000000	0.295450
1040.000000	0.295496
1041.000000	0.294920
1042.000000	0.294873
1043.000000	0.295283
1044.000000	0.295513
1045.000000	0.296330
1046.000000	0.297318
1047.000000	0.297802
1048.000000	0.297898
1049.000000	0.298079
1050.000000	0.298149
1051.000000	0.298166
1052.000000	0.297868
1053.000000	0.297946
1054.000000	0.298185
1055.000000	0.298542
1056.000000	0.299291
1057.000000	0.300117
1058.000000	0.300058
1059.000000	0.300145
1060.000000	0.300401
1061.000000	0.300624
1062.000000	0.301033
1063.000000	0.301729
1064.000000	0.302338
1065.000000	0.302947
1066.000000	0.303152
1067.000000	0.303275
1068.000000	0.303338
1069.000000	0.302683
1070.000000	0.302769
1071.000000	0.303523
1072.000000	0.303801
1073.000000	0.304191
1074.000000	0.304502
1075.000000	0.304369
1076.000000	0.304546
1077.000000	0.304713
1078.000000	0.304758
1079.000000	0.305089
1080.000000	0.305631
1081.000000	0.305995
1082.000000	0.306652
1083.000000	0.307031
1084.000000	0.307072
1085.000000	0.307428
1086.000000	0.307881
1087.000000	0.308288
1088.000000	0.308801
1089.000000	0.309142
1090.000000	0.309140
1091.000000	0.309402
1092.000000	0.310168
1093.000000	0.310685
1094.000000	0.311029
1095.000000	0.311418
1096.000000	0.311747
1097.000000	0.311741
1098.000000	0.311936
1099.000000	0.312174
1100.000000	0.312633
1101.000000	0.313064
1102.000000	0.313491
1103.000000	0.314484
1104.000000	0.314814
1105.000000	0.314297
1106.000000	0.314490
1107.000000	0.314827
1108.000000	0.314998
1109.000000	0.315432
1110.000000	0.316086
1111.000000	0.316383
1112.000000	0.316185
1113.000000	0.316564
1114.000000	0.317289
1115.000000	0.317655
1116.000000	0.318134
1117.000000	0.318386
1118.000000	0.318281
1119.000000	0.318322
1120.000000	0.318269
1121.000000	0.318406
1122.000000	0.318701
1123.000000	0.319188
1124.000000	0.319796
1125.000000	0.320217
1126.000000	0.320560
1127.000000	0.320764
1128.000000	0.320847
1129.000000	0.320662
1130.000000	0.320930
1131.000000	0.321398
1132.000000	0.321589
1133.000000	0.321931
1134.000000	0.322213
1135.000000	0.322156
1136.000000	0.322335
1137.000000	0.322830
1138.000000	0.322996
1139.000000	0.322990
1140.000000	0.323232
1141.000000	0.323510
1142.000000	0.323685
1143.000000	0.323783
1144.000000	0.324090
1145.000000	0.324302
1146.000000	0.324300
1147.000000	0.324459
1148.000000	0.324716
1149.000000	0.324850
1150.000000	0.324822
1151.000000	0.325092
1152.000000	0.325547
1153.000000	0.325735
1154.000000	0.325905
1155.000000	0.325986
1156.000000	0.325742
1157.000000	0.325792
1158.000000	0.326060
1159.000000	0.326147
1160.000000	0.326077
1161.000000	0.326201
1162.000000	0.326448
1163.000000	0.326742
1164.000000	0.326983
1165.000000	0.327193
1166.000000	0.327340
1167.000000	0.327180
1168.000000	0.327267
1169.000000	0.327537
1170.000000	0.327714
1171.000000	0.327963
1172.000000	0.328147
1173.000000	0.328226
1174.000000	0.328376
1175.000000	0.328436
1176.000000	0.328589
1177.000000	0.329015
1178.000000	0.329207
1179.000000	0.329351
1180.000000	0.329405
1181.000000	0.329331
1182.000000	0.329305
1183.000000	0.329507
1184.000000	0.329699
1185.000000	0.329774
1186.000000	0.329855
1187.000000	0.329917
1188.000000	0.329849
1189.000000	0.329824
1190.000000	0.329959
1191.000000	0.329937
1192.000000	0.329824
1193.000000	0.329951
1194.000000	0.330017
1195.000000	0.330120
1196.000000	0.330299
1197.000000	0.330441
1198.000000	0.330543
1199.000000	0.330711
1200.000000	0.330925
1201.000000	0.331164
1202.000000	0.331389
1203.000000	0.331399
1204.000000	0.331250
1205.000000	0.331181
1206.000000	0.331132
1207.000000	0.331200
1208.000000	0.331189
1209.000000	0.331201
1210.000000	0.331278
1211.000000	0.331315
1212.000000	0.331423
1213.000000	0.331788
1214.000000	0.331988
1215.000000	0.332073
1216.000000	0.332177
1217.000000	0.332245
1218.000000	0.332241
1219.000000	0.332150
1220.000000	0.332217
1221.000000	0.332396
1222.000000	0.332444
1223.000000	0.332520
1224.000000	0.332614
1225.000000	0.332555
1226.000000	0.332551
1227.000000	0.332569
1228.000000	0.332582
1229.000000	0.332600
1230.000000	0.332590
1231.000000	0.332506
1232.000000	0.332595
1233.000000	0.332650
1234.000000	0.332500
1235.000000	0.332495
1236.000000	0.332451
1237.000000	0.332523
1238.000000	0.332793
1239.000000	0.332828
1240.000000	0.332794
1241.000000	0.332705
1242.000000	0.332580
1243.000000	0.332467
1244.000000	0.332447
1245.000000	0.332633
1246.000000	0.332666
1247.000000	0.332750
1248.000000	0.332963
1249.000000	0.332897
1250.000000	0.332876
1251.000000	0.332934
1252.000000	0.332953
1253.000000	0.333073
1254.000000	0.333035
1255.000000	0.332843
1256.000000	0.332779
1257.000000	0.332667
1258.000000	0.332663
1259.000000	0.332795
1260.000000	0.332884
1261.000000	0.332847
1262.000000	0.332868
1263.000000	0.332958
1264.000000	0.333014
1265.000000	0.332975
1266.000000	0.332986
1267.000000	0.333012
1268.000000	0.332859
1269.000000	0.332950
1270.000000	0.333168
1271.000000	0.333119
1272.000000	0.333214
1273.000000	0.333321
1274.000000	0.333258
1275.000000	0.333325
1276.000000	0.333658
1277.000000	0.333762
1278.000000	0.333669
1279.000000	0.333638
1280.000000	0.333378
1281.000000	0.333309
1282.000000	0.333447
1283.000000	0.333479
1284.000000	0.333501
1285.000000	0.333512
1286.000000	0.333391
1287.000000	0.333344
1288.000000	0.333383
1289.000000	0.333419
1290.000000	0.333358
1291.000000	0.333237
1292.000000	0.333333
1293.000000	0.333427
1294.000000	0.333397
1295.000000	0.333469
1296.000000	0.333429
1297.000000	0.333252
1298.000000	0.333353
1299.000000	0.333472
1300.000000	0.333475
1301.000000	0.333503
1302.000000	0.333400
1303.000000	0.333239
1304.000000	0.333134
1305.000000	0.333106
1306.000000	0.333047
1307.000000	0.333102
1308.000000	0.333011
1309.000000	0.332747
1310.000000	0.332640
1311.000000	0.332540
1312.000000	0.332520
1313.000000	0.332473
1314.000000	0.332558
1315.000000	0.332630
1316.000000	0.332622
1317.000000	0.332686
1318.000000	0.332797
1319.000000	0.332819
1320.000000	0.332768
1321.000000	0.332732
1322.000000	0.332763
1323.000000	0.332825
1324.000000	0.332856
1325.000000	0.332780
1326.000000	0.332700
1327.000000	0.332684
1328.000000	0.332671
1329.000000	0.332587
1330.000000	0.332643
1331.000000	0.332595
1332.000000	0.332385
1333.000000	0.332339
1334.000000	0.332438
1335.000000	0.332482
1336.000000	0.332581
1337.000000	0.332619
1338.000000	0.332565
1339.000000	0.332555
1340.000000	0.332457
1341.000000	0.332346
1342.000000	0.332275
1343.000000	0.332096
1344.000000	0.332020
1345.000000	0.331970
1346.000000	0.331955
1347.000000	0.331971
1348.000000	0.332033
1349.000000	0.331900
1350.000000	0.331679
1351.000000	0.331597
1352.000000	0.331591
1353.000000	0.331504
1354.000000	0.331423
1355.000000	0.331342
1356.000000	0.331290
1357.000000	0.331302
1358.000000	0.331354
1359.000000	0.331211
1360.000000	0.331109
1361.000000	0.330926
1362.000000	0.330815
1363.000000	0.330772
1364.000000	0.330729
1365.000000	0.330636
1366.000000	0.330584
1367.000000	0.330567
1368.000000	0.330434
1369.000000	0.330501
1370.000000	0.330465
1371.000000	0.330326
1372.000000	0.330292
1373.000000	0.330251
1374.000000	0.330134
1375.000000	0.329990
1376.000000	0.329960
1377.000000	0.329872
1378.000000	0.329610
1379.000000	0.329205
1380.000000	0.329068
1381.000000	0.328953
1382.000000	0.328657
1383.000000	0.328677
1384.000000	0.328470
1385.000000	0.327939
1386.000000	0.327601
1387.000000	0.327352
1388.000000	0.327041
1389.000000	0.326664
1390.000000	0.326264
1391.000000	0.325734
1392.000000	0.325178
1393.000000	0.324637
1394.000000	0.324167
1395.000000	0.323824
1396.000000	0.323541
1397.000000	0.323095
1398.000000	0.322660
1399.000000	0.322207
1400.000000	0.321585
1401.000000	0.321100
1402.000000	0.320755
1403.000000	0.320373
1404.000000	0.319994
1405.000000	0.319469
1406.000000	0.318916
1407.000000	0.318398
1408.000000	0.317817
1409.000000	0.317303
1410.000000	0.316924
1411.000000	0.316564
1412.000000	0.316268
1413.000000	0.316065
1414.000000	0.315779
1415.000000	0.315601
1416.000000	0.315465
1417.000000	0.315400
1418.000000	0.315498
1419.000000	0.315589
1420.000000	0.315578
1421.000000	0.315729
1422.000000	0.315764
1423.000000	0.315726
1424.000000	0.315735
1425.000000	0.315623
1426.000000	0.315466
1427.000000	0.315448
1428.000000	0.315348
1429.000000	0.315195
1430.000000	0.315128
1431.000000	0.315084
1432.000000	0.315063
1433.000000	0.315147
1434.000000	0.315195
1435.000000	0.315296
1436.000000	0.315451
1437.000000	0.315554
1438.000000	0.315880
1439.000000	0.316405
1440.000000	0.316886
1441.000000	0.317540
1442.000000	0.318130
1443.000000	0.318615
1444.000000	0.319186
1445.000000	0.319666
1446.000000	0.320101
1447.000000	0.320582
1448.000000	0.321001
1449.000000	0.321510
1450.000000	0.322004
1451.000000	0.322334
1452.000000	0.322578
1453.000000	0.322688
1454.000000	0.322683
1455.000000	0.322666
1456.000000	0.322684
1457.000000	0.322809
1458.000000	0.322958
1459.000000	0.322958
1460.000000	0.322876
1461.000000	0.322867
1462.000000	0.322885
1463.000000	0.322859
1464.000000	0.322989
1465.000000	0.323147
1466.000000	0.323155
1467.000000	0.323339
1468.000000	0.323548
1469.000000	0.323708
1470.000000	0.323872
1471.000000	0.323993
1472.000000	0.324090
1473.000000	0.324282
1474.000000	0.324420
1475.000000	0.324638
1476.000000	0.324884
1477.000000	0.325095
1478.000000	0.325288
1479.000000	0.325342
1480.000000	0.325420
1481.000000	0.325496
1482.000000	0.325593
1483.000000	0.325667
1484.000000	0.325745
1485.000000	0.325824
1486.000000	0.325793
1487.000000	0.325962
1488.000000	0.326355
1489.000000	0.326548
1490.000000	0.326596
1491.000000	0.326715
1492.000000	0.326641
1493.000000	0.326756
1494.000000	0.327091
1495.000000	0.327174
1496.000000	0.327164
1497.000000	0.327165
1498.000000	0.327071
1499.000000	0.326948
1500.000000	0.326988
1501.000000	0.327035
1502.000000	0.327133
1503.000000	0.327421
1504.000000	0.327690
1505.000000	0.327881
1506.000000	0.328063
1507.000000	0.328086
1508.000000	0.328155
1509.000000	0.328228
1510.000000	0.328132
1511.000000	0.328129
1512.000000	0.328053
1513.000000	0.328049
1514.000000	0.328227
1515.000000	0.328145
1516.000000	0.328117
1517.000000	0.328155
1518.000000	0.328113
1519.000000	0.328109
1520.000000	0.328125
1521.000000	0.328045
1522.000000	0.328049
1523.000000	0.328226
1524.000000	0.328313
1525.000000	0.328346
1526.000000	0.328298
1527.000000	0.328329
1528.000000	0.328556
1529.000000	0.328670
1530.000000	0.328702
1531.000000	0.328728
1532.000000	0.328654
1533.000000	0.328607
1534.000000	0.328599
1535.000000	0.328648
1536.000000	0.328689
1537.000000	0.328818
1538.000000	0.328941
1539.000000	0.328918
1540.000000	0.328980
1541.000000	0.329064
1542.000000	0.329115
1543.000000	0.329239
1544.000000	0.329149
1545.000000	0.329007
1546.000000	0.329062
1547.000000	0.329105
1548.000000	0.329249
1549.000000	0.329428
1550.000000	0.329373
1551.000000	0.329256
1552.000000	0.329138
1553.000000	0.328992
1554.000000	0.328963
1555.000000	0.329017
1556.000000	0.329032
1557.000000	0.328991
1558.000000	0.329046
1559.000000	0.329053
1560.000000	0.329093
1561.000000	0.329336
1562.000000	0.329332
1563.000000	0.329170
1564.000000	0.329170
1565.000000	0.329136
1566.000000	0.329037
1567.000000	0.329179
1568.000000	0.329147
1569.000000	0.328951
1570.000000	0.328959
1571.000000	0.329020
1572.000000	0.329046
1573.000000	0.329179
1574.000000	0.329220
1575.000000	0.329216
1576.000000	0.329262
1577.000000	0.329332
1578.000000	0.329321
1579.000000	0.329316
1580.000000	0.329314
1581.000000	0.329309
1582.000000	0.329306
1583.000000	0.329325
1584.000000	0.329324
1585.000000	0.329401
1586.000000	0.329517
1587.000000	0.329667
1588.000000	0.329782
1589.000000	0.329879
1590.000000	0.329969
1591.000000	0.330116
1592.000000	0.330182
1593.000000	0.330226
1594.000000	0.330312
1595.000000	0.330452
1596.000000	0.330493
1597.000000	0.330599
1598.000000	0.330532
1599.000000	0.330285
1600.000000	0.330131
1601.000000	0.330015
1602.000000	0.329934
1603.000000	0.329938
1604.000000	0.329902
1605.000000	0.329925
1606.000000	0.329867
1607.000000	0.329796
1608.000000	0.329738
1609.000000	0.329754
1610.000000	0.329647
1611.000000	0.329454
1612.000000	0.329379
1613.000000	0.329391
1614.000000	0.329360
1615.000000	0.329531
1616.000000	0.329546
1617.000000	0.329304
1618.000000	0.329267
1619.000000	0.329305
1620.000000	0.329278
1621.000000	0.329318
1622.000000	0.329399
1623.000000	0.329372
1624.000000	0.329443
1625.000000	0.329543
1626.000000	0.329503
1627.000000	0.329431
1628.000000	0.329411
1629.000000	0.329317
1630.000000	0.329309
1631.000000	0.329285
1632.000000	0.329210
1633.000000	0.329178
1634.000000	0.329142
1635.000000	0.329060
1636.000000	0.329073
1637.000000	0.329142
1638.000000	0.329201
1639.000000	0.329460
1640.000000	0.329520
1641.000000	0.329524
1642.000000	0.329571
1643.000000	0.329583
1644.000000	0.329601
1645.000000	0.329726
1646.000000	0.329643
1647.000000	0.329435
1648.000000	0.329300
1649.000000	0.329197
1650.000000	0.329118
1651.000000	0.329124
1652.000000	0.329130
1653.000000	0.329036
1654.000000	0.329034
1655.000000	0.329074
1656.000000	0.329007
1657.000000	0.329006
1658.000000	0.328941
1659.000000	0.328940
1660.000000	0.328877
1661.000000	0.328639
1662.000000	0.328577
1663.000000	0.328499
1664.000000	0.328477
1665.000000	0.328589
1666.000000	0.328657
1667.000000	0.328606
1668.000000	0.328624
1669.000000	0.328689
1670.000000	0.328576
1671.000000	0.328469
1672.000000	0.328506
1673.000000	0.328460
1674.000000	0.328530
1675.000000	0.328731
1676.000000	0.328756
1677.000000	0.328846
1678.000000	0.329011
1679.000000	0.329022
1680.000000	0.328883
1681.000000	0.328666
1682.000000	0.328459
1683.000000	0.328379
1684.000000	0.328445
1685.000000	0.328526
1686.000000	0.328501
1687.000000	0.328590
1688.000000	0.328705
1689.000000	0.328798
1690.000000	0.328992
1691.000000	0.329031
1692.000000	0.328764
1693.000000	0.328714
1694.000000	0.328708
1695.000000	0.328808
1696.000000	0.328937
1697.000000	0.328985
1698.000000	0.328930
1699.000000	0.328954
1700.000000	0.329148
1701.000000	0.329279
1702.000000	0.329130
1703.000000	0.329039
1704.000000	0.329002
1705.000000	0.328959
1706.000000	0.328926
1707.000000	0.329028
1708.000000	0.329277
1709.000000	0.329262
1710.000000	0.329340
1711.000000	0.329356
1712.000000	0.329097
1713.000000	0.329044
1714.000000	0.329224
1715.000000	0.329253
1716.000000	0.329338
1717.000000	0.329249
1718.000000	0.328901
1719.000000	0.328720
1720.000000	0.328560
1721.000000	0.328449
1722.000000	0.328476
1723.000000	0.328427
1724.000000	0.328390
1725.000000	0.328333
1726.000000	0.328140
1727.000000	0.328054
1728.000000	0.327963
1729.000000	0.327753
1730.000000	0.327688
1731.000000	0.327541
1732.000000	0.327313
1733.000000	0.327108
1734.000000	0.326699
1735.000000	0.326546
1736.000000	0.326401
1737.000000	0.326322
1738.000000	0.326515
1739.000000	0.326446
1740.000000	0.326211
1741.000000	0.326090
1742.000000	0.325895
1743.000000	0.326029
1744.000000	0.326348
1745.000000	0.326487
1746.000000	0.326742
1747.000000	0.326831
1748.000000	0.326774
1749.000000	0.326517
1750.000000	0.326467
1751.000000	0.326624
1752.000000	0.326752
1753.000000	0.326917
1754.000000	0.327047
1755.000000	0.326877
1756.000000	0.326918
1757.000000	0.327323
1758.000000	0.327397
1759.000000	0.327310
1760.000000	0.327247
1761.000000	0.326899
1762.000000	0.326686
1763.000000	0.326573
1764.000000	0.326521
1765.000000	0.326497
1766.000000	0.326444
1767.000000	0.326404
1768.000000	0.326295
1769.000000	0.326105
1770.000000	0.326151
1771.000000	0.326334
1772.000000	0.326372
1773.000000	0.326390
1774.000000	0.326441
1775.000000	0.326478
1776.000000	0.326513
1777.000000	0.326621
1778.000000	0.326589
1779.000000	0.326397
1780.000000	0.326300
1781.000000	0.326183
1782.000000	0.326072
1783.000000	0.326004
1784.000000	0.326136
1785.000000	0.325934
1786.000000	0.325701
1787.000000	0.325678
1788.000000	0.325498
1789.000000	0.325328
1790.000000	0.325347
1791.000000	0.325259
1792.000000	0.325253
1793.000000	0.325212
1794.000000	0.325249
1795.000000	0.325145
1796.000000	0.324693
1797.000000	0.324655
1798.000000	0.324770
1799.000000	0.324801
1800.000000	0.325266
1801.000000	0.324859
1802.000000	0.324916
1803.000000	0.325061
1804.000000	0.325250
1805.000000	0.325802
1806.000000	0.325754
1807.000000	0.325227
1808.000000	0.325072
1809.000000	0.324479
1810.000000	0.324284
1811.000000	0.324612
1812.000000	0.325975
1813.000000	0.326183
1814.000000	0.326414
1815.000000	0.326232
1816.000000	0.324681
1817.000000	0.324235
1818.000000	0.323957
1819.000000	0.324833
1820.000000	0.324899
1821.000000	0.325269
1822.000000	0.325409
1823.000000	0.324850
1824.000000	0.324723
1825.000000	0.324877
1826.000000	0.324995
1827.000000	0.324739
1828.000000	0.325172
1829.000000	0.325479
1830.000000	0.325774
1831.000000	0.325950
1832.000000	0.326072
1833.000000	0.326047
1834.000000	0.325865
1835.000000	0.325875
1836.000000	0.325754
1837.000000	0.325824
1838.000000	0.326261
1839.000000	0.325931
1840.000000	0.325808
1841.000000	0.325501
1842.000000	0.325400
1843.000000	0.325313
1844.000000	0.325214
1845.000000	0.325279
1846.000000	0.325139
1847.000000	0.324643
1848.000000	0.323979
1849.000000	0.323650
1850.000000	0.323565
1851.000000	0.323571
1852.000000	0.323754
1853.000000	0.324062
1854.000000	0.324538
1855.000000	0.324554
1856.000000	0.324319
1857.000000	0.324118
1858.000000	0.324173
1859.000000	0.324237
1860.000000	0.324785
1861.000000	0.325379
1862.000000	0.325086
1863.000000	0.324198
1864.000000	0.323436
1865.000000	0.321682
1866.000000	0.320964
1867.000000	0.320766
1868.000000	0.320349
1869.000000	0.320311
1870.000000	0.320531
1871.000000	0.320136
1872.000000	0.319934
1873.000000	0.319644
1874.000000	0.319023
1875.000000	0.318700
1876.000000	0.318414
1877.000000	0.317830
1878.000000	0.316642
1879.000000	0.315572
1880.000000	0.314649
1881.000000	0.313054
1882.000000	0.311783
1883.000000	0.311151
1884.000000	0.310169
1885.000000	0.308720
1886.000000	0.307644
1887.000000	0.307024
1888.000000	0.305175
1889.000000	0.303824
1890.000000	0.302584
1891.000000	0.301027
1892.000000	0.299398
1893.000000	0.297231
1894.000000	0.295060
1895.000000	0.293065
1896.000000	0.291017
1897.000000	0.289343
1898.000000	0.288009
1899.000000	0.287220
1900.000000	0.285868
1901.000000	0.284102
1902.000000	0.282814
1903.000000	0.281089
1904.000000	0.280141
1905.000000	0.279943
1906.000000	0.279488
1907.000000	0.279258
1908.000000	0.279594
1909.000000	0.279065
1910.000000	0.278270
1911.000000	0.278093
1912.000000	0.277027
1913.000000	0.276614
1914.000000	0.277078
1915.000000	0.277111
1916.000000	0.277435
1917.000000	0.277921
1918.000000	0.278651
1919.000000	0.279425
1920.000000	0.280261
1921.000000	0.280926
1922.000000	0.281659
1923.000000	0.282185
1924.000000	0.282350
1925.000000	0.283073
1926.000000	0.284143
1927.000000	0.284900
1928.000000	0.285465
1929.000000	0.286247
1930.000000	0.286733
1931.000000	0.286805
1932.000000	0.287263
1933.000000	0.287705
1934.000000	0.288266
1935.000000	0.288867
1936.000000	0.289154
1937.000000	0.289748
1938.000000	0.290347
1939.000000	0.290677
1940.000000	0.290966
1941.000000	0.290780
1942.000000	0.290677
1943.000000	0.290803
1944.000000	0.290346
1945.000000	0.290376
1946.000000	0.290423
1947.000000	0.289965
1948.000000	0.290035
1949.000000	0.290627
1950.000000	0.291082
1951.000000	0.291259
1952.000000	0.291370
1953.000000	0.291723
1954.000000	0.292033
1955.000000	0.292213
1956.000000	0.292712
1957.000000	0.293059
1958.000000	0.293169
1959.000000	0.293809
1960.000000	0.294473
1961.000000	0.294911
1962.000000	0.295305
1963.000000	0.295738
1964.000000	0.295916
1965.000000	0.295695
1966.000000	0.295512
1967.000000	0.295435
1968.000000	0.295178
1969.000000	0.295214
1970.000000	0.295024
1971.000000	0.294940
1972.000000	0.294854
1973.000000	0.294745
1974.000000	0.294863
1975.000000	0.295264
1976.000000	0.295701
1977.000000	0.296582
1978.000000	0.297342
1979.000000	0.297585
1980.000000	0.298099
1981.000000	0.297932
1982.000000	0.298024
1983.000000	0.298721
1984.000000	0.298968
1985.000000	0.299163
1986.000000	0.299164
1987.000000	0.298938
1988.000000	0.298885
1989.000000	0.298862
1990.000000	0.299406
1991.000000	0.299954
1992.000000	0.300260
1993.000000	0.300473
1994.000000	0.300715
1995.000000	0.301112
1996.000000	0.301594
1997.000000	0.302063
1998.000000	0.302812
1999.000000	0.303177
2000.000000	0.303438
2001.000000	0.303540
2002.000000	0.303247
2003.000000	0.303666
2004.000000	0.303910
2005.000000	0.303503
2006.000000	0.303581
2007.000000	0.303516
2008.000000	0.303663
2009.000000	0.303987
2010.000000	0.304479
2011.000000	0.305335
2012.000000	0.305593
2013.000000	0.305480
2014.000000	0.305322
2015.000000	0.305777
2016.000000	0.305363
2017.000000	0.305420
2018.000000	0.306008
2019.000000	0.305828
2020.000000	0.306048
2021.000000	0.306406
2022.000000	0.307015
2023.000000	0.307436
2024.000000	0.307976
2025.000000	0.308383
2026.000000	0.308603
2027.000000	0.308902
2028.000000	0.308596
2029.000000	0.308503
2030.000000	0.308274
2031.000000	0.307899
2032.000000	0.308138
2033.000000	0.308491
2034.000000	0.308824
2035.000000	0.309745
2036.000000	0.309668
2037.000000	0.309225
2038.000000	0.308943
2039.000000	0.308126
2040.000000	0.307823
2041.000000	0.307920
2042.000000	0.308310
2043.000000	0.309052
2044.000000	0.309062
2045.000000	0.308659
2046.000000	0.308666
2047.000000	0.309088
2048.000000	0.309687
2049.000000	0.310476
2050.000000	0.311742
2051.000000	0.312223
2052.000000	0.312067
2053.000000	0.311893
2054.000000	0.311442
2055.000000	0.311830
2056.000000	0.311703
2057.000000	0.311765
2058.000000	0.312112
2059.000000	0.311656
2060.000000	0.311540
2061.000000	0.311451
2062.000000	0.311501
2063.000000	0.311909
2064.000000	0.311768
2065.000000	0.311632
2066.000000	0.311374
2067.000000	0.311049
2068.000000	0.310812
2069.000000	0.310399
2070.000000	0.310880
2071.000000	0.310896
2072.000000	0.310442
2073.000000	0.310875
2074.000000	0.310537
2075.000000	0.310274
2076.000000	0.310032
2077.000000	0.309813
2078.000000	0.309206
2079.000000	0.309012
2080.000000	0.309315
2081.000000	0.309289
2082.000000	0.309095
2083.000000	0.309139
2084.000000	0.309411
2085.000000	0.309681
2086.000000	0.309913
2087.000000	0.310299
2088.000000	0.310780
2089.000000	0.310951
2090.000000	0.311288
2091.000000	0.312123
2092.000000	0.312509
2093.000000	0.312704
2094.000000	0.312810
2095.000000	0.312626
2096.000000	0.312738
2097.000000	0.312908
2098.000000	0.312724
2099.000000	0.313010
2100.000000	0.312951
2101.000000	0.312594
2102.000000	0.312279
2103.000000	0.311276
2104.000000	0.310487
2105.000000	0.310175
2106.000000	0.309811
2107.000000	0.310027
2108.000000	0.311236
2109.000000	0.311824
2110.000000	0.312281
2111.000000	0.312752
2112.000000	0.313016
2113.000000	0.313102
2114.000000	0.313235
2115.000000	0.312572
2116.000000	0.312158
2117.000000	0.311576
2118.000000	0.311389
2119.000000	0.311794
2120.000000	0.311857
2121.000000	0.312031
2122.000000	0.311955
2123.000000	0.311589
2124.000000	0.311483
2125.000000	0.311325
2126.000000	0.311077
2127.000000	0.310795
2128.000000	0.310825
2129.000000	0.310683
2130.000000	0.311053
2131.000000	0.311155
2132.000000	0.311927
2133.000000	0.312370
2134.000000	0.312539
2135.000000	0.313250
2136.000000	0.313610
2137.000000	0.313696
2138.000000	0.313422
2139.000000	0.313462
2140.000000	0.313287
2141.000000	0.313310
2142.000000	0.313645
2143.000000	0.313677
2144.000000	0.314223
2145.000000	0.314032
2146.000000	0.313369
2147.000000	0.313006
2148.000000	0.312604
2149.000000	0.311418
2150.000000	0.310979
2151.000000	0.310882
2152.000000	0.309910
2153.000000	0.308920
2154.000000	0.308902
2155.000000	0.309527
2156.000000	0.309728
2157.000000	0.311084
2158.000000	0.311354
2159.000000	0.310844
2160.000000	0.310528
2161.000000	0.309200
2162.000000	0.308851
2163.000000	0.308868
2164.000000	0.308710
2165.000000	0.308340
2166.000000	0.310294
2167.000000	0.310392
2168.000000	0.309419
2169.000000	0.309510
2170.000000	0.309203
2171.000000	0.309448
2172.000000	0.310642
2173.000000	0.311124
2174.000000	0.311448
2175.000000	0.311297
2176.000000	0.310673
2177.000000	0.310439
2178.000000	0.310254
2179.000000	0.309951
2180.000000	0.309240
2181.000000	0.309385
2182.000000	0.309161
2183.000000	0.309302
2184.000000	0.310303
2185.000000	0.309626
2186.000000	0.307009
2187.000000	0.305273
2188.000000	0.303764
2189.000000	0.302074
2190.000000	0.302716
2191.000000	0.304175
2192.000000	0.305356
2193.000000	0.308041
2194.000000	0.308795
2195.000000	0.308645
2196.000000	0.308370
2197.000000	0.306030
2198.000000	0.305163
2199.000000	0.304749
2200.000000	0.304942
2201.000000	0.306801
2202.000000	0.307455
2203.000000	0.308224
2204.000000	0.307979
2205.000000	0.306332
2206.000000	0.305619
2207.000000	0.305961
2208.000000	0.307260
2209.000000	0.310309
2210.000000	0.312386
2211.000000	0.310832
2212.000000	0.309749
2213.000000	0.308917
2214.000000	0.306591
2215.000000	0.304746
2216.000000	0.303912
2217.000000	0.303754
2218.000000	0.301796
2219.000000	0.302423
2220.000000	0.306489
2221.000000	0.308029
2222.000000	0.310178
2223.000000	0.311623
2224.000000	0.313002
2225.000000	0.311984
2226.000000	0.309248
2227.000000	0.305333
2228.000000	0.300756
2229.000000	0.298878
2230.000000	0.299861
2231.000000	0.301871
2232.000000	0.305935
2233.000000	0.308517
2234.000000	0.308964
2235.000000	0.310205
2236.000000	0.309453
2237.000000	0.304490
2238.000000	0.304422
2239.000000	0.306447
2240.000000	0.307031
2241.000000	0.309914
2242.000000	0.310695
2243.000000	0.308294
2244.000000	0.308412
2245.000000	0.310702
2246.000000	0.310099
2247.000000	0.308531
2248.000000	0.307713
2249.000000	0.305162
2250.000000	0.303714
2251.000000	0.303617
2252.000000	0.303604
2253.000000	0.301218
2254.000000	0.299798
2255.000000	0.300768
2256.000000	0.300188
2257.000000	0.300970
2258.000000	0.302138
2259.000000	0.300933
2260.000000	0.301088
2261.000000	0.301109
2262.000000	0.301094
2263.000000	0.300872
2264.000000	0.300136
2265.000000	0.300477
2266.000000	0.302065
2267.000000	0.302002
2268.000000	0.302702
2269.000000	0.302556
2270.000000	0.300282
2271.000000	0.298459
2272.000000	0.296159
2273.000000	0.294609
2274.000000	0.293421
2275.000000	0.291958
2276.000000	0.290663
2277.000000	0.290283
2278.000000	0.288668
2279.000000	0.287107
2280.000000	0.287485
2281.000000	0.287646
2282.000000	0.287938
2283.000000	0.289185
2284.000000	0.289107
2285.000000	0.288422
2286.000000	0.287739
2287.000000	0.286718
2288.000000	0.286249
2289.000000	0.287040
2290.000000	0.287767
2291.000000	0.288167
2292.000000	0.289744
2293.000000	0.289276
2294.000000	0.289305
2295.000000	0.289157
2296.000000	0.289970
2297.000000	0.290931
2298.000000	0.292336
2299.000000	0.295642
2300.000000	0.296370
2301.000000	0.295206
2302.000000	0.295527
2303.000000	0.294598
2304.000000	0.294986
2305.000000	0.297013
2306.000000	0.298628
2307.000000	0.300506
2308.000000	0.302835
2309.000000	0.303892
2310.000000	0.302776
2311.000000	0.300712
2312.000000	0.298358
2313.000000	0.296644
2314.000000	0.296962
2315.000000	0.295776
2316.000000	0.295503
2317.000000	0.296312
2318.000000	0.295880
2319.000000	0.297000
2320.000000	0.298789
2321.000000	0.299229
2322.000000	0.298922
2323.000000	0.300063
2324.000000	0.300461
2325.000000	0.298097
2326.000000	0.298532
2327.000000	0.298540
2328.000000	0.296232
2329.000000	0.298128
2330.000000	0.298432
2331.000000	0.297556
2332.000000	0.300062
2333.000000	0.298328
2334.000000	0.295172
2335.000000	0.294664
2336.000000	0.292917
2337.000000	0.292842
2338.000000	0.297000
2339.000000	0.298263
2340.000000	0.299169
2341.000000	0.298954
2342.000000	0.297352
2343.000000	0.295841
2344.000000	0.291754
2345.000000	0.290535
2346.000000	0.290582
2347.000000	0.290325
2348.000000	0.291716
2349.000000	0.293170
2350.000000	0.291404
2351.000000	0.291909
2352.000000	0.291029
2353.000000	0.292518
2354.000000	0.296476
2355.000000	0.296341
2356.000000	0.294366
2357.000000	0.289996
2358.000000	0.284775
2359.000000	0.286034
2360.000000	0.292514
2361.000000	0.300131
2362.000000	0.304688
2363.000000	0.302768
2364.000000	0.294798
2365.000000	0.286394
2366.000000	0.281805
2367.000000	0.278367
2368.000000	0.279401
2369.000000	0.283242
2370.000000	0.281845
2371.000000	0.283237
2372.000000	0.286841
2373.000000	0.286115
2374.000000	0.289177
2375.000000	0.292275
2376.000000	0.293762
2377.000000	0.293362
2378.000000	0.291750
2379.000000	0.291245
2380.000000	0.283546
2381.000000	0.281323
2382.000000	0.284018
2383.000000	0.284633
2384.000000	0.288742
2385.000000	0.292195
2386.000000	0.296994
2387.000000	0.298103
2388.000000	0.294906
2389.000000	0.290460
2390.000000	0.282345
2391.000000	0.273214
2392.000000	0.267238
2393.000000	0.268279
2394.000000	0.269203
2395.000000	0.268575
2396.000000	0.272160
2397.000000	0.274029
2398.000000	0.272063
2399.000000	0.274566
2400.000000	0.277159
2401.000000	0.275518
2402.000000	0.276791
2403.000000	0.275028
2404.000000	0.274713
2405.000000	0.274449
2406.000000	0.272328
2407.000000	0.273657
2408.000000	0.271848
2409.000000	0.272720
2410.000000	0.274568
2411.000000	0.276483
2412.000000	0.271551
2413.000000	0.262927
2414.000000	0.259952
2415.000000	0.251621
2416.000000	0.249413
2417.000000	0.257487
2418.000000	0.256622
2419.000000	0.257867
2420.000000	0.263795
2421.000000	0.258080
2422.000000	0.256919
2423.000000	0.265638
2424.000000	0.270161
2425.000000	0.277642
2426.000000	0.291513
2427.000000	0.292481
2428.000000	0.287020
2429.000000	0.286845
2430.000000	0.282099
2431.000000	0.282250
2432.000000	0.289812
2433.000000	0.291960
2434.000000	0.296006
2435.000000	0.289257
2436.000000	0.272781
2437.000000	0.272131
2438.000000	0.264595
2439.000000	0.252437
2440.000000	0.253146
2441.000000	0.246263
2442.000000	0.240486
2443.000000	0.243168
2444.000000	0.237040
2445.000000	0.227938
2446.000000	0.223771
2447.000000	0.226692
2448.000000	0.240488
2449.000000	0.260617
2450.000000	0.277088
2451.000000	0.284928
2452.000000	0.291014
2453.000000	0.280911
2454.000000	0.261257
2455.000000	0.248316
2456.000000	0.217110
2457.000000	0.198388
2458.000000	0.208469
2459.000000	0.214312
2460.000000	0.237795
2461.000000	0.273539
2462.000000	0.280476
2463.000000	0.271905
2464.000000	0.257844
2465.000000	0.225703
2466.000000	0.209930
2467.000000	0.217798
2468.000000	0.233073
2469.000000	0.254879
2470.000000	0.272557
2471.000000	0.277133
2472.000000	0.272714
2473.000000	0.260687
2474.000000	0.230472
2475.000000	0.216122
2476.000000	0.191503
2477.000000	0.175040
2478.000000	0.217105
2479.000000	0.241407
2480.000000	0.264715
2481.000000	0.321704
2482.000000	0.330106
2483.000000	0.299307
2484.000000	0.261872
2485.000000	0.194632
2486.000000	0.134225
2487.000000	0.153493
2488.000000	0.216498
2489.000000	0.271916
2490.000000	0.326319
2491.000000	0.307274
2492.000000	0.298214
2493.000000	0.307634
2494.000000	0.292689
2495.000000	0.239571
2496.000000	0.216150
2497.000000	0.187368
2498.000000	0.179008
2499.000000	0.236965
2500.000000	0.221990
