# Wavelength	NAu-1-10_HEX-40_FV7-50_00002.asd.rts.txt
350.000000	0.202664
351.000000	0.198290
352.000000	0.176969
353.000000	0.163785
354.000000	0.169512
355.000000	0.183527
356.000000	0.194214
357.000000	0.197396
358.000000	0.188749
359.000000	0.184391
360.000000	0.184863
361.000000	0.185974
362.000000	0.188205
363.000000	0.186048
364.000000	0.179323
365.000000	0.183841
366.000000	0.187253
367.000000	0.188658
368.000000	0.197254
369.000000	0.194355
370.000000	0.188156
371.000000	0.192149
372.000000	0.192298
373.000000	0.194733
374.000000	0.201352
375.000000	0.195502
376.000000	0.191163
377.000000	0.192141
378.000000	0.192868
379.000000	0.195529
380.000000	0.197963
381.000000	0.198013
382.000000	0.197325
383.000000	0.196154
384.000000	0.195778
385.000000	0.200901
386.000000	0.203499
387.000000	0.202542
388.000000	0.203834
389.000000	0.203521
390.000000	0.202026
391.000000	0.200975
392.000000	0.202246
393.000000	0.203605
394.000000	0.203609
395.000000	0.205388
396.000000	0.206477
397.000000	0.206122
398.000000	0.205651
399.000000	0.207164
400.000000	0.209135
401.000000	0.208516
402.000000	0.209008
403.000000	0.210360
404.000000	0.211764
405.000000	0.212577
406.000000	0.213178
407.000000	0.213689
408.000000	0.213455
409.000000	0.213940
410.000000	0.214736
411.000000	0.214334
412.000000	0.214394
413.000000	0.215139
414.000000	0.216324
415.000000	0.217049
416.000000	0.217478
417.000000	0.217863
418.000000	0.218480
419.000000	0.218863
420.000000	0.219052
421.000000	0.219509
422.000000	0.219972
423.000000	0.220256
424.000000	0.220329
425.000000	0.220685
426.000000	0.221021
427.000000	0.221126
428.000000	0.221467
429.000000	0.221738
430.000000	0.221910
431.000000	0.222359
432.000000	0.222375
433.000000	0.222236
434.000000	0.222730
435.000000	0.223008
436.000000	0.223138
437.000000	0.223251
438.000000	0.222936
439.000000	0.222990
440.000000	0.223662
441.000000	0.223804
442.000000	0.223648
443.000000	0.223504
444.000000	0.223976
445.000000	0.224035
446.000000	0.223951
447.000000	0.224119
448.000000	0.224266
449.000000	0.224701
450.000000	0.225551
451.000000	0.226344
452.000000	0.226693
453.000000	0.226873
454.000000	0.228235
455.000000	0.229217
456.000000	0.229860
457.000000	0.230665
458.000000	0.231470
459.000000	0.232211
460.000000	0.232913
461.000000	0.233674
462.000000	0.234458
463.000000	0.235008
464.000000	0.235062
465.000000	0.235487
466.000000	0.236138
467.000000	0.236341
468.000000	0.236849
469.000000	0.237381
470.000000	0.237654
471.000000	0.238028
472.000000	0.238358
473.000000	0.238597
474.000000	0.238991
475.000000	0.239172
476.000000	0.239325
477.000000	0.239963
478.000000	0.240259
479.000000	0.240397
480.000000	0.240614
481.000000	0.240760
482.000000	0.241046
483.000000	0.241440
484.000000	0.241867
485.000000	0.242185
486.000000	0.242485
487.000000	0.242700
488.000000	0.242989
489.000000	0.243344
490.000000	0.243616
491.000000	0.244056
492.000000	0.244514
493.000000	0.244675
494.000000	0.244996
495.000000	0.245348
496.000000	0.245624
497.000000	0.246181
498.000000	0.246568
499.000000	0.246797
500.000000	0.247262
501.000000	0.247674
502.000000	0.248076
503.000000	0.248541
504.000000	0.248843
505.000000	0.249026
506.000000	0.249225
507.000000	0.249691
508.000000	0.250147
509.000000	0.250476
510.000000	0.251108
511.000000	0.251529
512.000000	0.251795
513.000000	0.252364
514.000000	0.252806
515.000000	0.253146
516.000000	0.253497
517.000000	0.254025
518.000000	0.254554
519.000000	0.254878
520.000000	0.255254
521.000000	0.255618
522.000000	0.255990
523.000000	0.256522
524.000000	0.257037
525.000000	0.257487
526.000000	0.257929
527.000000	0.258205
528.000000	0.258532
529.000000	0.259157
530.000000	0.259636
531.000000	0.260034
532.000000	0.260383
533.000000	0.260889
534.000000	0.261331
535.000000	0.261695
536.000000	0.262225
537.000000	0.262705
538.000000	0.263116
539.000000	0.263497
540.000000	0.263903
541.000000	0.264327
542.000000	0.264775
543.000000	0.265158
544.000000	0.265590
545.000000	0.266042
546.000000	0.266434
547.000000	0.266902
548.000000	0.267445
549.000000	0.267876
550.000000	0.268270
551.000000	0.268705
552.000000	0.269183
553.000000	0.269495
554.000000	0.269906
555.000000	0.270553
556.000000	0.271014
557.000000	0.271380
558.000000	0.271820
559.000000	0.272251
560.000000	0.272623
561.000000	0.273032
562.000000	0.273501
563.000000	0.273997
564.000000	0.274475
565.000000	0.274823
566.000000	0.275314
567.000000	0.275766
568.000000	0.276098
569.000000	0.276599
570.000000	0.277054
571.000000	0.277408
572.000000	0.277757
573.000000	0.278122
574.000000	0.278510
575.000000	0.278956
576.000000	0.279309
577.000000	0.279602
578.000000	0.279948
579.000000	0.280323
580.000000	0.280690
581.000000	0.281023
582.000000	0.281311
583.000000	0.281607
584.000000	0.281900
585.000000	0.282145
586.000000	0.282434
587.000000	0.282738
588.000000	0.283013
589.000000	0.283328
590.000000	0.283640
591.000000	0.283903
592.000000	0.284068
593.000000	0.284315
594.000000	0.284654
595.000000	0.284932
596.000000	0.285178
597.000000	0.285390
598.000000	0.285482
599.000000	0.285684
600.000000	0.285952
601.000000	0.286148
602.000000	0.286401
603.000000	0.286614
604.000000	0.286764
605.000000	0.286929
606.000000	0.287103
607.000000	0.287297
608.000000	0.287522
609.000000	0.287676
610.000000	0.287836
611.000000	0.288085
612.000000	0.288198
613.000000	0.288285
614.000000	0.288467
615.000000	0.288678
616.000000	0.288787
617.000000	0.288801
618.000000	0.288987
619.000000	0.289148
620.000000	0.289258
621.000000	0.289405
622.000000	0.289512
623.000000	0.289605
624.000000	0.289731
625.000000	0.289988
626.000000	0.290155
627.000000	0.290202
628.000000	0.290415
629.000000	0.290611
630.000000	0.290706
631.000000	0.290933
632.000000	0.291109
633.000000	0.291267
634.000000	0.291460
635.000000	0.291705
636.000000	0.291956
637.000000	0.292157
638.000000	0.292291
639.000000	0.292424
640.000000	0.292601
641.000000	0.292690
642.000000	0.292847
643.000000	0.293068
644.000000	0.293287
645.000000	0.293388
646.000000	0.293477
647.000000	0.293598
648.000000	0.293634
649.000000	0.293716
650.000000	0.293871
651.000000	0.294061
652.000000	0.294232
653.000000	0.294408
654.000000	0.294573
655.000000	0.294770
656.000000	0.294974
657.000000	0.295112
658.000000	0.295287
659.000000	0.295502
660.000000	0.295723
661.000000	0.295910
662.000000	0.296074
663.000000	0.296269
664.000000	0.296469
665.000000	0.296669
666.000000	0.296852
667.000000	0.296975
668.000000	0.297075
669.000000	0.297225
670.000000	0.297444
671.000000	0.297631
672.000000	0.297823
673.000000	0.298033
674.000000	0.298276
675.000000	0.298503
676.000000	0.298701
677.000000	0.298892
678.000000	0.299149
679.000000	0.299375
680.000000	0.299512
681.000000	0.299589
682.000000	0.299786
683.000000	0.300045
684.000000	0.300294
685.000000	0.300481
686.000000	0.300643
687.000000	0.300809
688.000000	0.301083
689.000000	0.301310
690.000000	0.301446
691.000000	0.301758
692.000000	0.302010
693.000000	0.302203
694.000000	0.302430
695.000000	0.302674
696.000000	0.302906
697.000000	0.303094
698.000000	0.303276
699.000000	0.303493
700.000000	0.303770
701.000000	0.304042
702.000000	0.304335
703.000000	0.304601
704.000000	0.304735
705.000000	0.304933
706.000000	0.305136
707.000000	0.305277
708.000000	0.305424
709.000000	0.305611
710.000000	0.305861
711.000000	0.306091
712.000000	0.306317
713.000000	0.306556
714.000000	0.306759
715.000000	0.307012
716.000000	0.307299
717.000000	0.307529
718.000000	0.307728
719.000000	0.307861
720.000000	0.307953
721.000000	0.308225
722.000000	0.308455
723.000000	0.308626
724.000000	0.308818
725.000000	0.308981
726.000000	0.309179
727.000000	0.309354
728.000000	0.309499
729.000000	0.309675
730.000000	0.309863
731.000000	0.310035
732.000000	0.310193
733.000000	0.310379
734.000000	0.310569
735.000000	0.310726
736.000000	0.310920
737.000000	0.311013
738.000000	0.311081
739.000000	0.311232
740.000000	0.311370
741.000000	0.311606
742.000000	0.311778
743.000000	0.311855
744.000000	0.312042
745.000000	0.312150
746.000000	0.312251
747.000000	0.312387
748.000000	0.312559
749.000000	0.312731
750.000000	0.312848
751.000000	0.312959
752.000000	0.313050
753.000000	0.313148
754.000000	0.313288
755.000000	0.313448
756.000000	0.313548
757.000000	0.313492
758.000000	0.313550
759.000000	0.313659
760.000000	0.313705
761.000000	0.313783
762.000000	0.313909
763.000000	0.314033
764.000000	0.314144
765.000000	0.314258
766.000000	0.314353
767.000000	0.314402
768.000000	0.314440
769.000000	0.314517
770.000000	0.314627
771.000000	0.314686
772.000000	0.314736
773.000000	0.314752
774.000000	0.314820
775.000000	0.314838
776.000000	0.314873
777.000000	0.314945
778.000000	0.314946
779.000000	0.314966
780.000000	0.315022
781.000000	0.315049
782.000000	0.315081
783.000000	0.315144
784.000000	0.315091
785.000000	0.315079
786.000000	0.315096
787.000000	0.315125
788.000000	0.315185
789.000000	0.315192
790.000000	0.315215
791.000000	0.315425
792.000000	0.315451
793.000000	0.315390
794.000000	0.315375
795.000000	0.315358
796.000000	0.315299
797.000000	0.315206
798.000000	0.315144
799.000000	0.315126
800.000000	0.315164
801.000000	0.315251
802.000000	0.315245
803.000000	0.315215
804.000000	0.315230
805.000000	0.315195
806.000000	0.315132
807.000000	0.315124
808.000000	0.315128
809.000000	0.315092
810.000000	0.315053
811.000000	0.315033
812.000000	0.315038
813.000000	0.315027
814.000000	0.315025
815.000000	0.315136
816.000000	0.315027
817.000000	0.314904
818.000000	0.314936
819.000000	0.314980
820.000000	0.315009
821.000000	0.314980
822.000000	0.314979
823.000000	0.314926
824.000000	0.314824
825.000000	0.314807
826.000000	0.314705
827.000000	0.314540
828.000000	0.314413
829.000000	0.314410
830.000000	0.314312
831.000000	0.314214
832.000000	0.314200
833.000000	0.314116
834.000000	0.314030
835.000000	0.314029
836.000000	0.314003
837.000000	0.313941
838.000000	0.313860
839.000000	0.313752
840.000000	0.313640
841.000000	0.313563
842.000000	0.313495
843.000000	0.313369
844.000000	0.313285
845.000000	0.313233
846.000000	0.313169
847.000000	0.313141
848.000000	0.313012
849.000000	0.312709
850.000000	0.312485
851.000000	0.312391
852.000000	0.312416
853.000000	0.312356
854.000000	0.312316
855.000000	0.312345
856.000000	0.312286
857.000000	0.312171
858.000000	0.311996
859.000000	0.311757
860.000000	0.311707
861.000000	0.311668
862.000000	0.311554
863.000000	0.311280
864.000000	0.311198
865.000000	0.311209
866.000000	0.311203
867.000000	0.311034
868.000000	0.310944
869.000000	0.310878
870.000000	0.310763
871.000000	0.310448
872.000000	0.310245
873.000000	0.310235
874.000000	0.310199
875.000000	0.310058
876.000000	0.309864
877.000000	0.309668
878.000000	0.309528
879.000000	0.309353
880.000000	0.309043
881.000000	0.309035
882.000000	0.309053
883.000000	0.309012
884.000000	0.308843
885.000000	0.308637
886.000000	0.308353
887.000000	0.308093
888.000000	0.308185
889.000000	0.308089
890.000000	0.307754
891.000000	0.307534
892.000000	0.307256
893.000000	0.306995
894.000000	0.306898
895.000000	0.306814
896.000000	0.306591
897.000000	0.306339
898.000000	0.306229
899.000000	0.306176
900.000000	0.306043
901.000000	0.305795
902.000000	0.305671
903.000000	0.305596
904.000000	0.305518
905.000000	0.305304
906.000000	0.305113
907.000000	0.304940
908.000000	0.304779
909.000000	0.304454
910.000000	0.304277
911.000000	0.304156
912.000000	0.303975
913.000000	0.303814
914.000000	0.303674
915.000000	0.303545
916.000000	0.303255
917.000000	0.303023
918.000000	0.302880
919.000000	0.302747
920.000000	0.302412
921.000000	0.302242
922.000000	0.302221
923.000000	0.302098
924.000000	0.301871
925.000000	0.301570
926.000000	0.301244
927.000000	0.300834
928.000000	0.300627
929.000000	0.300498
930.000000	0.300242
931.000000	0.300039
932.000000	0.299841
933.000000	0.299648
934.000000	0.299413
935.000000	0.299161
936.000000	0.298852
937.000000	0.298427
938.000000	0.298240
939.000000	0.298282
940.000000	0.298277
941.000000	0.297995
942.000000	0.297764
943.000000	0.297535
944.000000	0.297245
945.000000	0.297340
946.000000	0.297097
947.000000	0.296776
948.000000	0.296748
949.000000	0.296618
950.000000	0.296325
951.000000	0.295983
952.000000	0.295957
953.000000	0.295786
954.000000	0.295585
955.000000	0.295391
956.000000	0.295033
957.000000	0.294747
958.000000	0.294550
959.000000	0.294460
960.000000	0.294249
961.000000	0.294106
962.000000	0.293995
963.000000	0.293652
964.000000	0.293579
965.000000	0.293442
966.000000	0.292936
967.000000	0.292943
968.000000	0.292672
969.000000	0.292182
970.000000	0.292010
971.000000	0.291726
972.000000	0.291600
973.000000	0.291659
974.000000	0.291756
975.000000	0.291406
976.000000	0.290928
977.000000	0.290702
978.000000	0.290784
979.000000	0.290783
980.000000	0.290502
981.000000	0.290323
982.000000	0.290087
983.000000	0.289997
984.000000	0.290073
985.000000	0.289965
986.000000	0.289592
987.000000	0.289467
988.000000	0.289645
989.000000	0.289320
990.000000	0.289079
991.000000	0.288852
992.000000	0.288535
993.000000	0.288706
994.000000	0.288821
995.000000	0.288678
996.000000	0.288128
997.000000	0.288523
998.000000	0.288745
999.000000	0.288396
1000.000000	0.288344
1001.000000	0.288545
1002.000000	0.288498
1003.000000	0.288441
1004.000000	0.288350
1005.000000	0.288248
1006.000000	0.288311
1007.000000	0.288715
1008.000000	0.288371
1009.000000	0.288020
1010.000000	0.287416
1011.000000	0.286751
1012.000000	0.286961
1013.000000	0.286982
1014.000000	0.286554
1015.000000	0.286972
1016.000000	0.287188
1017.000000	0.286920
1018.000000	0.287094
1019.000000	0.287117
1020.000000	0.286784
1021.000000	0.286502
1022.000000	0.286597
1023.000000	0.286703
1024.000000	0.286597
1025.000000	0.286600
1026.000000	0.286570
1027.000000	0.286844
1028.000000	0.287530
1029.000000	0.287787
1030.000000	0.287882
1031.000000	0.288140
1032.000000	0.287791
1033.000000	0.287321
1034.000000	0.287114
1035.000000	0.286836
1036.000000	0.286811
1037.000000	0.287258
1038.000000	0.287394
1039.000000	0.287538
1040.000000	0.287953
1041.000000	0.288115
1042.000000	0.287702
1043.000000	0.287999
1044.000000	0.288687
1045.000000	0.288907
1046.000000	0.288988
1047.000000	0.289082
1048.000000	0.288625
1049.000000	0.288594
1050.000000	0.288995
1051.000000	0.289210
1052.000000	0.289355
1053.000000	0.289371
1054.000000	0.289400
1055.000000	0.289551
1056.000000	0.289575
1057.000000	0.289976
1058.000000	0.290470
1059.000000	0.290665
1060.000000	0.290934
1061.000000	0.291237
1062.000000	0.291228
1063.000000	0.291379
1064.000000	0.291732
1065.000000	0.292235
1066.000000	0.292444
1067.000000	0.292740
1068.000000	0.292941
1069.000000	0.292680
1070.000000	0.292684
1071.000000	0.293146
1072.000000	0.293215
1073.000000	0.292757
1074.000000	0.293023
1075.000000	0.293517
1076.000000	0.293840
1077.000000	0.294692
1078.000000	0.295166
1079.000000	0.295416
1080.000000	0.295247
1081.000000	0.295390
1082.000000	0.295602
1083.000000	0.295815
1084.000000	0.296138
1085.000000	0.296411
1086.000000	0.296508
1087.000000	0.296811
1088.000000	0.297387
1089.000000	0.297644
1090.000000	0.297805
1091.000000	0.297852
1092.000000	0.297895
1093.000000	0.297534
1094.000000	0.297578
1095.000000	0.297692
1096.000000	0.297955
1097.000000	0.298376
1098.000000	0.298793
1099.000000	0.299359
1100.000000	0.299761
1101.000000	0.300105
1102.000000	0.300365
1103.000000	0.300382
1104.000000	0.300616
1105.000000	0.300855
1106.000000	0.301181
1107.000000	0.301778
1108.000000	0.302087
1109.000000	0.302201
1110.000000	0.302467
1111.000000	0.302757
1112.000000	0.302982
1113.000000	0.303225
1114.000000	0.303694
1115.000000	0.303844
1116.000000	0.303661
1117.000000	0.303791
1118.000000	0.303921
1119.000000	0.304088
1120.000000	0.304537
1121.000000	0.304723
1122.000000	0.304716
1123.000000	0.305097
1124.000000	0.305451
1125.000000	0.305694
1126.000000	0.306117
1127.000000	0.306260
1128.000000	0.306218
1129.000000	0.305844
1130.000000	0.305816
1131.000000	0.305784
1132.000000	0.305795
1133.000000	0.305975
1134.000000	0.306153
1135.000000	0.306248
1136.000000	0.306419
1137.000000	0.306710
1138.000000	0.306912
1139.000000	0.307311
1140.000000	0.307491
1141.000000	0.307331
1142.000000	0.307455
1143.000000	0.307544
1144.000000	0.307713
1145.000000	0.307876
1146.000000	0.308155
1147.000000	0.308168
1148.000000	0.307780
1149.000000	0.307855
1150.000000	0.308085
1151.000000	0.308220
1152.000000	0.308512
1153.000000	0.308638
1154.000000	0.308537
1155.000000	0.308526
1156.000000	0.308499
1157.000000	0.308550
1158.000000	0.308634
1159.000000	0.308653
1160.000000	0.308617
1161.000000	0.308677
1162.000000	0.308785
1163.000000	0.309035
1164.000000	0.309149
1165.000000	0.309250
1166.000000	0.309404
1167.000000	0.309478
1168.000000	0.309442
1169.000000	0.309520
1170.000000	0.309458
1171.000000	0.309076
1172.000000	0.309070
1173.000000	0.309257
1174.000000	0.309317
1175.000000	0.309436
1176.000000	0.309500
1177.000000	0.309490
1178.000000	0.309559
1179.000000	0.309796
1180.000000	0.309829
1181.000000	0.309932
1182.000000	0.309847
1183.000000	0.309659
1184.000000	0.309617
1185.000000	0.309664
1186.000000	0.309806
1187.000000	0.309928
1188.000000	0.310179
1189.000000	0.310211
1190.000000	0.310195
1191.000000	0.310171
1192.000000	0.310112
1193.000000	0.310203
1194.000000	0.310272
1195.000000	0.310315
1196.000000	0.310334
1197.000000	0.310338
1198.000000	0.310296
1199.000000	0.310299
1200.000000	0.310281
1201.000000	0.310341
1202.000000	0.310410
1203.000000	0.310475
1204.000000	0.310614
1205.000000	0.310715
1206.000000	0.310666
1207.000000	0.310636
1208.000000	0.310563
1209.000000	0.310350
1210.000000	0.310364
1211.000000	0.310549
1212.000000	0.310564
1213.000000	0.310641
1214.000000	0.310681
1215.000000	0.310608
1216.000000	0.310573
1217.000000	0.310505
1218.000000	0.310444
1219.000000	0.310352
1220.000000	0.310368
1221.000000	0.310425
1222.000000	0.310578
1223.000000	0.310782
1224.000000	0.310934
1225.000000	0.311015
1226.000000	0.311103
1227.000000	0.311076
1228.000000	0.311030
1229.000000	0.310971
1230.000000	0.310863
1231.000000	0.310747
1232.000000	0.310694
1233.000000	0.310776
1234.000000	0.310959
1235.000000	0.311011
1236.000000	0.310953
1237.000000	0.311016
1238.000000	0.311014
1239.000000	0.310973
1240.000000	0.310939
1241.000000	0.311041
1242.000000	0.311014
1243.000000	0.310987
1244.000000	0.311092
1245.000000	0.311140
1246.000000	0.311070
1247.000000	0.311151
1248.000000	0.311193
1249.000000	0.311263
1250.000000	0.311396
1251.000000	0.311332
1252.000000	0.311353
1253.000000	0.311471
1254.000000	0.311460
1255.000000	0.311436
1256.000000	0.311324
1257.000000	0.310935
1258.000000	0.310888
1259.000000	0.310954
1260.000000	0.311064
1261.000000	0.311408
1262.000000	0.311521
1263.000000	0.311604
1264.000000	0.311405
1265.000000	0.311245
1266.000000	0.311246
1267.000000	0.311208
1268.000000	0.311153
1269.000000	0.311187
1270.000000	0.311274
1271.000000	0.311284
1272.000000	0.311325
1273.000000	0.311483
1274.000000	0.311620
1275.000000	0.311615
1276.000000	0.311660
1277.000000	0.311696
1278.000000	0.311349
1279.000000	0.311285
1280.000000	0.311421
1281.000000	0.311367
1282.000000	0.311412
1283.000000	0.311464
1284.000000	0.311274
1285.000000	0.311231
1286.000000	0.311253
1287.000000	0.311243
1288.000000	0.311281
1289.000000	0.311427
1290.000000	0.311499
1291.000000	0.311438
1292.000000	0.311421
1293.000000	0.311310
1294.000000	0.311203
1295.000000	0.311356
1296.000000	0.311514
1297.000000	0.311559
1298.000000	0.311574
1299.000000	0.311559
1300.000000	0.311585
1301.000000	0.311631
1302.000000	0.311558
1303.000000	0.311596
1304.000000	0.311476
1305.000000	0.311233
1306.000000	0.311089
1307.000000	0.311012
1308.000000	0.311010
1309.000000	0.311104
1310.000000	0.311114
1311.000000	0.311224
1312.000000	0.311093
1313.000000	0.310925
1314.000000	0.310705
1315.000000	0.310535
1316.000000	0.310665
1317.000000	0.310732
1318.000000	0.310780
1319.000000	0.310775
1320.000000	0.310605
1321.000000	0.310498
1322.000000	0.310376
1323.000000	0.310254
1324.000000	0.310131
1325.000000	0.309842
1326.000000	0.309689
1327.000000	0.309654
1328.000000	0.309604
1329.000000	0.309470
1330.000000	0.309354
1331.000000	0.309205
1332.000000	0.308996
1333.000000	0.308890
1334.000000	0.308901
1335.000000	0.308883
1336.000000	0.308910
1337.000000	0.308863
1338.000000	0.308663
1339.000000	0.308646
1340.000000	0.308690
1341.000000	0.308593
1342.000000	0.308632
1343.000000	0.308528
1344.000000	0.308284
1345.000000	0.308243
1346.000000	0.308317
1347.000000	0.308266
1348.000000	0.308204
1349.000000	0.307948
1350.000000	0.307682
1351.000000	0.307542
1352.000000	0.307346
1353.000000	0.307184
1354.000000	0.307109
1355.000000	0.306846
1356.000000	0.306773
1357.000000	0.306792
1358.000000	0.306640
1359.000000	0.306473
1360.000000	0.306383
1361.000000	0.306373
1362.000000	0.306302
1363.000000	0.306234
1364.000000	0.306229
1365.000000	0.306159
1366.000000	0.306124
1367.000000	0.306179
1368.000000	0.306127
1369.000000	0.306065
1370.000000	0.305945
1371.000000	0.305810
1372.000000	0.305658
1373.000000	0.305459
1374.000000	0.305242
1375.000000	0.305000
1376.000000	0.304871
1377.000000	0.304873
1378.000000	0.304878
1379.000000	0.304636
1380.000000	0.304517
1381.000000	0.304480
1382.000000	0.304268
1383.000000	0.304186
1384.000000	0.303937
1385.000000	0.303527
1386.000000	0.303328
1387.000000	0.303286
1388.000000	0.303087
1389.000000	0.302761
1390.000000	0.302518
1391.000000	0.301988
1392.000000	0.301584
1393.000000	0.301250
1394.000000	0.301012
1395.000000	0.300685
1396.000000	0.300450
1397.000000	0.300030
1398.000000	0.299461
1399.000000	0.299011
1400.000000	0.298506
1401.000000	0.298024
1402.000000	0.297647
1403.000000	0.297165
1404.000000	0.296764
1405.000000	0.296318
1406.000000	0.295753
1407.000000	0.295191
1408.000000	0.294578
1409.000000	0.294034
1410.000000	0.293651
1411.000000	0.293228
1412.000000	0.292656
1413.000000	0.292031
1414.000000	0.291470
1415.000000	0.290943
1416.000000	0.290304
1417.000000	0.289803
1418.000000	0.289294
1419.000000	0.288719
1420.000000	0.288306
1421.000000	0.287933
1422.000000	0.287434
1423.000000	0.286984
1424.000000	0.286408
1425.000000	0.285823
1426.000000	0.285292
1427.000000	0.284827
1428.000000	0.284389
1429.000000	0.284020
1430.000000	0.283625
1431.000000	0.283185
1432.000000	0.282826
1433.000000	0.282573
1434.000000	0.282249
1435.000000	0.282046
1436.000000	0.281775
1437.000000	0.281363
1438.000000	0.281123
1439.000000	0.281001
1440.000000	0.280861
1441.000000	0.280884
1442.000000	0.280779
1443.000000	0.280535
1444.000000	0.280336
1445.000000	0.280140
1446.000000	0.280006
1447.000000	0.279974
1448.000000	0.279921
1449.000000	0.279789
1450.000000	0.279567
1451.000000	0.279439
1452.000000	0.279275
1453.000000	0.279115
1454.000000	0.279050
1455.000000	0.278883
1456.000000	0.278717
1457.000000	0.278631
1458.000000	0.278545
1459.000000	0.278481
1460.000000	0.278411
1461.000000	0.278282
1462.000000	0.278092
1463.000000	0.277806
1464.000000	0.277660
1465.000000	0.277651
1466.000000	0.277576
1467.000000	0.277578
1468.000000	0.277514
1469.000000	0.277457
1470.000000	0.277513
1471.000000	0.277564
1472.000000	0.277701
1473.000000	0.277970
1474.000000	0.278070
1475.000000	0.278193
1476.000000	0.278360
1477.000000	0.278424
1478.000000	0.278488
1479.000000	0.278649
1480.000000	0.278829
1481.000000	0.278981
1482.000000	0.279196
1483.000000	0.279387
1484.000000	0.279514
1485.000000	0.279717
1486.000000	0.279922
1487.000000	0.280116
1488.000000	0.280428
1489.000000	0.280678
1490.000000	0.280726
1491.000000	0.280911
1492.000000	0.281113
1493.000000	0.281309
1494.000000	0.281523
1495.000000	0.281689
1496.000000	0.281804
1497.000000	0.281895
1498.000000	0.281934
1499.000000	0.282105
1500.000000	0.282222
1501.000000	0.282349
1502.000000	0.282531
1503.000000	0.282593
1504.000000	0.282660
1505.000000	0.282944
1506.000000	0.283237
1507.000000	0.283370
1508.000000	0.283529
1509.000000	0.283704
1510.000000	0.283833
1511.000000	0.284094
1512.000000	0.284412
1513.000000	0.284529
1514.000000	0.284613
1515.000000	0.284741
1516.000000	0.284854
1517.000000	0.284940
1518.000000	0.284969
1519.000000	0.284971
1520.000000	0.285061
1521.000000	0.285090
1522.000000	0.285106
1523.000000	0.285151
1524.000000	0.285161
1525.000000	0.285218
1526.000000	0.285333
1527.000000	0.285506
1528.000000	0.285639
1529.000000	0.285665
1530.000000	0.285591
1531.000000	0.285592
1532.000000	0.285652
1533.000000	0.285676
1534.000000	0.285679
1535.000000	0.285705
1536.000000	0.285638
1537.000000	0.285624
1538.000000	0.285813
1539.000000	0.285932
1540.000000	0.285929
1541.000000	0.285995
1542.000000	0.286054
1543.000000	0.286051
1544.000000	0.286173
1545.000000	0.286305
1546.000000	0.286269
1547.000000	0.286284
1548.000000	0.286222
1549.000000	0.286099
1550.000000	0.286075
1551.000000	0.285989
1552.000000	0.286072
1553.000000	0.286251
1554.000000	0.286193
1555.000000	0.286216
1556.000000	0.286313
1557.000000	0.286193
1558.000000	0.286163
1559.000000	0.286236
1560.000000	0.286211
1561.000000	0.286112
1562.000000	0.286051
1563.000000	0.286038
1564.000000	0.286018
1565.000000	0.285983
1566.000000	0.285871
1567.000000	0.285870
1568.000000	0.285822
1569.000000	0.285719
1570.000000	0.285659
1571.000000	0.285643
1572.000000	0.285544
1573.000000	0.285391
1574.000000	0.285344
1575.000000	0.285306
1576.000000	0.285304
1577.000000	0.285381
1578.000000	0.285414
1579.000000	0.285505
1580.000000	0.285524
1581.000000	0.285584
1582.000000	0.285582
1583.000000	0.285434
1584.000000	0.285437
1585.000000	0.285637
1586.000000	0.285748
1587.000000	0.285895
1588.000000	0.285988
1589.000000	0.286006
1590.000000	0.285998
1591.000000	0.286031
1592.000000	0.286007
1593.000000	0.285908
1594.000000	0.285900
1595.000000	0.285935
1596.000000	0.285956
1597.000000	0.286078
1598.000000	0.286113
1599.000000	0.286135
1600.000000	0.286132
1601.000000	0.286204
1602.000000	0.286159
1603.000000	0.286029
1604.000000	0.285953
1605.000000	0.285797
1606.000000	0.285762
1607.000000	0.285943
1608.000000	0.285960
1609.000000	0.285921
1610.000000	0.286042
1611.000000	0.286265
1612.000000	0.286341
1613.000000	0.286606
1614.000000	0.286668
1615.000000	0.286499
1616.000000	0.286489
1617.000000	0.286474
1618.000000	0.286517
1619.000000	0.286564
1620.000000	0.286649
1621.000000	0.286900
1622.000000	0.287030
1623.000000	0.287035
1624.000000	0.287125
1625.000000	0.287074
1626.000000	0.287051
1627.000000	0.287108
1628.000000	0.287212
1629.000000	0.287331
1630.000000	0.287415
1631.000000	0.287472
1632.000000	0.287522
1633.000000	0.287518
1634.000000	0.287521
1635.000000	0.287591
1636.000000	0.287668
1637.000000	0.287737
1638.000000	0.287771
1639.000000	0.287874
1640.000000	0.287922
1641.000000	0.287959
1642.000000	0.288024
1643.000000	0.288170
1644.000000	0.288230
1645.000000	0.288203
1646.000000	0.288254
1647.000000	0.288397
1648.000000	0.288380
1649.000000	0.288400
1650.000000	0.288448
1651.000000	0.288412
1652.000000	0.288481
1653.000000	0.288586
1654.000000	0.288759
1655.000000	0.288951
1656.000000	0.288990
1657.000000	0.289114
1658.000000	0.289192
1659.000000	0.289231
1660.000000	0.289347
1661.000000	0.289484
1662.000000	0.289537
1663.000000	0.289463
1664.000000	0.289521
1665.000000	0.289619
1666.000000	0.289781
1667.000000	0.289955
1668.000000	0.290079
1669.000000	0.290199
1670.000000	0.290209
1671.000000	0.290282
1672.000000	0.290326
1673.000000	0.290180
1674.000000	0.290360
1675.000000	0.290584
1676.000000	0.290819
1677.000000	0.291024
1678.000000	0.290859
1679.000000	0.290772
1680.000000	0.290826
1681.000000	0.290852
1682.000000	0.290998
1683.000000	0.291172
1684.000000	0.291263
1685.000000	0.291351
1686.000000	0.291474
1687.000000	0.291554
1688.000000	0.291599
1689.000000	0.291634
1690.000000	0.291541
1691.000000	0.291573
1692.000000	0.291548
1693.000000	0.291495
1694.000000	0.291566
1695.000000	0.291684
1696.000000	0.291650
1697.000000	0.291659
1698.000000	0.291784
1699.000000	0.291865
1700.000000	0.291916
1701.000000	0.292097
1702.000000	0.292198
1703.000000	0.292196
1704.000000	0.292298
1705.000000	0.292333
1706.000000	0.292265
1707.000000	0.292224
1708.000000	0.292143
1709.000000	0.292080
1710.000000	0.292054
1711.000000	0.292115
1712.000000	0.292410
1713.000000	0.292427
1714.000000	0.292306
1715.000000	0.292327
1716.000000	0.292294
1717.000000	0.292248
1718.000000	0.292281
1719.000000	0.292282
1720.000000	0.292180
1721.000000	0.292199
1722.000000	0.292384
1723.000000	0.292470
1724.000000	0.292524
1725.000000	0.292665
1726.000000	0.292742
1727.000000	0.292877
1728.000000	0.293113
1729.000000	0.293089
1730.000000	0.293034
1731.000000	0.293046
1732.000000	0.292943
1733.000000	0.293019
1734.000000	0.293137
1735.000000	0.293212
1736.000000	0.293292
1737.000000	0.293282
1738.000000	0.293248
1739.000000	0.293216
1740.000000	0.293088
1741.000000	0.293030
1742.000000	0.293029
1743.000000	0.293037
1744.000000	0.293021
1745.000000	0.293035
1746.000000	0.293047
1747.000000	0.293193
1748.000000	0.293301
1749.000000	0.293508
1750.000000	0.293639
1751.000000	0.293845
1752.000000	0.294079
1753.000000	0.294188
1754.000000	0.294273
1755.000000	0.294269
1756.000000	0.294270
1757.000000	0.294209
1758.000000	0.294225
1759.000000	0.294336
1760.000000	0.294317
1761.000000	0.294189
1762.000000	0.294120
1763.000000	0.293957
1764.000000	0.293930
1765.000000	0.294027
1766.000000	0.294082
1767.000000	0.294090
1768.000000	0.294083
1769.000000	0.294161
1770.000000	0.294240
1771.000000	0.294259
1772.000000	0.294321
1773.000000	0.294359
1774.000000	0.294416
1775.000000	0.294524
1776.000000	0.294705
1777.000000	0.294939
1778.000000	0.295025
1779.000000	0.295110
1780.000000	0.295154
1781.000000	0.295037
1782.000000	0.294974
1783.000000	0.295016
1784.000000	0.294943
1785.000000	0.294764
1786.000000	0.294786
1787.000000	0.294784
1788.000000	0.294782
1789.000000	0.294742
1790.000000	0.294873
1791.000000	0.294918
1792.000000	0.295177
1793.000000	0.295302
1794.000000	0.295244
1795.000000	0.295293
1796.000000	0.295433
1797.000000	0.295421
1798.000000	0.295272
1799.000000	0.295252
1800.000000	0.295179
1801.000000	0.295599
1802.000000	0.295509
1803.000000	0.294595
1804.000000	0.294428
1805.000000	0.293708
1806.000000	0.293871
1807.000000	0.295245
1808.000000	0.295856
1809.000000	0.296394
1810.000000	0.296986
1811.000000	0.297123
1812.000000	0.296714
1813.000000	0.296406
1814.000000	0.295752
1815.000000	0.295604
1816.000000	0.295735
1817.000000	0.295565
1818.000000	0.295803
1819.000000	0.295779
1820.000000	0.294933
1821.000000	0.293874
1822.000000	0.293606
1823.000000	0.293630
1824.000000	0.293287
1825.000000	0.292793
1826.000000	0.293247
1827.000000	0.293960
1828.000000	0.294440
1829.000000	0.295821
1830.000000	0.296803
1831.000000	0.296594
1832.000000	0.294587
1833.000000	0.294177
1834.000000	0.293847
1835.000000	0.293450
1836.000000	0.293835
1837.000000	0.293666
1838.000000	0.292615
1839.000000	0.291894
1840.000000	0.292032
1841.000000	0.291998
1842.000000	0.292044
1843.000000	0.292446
1844.000000	0.292671
1845.000000	0.292919
1846.000000	0.292976
1847.000000	0.292595
1848.000000	0.292500
1849.000000	0.293286
1850.000000	0.293179
1851.000000	0.293326
1852.000000	0.294283
1853.000000	0.294165
1854.000000	0.292816
1855.000000	0.292168
1856.000000	0.291151
1857.000000	0.290779
1858.000000	0.290845
1859.000000	0.290946
1860.000000	0.290988
1861.000000	0.290573
1862.000000	0.290123
1863.000000	0.289282
1864.000000	0.288735
1865.000000	0.288307
1866.000000	0.287897
1867.000000	0.287519
1868.000000	0.287179
1869.000000	0.286396
1870.000000	0.285624
1871.000000	0.285275
1872.000000	0.283961
1873.000000	0.282997
1874.000000	0.282342
1875.000000	0.281520
1876.000000	0.280046
1877.000000	0.278993
1878.000000	0.278689
1879.000000	0.277372
1880.000000	0.275852
1881.000000	0.275105
1882.000000	0.273765
1883.000000	0.272469
1884.000000	0.270984
1885.000000	0.269212
1886.000000	0.267332
1887.000000	0.265123
1888.000000	0.262837
1889.000000	0.260955
1890.000000	0.259176
1891.000000	0.257627
1892.000000	0.256160
1893.000000	0.254241
1894.000000	0.252265
1895.000000	0.250395
1896.000000	0.248721
1897.000000	0.246567
1898.000000	0.244423
1899.000000	0.242796
1900.000000	0.240553
1901.000000	0.238363
1902.000000	0.235882
1903.000000	0.232995
1904.000000	0.230477
1905.000000	0.227711
1906.000000	0.225445
1907.000000	0.223591
1908.000000	0.222353
1909.000000	0.220903
1910.000000	0.219994
1911.000000	0.219282
1912.000000	0.218062
1913.000000	0.217002
1914.000000	0.215857
1915.000000	0.214255
1916.000000	0.213020
1917.000000	0.211870
1918.000000	0.210838
1919.000000	0.210107
1920.000000	0.209412
1921.000000	0.208589
1922.000000	0.208100
1923.000000	0.207209
1924.000000	0.206998
1925.000000	0.206941
1926.000000	0.206400
1927.000000	0.206225
1928.000000	0.205866
1929.000000	0.205189
1930.000000	0.204791
1931.000000	0.204459
1932.000000	0.204233
1933.000000	0.204438
1934.000000	0.204068
1935.000000	0.204266
1936.000000	0.204457
1937.000000	0.203781
1938.000000	0.203383
1939.000000	0.203270
1940.000000	0.203182
1941.000000	0.203369
1942.000000	0.203580
1943.000000	0.203618
1944.000000	0.203451
1945.000000	0.203068
1946.000000	0.203109
1947.000000	0.202831
1948.000000	0.202754
1949.000000	0.202892
1950.000000	0.202592
1951.000000	0.202463
1952.000000	0.202890
1953.000000	0.202718
1954.000000	0.202081
1955.000000	0.201786
1956.000000	0.201210
1957.000000	0.201017
1958.000000	0.200771
1959.000000	0.200408
1960.000000	0.200301
1961.000000	0.200120
1962.000000	0.199916
1963.000000	0.199865
1964.000000	0.199751
1965.000000	0.199628
1966.000000	0.199581
1967.000000	0.199444
1968.000000	0.199287
1969.000000	0.199137
1970.000000	0.198974
1971.000000	0.198662
1972.000000	0.198585
1973.000000	0.198684
1974.000000	0.199096
1975.000000	0.199399
1976.000000	0.199871
1977.000000	0.200405
1978.000000	0.200831
1979.000000	0.200895
1980.000000	0.201286
1981.000000	0.201574
1982.000000	0.201486
1983.000000	0.201811
1984.000000	0.202199
1985.000000	0.202595
1986.000000	0.202977
1987.000000	0.203774
1988.000000	0.204270
1989.000000	0.204113
1990.000000	0.204373
1991.000000	0.204406
1992.000000	0.204286
1993.000000	0.204801
1994.000000	0.205910
1995.000000	0.206857
1996.000000	0.207227
1997.000000	0.207642
1998.000000	0.207677
1999.000000	0.207813
2000.000000	0.207665
2001.000000	0.208409
2002.000000	0.208869
2003.000000	0.209206
2004.000000	0.210468
2005.000000	0.210960
2006.000000	0.211563
2007.000000	0.212582
2008.000000	0.213427
2009.000000	0.214258
2010.000000	0.214997
2011.000000	0.215685
2012.000000	0.216215
2013.000000	0.216317
2014.000000	0.216564
2015.000000	0.217288
2016.000000	0.217929
2017.000000	0.218794
2018.000000	0.219362
2019.000000	0.219928
2020.000000	0.220716
2021.000000	0.221486
2022.000000	0.222448
2023.000000	0.223236
2024.000000	0.224004
2025.000000	0.224535
2026.000000	0.224766
2027.000000	0.225088
2028.000000	0.224906
2029.000000	0.225242
2030.000000	0.226064
2031.000000	0.226239
2032.000000	0.226704
2033.000000	0.227007
2034.000000	0.227231
2035.000000	0.227149
2036.000000	0.227458
2037.000000	0.228152
2038.000000	0.228729
2039.000000	0.229490
2040.000000	0.230017
2041.000000	0.230620
2042.000000	0.231095
2043.000000	0.231155
2044.000000	0.231238
2045.000000	0.231485
2046.000000	0.231490
2047.000000	0.232060
2048.000000	0.233248
2049.000000	0.234173
2050.000000	0.235086
2051.000000	0.235873
2052.000000	0.236284
2053.000000	0.237002
2054.000000	0.238332
2055.000000	0.239029
2056.000000	0.239510
2057.000000	0.239455
2058.000000	0.238763
2059.000000	0.238281
2060.000000	0.238175
2061.000000	0.238334
2062.000000	0.238692
2063.000000	0.239510
2064.000000	0.240071
2065.000000	0.240815
2066.000000	0.241599
2067.000000	0.242858
2068.000000	0.243551
2069.000000	0.244353
2070.000000	0.245178
2071.000000	0.244717
2072.000000	0.244405
2073.000000	0.244335
2074.000000	0.244679
2075.000000	0.245272
2076.000000	0.246676
2077.000000	0.247498
2078.000000	0.248624
2079.000000	0.248852
2080.000000	0.248299
2081.000000	0.248354
2082.000000	0.248383
2083.000000	0.247693
2084.000000	0.248132
2085.000000	0.249082
2086.000000	0.249551
2087.000000	0.250074
2088.000000	0.250358
2089.000000	0.250254
2090.000000	0.250266
2091.000000	0.249898
2092.000000	0.250432
2093.000000	0.251737
2094.000000	0.252284
2095.000000	0.253087
2096.000000	0.253378
2097.000000	0.252738
2098.000000	0.252474
2099.000000	0.252580
2100.000000	0.252931
2101.000000	0.253662
2102.000000	0.254122
2103.000000	0.254365
2104.000000	0.254994
2105.000000	0.255473
2106.000000	0.255861
2107.000000	0.256403
2108.000000	0.256943
2109.000000	0.257456
2110.000000	0.258013
2111.000000	0.258348
2112.000000	0.258324
2113.000000	0.258628
2114.000000	0.258823
2115.000000	0.259029
2116.000000	0.259304
2117.000000	0.259520
2118.000000	0.259459
2119.000000	0.258756
2120.000000	0.258990
2121.000000	0.259602
2122.000000	0.260085
2123.000000	0.261383
2124.000000	0.261960
2125.000000	0.261835
2126.000000	0.261963
2127.000000	0.262134
2128.000000	0.262231
2129.000000	0.262121
2130.000000	0.262327
2131.000000	0.262090
2132.000000	0.261741
2133.000000	0.261847
2134.000000	0.261681
2135.000000	0.261333
2136.000000	0.261440
2137.000000	0.261440
2138.000000	0.261504
2139.000000	0.261356
2140.000000	0.260811
2141.000000	0.260850
2142.000000	0.260653
2143.000000	0.261086
2144.000000	0.263451
2145.000000	0.264234
2146.000000	0.264709
2147.000000	0.264900
2148.000000	0.263835
2149.000000	0.262868
2150.000000	0.263071
2151.000000	0.263114
2152.000000	0.263886
2153.000000	0.265134
2154.000000	0.265185
2155.000000	0.264881
2156.000000	0.264405
2157.000000	0.262473
2158.000000	0.261955
2159.000000	0.262302
2160.000000	0.262130
2161.000000	0.262285
2162.000000	0.262548
2163.000000	0.262380
2164.000000	0.262506
2165.000000	0.263506
2166.000000	0.263566
2167.000000	0.262824
2168.000000	0.262566
2169.000000	0.262309
2170.000000	0.261493
2171.000000	0.260838
2172.000000	0.260238
2173.000000	0.260088
2174.000000	0.259590
2175.000000	0.260022
2176.000000	0.261963
2177.000000	0.262635
2178.000000	0.263232
2179.000000	0.263633
2180.000000	0.263558
2181.000000	0.263526
2182.000000	0.262781
2183.000000	0.261999
2184.000000	0.261879
2185.000000	0.261025
2186.000000	0.260950
2187.000000	0.262094
2188.000000	0.261920
2189.000000	0.261757
2190.000000	0.261489
2191.000000	0.261103
2192.000000	0.261924
2193.000000	0.264122
2194.000000	0.265215
2195.000000	0.267578
2196.000000	0.267736
2197.000000	0.265662
2198.000000	0.265107
2199.000000	0.263673
2200.000000	0.263068
2201.000000	0.263743
2202.000000	0.263328
2203.000000	0.261715
2204.000000	0.261968
2205.000000	0.260987
2206.000000	0.260917
2207.000000	0.259327
2208.000000	0.258239
2209.000000	0.258642
2210.000000	0.258950
2211.000000	0.259832
2212.000000	0.261774
2213.000000	0.262556
2214.000000	0.262257
2215.000000	0.262226
2216.000000	0.262414
2217.000000	0.261673
2218.000000	0.259410
2219.000000	0.258880
2220.000000	0.258948
2221.000000	0.258712
2222.000000	0.259159
2223.000000	0.259721
2224.000000	0.259619
2225.000000	0.260777
2226.000000	0.262196
2227.000000	0.262228
2228.000000	0.260817
2229.000000	0.257494
2230.000000	0.255163
2231.000000	0.254379
2232.000000	0.255038
2233.000000	0.256858
2234.000000	0.256324
2235.000000	0.255405
2236.000000	0.255767
2237.000000	0.255928
2238.000000	0.256550
2239.000000	0.258997
2240.000000	0.259768
2241.000000	0.259409
2242.000000	0.259149
2243.000000	0.258085
2244.000000	0.258416
2245.000000	0.259256
2246.000000	0.260438
2247.000000	0.262814
2248.000000	0.264296
2249.000000	0.266544
2250.000000	0.265691
2251.000000	0.265930
2252.000000	0.268094
2253.000000	0.268373
2254.000000	0.269691
2255.000000	0.269912
2256.000000	0.268229
2257.000000	0.266579
2258.000000	0.263636
2259.000000	0.258519
2260.000000	0.254311
2261.000000	0.252691
2262.000000	0.252223
2263.000000	0.252218
2264.000000	0.255084
2265.000000	0.255964
2266.000000	0.256550
2267.000000	0.256411
2268.000000	0.255441
2269.000000	0.256003
2270.000000	0.256247
2271.000000	0.256476
2272.000000	0.258723
2273.000000	0.258984
2274.000000	0.257058
2275.000000	0.256113
2276.000000	0.255958
2277.000000	0.253659
2278.000000	0.251090
2279.000000	0.252119
2280.000000	0.251001
2281.000000	0.249337
2282.000000	0.249471
2283.000000	0.247911
2284.000000	0.246435
2285.000000	0.247004
2286.000000	0.248335
2287.000000	0.249554
2288.000000	0.251670
2289.000000	0.254350
2290.000000	0.254903
2291.000000	0.252425
2292.000000	0.249284
2293.000000	0.247750
2294.000000	0.246710
2295.000000	0.246475
2296.000000	0.246937
2297.000000	0.248035
2298.000000	0.248946
2299.000000	0.250909
2300.000000	0.251319
2301.000000	0.251363
2302.000000	0.251801
2303.000000	0.250944
2304.000000	0.251011
2305.000000	0.252903
2306.000000	0.252629
2307.000000	0.250956
2308.000000	0.249739
2309.000000	0.248868
2310.000000	0.248415
2311.000000	0.249080
2312.000000	0.250290
2313.000000	0.250365
2314.000000	0.248628
2315.000000	0.247553
2316.000000	0.247843
2317.000000	0.247606
2318.000000	0.248737
2319.000000	0.248931
2320.000000	0.246579
2321.000000	0.245296
2322.000000	0.242303
2323.000000	0.240032
2324.000000	0.240784
2325.000000	0.241023
2326.000000	0.241743
2327.000000	0.242378
2328.000000	0.242685
2329.000000	0.240801
2330.000000	0.238145
2331.000000	0.235043
2332.000000	0.231020
2333.000000	0.231070
2334.000000	0.231131
2335.000000	0.231428
2336.000000	0.233535
2337.000000	0.233802
2338.000000	0.232106
2339.000000	0.232897
2340.000000	0.235085
2341.000000	0.235038
2342.000000	0.235223
2343.000000	0.235164
2344.000000	0.233864
2345.000000	0.232203
2346.000000	0.230190
2347.000000	0.229136
2348.000000	0.226674
2349.000000	0.225968
2350.000000	0.230220
2351.000000	0.231783
2352.000000	0.231767
2353.000000	0.232938
2354.000000	0.231128
2355.000000	0.228216
2356.000000	0.228773
2357.000000	0.225040
2358.000000	0.220525
2359.000000	0.218716
2360.000000	0.214015
2361.000000	0.211992
2362.000000	0.210711
2363.000000	0.208879
2364.000000	0.208578
2365.000000	0.210090
2366.000000	0.215780
2367.000000	0.218706
2368.000000	0.219000
2369.000000	0.220966
2370.000000	0.216290
2371.000000	0.213222
2372.000000	0.213289
2373.000000	0.209852
2374.000000	0.209403
2375.000000	0.210569
2376.000000	0.212679
2377.000000	0.215012
2378.000000	0.216984
2379.000000	0.217666
2380.000000	0.212036
2381.000000	0.205657
2382.000000	0.204459
2383.000000	0.203713
2384.000000	0.205771
2385.000000	0.212660
2386.000000	0.212815
2387.000000	0.207728
2388.000000	0.202616
2389.000000	0.195873
2390.000000	0.192397
2391.000000	0.193357
2392.000000	0.194253
2393.000000	0.193001
2394.000000	0.193451
2395.000000	0.191963
2396.000000	0.189118
2397.000000	0.188384
2398.000000	0.181836
2399.000000	0.178781
2400.000000	0.181566
2401.000000	0.185112
2402.000000	0.195183
2403.000000	0.203443
2404.000000	0.201446
2405.000000	0.200857
2406.000000	0.201367
2407.000000	0.191972
2408.000000	0.187830
2409.000000	0.191973
2410.000000	0.192235
2411.000000	0.196798
2412.000000	0.210259
2413.000000	0.216492
2414.000000	0.207558
2415.000000	0.200029
2416.000000	0.188986
2417.000000	0.174613
2418.000000	0.176991
2419.000000	0.182708
2420.000000	0.185989
2421.000000	0.181480
2422.000000	0.174404
2423.000000	0.173646
2424.000000	0.173398
2425.000000	0.187686
2426.000000	0.200903
2427.000000	0.201372
2428.000000	0.205833
2429.000000	0.205913
2430.000000	0.206430
2431.000000	0.214156
2432.000000	0.215499
2433.000000	0.215684
2434.000000	0.208065
2435.000000	0.190095
2436.000000	0.178156
2437.000000	0.165234
2438.000000	0.158052
2439.000000	0.162945
2440.000000	0.168927
2441.000000	0.172112
2442.000000	0.179119
2443.000000	0.195145
2444.000000	0.196873
2445.000000	0.199811
2446.000000	0.204413
2447.000000	0.193179
2448.000000	0.190457
2449.000000	0.197104
2450.000000	0.210814
2451.000000	0.229526
2452.000000	0.242355
2453.000000	0.232309
2454.000000	0.211319
2455.000000	0.181459
2456.000000	0.151265
2457.000000	0.143250
2458.000000	0.137469
2459.000000	0.139677
2460.000000	0.149952
2461.000000	0.159467
2462.000000	0.168400
2463.000000	0.170988
2464.000000	0.175067
2465.000000	0.165233
2466.000000	0.160961
2467.000000	0.180905
2468.000000	0.194846
2469.000000	0.194924
2470.000000	0.195598
2471.000000	0.185664
2472.000000	0.167601
2473.000000	0.175649
2474.000000	0.196480
2475.000000	0.207744
2476.000000	0.198919
2477.000000	0.186362
2478.000000	0.169016
2479.000000	0.124182
2480.000000	0.114409
2481.000000	0.141784
2482.000000	0.145872
2483.000000	0.174828
2484.000000	0.205987
2485.000000	0.176367
2486.000000	0.175017
2487.000000	0.217809
2488.000000	0.258332
2489.000000	0.268875
2490.000000	0.270963
2491.000000	0.220426
2492.000000	0.175090
2493.000000	0.142678
2494.000000	0.113582
2495.000000	0.048753
2496.000000	0.033958
2497.000000	0.062482
2498.000000	0.077520
2499.000000	0.125909
2500.000000	0.154849
