# Wavelength	NAu-1-50_HEX-30_FV7-20_00000.asd.rts.txt
350.000000	0.147367
351.000000	0.126493
352.000000	0.130809
353.000000	0.137278
354.000000	0.134002
355.000000	0.130059
356.000000	0.120841
357.000000	0.114971
358.000000	0.129671
359.000000	0.133178
360.000000	0.131596
361.000000	0.136090
362.000000	0.125437
363.000000	0.121903
364.000000	0.134790
365.000000	0.136948
366.000000	0.132776
367.000000	0.126383
368.000000	0.122477
369.000000	0.124432
370.000000	0.128258
371.000000	0.128328
372.000000	0.126884
373.000000	0.130285
374.000000	0.138653
375.000000	0.133753
376.000000	0.130250
377.000000	0.133337
378.000000	0.140584
379.000000	0.140920
380.000000	0.137929
381.000000	0.139580
382.000000	0.139528
383.000000	0.139051
384.000000	0.139764
385.000000	0.141417
386.000000	0.143157
387.000000	0.145054
388.000000	0.147945
389.000000	0.151176
390.000000	0.152867
391.000000	0.151136
392.000000	0.151690
393.000000	0.153843
394.000000	0.156084
395.000000	0.157516
396.000000	0.159218
397.000000	0.161246
398.000000	0.162285
399.000000	0.164021
400.000000	0.165822
401.000000	0.166131
402.000000	0.167340
403.000000	0.168963
404.000000	0.170265
405.000000	0.171063
406.000000	0.172231
407.000000	0.174189
408.000000	0.176814
409.000000	0.177983
410.000000	0.178055
411.000000	0.178846
412.000000	0.180015
413.000000	0.181318
414.000000	0.182552
415.000000	0.183916
416.000000	0.184738
417.000000	0.184988
418.000000	0.186246
419.000000	0.186989
420.000000	0.187002
421.000000	0.187094
422.000000	0.187935
423.000000	0.188441
424.000000	0.187389
425.000000	0.187561
426.000000	0.188180
427.000000	0.188382
428.000000	0.188578
429.000000	0.188460
430.000000	0.188141
431.000000	0.188334
432.000000	0.188381
433.000000	0.188214
434.000000	0.188092
435.000000	0.187951
436.000000	0.187994
437.000000	0.188241
438.000000	0.187779
439.000000	0.187109
440.000000	0.186655
441.000000	0.186329
442.000000	0.186127
443.000000	0.185975
444.000000	0.185872
445.000000	0.185409
446.000000	0.185200
447.000000	0.185861
448.000000	0.186825
449.000000	0.187947
450.000000	0.189185
451.000000	0.190551
452.000000	0.192368
453.000000	0.194636
454.000000	0.197199
455.000000	0.199610
456.000000	0.202179
457.000000	0.205334
458.000000	0.207846
459.000000	0.210125
460.000000	0.212652
461.000000	0.214683
462.000000	0.216549
463.000000	0.218296
464.000000	0.219841
465.000000	0.221142
466.000000	0.222373
467.000000	0.223978
468.000000	0.225010
469.000000	0.225671
470.000000	0.226560
471.000000	0.227495
472.000000	0.228352
473.000000	0.229096
474.000000	0.229823
475.000000	0.230343
476.000000	0.230885
477.000000	0.231888
478.000000	0.232478
479.000000	0.232962
480.000000	0.233758
481.000000	0.234317
482.000000	0.234891
483.000000	0.235528
484.000000	0.235958
485.000000	0.236473
486.000000	0.237253
487.000000	0.237695
488.000000	0.238235
489.000000	0.238935
490.000000	0.239611
491.000000	0.240241
492.000000	0.240931
493.000000	0.241664
494.000000	0.242273
495.000000	0.242913
496.000000	0.243646
497.000000	0.244372
498.000000	0.245078
499.000000	0.245825
500.000000	0.246593
501.000000	0.247311
502.000000	0.248069
503.000000	0.248944
504.000000	0.249792
505.000000	0.250525
506.000000	0.251148
507.000000	0.252009
508.000000	0.252892
509.000000	0.253649
510.000000	0.254450
511.000000	0.255300
512.000000	0.256187
513.000000	0.257014
514.000000	0.257975
515.000000	0.258984
516.000000	0.259833
517.000000	0.260729
518.000000	0.261668
519.000000	0.262575
520.000000	0.263643
521.000000	0.264656
522.000000	0.265563
523.000000	0.266539
524.000000	0.267522
525.000000	0.268543
526.000000	0.269720
527.000000	0.270817
528.000000	0.271810
529.000000	0.272809
530.000000	0.273980
531.000000	0.275252
532.000000	0.276467
533.000000	0.277648
534.000000	0.278808
535.000000	0.279952
536.000000	0.281110
537.000000	0.282334
538.000000	0.283617
539.000000	0.284906
540.000000	0.286102
541.000000	0.287257
542.000000	0.288469
543.000000	0.289714
544.000000	0.290910
545.000000	0.292022
546.000000	0.293377
547.000000	0.294659
548.000000	0.295809
549.000000	0.296825
550.000000	0.298069
551.000000	0.299398
552.000000	0.300503
553.000000	0.301648
554.000000	0.302796
555.000000	0.303929
556.000000	0.305179
557.000000	0.306305
558.000000	0.307384
559.000000	0.308504
560.000000	0.309588
561.000000	0.310672
562.000000	0.311673
563.000000	0.312713
564.000000	0.313778
565.000000	0.314728
566.000000	0.315728
567.000000	0.316664
568.000000	0.317451
569.000000	0.318182
570.000000	0.318891
571.000000	0.319605
572.000000	0.320370
573.000000	0.321144
574.000000	0.321848
575.000000	0.322471
576.000000	0.323125
577.000000	0.323748
578.000000	0.324337
579.000000	0.324817
580.000000	0.325311
581.000000	0.325857
582.000000	0.326379
583.000000	0.326801
584.000000	0.327207
585.000000	0.327780
586.000000	0.328128
587.000000	0.328385
588.000000	0.328764
589.000000	0.329120
590.000000	0.329435
591.000000	0.329705
592.000000	0.329920
593.000000	0.330143
594.000000	0.330384
595.000000	0.330609
596.000000	0.330774
597.000000	0.330929
598.000000	0.331045
599.000000	0.331113
600.000000	0.331221
601.000000	0.331334
602.000000	0.331370
603.000000	0.331433
604.000000	0.331549
605.000000	0.331567
606.000000	0.331552
607.000000	0.331558
608.000000	0.331639
609.000000	0.331745
610.000000	0.331854
611.000000	0.331949
612.000000	0.332035
613.000000	0.332102
614.000000	0.332188
615.000000	0.332299
616.000000	0.332315
617.000000	0.332251
618.000000	0.332382
619.000000	0.332487
620.000000	0.332531
621.000000	0.332600
622.000000	0.332618
623.000000	0.332592
624.000000	0.332556
625.000000	0.332581
626.000000	0.332654
627.000000	0.332759
628.000000	0.332866
629.000000	0.333010
630.000000	0.333064
631.000000	0.333133
632.000000	0.333252
633.000000	0.333427
634.000000	0.333618
635.000000	0.333756
636.000000	0.333871
637.000000	0.333985
638.000000	0.334160
639.000000	0.334339
640.000000	0.334537
641.000000	0.334641
642.000000	0.334715
643.000000	0.334800
644.000000	0.334932
645.000000	0.335119
646.000000	0.335335
647.000000	0.335523
648.000000	0.335676
649.000000	0.335835
650.000000	0.335993
651.000000	0.336138
652.000000	0.336259
653.000000	0.336432
654.000000	0.336665
655.000000	0.336875
656.000000	0.337112
657.000000	0.337369
658.000000	0.337650
659.000000	0.337908
660.000000	0.338116
661.000000	0.338350
662.000000	0.338497
663.000000	0.338685
664.000000	0.339061
665.000000	0.339388
666.000000	0.339658
667.000000	0.339895
668.000000	0.340225
669.000000	0.340549
670.000000	0.340829
671.000000	0.341177
672.000000	0.341545
673.000000	0.341913
674.000000	0.342302
675.000000	0.342656
676.000000	0.343016
677.000000	0.343451
678.000000	0.343810
679.000000	0.344148
680.000000	0.344518
681.000000	0.344858
682.000000	0.345261
683.000000	0.345657
684.000000	0.346077
685.000000	0.346454
686.000000	0.346861
687.000000	0.347343
688.000000	0.347792
689.000000	0.348196
690.000000	0.348607
691.000000	0.349055
692.000000	0.349487
693.000000	0.349963
694.000000	0.350481
695.000000	0.350983
696.000000	0.351470
697.000000	0.351970
698.000000	0.352486
699.000000	0.353010
700.000000	0.353536
701.000000	0.354021
702.000000	0.354495
703.000000	0.354963
704.000000	0.355470
705.000000	0.356032
706.000000	0.356576
707.000000	0.357100
708.000000	0.357668
709.000000	0.358197
710.000000	0.358645
711.000000	0.359072
712.000000	0.359547
713.000000	0.360093
714.000000	0.360602
715.000000	0.361061
716.000000	0.361517
717.000000	0.362011
718.000000	0.362537
719.000000	0.363066
720.000000	0.363587
721.000000	0.364101
722.000000	0.364529
723.000000	0.364958
724.000000	0.365492
725.000000	0.365907
726.000000	0.366332
727.000000	0.366832
728.000000	0.367325
729.000000	0.367842
730.000000	0.368340
731.000000	0.368795
732.000000	0.369174
733.000000	0.369543
734.000000	0.369952
735.000000	0.370372
736.000000	0.370896
737.000000	0.371349
738.000000	0.371706
739.000000	0.372108
740.000000	0.372452
741.000000	0.372787
742.000000	0.373139
743.000000	0.373457
744.000000	0.373717
745.000000	0.373968
746.000000	0.374249
747.000000	0.374477
748.000000	0.374728
749.000000	0.374961
750.000000	0.375131
751.000000	0.375397
752.000000	0.375632
753.000000	0.375839
754.000000	0.376089
755.000000	0.376327
756.000000	0.376556
757.000000	0.376733
758.000000	0.376874
759.000000	0.377049
760.000000	0.377216
761.000000	0.377460
762.000000	0.377617
763.000000	0.377668
764.000000	0.377776
765.000000	0.377870
766.000000	0.377945
767.000000	0.377998
768.000000	0.378055
769.000000	0.378129
770.000000	0.378196
771.000000	0.378154
772.000000	0.378156
773.000000	0.378130
774.000000	0.378074
775.000000	0.377975
776.000000	0.377893
777.000000	0.377843
778.000000	0.377775
779.000000	0.377704
780.000000	0.377635
781.000000	0.377540
782.000000	0.377445
783.000000	0.377427
784.000000	0.377334
785.000000	0.377112
786.000000	0.376889
787.000000	0.376719
788.000000	0.376536
789.000000	0.376350
790.000000	0.376139
791.000000	0.375930
792.000000	0.375773
793.000000	0.375570
794.000000	0.375260
795.000000	0.374933
796.000000	0.374642
797.000000	0.374392
798.000000	0.374152
799.000000	0.373928
800.000000	0.373719
801.000000	0.373517
802.000000	0.373254
803.000000	0.372972
804.000000	0.372732
805.000000	0.372453
806.000000	0.372143
807.000000	0.371869
808.000000	0.371548
809.000000	0.371250
810.000000	0.371001
811.000000	0.370766
812.000000	0.370440
813.000000	0.370084
814.000000	0.369744
815.000000	0.369479
816.000000	0.369105
817.000000	0.368763
818.000000	0.368510
819.000000	0.368252
820.000000	0.367940
821.000000	0.367536
822.000000	0.367197
823.000000	0.366901
824.000000	0.366545
825.000000	0.366161
826.000000	0.365838
827.000000	0.365545
828.000000	0.365285
829.000000	0.364970
830.000000	0.364649
831.000000	0.364370
832.000000	0.363991
833.000000	0.363589
834.000000	0.363204
835.000000	0.362879
836.000000	0.362514
837.000000	0.362185
838.000000	0.361914
839.000000	0.361629
840.000000	0.361331
841.000000	0.361018
842.000000	0.360657
843.000000	0.360318
844.000000	0.359952
845.000000	0.359591
846.000000	0.359445
847.000000	0.359172
848.000000	0.358813
849.000000	0.358540
850.000000	0.358344
851.000000	0.358074
852.000000	0.357728
853.000000	0.357391
854.000000	0.356978
855.000000	0.356642
856.000000	0.356353
857.000000	0.355992
858.000000	0.355659
859.000000	0.355350
860.000000	0.355175
861.000000	0.354840
862.000000	0.354476
863.000000	0.354244
864.000000	0.353929
865.000000	0.353636
866.000000	0.353448
867.000000	0.353271
868.000000	0.353074
869.000000	0.352783
870.000000	0.352456
871.000000	0.352144
872.000000	0.351854
873.000000	0.351549
874.000000	0.351376
875.000000	0.351173
876.000000	0.350911
877.000000	0.350537
878.000000	0.350069
879.000000	0.349652
880.000000	0.349244
881.000000	0.349005
882.000000	0.348813
883.000000	0.348662
884.000000	0.348499
885.000000	0.348230
886.000000	0.347951
887.000000	0.347747
888.000000	0.347557
889.000000	0.347383
890.000000	0.347098
891.000000	0.346802
892.000000	0.346462
893.000000	0.346178
894.000000	0.346073
895.000000	0.345839
896.000000	0.345695
897.000000	0.345602
898.000000	0.345435
899.000000	0.345095
900.000000	0.344777
901.000000	0.344541
902.000000	0.344381
903.000000	0.344210
904.000000	0.344091
905.000000	0.343964
906.000000	0.343704
907.000000	0.343450
908.000000	0.343338
909.000000	0.343280
910.000000	0.343059
911.000000	0.342806
912.000000	0.342683
913.000000	0.342527
914.000000	0.342349
915.000000	0.342273
916.000000	0.342290
917.000000	0.342080
918.000000	0.341878
919.000000	0.341814
920.000000	0.341556
921.000000	0.341521
922.000000	0.341595
923.000000	0.341400
924.000000	0.341192
925.000000	0.341071
926.000000	0.341041
927.000000	0.340827
928.000000	0.340679
929.000000	0.340555
930.000000	0.340356
931.000000	0.340183
932.000000	0.340066
933.000000	0.340035
934.000000	0.339997
935.000000	0.339718
936.000000	0.339472
937.000000	0.339393
938.000000	0.339306
939.000000	0.339321
940.000000	0.339317
941.000000	0.339240
942.000000	0.339216
943.000000	0.339127
944.000000	0.338856
945.000000	0.338818
946.000000	0.338809
947.000000	0.338760
948.000000	0.338585
949.000000	0.338360
950.000000	0.338176
951.000000	0.338047
952.000000	0.338045
953.000000	0.338065
954.000000	0.338005
955.000000	0.337775
956.000000	0.337584
957.000000	0.337638
958.000000	0.337742
959.000000	0.337713
960.000000	0.337669
961.000000	0.337613
962.000000	0.337566
963.000000	0.337640
964.000000	0.337667
965.000000	0.337813
966.000000	0.338031
967.000000	0.338043
968.000000	0.337991
969.000000	0.337924
970.000000	0.337940
971.000000	0.337646
972.000000	0.337442
973.000000	0.337436
974.000000	0.337508
975.000000	0.337429
976.000000	0.337298
977.000000	0.337292
978.000000	0.337620
979.000000	0.337905
980.000000	0.337784
981.000000	0.337580
982.000000	0.337822
983.000000	0.337944
984.000000	0.337910
985.000000	0.338113
986.000000	0.338008
987.000000	0.338000
988.000000	0.338163
989.000000	0.337869
990.000000	0.338024
991.000000	0.338412
992.000000	0.338560
993.000000	0.338572
994.000000	0.338635
995.000000	0.338904
996.000000	0.339045
997.000000	0.339132
998.000000	0.339426
999.000000	0.339896
1000.000000	0.339786
1001.000000	0.339884
1002.000000	0.339659
1003.000000	0.339565
1004.000000	0.339560
1005.000000	0.340049
1006.000000	0.339906
1007.000000	0.339357
1008.000000	0.339361
1009.000000	0.339736
1010.000000	0.339358
1011.000000	0.340018
1012.000000	0.340944
1013.000000	0.340271
1014.000000	0.339899
1015.000000	0.340721
1016.000000	0.340788
1017.000000	0.340468
1018.000000	0.341184
1019.000000	0.341785
1020.000000	0.342383
1021.000000	0.342227
1022.000000	0.342300
1023.000000	0.342529
1024.000000	0.341860
1025.000000	0.341850
1026.000000	0.342643
1027.000000	0.343078
1028.000000	0.343481
1029.000000	0.344029
1030.000000	0.343903
1031.000000	0.343722
1032.000000	0.344224
1033.000000	0.344585
1034.000000	0.344871
1035.000000	0.345459
1036.000000	0.346036
1037.000000	0.346570
1038.000000	0.346738
1039.000000	0.346839
1040.000000	0.347438
1041.000000	0.347599
1042.000000	0.347618
1043.000000	0.347960
1044.000000	0.348433
1045.000000	0.349510
1046.000000	0.350063
1047.000000	0.350473
1048.000000	0.351018
1049.000000	0.351368
1050.000000	0.351134
1051.000000	0.351343
1052.000000	0.351882
1053.000000	0.352010
1054.000000	0.351977
1055.000000	0.352350
1056.000000	0.352644
1057.000000	0.353379
1058.000000	0.354642
1059.000000	0.355319
1060.000000	0.355857
1061.000000	0.355987
1062.000000	0.355840
1063.000000	0.356152
1064.000000	0.356462
1065.000000	0.356887
1066.000000	0.357395
1067.000000	0.357965
1068.000000	0.358439
1069.000000	0.358862
1070.000000	0.359420
1071.000000	0.360353
1072.000000	0.360784
1073.000000	0.361155
1074.000000	0.361323
1075.000000	0.361322
1076.000000	0.361485
1077.000000	0.362174
1078.000000	0.363081
1079.000000	0.363584
1080.000000	0.363998
1081.000000	0.364516
1082.000000	0.364925
1083.000000	0.365472
1084.000000	0.366380
1085.000000	0.367007
1086.000000	0.367553
1087.000000	0.367925
1088.000000	0.367805
1089.000000	0.368067
1090.000000	0.368380
1091.000000	0.368628
1092.000000	0.368950
1093.000000	0.369679
1094.000000	0.370254
1095.000000	0.370529
1096.000000	0.371297
1097.000000	0.372678
1098.000000	0.373286
1099.000000	0.373505
1100.000000	0.374110
1101.000000	0.374392
1102.000000	0.374873
1103.000000	0.375756
1104.000000	0.376500
1105.000000	0.377394
1106.000000	0.377766
1107.000000	0.377571
1108.000000	0.377818
1109.000000	0.377980
1110.000000	0.378022
1111.000000	0.378585
1112.000000	0.379874
1113.000000	0.380587
1114.000000	0.381228
1115.000000	0.381809
1116.000000	0.382225
1117.000000	0.382753
1118.000000	0.383423
1119.000000	0.383740
1120.000000	0.383770
1121.000000	0.384082
1122.000000	0.384362
1123.000000	0.384951
1124.000000	0.385681
1125.000000	0.386319
1126.000000	0.386908
1127.000000	0.387336
1128.000000	0.387676
1129.000000	0.387963
1130.000000	0.388341
1131.000000	0.388619
1132.000000	0.388991
1133.000000	0.389583
1134.000000	0.390026
1135.000000	0.390355
1136.000000	0.390677
1137.000000	0.390909
1138.000000	0.391198
1139.000000	0.391594
1140.000000	0.392040
1141.000000	0.392452
1142.000000	0.392921
1143.000000	0.393452
1144.000000	0.393951
1145.000000	0.394192
1146.000000	0.394436
1147.000000	0.394703
1148.000000	0.394745
1149.000000	0.394942
1150.000000	0.395246
1151.000000	0.395596
1152.000000	0.395883
1153.000000	0.396243
1154.000000	0.396735
1155.000000	0.397030
1156.000000	0.397201
1157.000000	0.397465
1158.000000	0.397574
1159.000000	0.397830
1160.000000	0.398200
1161.000000	0.398522
1162.000000	0.398908
1163.000000	0.399529
1164.000000	0.399885
1165.000000	0.400200
1166.000000	0.400506
1167.000000	0.400671
1168.000000	0.400865
1169.000000	0.401097
1170.000000	0.401322
1171.000000	0.401536
1172.000000	0.401881
1173.000000	0.402299
1174.000000	0.402610
1175.000000	0.402909
1176.000000	0.403130
1177.000000	0.403274
1178.000000	0.403552
1179.000000	0.403960
1180.000000	0.404186
1181.000000	0.404486
1182.000000	0.404735
1183.000000	0.404922
1184.000000	0.405257
1185.000000	0.405619
1186.000000	0.406135
1187.000000	0.406395
1188.000000	0.406602
1189.000000	0.406778
1190.000000	0.406845
1191.000000	0.407026
1192.000000	0.407357
1193.000000	0.407760
1194.000000	0.408086
1195.000000	0.408420
1196.000000	0.408805
1197.000000	0.409056
1198.000000	0.409203
1199.000000	0.409394
1200.000000	0.409485
1201.000000	0.409656
1202.000000	0.409885
1203.000000	0.410113
1204.000000	0.410286
1205.000000	0.410467
1206.000000	0.410604
1207.000000	0.410864
1208.000000	0.410924
1209.000000	0.410926
1210.000000	0.411033
1211.000000	0.411097
1212.000000	0.411133
1213.000000	0.411282
1214.000000	0.411461
1215.000000	0.411492
1216.000000	0.411681
1217.000000	0.412104
1218.000000	0.412292
1219.000000	0.412383
1220.000000	0.412599
1221.000000	0.412839
1222.000000	0.412932
1223.000000	0.413101
1224.000000	0.413194
1225.000000	0.413046
1226.000000	0.413118
1227.000000	0.413419
1228.000000	0.413880
1229.000000	0.414049
1230.000000	0.414163
1231.000000	0.414238
1232.000000	0.414189
1233.000000	0.414407
1234.000000	0.414920
1235.000000	0.415087
1236.000000	0.414965
1237.000000	0.415028
1238.000000	0.414866
1239.000000	0.414916
1240.000000	0.415140
1241.000000	0.415400
1242.000000	0.415592
1243.000000	0.415896
1244.000000	0.416311
1245.000000	0.416537
1246.000000	0.416549
1247.000000	0.416698
1248.000000	0.416797
1249.000000	0.416820
1250.000000	0.416992
1251.000000	0.417104
1252.000000	0.417117
1253.000000	0.417015
1254.000000	0.416996
1255.000000	0.416885
1256.000000	0.416932
1257.000000	0.417160
1258.000000	0.417314
1259.000000	0.417378
1260.000000	0.417624
1261.000000	0.417852
1262.000000	0.418019
1263.000000	0.418331
1264.000000	0.418538
1265.000000	0.418610
1266.000000	0.418608
1267.000000	0.418497
1268.000000	0.418454
1269.000000	0.418483
1270.000000	0.418566
1271.000000	0.418774
1272.000000	0.419071
1273.000000	0.419158
1274.000000	0.419035
1275.000000	0.418996
1276.000000	0.418899
1277.000000	0.418961
1278.000000	0.419034
1279.000000	0.419035
1280.000000	0.418947
1281.000000	0.418853
1282.000000	0.418703
1283.000000	0.418816
1284.000000	0.419085
1285.000000	0.419157
1286.000000	0.419193
1287.000000	0.419231
1288.000000	0.419225
1289.000000	0.419074
1290.000000	0.419051
1291.000000	0.419045
1292.000000	0.418888
1293.000000	0.418823
1294.000000	0.418918
1295.000000	0.419173
1296.000000	0.419348
1297.000000	0.419499
1298.000000	0.419637
1299.000000	0.419549
1300.000000	0.419638
1301.000000	0.419768
1302.000000	0.419691
1303.000000	0.419625
1304.000000	0.419514
1305.000000	0.419371
1306.000000	0.419240
1307.000000	0.419188
1308.000000	0.419178
1309.000000	0.419214
1310.000000	0.419135
1311.000000	0.419127
1312.000000	0.418856
1313.000000	0.418607
1314.000000	0.418507
1315.000000	0.418210
1316.000000	0.418151
1317.000000	0.418171
1318.000000	0.418132
1319.000000	0.418300
1320.000000	0.418357
1321.000000	0.418137
1322.000000	0.417768
1323.000000	0.417471
1324.000000	0.417498
1325.000000	0.417566
1326.000000	0.417673
1327.000000	0.417742
1328.000000	0.417513
1329.000000	0.417229
1330.000000	0.416722
1331.000000	0.416527
1332.000000	0.416483
1333.000000	0.416414
1334.000000	0.416595
1335.000000	0.416683
1336.000000	0.416665
1337.000000	0.416643
1338.000000	0.416595
1339.000000	0.416541
1340.000000	0.416254
1341.000000	0.416065
1342.000000	0.416116
1343.000000	0.416036
1344.000000	0.416079
1345.000000	0.416033
1346.000000	0.415662
1347.000000	0.415206
1348.000000	0.414863
1349.000000	0.414548
1350.000000	0.414281
1351.000000	0.413990
1352.000000	0.413751
1353.000000	0.413510
1354.000000	0.413422
1355.000000	0.413347
1356.000000	0.413202
1357.000000	0.412913
1358.000000	0.412706
1359.000000	0.412601
1360.000000	0.412385
1361.000000	0.412218
1362.000000	0.412002
1363.000000	0.411585
1364.000000	0.411367
1365.000000	0.411254
1366.000000	0.411028
1367.000000	0.410840
1368.000000	0.410571
1369.000000	0.410262
1370.000000	0.409795
1371.000000	0.409257
1372.000000	0.408793
1373.000000	0.408271
1374.000000	0.407878
1375.000000	0.407591
1376.000000	0.407348
1377.000000	0.407144
1378.000000	0.406746
1379.000000	0.406096
1380.000000	0.405396
1381.000000	0.404583
1382.000000	0.403690
1383.000000	0.402900
1384.000000	0.401947
1385.000000	0.400864
1386.000000	0.399895
1387.000000	0.398744
1388.000000	0.397385
1389.000000	0.396098
1390.000000	0.394849
1391.000000	0.393476
1392.000000	0.392178
1393.000000	0.390814
1394.000000	0.389383
1395.000000	0.387964
1396.000000	0.386612
1397.000000	0.385115
1398.000000	0.383480
1399.000000	0.381839
1400.000000	0.380056
1401.000000	0.378394
1402.000000	0.376796
1403.000000	0.375246
1404.000000	0.373801
1405.000000	0.372218
1406.000000	0.370547
1407.000000	0.368926
1408.000000	0.367279
1409.000000	0.365703
1410.000000	0.364225
1411.000000	0.362716
1412.000000	0.361263
1413.000000	0.360022
1414.000000	0.358896
1415.000000	0.357970
1416.000000	0.357114
1417.000000	0.356320
1418.000000	0.355624
1419.000000	0.355023
1420.000000	0.354395
1421.000000	0.353852
1422.000000	0.353328
1423.000000	0.352845
1424.000000	0.352203
1425.000000	0.351475
1426.000000	0.350808
1427.000000	0.349991
1428.000000	0.349077
1429.000000	0.348329
1430.000000	0.347607
1431.000000	0.346920
1432.000000	0.346382
1433.000000	0.346063
1434.000000	0.345814
1435.000000	0.345701
1436.000000	0.345787
1437.000000	0.346010
1438.000000	0.346366
1439.000000	0.346909
1440.000000	0.347587
1441.000000	0.348537
1442.000000	0.349489
1443.000000	0.350475
1444.000000	0.351545
1445.000000	0.352592
1446.000000	0.353435
1447.000000	0.354186
1448.000000	0.354853
1449.000000	0.355345
1450.000000	0.355746
1451.000000	0.356128
1452.000000	0.356354
1453.000000	0.356396
1454.000000	0.356406
1455.000000	0.356456
1456.000000	0.356502
1457.000000	0.356618
1458.000000	0.356752
1459.000000	0.356832
1460.000000	0.356898
1461.000000	0.356902
1462.000000	0.356926
1463.000000	0.356939
1464.000000	0.356947
1465.000000	0.357053
1466.000000	0.357182
1467.000000	0.357407
1468.000000	0.357579
1469.000000	0.357753
1470.000000	0.358024
1471.000000	0.358362
1472.000000	0.358797
1473.000000	0.359367
1474.000000	0.359863
1475.000000	0.360352
1476.000000	0.360749
1477.000000	0.361139
1478.000000	0.361633
1479.000000	0.362019
1480.000000	0.362433
1481.000000	0.362838
1482.000000	0.363275
1483.000000	0.363721
1484.000000	0.364202
1485.000000	0.364647
1486.000000	0.365037
1487.000000	0.365512
1488.000000	0.366000
1489.000000	0.366573
1490.000000	0.367164
1491.000000	0.367722
1492.000000	0.368249
1493.000000	0.368751
1494.000000	0.369139
1495.000000	0.369542
1496.000000	0.369896
1497.000000	0.370330
1498.000000	0.370815
1499.000000	0.371310
1500.000000	0.371853
1501.000000	0.372361
1502.000000	0.372750
1503.000000	0.373196
1504.000000	0.373564
1505.000000	0.373893
1506.000000	0.374336
1507.000000	0.374684
1508.000000	0.375099
1509.000000	0.375448
1510.000000	0.375616
1511.000000	0.375815
1512.000000	0.375970
1513.000000	0.376152
1514.000000	0.376400
1515.000000	0.376606
1516.000000	0.376824
1517.000000	0.377069
1518.000000	0.377268
1519.000000	0.377349
1520.000000	0.377584
1521.000000	0.377810
1522.000000	0.378050
1523.000000	0.378373
1524.000000	0.378554
1525.000000	0.378662
1526.000000	0.378875
1527.000000	0.379189
1528.000000	0.379375
1529.000000	0.379488
1530.000000	0.379570
1531.000000	0.379710
1532.000000	0.379974
1533.000000	0.380260
1534.000000	0.380449
1535.000000	0.380643
1536.000000	0.380826
1537.000000	0.380979
1538.000000	0.381197
1539.000000	0.381297
1540.000000	0.381249
1541.000000	0.381407
1542.000000	0.381626
1543.000000	0.381793
1544.000000	0.381980
1545.000000	0.382085
1546.000000	0.382123
1547.000000	0.382234
1548.000000	0.382415
1549.000000	0.382544
1550.000000	0.382629
1551.000000	0.382667
1552.000000	0.382657
1553.000000	0.382670
1554.000000	0.382675
1555.000000	0.382734
1556.000000	0.382922
1557.000000	0.383000
1558.000000	0.383070
1559.000000	0.383091
1560.000000	0.383082
1561.000000	0.383010
1562.000000	0.383040
1563.000000	0.383162
1564.000000	0.383272
1565.000000	0.383434
1566.000000	0.383450
1567.000000	0.383507
1568.000000	0.383593
1569.000000	0.383745
1570.000000	0.383819
1571.000000	0.383875
1572.000000	0.383941
1573.000000	0.383952
1574.000000	0.384010
1575.000000	0.384182
1576.000000	0.384252
1577.000000	0.384222
1578.000000	0.384230
1579.000000	0.384314
1580.000000	0.384373
1581.000000	0.384555
1582.000000	0.384558
1583.000000	0.384398
1584.000000	0.384309
1585.000000	0.384274
1586.000000	0.384292
1587.000000	0.384385
1588.000000	0.384424
1589.000000	0.384444
1590.000000	0.384501
1591.000000	0.384677
1592.000000	0.384714
1593.000000	0.384694
1594.000000	0.384688
1595.000000	0.384647
1596.000000	0.384644
1597.000000	0.384783
1598.000000	0.384811
1599.000000	0.384801
1600.000000	0.384726
1601.000000	0.384644
1602.000000	0.384588
1603.000000	0.384554
1604.000000	0.384528
1605.000000	0.384547
1606.000000	0.384566
1607.000000	0.384701
1608.000000	0.384691
1609.000000	0.384667
1610.000000	0.384698
1611.000000	0.384664
1612.000000	0.384682
1613.000000	0.384904
1614.000000	0.385096
1615.000000	0.385374
1616.000000	0.385581
1617.000000	0.385739
1618.000000	0.385915
1619.000000	0.386019
1620.000000	0.386139
1621.000000	0.386326
1622.000000	0.386559
1623.000000	0.386752
1624.000000	0.386896
1625.000000	0.386891
1626.000000	0.386943
1627.000000	0.386944
1628.000000	0.387090
1629.000000	0.387406
1630.000000	0.387586
1631.000000	0.387647
1632.000000	0.387686
1633.000000	0.387667
1634.000000	0.387715
1635.000000	0.387840
1636.000000	0.387915
1637.000000	0.387992
1638.000000	0.388029
1639.000000	0.388078
1640.000000	0.388167
1641.000000	0.388392
1642.000000	0.388527
1643.000000	0.388712
1644.000000	0.388797
1645.000000	0.388769
1646.000000	0.388773
1647.000000	0.388786
1648.000000	0.388831
1649.000000	0.389011
1650.000000	0.389095
1651.000000	0.389177
1652.000000	0.389372
1653.000000	0.389519
1654.000000	0.389773
1655.000000	0.390160
1656.000000	0.390227
1657.000000	0.390243
1658.000000	0.390248
1659.000000	0.390187
1660.000000	0.390340
1661.000000	0.390488
1662.000000	0.390673
1663.000000	0.390933
1664.000000	0.391125
1665.000000	0.391295
1666.000000	0.391590
1667.000000	0.391865
1668.000000	0.392002
1669.000000	0.392120
1670.000000	0.392084
1671.000000	0.391956
1672.000000	0.392043
1673.000000	0.392148
1674.000000	0.392274
1675.000000	0.392461
1676.000000	0.392417
1677.000000	0.392290
1678.000000	0.392377
1679.000000	0.392507
1680.000000	0.392534
1681.000000	0.392756
1682.000000	0.392867
1683.000000	0.392778
1684.000000	0.392959
1685.000000	0.393200
1686.000000	0.393235
1687.000000	0.393272
1688.000000	0.393164
1689.000000	0.393121
1690.000000	0.393244
1691.000000	0.393519
1692.000000	0.393669
1693.000000	0.393657
1694.000000	0.393609
1695.000000	0.393665
1696.000000	0.393944
1697.000000	0.394033
1698.000000	0.394120
1699.000000	0.394235
1700.000000	0.394315
1701.000000	0.394416
1702.000000	0.394283
1703.000000	0.394177
1704.000000	0.394080
1705.000000	0.394061
1706.000000	0.394260
1707.000000	0.394325
1708.000000	0.394347
1709.000000	0.394233
1710.000000	0.393993
1711.000000	0.393961
1712.000000	0.394026
1713.000000	0.394061
1714.000000	0.394271
1715.000000	0.394442
1716.000000	0.394647
1717.000000	0.394680
1718.000000	0.394592
1719.000000	0.394561
1720.000000	0.394426
1721.000000	0.394430
1722.000000	0.394584
1723.000000	0.394714
1724.000000	0.394983
1725.000000	0.395052
1726.000000	0.394915
1727.000000	0.394889
1728.000000	0.394637
1729.000000	0.394523
1730.000000	0.394747
1731.000000	0.394822
1732.000000	0.394910
1733.000000	0.394960
1734.000000	0.394779
1735.000000	0.394760
1736.000000	0.394717
1737.000000	0.394661
1738.000000	0.394710
1739.000000	0.394692
1740.000000	0.394548
1741.000000	0.394509
1742.000000	0.394532
1743.000000	0.394653
1744.000000	0.394805
1745.000000	0.394931
1746.000000	0.395149
1747.000000	0.395156
1748.000000	0.395115
1749.000000	0.394976
1750.000000	0.394861
1751.000000	0.394907
1752.000000	0.395039
1753.000000	0.395055
1754.000000	0.395103
1755.000000	0.395127
1756.000000	0.395144
1757.000000	0.395161
1758.000000	0.395220
1759.000000	0.395339
1760.000000	0.395344
1761.000000	0.395237
1762.000000	0.395164
1763.000000	0.395094
1764.000000	0.394945
1765.000000	0.394710
1766.000000	0.394563
1767.000000	0.394217
1768.000000	0.394005
1769.000000	0.394053
1770.000000	0.394098
1771.000000	0.394148
1772.000000	0.394161
1773.000000	0.394101
1774.000000	0.394178
1775.000000	0.394355
1776.000000	0.394505
1777.000000	0.394768
1778.000000	0.394819
1779.000000	0.394709
1780.000000	0.394680
1781.000000	0.394508
1782.000000	0.394520
1783.000000	0.394661
1784.000000	0.394867
1785.000000	0.395068
1786.000000	0.395220
1787.000000	0.395469
1788.000000	0.395604
1789.000000	0.395623
1790.000000	0.395749
1791.000000	0.395708
1792.000000	0.395638
1793.000000	0.395644
1794.000000	0.395654
1795.000000	0.395634
1796.000000	0.395667
1797.000000	0.395634
1798.000000	0.395328
1799.000000	0.395349
1800.000000	0.395721
1801.000000	0.396027
1802.000000	0.395914
1803.000000	0.394458
1804.000000	0.394619
1805.000000	0.395507
1806.000000	0.395859
1807.000000	0.397359
1808.000000	0.397536
1809.000000	0.396761
1810.000000	0.395514
1811.000000	0.394756
1812.000000	0.393344
1813.000000	0.393219
1814.000000	0.394206
1815.000000	0.394250
1816.000000	0.394264
1817.000000	0.394383
1818.000000	0.393787
1819.000000	0.394411
1820.000000	0.395636
1821.000000	0.395562
1822.000000	0.395513
1823.000000	0.394386
1824.000000	0.394353
1825.000000	0.394727
1826.000000	0.395035
1827.000000	0.395891
1828.000000	0.396210
1829.000000	0.396009
1830.000000	0.395691
1831.000000	0.395251
1832.000000	0.394263
1833.000000	0.394187
1834.000000	0.394422
1835.000000	0.394253
1836.000000	0.394601
1837.000000	0.394395
1838.000000	0.393083
1839.000000	0.392739
1840.000000	0.391987
1841.000000	0.391383
1842.000000	0.391224
1843.000000	0.391699
1844.000000	0.391450
1845.000000	0.390643
1846.000000	0.390627
1847.000000	0.390905
1848.000000	0.390144
1849.000000	0.389999
1850.000000	0.390918
1851.000000	0.390768
1852.000000	0.389713
1853.000000	0.389242
1854.000000	0.388479
1855.000000	0.387883
1856.000000	0.387124
1857.000000	0.386827
1858.000000	0.386751
1859.000000	0.385918
1860.000000	0.384526
1861.000000	0.383119
1862.000000	0.381722
1863.000000	0.379854
1864.000000	0.378582
1865.000000	0.377971
1866.000000	0.376832
1867.000000	0.375746
1868.000000	0.374200
1869.000000	0.372288
1870.000000	0.370167
1871.000000	0.367943
1872.000000	0.366374
1873.000000	0.364908
1874.000000	0.364017
1875.000000	0.362496
1876.000000	0.360874
1877.000000	0.358423
1878.000000	0.355532
1879.000000	0.352593
1880.000000	0.349418
1881.000000	0.346189
1882.000000	0.342905
1883.000000	0.338724
1884.000000	0.334872
1885.000000	0.330665
1886.000000	0.326556
1887.000000	0.322353
1888.000000	0.318393
1889.000000	0.314120
1890.000000	0.309347
1891.000000	0.304436
1892.000000	0.299319
1893.000000	0.293840
1894.000000	0.288639
1895.000000	0.283082
1896.000000	0.277346
1897.000000	0.271642
1898.000000	0.266437
1899.000000	0.261095
1900.000000	0.256671
1901.000000	0.252727
1902.000000	0.248772
1903.000000	0.245604
1904.000000	0.242830
1905.000000	0.239986
1906.000000	0.237474
1907.000000	0.235337
1908.000000	0.233518
1909.000000	0.231433
1910.000000	0.230063
1911.000000	0.228269
1912.000000	0.225813
1913.000000	0.224858
1914.000000	0.224147
1915.000000	0.223744
1916.000000	0.224319
1917.000000	0.224287
1918.000000	0.224182
1919.000000	0.223700
1920.000000	0.223268
1921.000000	0.222658
1922.000000	0.221627
1923.000000	0.220709
1924.000000	0.220193
1925.000000	0.220380
1926.000000	0.221250
1927.000000	0.222383
1928.000000	0.223308
1929.000000	0.224462
1930.000000	0.225042
1931.000000	0.225495
1932.000000	0.226106
1933.000000	0.226267
1934.000000	0.226383
1935.000000	0.226793
1936.000000	0.227067
1937.000000	0.227361
1938.000000	0.227608
1939.000000	0.227937
1940.000000	0.228293
1941.000000	0.228333
1942.000000	0.228606
1943.000000	0.228995
1944.000000	0.228637
1945.000000	0.228532
1946.000000	0.228494
1947.000000	0.228565
1948.000000	0.228971
1949.000000	0.229689
1950.000000	0.230037
1951.000000	0.230082
1952.000000	0.229833
1953.000000	0.229773
1954.000000	0.229344
1955.000000	0.229318
1956.000000	0.229687
1957.000000	0.229230
1958.000000	0.228783
1959.000000	0.229162
1960.000000	0.228997
1961.000000	0.229423
1962.000000	0.229937
1963.000000	0.231110
1964.000000	0.231060
1965.000000	0.231079
1966.000000	0.231101
1967.000000	0.230863
1968.000000	0.230732
1969.000000	0.230949
1970.000000	0.231362
1971.000000	0.231540
1972.000000	0.231877
1973.000000	0.232316
1974.000000	0.233142
1975.000000	0.233786
1976.000000	0.234547
1977.000000	0.235226
1978.000000	0.235591
1979.000000	0.235560
1980.000000	0.235677
1981.000000	0.235863
1982.000000	0.236362
1983.000000	0.237494
1984.000000	0.238258
1985.000000	0.239328
1986.000000	0.239884
1987.000000	0.240170
1988.000000	0.240242
1989.000000	0.240793
1990.000000	0.241329
1991.000000	0.242159
1992.000000	0.243365
1993.000000	0.244428
1994.000000	0.245417
1995.000000	0.246264
1996.000000	0.246885
1997.000000	0.247679
1998.000000	0.248229
1999.000000	0.249219
2000.000000	0.250660
2001.000000	0.251885
2002.000000	0.253032
2003.000000	0.254217
2004.000000	0.254975
2005.000000	0.256103
2006.000000	0.257497
2007.000000	0.258460
2008.000000	0.259312
2009.000000	0.259902
2010.000000	0.260719
2011.000000	0.261100
2012.000000	0.261983
2013.000000	0.263094
2014.000000	0.264623
2015.000000	0.265788
2016.000000	0.266692
2017.000000	0.267576
2018.000000	0.268154
2019.000000	0.269271
2020.000000	0.270818
2021.000000	0.271951
2022.000000	0.273190
2023.000000	0.274102
2024.000000	0.274370
2025.000000	0.275209
2026.000000	0.276047
2027.000000	0.277095
2028.000000	0.278405
2029.000000	0.279484
2030.000000	0.280026
2031.000000	0.280667
2032.000000	0.281486
2033.000000	0.282373
2034.000000	0.283349
2035.000000	0.284838
2036.000000	0.285773
2037.000000	0.286623
2038.000000	0.287590
2039.000000	0.288530
2040.000000	0.289637
2041.000000	0.290325
2042.000000	0.291015
2043.000000	0.291874
2044.000000	0.292409
2045.000000	0.293534
2046.000000	0.294604
2047.000000	0.295237
2048.000000	0.295414
2049.000000	0.296033
2050.000000	0.295961
2051.000000	0.296493
2052.000000	0.297680
2053.000000	0.298206
2054.000000	0.299049
2055.000000	0.299317
2056.000000	0.299445
2057.000000	0.299819
2058.000000	0.300662
2059.000000	0.301985
2060.000000	0.302741
2061.000000	0.303550
2062.000000	0.304105
2063.000000	0.304050
2064.000000	0.304392
2065.000000	0.305475
2066.000000	0.305768
2067.000000	0.305925
2068.000000	0.306300
2069.000000	0.306623
2070.000000	0.306612
2071.000000	0.307127
2072.000000	0.307649
2073.000000	0.307807
2074.000000	0.308291
2075.000000	0.308928
2076.000000	0.309861
2077.000000	0.310652
2078.000000	0.311488
2079.000000	0.312278
2080.000000	0.313139
2081.000000	0.313893
2082.000000	0.314809
2083.000000	0.315427
2084.000000	0.315773
2085.000000	0.315847
2086.000000	0.316238
2087.000000	0.317139
2088.000000	0.318323
2089.000000	0.319418
2090.000000	0.319886
2091.000000	0.319655
2092.000000	0.320110
2093.000000	0.320374
2094.000000	0.320915
2095.000000	0.322436
2096.000000	0.323065
2097.000000	0.323060
2098.000000	0.323024
2099.000000	0.323439
2100.000000	0.323944
2101.000000	0.325064
2102.000000	0.326231
2103.000000	0.326252
2104.000000	0.326622
2105.000000	0.327181
2106.000000	0.327482
2107.000000	0.328171
2108.000000	0.329649
2109.000000	0.330408
2110.000000	0.330961
2111.000000	0.331097
2112.000000	0.330853
2113.000000	0.329945
2114.000000	0.328616
2115.000000	0.328357
2116.000000	0.328035
2117.000000	0.328009
2118.000000	0.329187
2119.000000	0.329777
2120.000000	0.330460
2121.000000	0.331570
2122.000000	0.332247
2123.000000	0.332452
2124.000000	0.332815
2125.000000	0.333020
2126.000000	0.333470
2127.000000	0.334039
2128.000000	0.334822
2129.000000	0.335898
2130.000000	0.337023
2131.000000	0.337175
2132.000000	0.336914
2133.000000	0.336572
2134.000000	0.335766
2135.000000	0.335474
2136.000000	0.335572
2137.000000	0.335823
2138.000000	0.336596
2139.000000	0.337008
2140.000000	0.337540
2141.000000	0.337707
2142.000000	0.337536
2143.000000	0.337062
2144.000000	0.336514
2145.000000	0.336258
2146.000000	0.336118
2147.000000	0.335789
2148.000000	0.336090
2149.000000	0.336102
2150.000000	0.335691
2151.000000	0.335773
2152.000000	0.335332
2153.000000	0.334823
2154.000000	0.334453
2155.000000	0.334161
2156.000000	0.333827
2157.000000	0.333501
2158.000000	0.333356
2159.000000	0.333389
2160.000000	0.333444
2161.000000	0.333953
2162.000000	0.333817
2163.000000	0.332694
2164.000000	0.332636
2165.000000	0.332867
2166.000000	0.333022
2167.000000	0.333902
2168.000000	0.334028
2169.000000	0.333088
2170.000000	0.332452
2171.000000	0.332471
2172.000000	0.332907
2173.000000	0.333225
2174.000000	0.334182
2175.000000	0.334716
2176.000000	0.335367
2177.000000	0.335229
2178.000000	0.334316
2179.000000	0.334244
2180.000000	0.333885
2181.000000	0.334007
2182.000000	0.334554
2183.000000	0.334626
2184.000000	0.334521
2185.000000	0.332997
2186.000000	0.332279
2187.000000	0.332788
2188.000000	0.332922
2189.000000	0.334053
2190.000000	0.335529
2191.000000	0.336188
2192.000000	0.336095
2193.000000	0.335117
2194.000000	0.334515
2195.000000	0.333191
2196.000000	0.332306
2197.000000	0.331814
2198.000000	0.330892
2199.000000	0.329043
2200.000000	0.328208
2201.000000	0.328225
2202.000000	0.328062
2203.000000	0.328097
2204.000000	0.329140
2205.000000	0.326949
2206.000000	0.325073
2207.000000	0.324981
2208.000000	0.323058
2209.000000	0.323012
2210.000000	0.323615
2211.000000	0.323578
2212.000000	0.324977
2213.000000	0.326248
2214.000000	0.329573
2215.000000	0.330693
2216.000000	0.330080
2217.000000	0.330054
2218.000000	0.329247
2219.000000	0.328996
2220.000000	0.330159
2221.000000	0.330363
2222.000000	0.329695
2223.000000	0.328861
2224.000000	0.327723
2225.000000	0.325881
2226.000000	0.324513
2227.000000	0.324835
2228.000000	0.324705
2229.000000	0.322796
2230.000000	0.321814
2231.000000	0.324035
2232.000000	0.325421
2233.000000	0.327430
2234.000000	0.329690
2235.000000	0.329051
2236.000000	0.328661
2237.000000	0.327839
2238.000000	0.327069
2239.000000	0.324907
2240.000000	0.324578
2241.000000	0.324502
2242.000000	0.325281
2243.000000	0.328693
2244.000000	0.329189
2245.000000	0.328768
2246.000000	0.328822
2247.000000	0.326182
2248.000000	0.326074
2249.000000	0.327642
2250.000000	0.329521
2251.000000	0.333209
2252.000000	0.334136
2253.000000	0.332071
2254.000000	0.330165
2255.000000	0.327606
2256.000000	0.325738
2257.000000	0.326520
2258.000000	0.327339
2259.000000	0.325748
2260.000000	0.324927
2261.000000	0.324950
2262.000000	0.325892
2263.000000	0.325133
2264.000000	0.325079
2265.000000	0.323453
2266.000000	0.319429
2267.000000	0.317256
2268.000000	0.315260
2269.000000	0.313656
2270.000000	0.313383
2271.000000	0.310742
2272.000000	0.306924
2273.000000	0.303396
2274.000000	0.298234
2275.000000	0.294919
2276.000000	0.291713
2277.000000	0.291006
2278.000000	0.290923
2279.000000	0.289979
2280.000000	0.289136
2281.000000	0.288070
2282.000000	0.286231
2283.000000	0.284405
2284.000000	0.283911
2285.000000	0.282647
2286.000000	0.282844
2287.000000	0.283247
2288.000000	0.282196
2289.000000	0.281309
2290.000000	0.280685
2291.000000	0.281670
2292.000000	0.282944
2293.000000	0.285346
2294.000000	0.287313
2295.000000	0.289136
2296.000000	0.290432
2297.000000	0.291846
2298.000000	0.292499
2299.000000	0.291707
2300.000000	0.292031
2301.000000	0.292395
2302.000000	0.293444
2303.000000	0.295622
2304.000000	0.297440
2305.000000	0.300271
2306.000000	0.301105
2307.000000	0.301289
2308.000000	0.300032
2309.000000	0.298323
2310.000000	0.297559
2311.000000	0.298600
2312.000000	0.300566
2313.000000	0.299262
2314.000000	0.296454
2315.000000	0.293264
2316.000000	0.290377
2317.000000	0.290164
2318.000000	0.291416
2319.000000	0.292841
2320.000000	0.293252
2321.000000	0.294312
2322.000000	0.294707
2323.000000	0.294436
2324.000000	0.294817
2325.000000	0.292565
2326.000000	0.291262
2327.000000	0.290850
2328.000000	0.289803
2329.000000	0.291512
2330.000000	0.291840
2331.000000	0.291258
2332.000000	0.291548
2333.000000	0.289719
2334.000000	0.289543
2335.000000	0.289467
2336.000000	0.289117
2337.000000	0.288429
2338.000000	0.288316
2339.000000	0.287559
2340.000000	0.286908
2341.000000	0.285040
2342.000000	0.280717
2343.000000	0.278896
2344.000000	0.277958
2345.000000	0.276994
2346.000000	0.278329
2347.000000	0.277949
2348.000000	0.276113
2349.000000	0.274378
2350.000000	0.274229
2351.000000	0.272810
2352.000000	0.270925
2353.000000	0.268891
2354.000000	0.265864
2355.000000	0.265738
2356.000000	0.264237
2357.000000	0.260768
2358.000000	0.256283
2359.000000	0.252778
2360.000000	0.253282
2361.000000	0.255694
2362.000000	0.260293
2363.000000	0.263691
2364.000000	0.264493
2365.000000	0.263763
2366.000000	0.258891
2367.000000	0.253456
2368.000000	0.247059
2369.000000	0.240113
2370.000000	0.237049
2371.000000	0.236442
2372.000000	0.239018
2373.000000	0.244093
2374.000000	0.247017
2375.000000	0.248287
2376.000000	0.247495
2377.000000	0.243549
2378.000000	0.244152
2379.000000	0.244121
2380.000000	0.242188
2381.000000	0.244765
2382.000000	0.240551
2383.000000	0.232790
2384.000000	0.229324
2385.000000	0.226588
2386.000000	0.224856
2387.000000	0.223951
2388.000000	0.222856
2389.000000	0.217403
2390.000000	0.215117
2391.000000	0.218246
2392.000000	0.216392
2393.000000	0.219246
2394.000000	0.222295
2395.000000	0.222682
2396.000000	0.223857
2397.000000	0.219564
2398.000000	0.217574
2399.000000	0.212103
2400.000000	0.207204
2401.000000	0.212497
2402.000000	0.215991
2403.000000	0.215427
2404.000000	0.216829
2405.000000	0.213499
2406.000000	0.209839
2407.000000	0.207998
2408.000000	0.203383
2409.000000	0.200894
2410.000000	0.200094
2411.000000	0.200538
2412.000000	0.205233
2413.000000	0.212679
2414.000000	0.211270
2415.000000	0.212903
2416.000000	0.221553
2417.000000	0.220290
2418.000000	0.221021
2419.000000	0.220489
2420.000000	0.209713
2421.000000	0.200547
2422.000000	0.193234
2423.000000	0.192104
2424.000000	0.195436
2425.000000	0.200282
2426.000000	0.211211
2427.000000	0.221564
2428.000000	0.222178
2429.000000	0.215681
2430.000000	0.210241
2431.000000	0.203007
2432.000000	0.199837
2433.000000	0.206279
2434.000000	0.212353
2435.000000	0.210389
2436.000000	0.206925
2437.000000	0.206526
2438.000000	0.204126
2439.000000	0.196009
2440.000000	0.191496
2441.000000	0.188890
2442.000000	0.181159
2443.000000	0.187759
2444.000000	0.199491
2445.000000	0.199024
2446.000000	0.204096
2447.000000	0.200977
2448.000000	0.187798
2449.000000	0.188694
2450.000000	0.182270
2451.000000	0.185580
2452.000000	0.202505
2453.000000	0.196248
2454.000000	0.182941
2455.000000	0.174001
2456.000000	0.163185
2457.000000	0.166457
2458.000000	0.195858
2459.000000	0.213352
2460.000000	0.218193
2461.000000	0.220844
2462.000000	0.186081
2463.000000	0.163850
2464.000000	0.160288
2465.000000	0.144754
2466.000000	0.145981
2467.000000	0.135312
2468.000000	0.112975
2469.000000	0.116750
2470.000000	0.121453
2471.000000	0.111252
2472.000000	0.103997
2473.000000	0.091845
2474.000000	0.093368
2475.000000	0.130593
2476.000000	0.168414
2477.000000	0.194673
2478.000000	0.205762
2479.000000	0.206564
2480.000000	0.205283
2481.000000	0.187578
2482.000000	0.187115
2483.000000	0.162268
2484.000000	0.113708
2485.000000	0.124358
2486.000000	0.134610
2487.000000	0.119512
2488.000000	0.158882
2489.000000	0.179897
2490.000000	0.143800
2491.000000	0.169886
2492.000000	0.164052
2493.000000	0.091481
2494.000000	0.089525
2495.000000	0.135636
2496.000000	0.142518
2497.000000	0.194700
2498.000000	0.173200
2499.000000	0.027329
2500.000000	-0.006237
