# Wavelength	NAu-2-80_HEX-10_FV7-10_00001.asd.rts.txt
350.000000	0.070402
351.000000	0.056936
352.000000	0.060131
353.000000	0.061921
354.000000	0.056525
355.000000	0.059282
356.000000	0.069529
357.000000	0.077090
358.000000	0.062497
359.000000	0.062008
360.000000	0.070681
361.000000	0.074418
362.000000	0.076730
363.000000	0.070530
364.000000	0.057191
365.000000	0.061151
366.000000	0.062062
367.000000	0.057942
368.000000	0.062469
369.000000	0.064028
370.000000	0.062747
371.000000	0.061880
372.000000	0.060663
373.000000	0.060733
374.000000	0.062702
375.000000	0.064057
376.000000	0.064467
377.000000	0.064592
378.000000	0.066378
379.000000	0.065597
380.000000	0.064055
381.000000	0.065016
382.000000	0.063207
383.000000	0.062156
384.000000	0.064325
385.000000	0.066948
386.000000	0.068271
387.000000	0.068242
388.000000	0.068270
389.000000	0.069986
390.000000	0.071120
391.000000	0.068420
392.000000	0.065868
393.000000	0.065565
394.000000	0.067762
395.000000	0.068584
396.000000	0.068312
397.000000	0.067447
398.000000	0.066438
399.000000	0.067661
400.000000	0.068979
401.000000	0.066671
402.000000	0.068303
403.000000	0.070090
404.000000	0.068471
405.000000	0.068744
406.000000	0.069534
407.000000	0.069995
408.000000	0.070616
409.000000	0.070489
410.000000	0.070078
411.000000	0.070629
412.000000	0.071067
413.000000	0.070818
414.000000	0.069887
415.000000	0.070805
416.000000	0.071695
417.000000	0.071532
418.000000	0.071703
419.000000	0.071938
420.000000	0.072340
421.000000	0.073340
422.000000	0.073600
423.000000	0.073503
424.000000	0.073931
425.000000	0.074411
426.000000	0.074739
427.000000	0.074850
428.000000	0.074944
429.000000	0.075359
430.000000	0.076075
431.000000	0.076635
432.000000	0.076706
433.000000	0.076631
434.000000	0.077087
435.000000	0.077065
436.000000	0.077327
437.000000	0.078412
438.000000	0.078303
439.000000	0.078103
440.000000	0.078456
441.000000	0.078793
442.000000	0.079365
443.000000	0.079979
444.000000	0.080183
445.000000	0.080488
446.000000	0.080800
447.000000	0.080896
448.000000	0.081300
449.000000	0.082016
450.000000	0.082848
451.000000	0.083200
452.000000	0.083567
453.000000	0.084060
454.000000	0.084434
455.000000	0.084965
456.000000	0.085598
457.000000	0.086094
458.000000	0.086544
459.000000	0.086878
460.000000	0.087059
461.000000	0.087119
462.000000	0.087500
463.000000	0.088121
464.000000	0.088065
465.000000	0.088237
466.000000	0.088727
467.000000	0.089188
468.000000	0.089240
469.000000	0.089304
470.000000	0.089948
471.000000	0.090680
472.000000	0.090983
473.000000	0.090825
474.000000	0.091391
475.000000	0.091851
476.000000	0.092179
477.000000	0.093148
478.000000	0.093457
479.000000	0.093391
480.000000	0.093717
481.000000	0.094025
482.000000	0.094375
483.000000	0.094759
484.000000	0.095016
485.000000	0.095362
486.000000	0.095821
487.000000	0.095791
488.000000	0.095909
489.000000	0.096235
490.000000	0.096460
491.000000	0.096762
492.000000	0.097005
493.000000	0.096982
494.000000	0.096965
495.000000	0.097054
496.000000	0.097239
497.000000	0.097352
498.000000	0.097486
499.000000	0.097649
500.000000	0.097668
501.000000	0.097682
502.000000	0.097775
503.000000	0.097969
504.000000	0.098026
505.000000	0.098135
506.000000	0.098471
507.000000	0.098710
508.000000	0.098964
509.000000	0.099293
510.000000	0.099656
511.000000	0.100066
512.000000	0.100468
513.000000	0.100721
514.000000	0.101024
515.000000	0.101407
516.000000	0.101822
517.000000	0.102284
518.000000	0.102715
519.000000	0.103070
520.000000	0.103633
521.000000	0.104111
522.000000	0.104513
523.000000	0.105334
524.000000	0.106165
525.000000	0.106954
526.000000	0.107833
527.000000	0.108818
528.000000	0.109905
529.000000	0.111102
530.000000	0.112410
531.000000	0.113824
532.000000	0.115293
533.000000	0.116820
534.000000	0.118364
535.000000	0.119913
536.000000	0.121492
537.000000	0.123093
538.000000	0.124631
539.000000	0.126000
540.000000	0.127372
541.000000	0.128765
542.000000	0.130164
543.000000	0.131452
544.000000	0.132693
545.000000	0.133915
546.000000	0.135200
547.000000	0.136487
548.000000	0.137811
549.000000	0.139223
550.000000	0.140656
551.000000	0.142246
552.000000	0.144101
553.000000	0.145869
554.000000	0.147718
555.000000	0.149784
556.000000	0.151930
557.000000	0.154127
558.000000	0.156429
559.000000	0.158809
560.000000	0.161165
561.000000	0.163518
562.000000	0.165858
563.000000	0.168094
564.000000	0.170270
565.000000	0.172377
566.000000	0.174387
567.000000	0.176277
568.000000	0.178022
569.000000	0.179629
570.000000	0.181140
571.000000	0.182532
572.000000	0.183739
573.000000	0.184811
574.000000	0.185758
575.000000	0.186607
576.000000	0.187277
577.000000	0.187835
578.000000	0.188365
579.000000	0.188738
580.000000	0.188971
581.000000	0.189091
582.000000	0.189139
583.000000	0.189196
584.000000	0.189205
585.000000	0.189027
586.000000	0.188826
587.000000	0.188574
588.000000	0.188204
589.000000	0.187717
590.000000	0.187164
591.000000	0.186587
592.000000	0.186006
593.000000	0.185369
594.000000	0.184648
595.000000	0.183835
596.000000	0.183070
597.000000	0.182341
598.000000	0.181505
599.000000	0.180553
600.000000	0.179588
601.000000	0.178662
602.000000	0.177818
603.000000	0.176910
604.000000	0.175919
605.000000	0.175045
606.000000	0.174144
607.000000	0.173225
608.000000	0.172386
609.000000	0.171531
610.000000	0.170613
611.000000	0.169638
612.000000	0.168883
613.000000	0.168144
614.000000	0.167309
615.000000	0.166525
616.000000	0.165754
617.000000	0.165003
618.000000	0.164387
619.000000	0.163719
620.000000	0.162981
621.000000	0.162256
622.000000	0.161610
623.000000	0.161018
624.000000	0.160445
625.000000	0.159869
626.000000	0.159295
627.000000	0.158763
628.000000	0.158374
629.000000	0.157966
630.000000	0.157491
631.000000	0.157106
632.000000	0.156717
633.000000	0.156317
634.000000	0.155920
635.000000	0.155610
636.000000	0.155358
637.000000	0.155135
638.000000	0.154951
639.000000	0.154762
640.000000	0.154613
641.000000	0.154538
642.000000	0.154499
643.000000	0.154469
644.000000	0.154433
645.000000	0.154406
646.000000	0.154412
647.000000	0.154460
648.000000	0.154587
649.000000	0.154777
650.000000	0.154988
651.000000	0.155164
652.000000	0.155384
653.000000	0.155662
654.000000	0.155942
655.000000	0.156317
656.000000	0.156716
657.000000	0.157053
658.000000	0.157493
659.000000	0.157982
660.000000	0.158485
661.000000	0.159015
662.000000	0.159640
663.000000	0.160368
664.000000	0.161119
665.000000	0.161884
666.000000	0.162664
667.000000	0.163451
668.000000	0.164315
669.000000	0.165201
670.000000	0.166097
671.000000	0.167121
672.000000	0.168177
673.000000	0.169243
674.000000	0.170365
675.000000	0.171483
676.000000	0.172651
677.000000	0.173945
678.000000	0.175263
679.000000	0.176581
680.000000	0.177905
681.000000	0.179288
682.000000	0.180745
683.000000	0.182241
684.000000	0.183827
685.000000	0.185488
686.000000	0.187201
687.000000	0.188908
688.000000	0.190684
689.000000	0.192508
690.000000	0.194393
691.000000	0.196359
692.000000	0.198339
693.000000	0.200375
694.000000	0.202515
695.000000	0.204717
696.000000	0.206979
697.000000	0.209309
698.000000	0.211655
699.000000	0.214022
700.000000	0.216431
701.000000	0.218900
702.000000	0.221416
703.000000	0.223957
704.000000	0.226530
705.000000	0.229187
706.000000	0.231906
707.000000	0.234699
708.000000	0.237540
709.000000	0.240414
710.000000	0.243322
711.000000	0.246288
712.000000	0.249290
713.000000	0.252341
714.000000	0.255467
715.000000	0.258588
716.000000	0.261692
717.000000	0.264790
718.000000	0.268021
719.000000	0.271297
720.000000	0.274561
721.000000	0.277930
722.000000	0.281302
723.000000	0.284658
724.000000	0.287945
725.000000	0.291199
726.000000	0.294527
727.000000	0.297904
728.000000	0.301300
729.000000	0.304696
730.000000	0.308035
731.000000	0.311398
732.000000	0.314755
733.000000	0.318134
734.000000	0.321528
735.000000	0.324832
736.000000	0.328116
737.000000	0.331274
738.000000	0.334506
739.000000	0.337799
740.000000	0.340942
741.000000	0.344104
742.000000	0.347296
743.000000	0.350465
744.000000	0.353590
745.000000	0.356621
746.000000	0.359577
747.000000	0.362403
748.000000	0.365236
749.000000	0.367969
750.000000	0.370529
751.000000	0.373151
752.000000	0.375759
753.000000	0.378334
754.000000	0.380869
755.000000	0.383355
756.000000	0.385741
757.000000	0.387943
758.000000	0.390184
759.000000	0.392380
760.000000	0.394424
761.000000	0.396564
762.000000	0.398621
763.000000	0.400539
764.000000	0.402424
765.000000	0.404175
766.000000	0.405920
767.000000	0.407732
768.000000	0.409307
769.000000	0.410812
770.000000	0.412319
771.000000	0.413738
772.000000	0.415147
773.000000	0.416476
774.000000	0.417769
775.000000	0.418981
776.000000	0.420100
777.000000	0.421117
778.000000	0.422119
779.000000	0.423042
780.000000	0.423938
781.000000	0.424944
782.000000	0.425746
783.000000	0.426545
784.000000	0.427373
785.000000	0.428034
786.000000	0.428679
787.000000	0.429364
788.000000	0.429937
789.000000	0.430579
790.000000	0.431172
791.000000	0.431531
792.000000	0.431911
793.000000	0.432251
794.000000	0.432511
795.000000	0.432890
796.000000	0.433254
797.000000	0.433529
798.000000	0.433711
799.000000	0.433864
800.000000	0.434068
801.000000	0.434369
802.000000	0.434599
803.000000	0.434713
804.000000	0.434764
805.000000	0.434792
806.000000	0.434744
807.000000	0.434742
808.000000	0.434759
809.000000	0.434721
810.000000	0.434659
811.000000	0.434596
812.000000	0.434552
813.000000	0.434529
814.000000	0.434478
815.000000	0.434326
816.000000	0.434038
817.000000	0.433817
818.000000	0.433716
819.000000	0.433512
820.000000	0.433349
821.000000	0.433176
822.000000	0.432856
823.000000	0.432621
824.000000	0.432374
825.000000	0.432094
826.000000	0.431897
827.000000	0.431637
828.000000	0.431317
829.000000	0.431085
830.000000	0.430809
831.000000	0.430532
832.000000	0.430156
833.000000	0.429810
834.000000	0.429495
835.000000	0.429236
836.000000	0.429025
837.000000	0.428693
838.000000	0.428280
839.000000	0.427929
840.000000	0.427506
841.000000	0.427119
842.000000	0.426806
843.000000	0.426464
844.000000	0.426099
845.000000	0.425693
846.000000	0.425309
847.000000	0.424936
848.000000	0.424514
849.000000	0.424047
850.000000	0.423621
851.000000	0.423217
852.000000	0.422840
853.000000	0.422388
854.000000	0.421889
855.000000	0.421500
856.000000	0.421124
857.000000	0.420650
858.000000	0.420178
859.000000	0.419680
860.000000	0.419237
861.000000	0.418802
862.000000	0.418339
863.000000	0.417739
864.000000	0.417210
865.000000	0.416736
866.000000	0.416319
867.000000	0.415938
868.000000	0.415546
869.000000	0.415065
870.000000	0.414569
871.000000	0.414057
872.000000	0.413542
873.000000	0.412993
874.000000	0.412605
875.000000	0.412231
876.000000	0.411747
877.000000	0.411001
878.000000	0.410414
879.000000	0.410020
880.000000	0.409599
881.000000	0.409231
882.000000	0.408713
883.000000	0.408143
884.000000	0.407633
885.000000	0.407034
886.000000	0.406452
887.000000	0.405999
888.000000	0.405659
889.000000	0.405226
890.000000	0.404616
891.000000	0.404112
892.000000	0.403733
893.000000	0.403200
894.000000	0.402631
895.000000	0.402312
896.000000	0.401794
897.000000	0.401229
898.000000	0.400909
899.000000	0.400561
900.000000	0.400164
901.000000	0.399722
902.000000	0.399421
903.000000	0.399129
904.000000	0.398806
905.000000	0.398337
906.000000	0.397991
907.000000	0.397545
908.000000	0.397047
909.000000	0.396619
910.000000	0.396084
911.000000	0.395687
912.000000	0.395585
913.000000	0.395182
914.000000	0.394750
915.000000	0.394382
916.000000	0.393830
917.000000	0.393319
918.000000	0.392908
919.000000	0.392558
920.000000	0.392201
921.000000	0.391795
922.000000	0.391373
923.000000	0.390965
924.000000	0.390561
925.000000	0.390187
926.000000	0.389868
927.000000	0.389472
928.000000	0.389063
929.000000	0.388674
930.000000	0.388322
931.000000	0.387940
932.000000	0.387621
933.000000	0.387471
934.000000	0.387447
935.000000	0.386990
936.000000	0.386619
937.000000	0.386589
938.000000	0.386056
939.000000	0.385827
940.000000	0.385756
941.000000	0.385367
942.000000	0.384940
943.000000	0.384617
944.000000	0.384348
945.000000	0.384358
946.000000	0.383996
947.000000	0.383563
948.000000	0.383432
949.000000	0.383151
950.000000	0.382809
951.000000	0.382492
952.000000	0.382397
953.000000	0.382077
954.000000	0.381712
955.000000	0.381392
956.000000	0.381003
957.000000	0.380733
958.000000	0.380481
959.000000	0.380237
960.000000	0.380285
961.000000	0.380202
962.000000	0.379889
963.000000	0.379751
964.000000	0.379616
965.000000	0.379466
966.000000	0.379180
967.000000	0.378918
968.000000	0.378548
969.000000	0.378224
970.000000	0.378290
971.000000	0.378006
972.000000	0.377901
973.000000	0.378003
974.000000	0.377857
975.000000	0.377673
976.000000	0.377431
977.000000	0.377130
978.000000	0.376958
979.000000	0.377066
980.000000	0.377026
981.000000	0.376853
982.000000	0.376808
983.000000	0.376741
984.000000	0.376748
985.000000	0.376973
986.000000	0.376592
987.000000	0.376425
988.000000	0.376795
989.000000	0.376720
990.000000	0.376993
991.000000	0.377131
992.000000	0.376653
993.000000	0.376889
994.000000	0.376845
995.000000	0.376723
996.000000	0.377054
997.000000	0.377128
998.000000	0.376940
999.000000	0.376835
1000.000000	0.377183
1001.000000	0.376679
1002.000000	0.377037
1003.000000	0.377242
1004.000000	0.377268
1005.000000	0.376602
1006.000000	0.376239
1007.000000	0.375956
1008.000000	0.375964
1009.000000	0.376322
1010.000000	0.376209
1011.000000	0.376725
1012.000000	0.377798
1013.000000	0.378137
1014.000000	0.378063
1015.000000	0.377780
1016.000000	0.377575
1017.000000	0.376880
1018.000000	0.377012
1019.000000	0.377311
1020.000000	0.378145
1021.000000	0.378071
1022.000000	0.378140
1023.000000	0.378601
1024.000000	0.378672
1025.000000	0.379146
1026.000000	0.379860
1027.000000	0.379313
1028.000000	0.378572
1029.000000	0.378807
1030.000000	0.379054
1031.000000	0.379437
1032.000000	0.379719
1033.000000	0.379212
1034.000000	0.379262
1035.000000	0.379337
1036.000000	0.379746
1037.000000	0.380827
1038.000000	0.381295
1039.000000	0.381807
1040.000000	0.382127
1041.000000	0.381919
1042.000000	0.381751
1043.000000	0.382136
1044.000000	0.382488
1045.000000	0.382924
1046.000000	0.383386
1047.000000	0.383729
1048.000000	0.383714
1049.000000	0.383913
1050.000000	0.384246
1051.000000	0.384546
1052.000000	0.384723
1053.000000	0.384858
1054.000000	0.385468
1055.000000	0.385756
1056.000000	0.385707
1057.000000	0.386000
1058.000000	0.386261
1059.000000	0.385869
1060.000000	0.386035
1061.000000	0.386117
1062.000000	0.386594
1063.000000	0.387549
1064.000000	0.388002
1065.000000	0.388286
1066.000000	0.388881
1067.000000	0.389561
1068.000000	0.389740
1069.000000	0.389592
1070.000000	0.389809
1071.000000	0.389990
1072.000000	0.390056
1073.000000	0.390250
1074.000000	0.391034
1075.000000	0.391270
1076.000000	0.390670
1077.000000	0.390662
1078.000000	0.391126
1079.000000	0.391505
1080.000000	0.392139
1081.000000	0.392671
1082.000000	0.393465
1083.000000	0.393888
1084.000000	0.394131
1085.000000	0.394461
1086.000000	0.394556
1087.000000	0.394863
1088.000000	0.395375
1089.000000	0.395683
1090.000000	0.395981
1091.000000	0.395962
1092.000000	0.396036
1093.000000	0.396109
1094.000000	0.396295
1095.000000	0.396384
1096.000000	0.396812
1097.000000	0.397487
1098.000000	0.398006
1099.000000	0.398781
1100.000000	0.399191
1101.000000	0.399113
1102.000000	0.399386
1103.000000	0.399612
1104.000000	0.399905
1105.000000	0.400431
1106.000000	0.400899
1107.000000	0.401205
1108.000000	0.401558
1109.000000	0.402155
1110.000000	0.402558
1111.000000	0.402852
1112.000000	0.403023
1113.000000	0.403319
1114.000000	0.403581
1115.000000	0.403791
1116.000000	0.403975
1117.000000	0.404324
1118.000000	0.404731
1119.000000	0.404913
1120.000000	0.405125
1121.000000	0.405359
1122.000000	0.405531
1123.000000	0.405914
1124.000000	0.406190
1125.000000	0.406524
1126.000000	0.406781
1127.000000	0.406930
1128.000000	0.407047
1129.000000	0.407251
1130.000000	0.407403
1131.000000	0.407436
1132.000000	0.407533
1133.000000	0.407798
1134.000000	0.407954
1135.000000	0.407904
1136.000000	0.408032
1137.000000	0.408324
1138.000000	0.408349
1139.000000	0.408312
1140.000000	0.408552
1141.000000	0.408767
1142.000000	0.408919
1143.000000	0.409125
1144.000000	0.409477
1145.000000	0.409613
1146.000000	0.409499
1147.000000	0.409734
1148.000000	0.410147
1149.000000	0.410283
1150.000000	0.410432
1151.000000	0.410550
1152.000000	0.410302
1153.000000	0.410474
1154.000000	0.410898
1155.000000	0.411084
1156.000000	0.411370
1157.000000	0.411550
1158.000000	0.411359
1159.000000	0.411438
1160.000000	0.411557
1161.000000	0.411808
1162.000000	0.412353
1163.000000	0.412992
1164.000000	0.413391
1165.000000	0.413733
1166.000000	0.414050
1167.000000	0.414136
1168.000000	0.414279
1169.000000	0.414464
1170.000000	0.414735
1171.000000	0.415066
1172.000000	0.415362
1173.000000	0.415690
1174.000000	0.415967
1175.000000	0.416059
1176.000000	0.416268
1177.000000	0.416794
1178.000000	0.417073
1179.000000	0.417181
1180.000000	0.417310
1181.000000	0.417441
1182.000000	0.417559
1183.000000	0.417870
1184.000000	0.418225
1185.000000	0.418481
1186.000000	0.418690
1187.000000	0.418958
1188.000000	0.419223
1189.000000	0.419427
1190.000000	0.419713
1191.000000	0.419954
1192.000000	0.420209
1193.000000	0.420636
1194.000000	0.421043
1195.000000	0.421399
1196.000000	0.421718
1197.000000	0.422013
1198.000000	0.422296
1199.000000	0.422543
1200.000000	0.422709
1201.000000	0.422906
1202.000000	0.423235
1203.000000	0.423599
1204.000000	0.423854
1205.000000	0.424192
1206.000000	0.424329
1207.000000	0.424300
1208.000000	0.424424
1209.000000	0.424642
1210.000000	0.424904
1211.000000	0.425302
1212.000000	0.425596
1213.000000	0.425913
1214.000000	0.426220
1215.000000	0.426521
1216.000000	0.426724
1217.000000	0.426738
1218.000000	0.426986
1219.000000	0.427422
1220.000000	0.427620
1221.000000	0.427991
1222.000000	0.428309
1223.000000	0.428438
1224.000000	0.428825
1225.000000	0.429349
1226.000000	0.429655
1227.000000	0.429710
1228.000000	0.429949
1229.000000	0.430116
1230.000000	0.430148
1231.000000	0.430249
1232.000000	0.430558
1233.000000	0.430886
1234.000000	0.431171
1235.000000	0.431492
1236.000000	0.431832
1237.000000	0.432195
1238.000000	0.432474
1239.000000	0.432749
1240.000000	0.433080
1241.000000	0.433303
1242.000000	0.433444
1243.000000	0.433665
1244.000000	0.433946
1245.000000	0.434339
1246.000000	0.434796
1247.000000	0.435279
1248.000000	0.435685
1249.000000	0.435945
1250.000000	0.436102
1251.000000	0.436312
1252.000000	0.436556
1253.000000	0.436891
1254.000000	0.437138
1255.000000	0.437407
1256.000000	0.437650
1257.000000	0.437771
1258.000000	0.438158
1259.000000	0.438739
1260.000000	0.439030
1261.000000	0.439124
1262.000000	0.439344
1263.000000	0.439429
1264.000000	0.439598
1265.000000	0.440021
1266.000000	0.440455
1267.000000	0.440881
1268.000000	0.441212
1269.000000	0.441287
1270.000000	0.441621
1271.000000	0.441948
1272.000000	0.442192
1273.000000	0.442704
1274.000000	0.443144
1275.000000	0.443397
1276.000000	0.443450
1277.000000	0.443783
1278.000000	0.443983
1279.000000	0.444270
1280.000000	0.444677
1281.000000	0.444931
1282.000000	0.445160
1283.000000	0.445514
1284.000000	0.445856
1285.000000	0.446127
1286.000000	0.446381
1287.000000	0.446509
1288.000000	0.446709
1289.000000	0.446831
1290.000000	0.446907
1291.000000	0.447175
1292.000000	0.447413
1293.000000	0.447538
1294.000000	0.447832
1295.000000	0.448113
1296.000000	0.448272
1297.000000	0.448524
1298.000000	0.448774
1299.000000	0.448958
1300.000000	0.449085
1301.000000	0.449118
1302.000000	0.449149
1303.000000	0.449235
1304.000000	0.449351
1305.000000	0.449681
1306.000000	0.449852
1307.000000	0.450069
1308.000000	0.450258
1309.000000	0.450386
1310.000000	0.450524
1311.000000	0.450817
1312.000000	0.450695
1313.000000	0.450521
1314.000000	0.450465
1315.000000	0.450323
1316.000000	0.450360
1317.000000	0.450513
1318.000000	0.450645
1319.000000	0.450608
1320.000000	0.450607
1321.000000	0.450571
1322.000000	0.450450
1323.000000	0.450436
1324.000000	0.450585
1325.000000	0.450827
1326.000000	0.451061
1327.000000	0.451201
1328.000000	0.451387
1329.000000	0.451466
1330.000000	0.451378
1331.000000	0.451445
1332.000000	0.451719
1333.000000	0.451810
1334.000000	0.451983
1335.000000	0.452154
1336.000000	0.452138
1337.000000	0.452163
1338.000000	0.452179
1339.000000	0.452151
1340.000000	0.452083
1341.000000	0.452161
1342.000000	0.452003
1343.000000	0.451782
1344.000000	0.451674
1345.000000	0.451586
1346.000000	0.451746
1347.000000	0.451807
1348.000000	0.451875
1349.000000	0.451804
1350.000000	0.451780
1351.000000	0.451842
1352.000000	0.451872
1353.000000	0.451962
1354.000000	0.452079
1355.000000	0.452033
1356.000000	0.451934
1357.000000	0.451745
1358.000000	0.451583
1359.000000	0.451394
1360.000000	0.451262
1361.000000	0.451311
1362.000000	0.451238
1363.000000	0.451078
1364.000000	0.450933
1365.000000	0.450694
1366.000000	0.450447
1367.000000	0.450138
1368.000000	0.449943
1369.000000	0.449865
1370.000000	0.449544
1371.000000	0.449146
1372.000000	0.448648
1373.000000	0.447981
1374.000000	0.447441
1375.000000	0.446803
1376.000000	0.446185
1377.000000	0.445571
1378.000000	0.444766
1379.000000	0.443828
1380.000000	0.442801
1381.000000	0.441653
1382.000000	0.440344
1383.000000	0.438884
1384.000000	0.437146
1385.000000	0.435264
1386.000000	0.433325
1387.000000	0.431222
1388.000000	0.429053
1389.000000	0.426771
1390.000000	0.424307
1391.000000	0.421554
1392.000000	0.418543
1393.000000	0.415400
1394.000000	0.411999
1395.000000	0.408744
1396.000000	0.405521
1397.000000	0.402088
1398.000000	0.398462
1399.000000	0.394972
1400.000000	0.391280
1401.000000	0.387809
1402.000000	0.384511
1403.000000	0.381383
1404.000000	0.378497
1405.000000	0.375780
1406.000000	0.373309
1407.000000	0.371164
1408.000000	0.369094
1409.000000	0.367361
1410.000000	0.366052
1411.000000	0.364784
1412.000000	0.363581
1413.000000	0.362651
1414.000000	0.361793
1415.000000	0.361132
1416.000000	0.360770
1417.000000	0.360416
1418.000000	0.360173
1419.000000	0.360071
1420.000000	0.359681
1421.000000	0.359489
1422.000000	0.359376
1423.000000	0.359263
1424.000000	0.359281
1425.000000	0.359239
1426.000000	0.359017
1427.000000	0.358896
1428.000000	0.358827
1429.000000	0.358744
1430.000000	0.358873
1431.000000	0.358936
1432.000000	0.358968
1433.000000	0.359048
1434.000000	0.359215
1435.000000	0.359432
1436.000000	0.359731
1437.000000	0.360086
1438.000000	0.360489
1439.000000	0.360973
1440.000000	0.361609
1441.000000	0.362273
1442.000000	0.363258
1443.000000	0.364405
1444.000000	0.365637
1445.000000	0.367085
1446.000000	0.368844
1447.000000	0.370564
1448.000000	0.372264
1449.000000	0.373994
1450.000000	0.375516
1451.000000	0.376942
1452.000000	0.378252
1453.000000	0.379397
1454.000000	0.380512
1455.000000	0.381599
1456.000000	0.382721
1457.000000	0.383894
1458.000000	0.384846
1459.000000	0.385648
1460.000000	0.386446
1461.000000	0.387065
1462.000000	0.387696
1463.000000	0.388407
1464.000000	0.389082
1465.000000	0.389844
1466.000000	0.390640
1467.000000	0.391475
1468.000000	0.392368
1469.000000	0.393228
1470.000000	0.394071
1471.000000	0.395020
1472.000000	0.395779
1473.000000	0.396654
1474.000000	0.397671
1475.000000	0.398628
1476.000000	0.399629
1477.000000	0.400652
1478.000000	0.401611
1479.000000	0.402575
1480.000000	0.403541
1481.000000	0.404454
1482.000000	0.405412
1483.000000	0.406336
1484.000000	0.407246
1485.000000	0.408101
1486.000000	0.408868
1487.000000	0.409694
1488.000000	0.410472
1489.000000	0.411343
1490.000000	0.412185
1491.000000	0.413063
1492.000000	0.413920
1493.000000	0.414749
1494.000000	0.415556
1495.000000	0.416244
1496.000000	0.416817
1497.000000	0.417491
1498.000000	0.418189
1499.000000	0.418818
1500.000000	0.419461
1501.000000	0.420082
1502.000000	0.420572
1503.000000	0.421149
1504.000000	0.421870
1505.000000	0.422491
1506.000000	0.423121
1507.000000	0.423681
1508.000000	0.424167
1509.000000	0.424686
1510.000000	0.425252
1511.000000	0.425806
1512.000000	0.426267
1513.000000	0.426752
1514.000000	0.427285
1515.000000	0.427743
1516.000000	0.428191
1517.000000	0.428610
1518.000000	0.428957
1519.000000	0.429225
1520.000000	0.429621
1521.000000	0.429963
1522.000000	0.430312
1523.000000	0.430745
1524.000000	0.431065
1525.000000	0.431464
1526.000000	0.431946
1527.000000	0.432390
1528.000000	0.432813
1529.000000	0.433195
1530.000000	0.433383
1531.000000	0.433671
1532.000000	0.434152
1533.000000	0.434648
1534.000000	0.435206
1535.000000	0.435620
1536.000000	0.435829
1537.000000	0.436122
1538.000000	0.436380
1539.000000	0.436645
1540.000000	0.437054
1541.000000	0.437540
1542.000000	0.437990
1543.000000	0.438456
1544.000000	0.438870
1545.000000	0.439227
1546.000000	0.439642
1547.000000	0.439914
1548.000000	0.440115
1549.000000	0.440409
1550.000000	0.440608
1551.000000	0.440886
1552.000000	0.441294
1553.000000	0.441540
1554.000000	0.441690
1555.000000	0.441893
1556.000000	0.442124
1557.000000	0.442270
1558.000000	0.442440
1559.000000	0.442573
1560.000000	0.442695
1561.000000	0.442813
1562.000000	0.442917
1563.000000	0.443095
1564.000000	0.443240
1565.000000	0.443297
1566.000000	0.443407
1567.000000	0.443744
1568.000000	0.443926
1569.000000	0.444170
1570.000000	0.444332
1571.000000	0.444363
1572.000000	0.444438
1573.000000	0.444505
1574.000000	0.444615
1575.000000	0.444768
1576.000000	0.444938
1577.000000	0.445156
1578.000000	0.445311
1579.000000	0.445506
1580.000000	0.445673
1581.000000	0.445891
1582.000000	0.446058
1583.000000	0.446229
1584.000000	0.446311
1585.000000	0.446448
1586.000000	0.446597
1587.000000	0.446662
1588.000000	0.446757
1589.000000	0.446890
1590.000000	0.447006
1591.000000	0.447223
1592.000000	0.447410
1593.000000	0.447579
1594.000000	0.447722
1595.000000	0.447900
1596.000000	0.448066
1597.000000	0.448307
1598.000000	0.448460
1599.000000	0.448612
1600.000000	0.448662
1601.000000	0.448704
1602.000000	0.448803
1603.000000	0.448943
1604.000000	0.449057
1605.000000	0.449190
1606.000000	0.449347
1607.000000	0.449631
1608.000000	0.449763
1609.000000	0.449927
1610.000000	0.450029
1611.000000	0.450004
1612.000000	0.450090
1613.000000	0.450448
1614.000000	0.450581
1615.000000	0.450726
1616.000000	0.450835
1617.000000	0.450685
1618.000000	0.450761
1619.000000	0.450892
1620.000000	0.451043
1621.000000	0.451412
1622.000000	0.451657
1623.000000	0.451777
1624.000000	0.451948
1625.000000	0.451863
1626.000000	0.451927
1627.000000	0.452108
1628.000000	0.452312
1629.000000	0.452630
1630.000000	0.452817
1631.000000	0.452820
1632.000000	0.452887
1633.000000	0.452904
1634.000000	0.452986
1635.000000	0.453240
1636.000000	0.453324
1637.000000	0.453353
1638.000000	0.453454
1639.000000	0.453635
1640.000000	0.453683
1641.000000	0.453786
1642.000000	0.453872
1643.000000	0.453864
1644.000000	0.453964
1645.000000	0.454232
1646.000000	0.454315
1647.000000	0.454369
1648.000000	0.454366
1649.000000	0.454367
1650.000000	0.454449
1651.000000	0.454591
1652.000000	0.454789
1653.000000	0.455029
1654.000000	0.455199
1655.000000	0.455248
1656.000000	0.455261
1657.000000	0.455324
1658.000000	0.455402
1659.000000	0.455665
1660.000000	0.455812
1661.000000	0.455766
1662.000000	0.455854
1663.000000	0.455886
1664.000000	0.456025
1665.000000	0.456316
1666.000000	0.456537
1667.000000	0.456635
1668.000000	0.456738
1669.000000	0.456768
1670.000000	0.456748
1671.000000	0.456856
1672.000000	0.456993
1673.000000	0.457038
1674.000000	0.457212
1675.000000	0.457423
1676.000000	0.457622
1677.000000	0.457744
1678.000000	0.457633
1679.000000	0.457671
1680.000000	0.457551
1681.000000	0.457313
1682.000000	0.457492
1683.000000	0.457547
1684.000000	0.457361
1685.000000	0.457534
1686.000000	0.457537
1687.000000	0.457251
1688.000000	0.457229
1689.000000	0.457331
1690.000000	0.457314
1691.000000	0.457446
1692.000000	0.457427
1693.000000	0.457370
1694.000000	0.457247
1695.000000	0.457318
1696.000000	0.457611
1697.000000	0.457630
1698.000000	0.457573
1699.000000	0.457689
1700.000000	0.457803
1701.000000	0.457959
1702.000000	0.458038
1703.000000	0.458061
1704.000000	0.458079
1705.000000	0.458075
1706.000000	0.458164
1707.000000	0.458219
1708.000000	0.458136
1709.000000	0.458034
1710.000000	0.458181
1711.000000	0.458146
1712.000000	0.457953
1713.000000	0.457843
1714.000000	0.457708
1715.000000	0.457659
1716.000000	0.457756
1717.000000	0.457797
1718.000000	0.457810
1719.000000	0.457771
1720.000000	0.457831
1721.000000	0.457745
1722.000000	0.457522
1723.000000	0.457395
1724.000000	0.457232
1725.000000	0.457175
1726.000000	0.457140
1727.000000	0.457049
1728.000000	0.456852
1729.000000	0.456653
1730.000000	0.456570
1731.000000	0.456564
1732.000000	0.456685
1733.000000	0.456753
1734.000000	0.456659
1735.000000	0.456622
1736.000000	0.456466
1737.000000	0.456457
1738.000000	0.456617
1739.000000	0.456604
1740.000000	0.456573
1741.000000	0.456405
1742.000000	0.456104
1743.000000	0.455949
1744.000000	0.455697
1745.000000	0.455677
1746.000000	0.455798
1747.000000	0.455923
1748.000000	0.455879
1749.000000	0.455677
1750.000000	0.455434
1751.000000	0.455281
1752.000000	0.455241
1753.000000	0.455026
1754.000000	0.454827
1755.000000	0.454569
1756.000000	0.454348
1757.000000	0.454103
1758.000000	0.453946
1759.000000	0.453902
1760.000000	0.453762
1761.000000	0.453485
1762.000000	0.453340
1763.000000	0.453256
1764.000000	0.453163
1765.000000	0.453079
1766.000000	0.453087
1767.000000	0.453024
1768.000000	0.452915
1769.000000	0.453089
1770.000000	0.453077
1771.000000	0.452777
1772.000000	0.452648
1773.000000	0.452411
1774.000000	0.452349
1775.000000	0.452612
1776.000000	0.452557
1777.000000	0.452365
1778.000000	0.452236
1779.000000	0.451946
1780.000000	0.451747
1781.000000	0.451591
1782.000000	0.451484
1783.000000	0.451424
1784.000000	0.451504
1785.000000	0.451335
1786.000000	0.451241
1787.000000	0.451243
1788.000000	0.451355
1789.000000	0.451422
1790.000000	0.451386
1791.000000	0.451258
1792.000000	0.451145
1793.000000	0.451013
1794.000000	0.450853
1795.000000	0.450723
1796.000000	0.450503
1797.000000	0.450436
1798.000000	0.450435
1799.000000	0.450471
1800.000000	0.450741
1801.000000	0.450601
1802.000000	0.450635
1803.000000	0.450411
1804.000000	0.450443
1805.000000	0.451289
1806.000000	0.451495
1807.000000	0.450598
1808.000000	0.450899
1809.000000	0.452270
1810.000000	0.452675
1811.000000	0.453279
1812.000000	0.454808
1813.000000	0.454981
1814.000000	0.454105
1815.000000	0.453845
1816.000000	0.453742
1817.000000	0.452776
1818.000000	0.451558
1819.000000	0.450341
1820.000000	0.448427
1821.000000	0.447099
1822.000000	0.446768
1823.000000	0.447129
1824.000000	0.447798
1825.000000	0.449891
1826.000000	0.450839
1827.000000	0.451606
1828.000000	0.452281
1829.000000	0.451949
1830.000000	0.451383
1831.000000	0.450747
1832.000000	0.449588
1833.000000	0.448850
1834.000000	0.448083
1835.000000	0.447427
1836.000000	0.446868
1837.000000	0.446357
1838.000000	0.445421
1839.000000	0.444865
1840.000000	0.445328
1841.000000	0.445751
1842.000000	0.445911
1843.000000	0.446671
1844.000000	0.446579
1845.000000	0.445249
1846.000000	0.444847
1847.000000	0.444476
1848.000000	0.444194
1849.000000	0.443962
1850.000000	0.443498
1851.000000	0.442745
1852.000000	0.441363
1853.000000	0.440532
1854.000000	0.439428
1855.000000	0.438494
1856.000000	0.437790
1857.000000	0.436778
1858.000000	0.435945
1859.000000	0.434675
1860.000000	0.432891
1861.000000	0.430920
1862.000000	0.429062
1863.000000	0.427086
1864.000000	0.425228
1865.000000	0.423898
1866.000000	0.421637
1867.000000	0.418637
1868.000000	0.415894
1869.000000	0.412688
1870.000000	0.410032
1871.000000	0.407782
1872.000000	0.404364
1873.000000	0.400878
1874.000000	0.396699
1875.000000	0.392967
1876.000000	0.389149
1877.000000	0.384827
1878.000000	0.379878
1879.000000	0.373875
1880.000000	0.367461
1881.000000	0.361131
1882.000000	0.354882
1883.000000	0.349060
1884.000000	0.342736
1885.000000	0.335824
1886.000000	0.328606
1887.000000	0.321211
1888.000000	0.313071
1889.000000	0.304184
1890.000000	0.296094
1891.000000	0.288640
1892.000000	0.280893
1893.000000	0.273051
1894.000000	0.265162
1895.000000	0.257536
1896.000000	0.249602
1897.000000	0.242166
1898.000000	0.235863
1899.000000	0.230276
1900.000000	0.224472
1901.000000	0.219184
1902.000000	0.214703
1903.000000	0.210873
1904.000000	0.207996
1905.000000	0.206266
1906.000000	0.204940
1907.000000	0.204498
1908.000000	0.204118
1909.000000	0.204355
1910.000000	0.205168
1911.000000	0.205962
1912.000000	0.207086
1913.000000	0.208253
1914.000000	0.209635
1915.000000	0.211673
1916.000000	0.213899
1917.000000	0.216230
1918.000000	0.219250
1919.000000	0.222066
1920.000000	0.224185
1921.000000	0.226534
1922.000000	0.228184
1923.000000	0.229398
1924.000000	0.230410
1925.000000	0.230945
1926.000000	0.232055
1927.000000	0.233489
1928.000000	0.234683
1929.000000	0.235996
1930.000000	0.237297
1931.000000	0.238494
1932.000000	0.239526
1933.000000	0.240938
1934.000000	0.242570
1935.000000	0.243257
1936.000000	0.243972
1937.000000	0.244768
1938.000000	0.244844
1939.000000	0.245272
1940.000000	0.246056
1941.000000	0.246823
1942.000000	0.247448
1943.000000	0.248529
1944.000000	0.249734
1945.000000	0.250798
1946.000000	0.251114
1947.000000	0.251134
1948.000000	0.251225
1949.000000	0.251273
1950.000000	0.251437
1951.000000	0.251582
1952.000000	0.251923
1953.000000	0.252038
1954.000000	0.252463
1955.000000	0.253044
1956.000000	0.253703
1957.000000	0.254637
1958.000000	0.254897
1959.000000	0.255128
1960.000000	0.255561
1961.000000	0.255758
1962.000000	0.256036
1963.000000	0.256431
1964.000000	0.256989
1965.000000	0.257586
1966.000000	0.258595
1967.000000	0.259830
1968.000000	0.260688
1969.000000	0.261488
1970.000000	0.261822
1971.000000	0.262088
1972.000000	0.262885
1973.000000	0.263279
1974.000000	0.263398
1975.000000	0.264007
1976.000000	0.264575
1977.000000	0.265778
1978.000000	0.267022
1979.000000	0.267902
1980.000000	0.268953
1981.000000	0.269339
1982.000000	0.269704
1983.000000	0.270777
1984.000000	0.271882
1985.000000	0.273247
1986.000000	0.274513
1987.000000	0.276064
1988.000000	0.277564
1989.000000	0.278508
1990.000000	0.279360
1991.000000	0.279951
1992.000000	0.280688
1993.000000	0.281976
1994.000000	0.282872
1995.000000	0.283789
1996.000000	0.285050
1997.000000	0.286024
1998.000000	0.286832
1999.000000	0.287921
2000.000000	0.289278
2001.000000	0.290027
2002.000000	0.290605
2003.000000	0.291544
2004.000000	0.292618
2005.000000	0.293694
2006.000000	0.295669
2007.000000	0.297445
2008.000000	0.299100
2009.000000	0.300717
2010.000000	0.302204
2011.000000	0.303683
2012.000000	0.304916
2013.000000	0.305639
2014.000000	0.306529
2015.000000	0.308061
2016.000000	0.308769
2017.000000	0.309848
2018.000000	0.310956
2019.000000	0.311589
2020.000000	0.312368
2021.000000	0.313495
2022.000000	0.315155
2023.000000	0.316261
2024.000000	0.316982
2025.000000	0.318507
2026.000000	0.320247
2027.000000	0.321670
2028.000000	0.323099
2029.000000	0.324532
2030.000000	0.324958
2031.000000	0.325423
2032.000000	0.326792
2033.000000	0.328179
2034.000000	0.329405
2035.000000	0.330921
2036.000000	0.331870
2037.000000	0.332468
2038.000000	0.333556
2039.000000	0.334643
2040.000000	0.336012
2041.000000	0.337710
2042.000000	0.338920
2043.000000	0.339888
2044.000000	0.340413
2045.000000	0.340556
2046.000000	0.340846
2047.000000	0.341351
2048.000000	0.341670
2049.000000	0.342672
2050.000000	0.343962
2051.000000	0.344849
2052.000000	0.345801
2053.000000	0.346447
2054.000000	0.346979
2055.000000	0.347642
2056.000000	0.348328
2057.000000	0.349275
2058.000000	0.349948
2059.000000	0.350779
2060.000000	0.351541
2061.000000	0.352310
2062.000000	0.352719
2063.000000	0.353098
2064.000000	0.353185
2065.000000	0.353066
2066.000000	0.353210
2067.000000	0.353609
2068.000000	0.354239
2069.000000	0.354880
2070.000000	0.355256
2071.000000	0.355805
2072.000000	0.356472
2073.000000	0.357462
2074.000000	0.358661
2075.000000	0.359546
2076.000000	0.360404
2077.000000	0.361008
2078.000000	0.361463
2079.000000	0.361619
2080.000000	0.361403
2081.000000	0.361658
2082.000000	0.361870
2083.000000	0.361956
2084.000000	0.363133
2085.000000	0.363615
2086.000000	0.364071
2087.000000	0.365074
2088.000000	0.365120
2089.000000	0.365424
2090.000000	0.366173
2091.000000	0.367324
2092.000000	0.368001
2093.000000	0.369178
2094.000000	0.369755
2095.000000	0.369603
2096.000000	0.369836
2097.000000	0.369923
2098.000000	0.370110
2099.000000	0.370553
2100.000000	0.371140
2101.000000	0.372476
2102.000000	0.373065
2103.000000	0.373159
2104.000000	0.373633
2105.000000	0.373955
2106.000000	0.373691
2107.000000	0.374147
2108.000000	0.375169
2109.000000	0.375967
2110.000000	0.376677
2111.000000	0.377483
2112.000000	0.378799
2113.000000	0.378550
2114.000000	0.378452
2115.000000	0.378778
2116.000000	0.378970
2117.000000	0.379060
2118.000000	0.379823
2119.000000	0.380258
2120.000000	0.380409
2121.000000	0.380280
2122.000000	0.380406
2123.000000	0.380127
2124.000000	0.380302
2125.000000	0.380834
2126.000000	0.381359
2127.000000	0.382531
2128.000000	0.382964
2129.000000	0.383003
2130.000000	0.382879
2131.000000	0.382035
2132.000000	0.381823
2133.000000	0.383154
2134.000000	0.384325
2135.000000	0.385456
2136.000000	0.386601
2137.000000	0.387092
2138.000000	0.386798
2139.000000	0.386768
2140.000000	0.386270
2141.000000	0.386213
2142.000000	0.386074
2143.000000	0.386020
2144.000000	0.386518
2145.000000	0.387252
2146.000000	0.388171
2147.000000	0.389923
2148.000000	0.391248
2149.000000	0.391131
2150.000000	0.391420
2151.000000	0.390569
2152.000000	0.389474
2153.000000	0.389600
2154.000000	0.389229
2155.000000	0.388513
2156.000000	0.388424
2157.000000	0.388744
2158.000000	0.389047
2159.000000	0.389727
2160.000000	0.390502
2161.000000	0.391741
2162.000000	0.392276
2163.000000	0.392234
2164.000000	0.392341
2165.000000	0.391765
2166.000000	0.391829
2167.000000	0.392732
2168.000000	0.393422
2169.000000	0.393366
2170.000000	0.392474
2171.000000	0.391605
2172.000000	0.389780
2173.000000	0.388819
2174.000000	0.387992
2175.000000	0.387627
2176.000000	0.387479
2177.000000	0.387650
2178.000000	0.388539
2179.000000	0.389339
2180.000000	0.390652
2181.000000	0.391730
2182.000000	0.392073
2183.000000	0.392528
2184.000000	0.392452
2185.000000	0.390636
2186.000000	0.389517
2187.000000	0.388743
2188.000000	0.388052
2189.000000	0.388279
2190.000000	0.388048
2191.000000	0.387117
2192.000000	0.386529
2193.000000	0.385471
2194.000000	0.385461
2195.000000	0.387290
2196.000000	0.386800
2197.000000	0.385053
2198.000000	0.384084
2199.000000	0.381122
2200.000000	0.380254
2201.000000	0.381809
2202.000000	0.382822
2203.000000	0.384310
2204.000000	0.385444
2205.000000	0.385844
2206.000000	0.387190
2207.000000	0.387463
2208.000000	0.388381
2209.000000	0.389019
2210.000000	0.389244
2211.000000	0.388751
2212.000000	0.387182
2213.000000	0.386163
2214.000000	0.384404
2215.000000	0.383448
2216.000000	0.384394
2217.000000	0.383025
2218.000000	0.379890
2219.000000	0.378818
2220.000000	0.376956
2221.000000	0.375656
2222.000000	0.376254
2223.000000	0.376417
2224.000000	0.375909
2225.000000	0.376656
2226.000000	0.377149
2227.000000	0.375838
2228.000000	0.374978
2229.000000	0.372459
2230.000000	0.367857
2231.000000	0.365113
2232.000000	0.363002
2233.000000	0.359875
2234.000000	0.359013
2235.000000	0.360919
2236.000000	0.360906
2237.000000	0.360291
2238.000000	0.360383
2239.000000	0.360258
2240.000000	0.360415
2241.000000	0.361858
2242.000000	0.361136
2243.000000	0.358653
2244.000000	0.357563
2245.000000	0.355795
2246.000000	0.354732
2247.000000	0.355739
2248.000000	0.355302
2249.000000	0.354209
2250.000000	0.352429
2251.000000	0.350678
2252.000000	0.347330
2253.000000	0.345506
2254.000000	0.344706
2255.000000	0.344372
2256.000000	0.349209
2257.000000	0.351645
2258.000000	0.351866
2259.000000	0.353493
2260.000000	0.350465
2261.000000	0.349424
2262.000000	0.349226
2263.000000	0.348487
2264.000000	0.346870
2265.000000	0.346828
2266.000000	0.347977
2267.000000	0.346216
2268.000000	0.344052
2269.000000	0.342359
2270.000000	0.338990
2271.000000	0.336328
2272.000000	0.333937
2273.000000	0.332375
2274.000000	0.330597
2275.000000	0.329150
2276.000000	0.329544
2277.000000	0.329277
2278.000000	0.326500
2279.000000	0.321310
2280.000000	0.314260
2281.000000	0.309286
2282.000000	0.306078
2283.000000	0.301748
2284.000000	0.297561
2285.000000	0.292209
2286.000000	0.286011
2287.000000	0.279904
2288.000000	0.276486
2289.000000	0.276802
2290.000000	0.274954
2291.000000	0.275607
2292.000000	0.276386
2293.000000	0.271433
2294.000000	0.269585
2295.000000	0.268639
2296.000000	0.267548
2297.000000	0.266897
2298.000000	0.267070
2299.000000	0.266516
2300.000000	0.267852
2301.000000	0.270827
2302.000000	0.273675
2303.000000	0.278765
2304.000000	0.282294
2305.000000	0.285721
2306.000000	0.287876
2307.000000	0.289654
2308.000000	0.288321
2309.000000	0.287515
2310.000000	0.289685
2311.000000	0.291996
2312.000000	0.295473
2313.000000	0.300864
2314.000000	0.304166
2315.000000	0.307960
2316.000000	0.310337
2317.000000	0.310817
2318.000000	0.312226
2319.000000	0.310725
2320.000000	0.310047
2321.000000	0.309910
2322.000000	0.307858
2323.000000	0.307504
2324.000000	0.309018
2325.000000	0.312649
2326.000000	0.313169
2327.000000	0.312973
2328.000000	0.314550
2329.000000	0.313464
2330.000000	0.313850
2331.000000	0.314978
2332.000000	0.318037
2333.000000	0.321625
2334.000000	0.322631
2335.000000	0.322189
2336.000000	0.318917
2337.000000	0.316208
2338.000000	0.310071
2339.000000	0.308723
2340.000000	0.310297
2341.000000	0.309554
2342.000000	0.311143
2343.000000	0.311186
2344.000000	0.309680
2345.000000	0.309020
2346.000000	0.307516
2347.000000	0.305249
2348.000000	0.302240
2349.000000	0.300567
2350.000000	0.297249
2351.000000	0.297429
2352.000000	0.298197
2353.000000	0.296906
2354.000000	0.297591
2355.000000	0.297503
2356.000000	0.295605
2357.000000	0.294706
2358.000000	0.290810
2359.000000	0.288738
2360.000000	0.289747
2361.000000	0.286540
2362.000000	0.283985
2363.000000	0.282811
2364.000000	0.277837
2365.000000	0.275192
2366.000000	0.278175
2367.000000	0.279221
2368.000000	0.278679
2369.000000	0.279556
2370.000000	0.276293
2371.000000	0.272284
2372.000000	0.271041
2373.000000	0.268879
2374.000000	0.262389
2375.000000	0.257281
2376.000000	0.255866
2377.000000	0.251293
2378.000000	0.253690
2379.000000	0.258281
2380.000000	0.254630
2381.000000	0.250945
2382.000000	0.245597
2383.000000	0.237943
2384.000000	0.235629
2385.000000	0.236732
2386.000000	0.235723
2387.000000	0.236081
2388.000000	0.234784
2389.000000	0.232818
2390.000000	0.229442
2391.000000	0.224688
2392.000000	0.223723
2393.000000	0.222696
2394.000000	0.223096
2395.000000	0.219664
2396.000000	0.215088
2397.000000	0.216385
2398.000000	0.221253
2399.000000	0.228499
2400.000000	0.230742
2401.000000	0.229586
2402.000000	0.224618
2403.000000	0.218823
2404.000000	0.222168
2405.000000	0.225476
2406.000000	0.224921
2407.000000	0.230924
2408.000000	0.232937
2409.000000	0.223469
2410.000000	0.227299
2411.000000	0.230644
2412.000000	0.228471
2413.000000	0.241177
2414.000000	0.242762
2415.000000	0.236883
2416.000000	0.235423
2417.000000	0.227842
2418.000000	0.218805
2419.000000	0.214351
2420.000000	0.216020
2421.000000	0.221103
2422.000000	0.227241
2423.000000	0.227378
2424.000000	0.221726
2425.000000	0.217483
2426.000000	0.215268
2427.000000	0.221489
2428.000000	0.233645
2429.000000	0.239183
2430.000000	0.244444
2431.000000	0.249884
2432.000000	0.248471
2433.000000	0.245018
2434.000000	0.236153
2435.000000	0.222604
2436.000000	0.209807
2437.000000	0.201174
2438.000000	0.200197
2439.000000	0.209286
2440.000000	0.214181
2441.000000	0.214475
2442.000000	0.220856
2443.000000	0.206289
2444.000000	0.195712
2445.000000	0.203208
2446.000000	0.191611
2447.000000	0.197233
2448.000000	0.211522
2449.000000	0.204385
2450.000000	0.210014
2451.000000	0.202140
2452.000000	0.189042
2453.000000	0.189205
2454.000000	0.190363
2455.000000	0.202095
2456.000000	0.207870
2457.000000	0.213952
2458.000000	0.210826
2459.000000	0.202412
2460.000000	0.202781
2461.000000	0.197555
2462.000000	0.194928
2463.000000	0.209109
2464.000000	0.218729
2465.000000	0.215034
2466.000000	0.217451
2467.000000	0.194428
2468.000000	0.176746
2469.000000	0.189344
2470.000000	0.188112
2471.000000	0.198261
2472.000000	0.204569
2473.000000	0.186511
2474.000000	0.170916
2475.000000	0.168824
2476.000000	0.164076
2477.000000	0.163552
2478.000000	0.205774
2479.000000	0.230224
2480.000000	0.222882
2481.000000	0.224592
2482.000000	0.180812
2483.000000	0.139900
2484.000000	0.140950
2485.000000	0.123874
2486.000000	0.116882
2487.000000	0.138342
2488.000000	0.147673
2489.000000	0.148474
2490.000000	0.175506
2491.000000	0.177636
2492.000000	0.169820
2493.000000	0.186614
2494.000000	0.188102
2495.000000	0.136853
2496.000000	0.131403
2497.000000	0.171605
2498.000000	0.164384
2499.000000	0.172583
2500.000000	0.155271
