# Wavelength	NAu-1-20_HEX-10_FV7-70_00000.asd.rts.txt
350.000000	0.171494
351.000000	0.189204
352.000000	0.180376
353.000000	0.172538
354.000000	0.178495
355.000000	0.172906
356.000000	0.169849
357.000000	0.173251
358.000000	0.177865
359.000000	0.172431
360.000000	0.165801
361.000000	0.168757
362.000000	0.170162
363.000000	0.170499
364.000000	0.170753
365.000000	0.171893
366.000000	0.173365
367.000000	0.172873
368.000000	0.166513
369.000000	0.168849
370.000000	0.173499
371.000000	0.169756
372.000000	0.166117
373.000000	0.168279
374.000000	0.176280
375.000000	0.176097
376.000000	0.174995
377.000000	0.175489
378.000000	0.176171
379.000000	0.178004
380.000000	0.180711
381.000000	0.183776
382.000000	0.181620
383.000000	0.178721
384.000000	0.179364
385.000000	0.184466
386.000000	0.186588
387.000000	0.185175
388.000000	0.186570
389.000000	0.187255
390.000000	0.187226
391.000000	0.187393
392.000000	0.189326
393.000000	0.190593
394.000000	0.189723
395.000000	0.189573
396.000000	0.191360
397.000000	0.194140
398.000000	0.194109
399.000000	0.194432
400.000000	0.195243
401.000000	0.195460
402.000000	0.196102
403.000000	0.196808
404.000000	0.197316
405.000000	0.198214
406.000000	0.198653
407.000000	0.198629
408.000000	0.199598
409.000000	0.199767
410.000000	0.199711
411.000000	0.201307
412.000000	0.203499
413.000000	0.204936
414.000000	0.204677
415.000000	0.204014
416.000000	0.203964
417.000000	0.204777
418.000000	0.205236
419.000000	0.205904
420.000000	0.206624
421.000000	0.206603
422.000000	0.206982
423.000000	0.207588
424.000000	0.207912
425.000000	0.207734
426.000000	0.207815
427.000000	0.208502
428.000000	0.208652
429.000000	0.208444
430.000000	0.208283
431.000000	0.208985
432.000000	0.209304
433.000000	0.209250
434.000000	0.209459
435.000000	0.209437
436.000000	0.209370
437.000000	0.209494
438.000000	0.209828
439.000000	0.209913
440.000000	0.209724
441.000000	0.209802
442.000000	0.209861
443.000000	0.209840
444.000000	0.209947
445.000000	0.210082
446.000000	0.210279
447.000000	0.210464
448.000000	0.210833
449.000000	0.211248
450.000000	0.211692
451.000000	0.212567
452.000000	0.213452
453.000000	0.214208
454.000000	0.215215
455.000000	0.215949
456.000000	0.216674
457.000000	0.217787
458.000000	0.218945
459.000000	0.219869
460.000000	0.220502
461.000000	0.221375
462.000000	0.222205
463.000000	0.222763
464.000000	0.223413
465.000000	0.223907
466.000000	0.224352
467.000000	0.225193
468.000000	0.225556
469.000000	0.225768
470.000000	0.226460
471.000000	0.226751
472.000000	0.226935
473.000000	0.227308
474.000000	0.227829
475.000000	0.228189
476.000000	0.228441
477.000000	0.228706
478.000000	0.229068
479.000000	0.229491
480.000000	0.229591
481.000000	0.229760
482.000000	0.230022
483.000000	0.230191
484.000000	0.230615
485.000000	0.231071
486.000000	0.231526
487.000000	0.231736
488.000000	0.232125
489.000000	0.232646
490.000000	0.232905
491.000000	0.233128
492.000000	0.233395
493.000000	0.233647
494.000000	0.234133
495.000000	0.234616
496.000000	0.234926
497.000000	0.235380
498.000000	0.235896
499.000000	0.236401
500.000000	0.236617
501.000000	0.236930
502.000000	0.237331
503.000000	0.237584
504.000000	0.238032
505.000000	0.238562
506.000000	0.239017
507.000000	0.239439
508.000000	0.239901
509.000000	0.240372
510.000000	0.240718
511.000000	0.241115
512.000000	0.241595
513.000000	0.242026
514.000000	0.242457
515.000000	0.242903
516.000000	0.243311
517.000000	0.243653
518.000000	0.244131
519.000000	0.244749
520.000000	0.245155
521.000000	0.245538
522.000000	0.245995
523.000000	0.246487
524.000000	0.246940
525.000000	0.247367
526.000000	0.247872
527.000000	0.248355
528.000000	0.248808
529.000000	0.249290
530.000000	0.249781
531.000000	0.250285
532.000000	0.250737
533.000000	0.251243
534.000000	0.251695
535.000000	0.252111
536.000000	0.252683
537.000000	0.253119
538.000000	0.253511
539.000000	0.254073
540.000000	0.254596
541.000000	0.255093
542.000000	0.255619
543.000000	0.256026
544.000000	0.256518
545.000000	0.257084
546.000000	0.257510
547.000000	0.258015
548.000000	0.258628
549.000000	0.259167
550.000000	0.259571
551.000000	0.259969
552.000000	0.260468
553.000000	0.260918
554.000000	0.261375
555.000000	0.261899
556.000000	0.262476
557.000000	0.262950
558.000000	0.263408
559.000000	0.263901
560.000000	0.264398
561.000000	0.264958
562.000000	0.265528
563.000000	0.265978
564.000000	0.266436
565.000000	0.266935
566.000000	0.267386
567.000000	0.267836
568.000000	0.268302
569.000000	0.268803
570.000000	0.269202
571.000000	0.269517
572.000000	0.269947
573.000000	0.270371
574.000000	0.270743
575.000000	0.271096
576.000000	0.271486
577.000000	0.271820
578.000000	0.272099
579.000000	0.272421
580.000000	0.272781
581.000000	0.273136
582.000000	0.273379
583.000000	0.273741
584.000000	0.274158
585.000000	0.274400
586.000000	0.274624
587.000000	0.274900
588.000000	0.275253
589.000000	0.275523
590.000000	0.275771
591.000000	0.276030
592.000000	0.276209
593.000000	0.276414
594.000000	0.276675
595.000000	0.276963
596.000000	0.277175
597.000000	0.277367
598.000000	0.277558
599.000000	0.277623
600.000000	0.277761
601.000000	0.278049
602.000000	0.278314
603.000000	0.278470
604.000000	0.278561
605.000000	0.278840
606.000000	0.279024
607.000000	0.279088
608.000000	0.279162
609.000000	0.279335
610.000000	0.279483
611.000000	0.279483
612.000000	0.279654
613.000000	0.279866
614.000000	0.280032
615.000000	0.280108
616.000000	0.280217
617.000000	0.280367
618.000000	0.280547
619.000000	0.280756
620.000000	0.280937
621.000000	0.281067
622.000000	0.281050
623.000000	0.281015
624.000000	0.281089
625.000000	0.281278
626.000000	0.281448
627.000000	0.281544
628.000000	0.281623
629.000000	0.281765
630.000000	0.281901
631.000000	0.282148
632.000000	0.282293
633.000000	0.282386
634.000000	0.282503
635.000000	0.282619
636.000000	0.282739
637.000000	0.282860
638.000000	0.283035
639.000000	0.283232
640.000000	0.283450
641.000000	0.283546
642.000000	0.283674
643.000000	0.283832
644.000000	0.283978
645.000000	0.284135
646.000000	0.284291
647.000000	0.284430
648.000000	0.284657
649.000000	0.284874
650.000000	0.285034
651.000000	0.285212
652.000000	0.285325
653.000000	0.285448
654.000000	0.285633
655.000000	0.285724
656.000000	0.285843
657.000000	0.286059
658.000000	0.286310
659.000000	0.286507
660.000000	0.286629
661.000000	0.286823
662.000000	0.287004
663.000000	0.287198
664.000000	0.287380
665.000000	0.287503
666.000000	0.287628
667.000000	0.287795
668.000000	0.287979
669.000000	0.288194
670.000000	0.288421
671.000000	0.288530
672.000000	0.288694
673.000000	0.288929
674.000000	0.289143
675.000000	0.289326
676.000000	0.289528
677.000000	0.289814
678.000000	0.290035
679.000000	0.290246
680.000000	0.290495
681.000000	0.290714
682.000000	0.290902
683.000000	0.291025
684.000000	0.291243
685.000000	0.291448
686.000000	0.291663
687.000000	0.291891
688.000000	0.292077
689.000000	0.292259
690.000000	0.292496
691.000000	0.292741
692.000000	0.292937
693.000000	0.293150
694.000000	0.293431
695.000000	0.293676
696.000000	0.293896
697.000000	0.294140
698.000000	0.294305
699.000000	0.294477
700.000000	0.294736
701.000000	0.295009
702.000000	0.295281
703.000000	0.295519
704.000000	0.295707
705.000000	0.295938
706.000000	0.296176
707.000000	0.296422
708.000000	0.296645
709.000000	0.296861
710.000000	0.297099
711.000000	0.297306
712.000000	0.297517
713.000000	0.297774
714.000000	0.298088
715.000000	0.298315
716.000000	0.298513
717.000000	0.298792
718.000000	0.298994
719.000000	0.299179
720.000000	0.299413
721.000000	0.299581
722.000000	0.299722
723.000000	0.299913
724.000000	0.300093
725.000000	0.300308
726.000000	0.300563
727.000000	0.300697
728.000000	0.300895
729.000000	0.301095
730.000000	0.301200
731.000000	0.301424
732.000000	0.301608
733.000000	0.301764
734.000000	0.302017
735.000000	0.302269
736.000000	0.302535
737.000000	0.302634
738.000000	0.302689
739.000000	0.302803
740.000000	0.302874
741.000000	0.302975
742.000000	0.303103
743.000000	0.303232
744.000000	0.303399
745.000000	0.303574
746.000000	0.303788
747.000000	0.303981
748.000000	0.304164
749.000000	0.304314
750.000000	0.304402
751.000000	0.304518
752.000000	0.304624
753.000000	0.304702
754.000000	0.304718
755.000000	0.304833
756.000000	0.304989
757.000000	0.305051
758.000000	0.305197
759.000000	0.305360
760.000000	0.305435
761.000000	0.305566
762.000000	0.305657
763.000000	0.305706
764.000000	0.305838
765.000000	0.305926
766.000000	0.305977
767.000000	0.306011
768.000000	0.306011
769.000000	0.305994
770.000000	0.305972
771.000000	0.305931
772.000000	0.305949
773.000000	0.305977
774.000000	0.306041
775.000000	0.306088
776.000000	0.306145
777.000000	0.306212
778.000000	0.306257
779.000000	0.306362
780.000000	0.306490
781.000000	0.306475
782.000000	0.306492
783.000000	0.306565
784.000000	0.306521
785.000000	0.306524
786.000000	0.306555
787.000000	0.306560
788.000000	0.306447
789.000000	0.306391
790.000000	0.306385
791.000000	0.306380
792.000000	0.306361
793.000000	0.306381
794.000000	0.306448
795.000000	0.306338
796.000000	0.306161
797.000000	0.305991
798.000000	0.305884
799.000000	0.305826
800.000000	0.305797
801.000000	0.305778
802.000000	0.305772
803.000000	0.305714
804.000000	0.305630
805.000000	0.305605
806.000000	0.305536
807.000000	0.305497
808.000000	0.305490
809.000000	0.305443
810.000000	0.305369
811.000000	0.305293
812.000000	0.305330
813.000000	0.305306
814.000000	0.305202
815.000000	0.305159
816.000000	0.305072
817.000000	0.304979
818.000000	0.304868
819.000000	0.304876
820.000000	0.304870
821.000000	0.304753
822.000000	0.304644
823.000000	0.304554
824.000000	0.304419
825.000000	0.304279
826.000000	0.304148
827.000000	0.304011
828.000000	0.303922
829.000000	0.303938
830.000000	0.303962
831.000000	0.303984
832.000000	0.303878
833.000000	0.303739
834.000000	0.303628
835.000000	0.303575
836.000000	0.303384
837.000000	0.303209
838.000000	0.303097
839.000000	0.302973
840.000000	0.302869
841.000000	0.302798
842.000000	0.302721
843.000000	0.302614
844.000000	0.302517
845.000000	0.302411
846.000000	0.302288
847.000000	0.302266
848.000000	0.302244
849.000000	0.302130
850.000000	0.302021
851.000000	0.301904
852.000000	0.301797
853.000000	0.301659
854.000000	0.301430
855.000000	0.301250
856.000000	0.301097
857.000000	0.300806
858.000000	0.300667
859.000000	0.300680
860.000000	0.300573
861.000000	0.300477
862.000000	0.300406
863.000000	0.300256
864.000000	0.300014
865.000000	0.299817
866.000000	0.299763
867.000000	0.299799
868.000000	0.299714
869.000000	0.299492
870.000000	0.299313
871.000000	0.299063
872.000000	0.298822
873.000000	0.298601
874.000000	0.298478
875.000000	0.298246
876.000000	0.298038
877.000000	0.298016
878.000000	0.297867
879.000000	0.297748
880.000000	0.297608
881.000000	0.297391
882.000000	0.297267
883.000000	0.297140
884.000000	0.296784
885.000000	0.296498
886.000000	0.296281
887.000000	0.296117
888.000000	0.295943
889.000000	0.295760
890.000000	0.295516
891.000000	0.295368
892.000000	0.295289
893.000000	0.295145
894.000000	0.295010
895.000000	0.294932
896.000000	0.294771
897.000000	0.294559
898.000000	0.294371
899.000000	0.294146
900.000000	0.293969
901.000000	0.293803
902.000000	0.293567
903.000000	0.293417
904.000000	0.293305
905.000000	0.293057
906.000000	0.292817
907.000000	0.292668
908.000000	0.292589
909.000000	0.292290
910.000000	0.292142
911.000000	0.292038
912.000000	0.291833
913.000000	0.291589
914.000000	0.291330
915.000000	0.291104
916.000000	0.290812
917.000000	0.290472
918.000000	0.290272
919.000000	0.290262
920.000000	0.290172
921.000000	0.289989
922.000000	0.289715
923.000000	0.289364
924.000000	0.289101
925.000000	0.288857
926.000000	0.288601
927.000000	0.288309
928.000000	0.288121
929.000000	0.287983
930.000000	0.287797
931.000000	0.287608
932.000000	0.287400
933.000000	0.287177
934.000000	0.286872
935.000000	0.286743
936.000000	0.286647
937.000000	0.286346
938.000000	0.286028
939.000000	0.285840
940.000000	0.285747
941.000000	0.285714
942.000000	0.285356
943.000000	0.285044
944.000000	0.284904
945.000000	0.284873
946.000000	0.284551
947.000000	0.284220
948.000000	0.284186
949.000000	0.284057
950.000000	0.283740
951.000000	0.283320
952.000000	0.283141
953.000000	0.282855
954.000000	0.282725
955.000000	0.282822
956.000000	0.282739
957.000000	0.282583
958.000000	0.282333
959.000000	0.282074
960.000000	0.281963
961.000000	0.281934
962.000000	0.281828
963.000000	0.281479
964.000000	0.281300
965.000000	0.281249
966.000000	0.281036
967.000000	0.280436
968.000000	0.280023
969.000000	0.279799
970.000000	0.279594
971.000000	0.279366
972.000000	0.279159
973.000000	0.278997
974.000000	0.279037
975.000000	0.278810
976.000000	0.278691
977.000000	0.278883
978.000000	0.278557
979.000000	0.278436
980.000000	0.278344
981.000000	0.278192
982.000000	0.277964
983.000000	0.277754
984.000000	0.277671
985.000000	0.277670
986.000000	0.277513
987.000000	0.277355
988.000000	0.277201
989.000000	0.276925
990.000000	0.276704
991.000000	0.276669
992.000000	0.276811
993.000000	0.276402
994.000000	0.276122
995.000000	0.276089
996.000000	0.275694
997.000000	0.275990
998.000000	0.276259
999.000000	0.276116
1000.000000	0.275768
1001.000000	0.276319
1002.000000	0.275791
1003.000000	0.276032
1004.000000	0.276042
1005.000000	0.275920
1006.000000	0.275590
1007.000000	0.275371
1008.000000	0.274887
1009.000000	0.274324
1010.000000	0.274014
1011.000000	0.274233
1012.000000	0.274564
1013.000000	0.274687
1014.000000	0.274619
1015.000000	0.274556
1016.000000	0.275137
1017.000000	0.275049
1018.000000	0.275302
1019.000000	0.275516
1020.000000	0.275445
1021.000000	0.275039
1022.000000	0.275006
1023.000000	0.275100
1024.000000	0.274761
1025.000000	0.275045
1026.000000	0.275185
1027.000000	0.274786
1028.000000	0.274473
1029.000000	0.274237
1030.000000	0.274508
1031.000000	0.275069
1032.000000	0.275355
1033.000000	0.275569
1034.000000	0.275836
1035.000000	0.276235
1036.000000	0.276301
1037.000000	0.276137
1038.000000	0.276073
1039.000000	0.276102
1040.000000	0.275800
1041.000000	0.275469
1042.000000	0.275798
1043.000000	0.276429
1044.000000	0.276753
1045.000000	0.277154
1046.000000	0.277710
1047.000000	0.277832
1048.000000	0.277364
1049.000000	0.277275
1050.000000	0.277106
1051.000000	0.277018
1052.000000	0.277039
1053.000000	0.277053
1054.000000	0.277182
1055.000000	0.277455
1056.000000	0.277857
1057.000000	0.278285
1058.000000	0.278535
1059.000000	0.278907
1060.000000	0.279477
1061.000000	0.279283
1062.000000	0.279018
1063.000000	0.279307
1064.000000	0.279670
1065.000000	0.280153
1066.000000	0.280578
1067.000000	0.281376
1068.000000	0.281603
1069.000000	0.281253
1070.000000	0.281275
1071.000000	0.281375
1072.000000	0.281439
1073.000000	0.281553
1074.000000	0.281774
1075.000000	0.282331
1076.000000	0.282710
1077.000000	0.282893
1078.000000	0.283187
1079.000000	0.283424
1080.000000	0.283295
1081.000000	0.283525
1082.000000	0.284251
1083.000000	0.284610
1084.000000	0.284763
1085.000000	0.285111
1086.000000	0.285572
1087.000000	0.285836
1088.000000	0.285983
1089.000000	0.286191
1090.000000	0.286237
1091.000000	0.286249
1092.000000	0.286643
1093.000000	0.286900
1094.000000	0.287336
1095.000000	0.288010
1096.000000	0.288217
1097.000000	0.288234
1098.000000	0.288436
1099.000000	0.288233
1100.000000	0.288472
1101.000000	0.289161
1102.000000	0.289518
1103.000000	0.289822
1104.000000	0.290115
1105.000000	0.290222
1106.000000	0.290478
1107.000000	0.290808
1108.000000	0.291029
1109.000000	0.291144
1110.000000	0.291592
1111.000000	0.291796
1112.000000	0.291911
1113.000000	0.292052
1114.000000	0.292104
1115.000000	0.292333
1116.000000	0.292611
1117.000000	0.292926
1118.000000	0.293451
1119.000000	0.293706
1120.000000	0.293760
1121.000000	0.293987
1122.000000	0.294434
1123.000000	0.294743
1124.000000	0.294663
1125.000000	0.294908
1126.000000	0.295078
1127.000000	0.295232
1128.000000	0.295469
1129.000000	0.296122
1130.000000	0.296296
1131.000000	0.296204
1132.000000	0.296227
1133.000000	0.296179
1134.000000	0.296279
1135.000000	0.296459
1136.000000	0.296491
1137.000000	0.296438
1138.000000	0.296485
1139.000000	0.296521
1140.000000	0.296727
1141.000000	0.297146
1142.000000	0.297407
1143.000000	0.297664
1144.000000	0.297884
1145.000000	0.297817
1146.000000	0.297632
1147.000000	0.297787
1148.000000	0.297926
1149.000000	0.298082
1150.000000	0.298537
1151.000000	0.298736
1152.000000	0.298655
1153.000000	0.298767
1154.000000	0.298925
1155.000000	0.299002
1156.000000	0.299030
1157.000000	0.299162
1158.000000	0.299289
1159.000000	0.299398
1160.000000	0.299481
1161.000000	0.299659
1162.000000	0.300035
1163.000000	0.300308
1164.000000	0.300299
1165.000000	0.300497
1166.000000	0.300640
1167.000000	0.300545
1168.000000	0.300607
1169.000000	0.300866
1170.000000	0.301049
1171.000000	0.301320
1172.000000	0.301359
1173.000000	0.301255
1174.000000	0.301256
1175.000000	0.301021
1176.000000	0.300925
1177.000000	0.301137
1178.000000	0.301208
1179.000000	0.301178
1180.000000	0.301171
1181.000000	0.301263
1182.000000	0.301299
1183.000000	0.301500
1184.000000	0.301485
1185.000000	0.301522
1186.000000	0.301560
1187.000000	0.301564
1188.000000	0.301559
1189.000000	0.301484
1190.000000	0.301370
1191.000000	0.301326
1192.000000	0.301303
1193.000000	0.301412
1194.000000	0.301498
1195.000000	0.301664
1196.000000	0.301911
1197.000000	0.302076
1198.000000	0.302387
1199.000000	0.302488
1200.000000	0.302362
1201.000000	0.302288
1202.000000	0.302241
1203.000000	0.302196
1204.000000	0.302291
1205.000000	0.302311
1206.000000	0.302306
1207.000000	0.302370
1208.000000	0.302341
1209.000000	0.302298
1210.000000	0.302341
1211.000000	0.302343
1212.000000	0.302393
1213.000000	0.302602
1214.000000	0.302727
1215.000000	0.302842
1216.000000	0.302905
1217.000000	0.302899
1218.000000	0.302878
1219.000000	0.302841
1220.000000	0.302801
1221.000000	0.302694
1222.000000	0.302607
1223.000000	0.302763
1224.000000	0.302799
1225.000000	0.302818
1226.000000	0.302992
1227.000000	0.302937
1228.000000	0.302943
1229.000000	0.302933
1230.000000	0.302927
1231.000000	0.302937
1232.000000	0.303085
1233.000000	0.303204
1234.000000	0.303323
1235.000000	0.303380
1236.000000	0.303249
1237.000000	0.303288
1238.000000	0.303479
1239.000000	0.303501
1240.000000	0.303504
1241.000000	0.303359
1242.000000	0.303332
1243.000000	0.303232
1244.000000	0.303286
1245.000000	0.303504
1246.000000	0.303539
1247.000000	0.303593
1248.000000	0.303513
1249.000000	0.303387
1250.000000	0.303391
1251.000000	0.303330
1252.000000	0.303351
1253.000000	0.303636
1254.000000	0.303641
1255.000000	0.303460
1256.000000	0.303437
1257.000000	0.303379
1258.000000	0.303388
1259.000000	0.303456
1260.000000	0.303528
1261.000000	0.303561
1262.000000	0.303605
1263.000000	0.303667
1264.000000	0.303775
1265.000000	0.303943
1266.000000	0.303816
1267.000000	0.303745
1268.000000	0.303789
1269.000000	0.303671
1270.000000	0.303671
1271.000000	0.303816
1272.000000	0.303847
1273.000000	0.303796
1274.000000	0.303779
1275.000000	0.303687
1276.000000	0.303428
1277.000000	0.303431
1278.000000	0.303498
1279.000000	0.303471
1280.000000	0.303417
1281.000000	0.303372
1282.000000	0.303333
1283.000000	0.303318
1284.000000	0.303284
1285.000000	0.303337
1286.000000	0.303391
1287.000000	0.303375
1288.000000	0.303533
1289.000000	0.303491
1290.000000	0.303229
1291.000000	0.303140
1292.000000	0.303129
1293.000000	0.303048
1294.000000	0.303020
1295.000000	0.303076
1296.000000	0.303136
1297.000000	0.303239
1298.000000	0.303352
1299.000000	0.303393
1300.000000	0.303351
1301.000000	0.303373
1302.000000	0.303366
1303.000000	0.303534
1304.000000	0.303452
1305.000000	0.303294
1306.000000	0.303241
1307.000000	0.303123
1308.000000	0.303189
1309.000000	0.303608
1310.000000	0.303677
1311.000000	0.303635
1312.000000	0.303497
1313.000000	0.303383
1314.000000	0.303082
1315.000000	0.302866
1316.000000	0.303009
1317.000000	0.303073
1318.000000	0.303085
1319.000000	0.303180
1320.000000	0.303222
1321.000000	0.303193
1322.000000	0.303207
1323.000000	0.303228
1324.000000	0.303175
1325.000000	0.303186
1326.000000	0.303133
1327.000000	0.303022
1328.000000	0.303199
1329.000000	0.303196
1330.000000	0.303073
1331.000000	0.303109
1332.000000	0.303234
1333.000000	0.303266
1334.000000	0.303518
1335.000000	0.303527
1336.000000	0.303251
1337.000000	0.303186
1338.000000	0.303060
1339.000000	0.302950
1340.000000	0.302989
1341.000000	0.303088
1342.000000	0.303082
1343.000000	0.302995
1344.000000	0.302819
1345.000000	0.302635
1346.000000	0.302434
1347.000000	0.302167
1348.000000	0.302062
1349.000000	0.301833
1350.000000	0.301763
1351.000000	0.301800
1352.000000	0.301753
1353.000000	0.301884
1354.000000	0.302031
1355.000000	0.301982
1356.000000	0.301929
1357.000000	0.301756
1358.000000	0.301576
1359.000000	0.301528
1360.000000	0.301498
1361.000000	0.301623
1362.000000	0.301620
1363.000000	0.301549
1364.000000	0.301555
1365.000000	0.301581
1366.000000	0.301598
1367.000000	0.301703
1368.000000	0.301530
1369.000000	0.301534
1370.000000	0.301403
1371.000000	0.301191
1372.000000	0.301228
1373.000000	0.301233
1374.000000	0.301216
1375.000000	0.301172
1376.000000	0.301137
1377.000000	0.301150
1378.000000	0.301000
1379.000000	0.300714
1380.000000	0.300479
1381.000000	0.300201
1382.000000	0.299882
1383.000000	0.299686
1384.000000	0.299543
1385.000000	0.299187
1386.000000	0.298810
1387.000000	0.298553
1388.000000	0.298244
1389.000000	0.298153
1390.000000	0.298028
1391.000000	0.297751
1392.000000	0.297715
1393.000000	0.297542
1394.000000	0.297268
1395.000000	0.297121
1396.000000	0.297008
1397.000000	0.296793
1398.000000	0.296575
1399.000000	0.296356
1400.000000	0.296060
1401.000000	0.295775
1402.000000	0.295528
1403.000000	0.295282
1404.000000	0.295081
1405.000000	0.294966
1406.000000	0.294760
1407.000000	0.294338
1408.000000	0.293787
1409.000000	0.293366
1410.000000	0.293058
1411.000000	0.292759
1412.000000	0.292513
1413.000000	0.292351
1414.000000	0.292207
1415.000000	0.292079
1416.000000	0.292062
1417.000000	0.291948
1418.000000	0.291727
1419.000000	0.291758
1420.000000	0.291663
1421.000000	0.291630
1422.000000	0.291675
1423.000000	0.291602
1424.000000	0.291513
1425.000000	0.291380
1426.000000	0.291203
1427.000000	0.291115
1428.000000	0.290984
1429.000000	0.290867
1430.000000	0.290851
1431.000000	0.290847
1432.000000	0.290802
1433.000000	0.290837
1434.000000	0.290844
1435.000000	0.290810
1436.000000	0.290887
1437.000000	0.291031
1438.000000	0.291125
1439.000000	0.291313
1440.000000	0.291523
1441.000000	0.291768
1442.000000	0.291989
1443.000000	0.292212
1444.000000	0.292305
1445.000000	0.292371
1446.000000	0.292483
1447.000000	0.292612
1448.000000	0.292759
1449.000000	0.292830
1450.000000	0.292892
1451.000000	0.292991
1452.000000	0.292962
1453.000000	0.292994
1454.000000	0.292977
1455.000000	0.292887
1456.000000	0.292993
1457.000000	0.293063
1458.000000	0.293048
1459.000000	0.293112
1460.000000	0.293173
1461.000000	0.293166
1462.000000	0.293231
1463.000000	0.293296
1464.000000	0.293306
1465.000000	0.293432
1466.000000	0.293512
1467.000000	0.293493
1468.000000	0.293492
1469.000000	0.293492
1470.000000	0.293476
1471.000000	0.293584
1472.000000	0.293664
1473.000000	0.293752
1474.000000	0.293707
1475.000000	0.293616
1476.000000	0.293639
1477.000000	0.293642
1478.000000	0.293649
1479.000000	0.293742
1480.000000	0.293826
1481.000000	0.293854
1482.000000	0.293926
1483.000000	0.294000
1484.000000	0.293958
1485.000000	0.294023
1486.000000	0.294133
1487.000000	0.294240
1488.000000	0.294524
1489.000000	0.294652
1490.000000	0.294468
1491.000000	0.294566
1492.000000	0.294683
1493.000000	0.294796
1494.000000	0.295095
1495.000000	0.295224
1496.000000	0.295145
1497.000000	0.295211
1498.000000	0.295328
1499.000000	0.295435
1500.000000	0.295572
1501.000000	0.295693
1502.000000	0.295685
1503.000000	0.295676
1504.000000	0.295650
1505.000000	0.295588
1506.000000	0.295627
1507.000000	0.295651
1508.000000	0.295719
1509.000000	0.295729
1510.000000	0.295702
1511.000000	0.295747
1512.000000	0.295753
1513.000000	0.295864
1514.000000	0.295954
1515.000000	0.295981
1516.000000	0.296055
1517.000000	0.296102
1518.000000	0.296140
1519.000000	0.296065
1520.000000	0.296064
1521.000000	0.295982
1522.000000	0.295975
1523.000000	0.296131
1524.000000	0.296022
1525.000000	0.295966
1526.000000	0.295975
1527.000000	0.295897
1528.000000	0.296011
1529.000000	0.296063
1530.000000	0.295990
1531.000000	0.296038
1532.000000	0.296002
1533.000000	0.296038
1534.000000	0.296147
1535.000000	0.296161
1536.000000	0.296122
1537.000000	0.296163
1538.000000	0.296248
1539.000000	0.296207
1540.000000	0.296167
1541.000000	0.296205
1542.000000	0.296245
1543.000000	0.296296
1544.000000	0.296354
1545.000000	0.296538
1546.000000	0.296669
1547.000000	0.296692
1548.000000	0.296802
1549.000000	0.296852
1550.000000	0.296810
1551.000000	0.296802
1552.000000	0.296825
1553.000000	0.296827
1554.000000	0.296902
1555.000000	0.297028
1556.000000	0.297073
1557.000000	0.297116
1558.000000	0.297189
1559.000000	0.297231
1560.000000	0.297159
1561.000000	0.297057
1562.000000	0.297018
1563.000000	0.296888
1564.000000	0.296923
1565.000000	0.297198
1566.000000	0.297168
1567.000000	0.297163
1568.000000	0.297064
1569.000000	0.296788
1570.000000	0.296720
1571.000000	0.296744
1572.000000	0.296658
1573.000000	0.296633
1574.000000	0.296585
1575.000000	0.296414
1576.000000	0.296362
1577.000000	0.296439
1578.000000	0.296367
1579.000000	0.296300
1580.000000	0.296215
1581.000000	0.296028
1582.000000	0.296051
1583.000000	0.296272
1584.000000	0.296265
1585.000000	0.296338
1586.000000	0.296398
1587.000000	0.296264
1588.000000	0.296263
1589.000000	0.296430
1590.000000	0.296482
1591.000000	0.296483
1592.000000	0.296569
1593.000000	0.296751
1594.000000	0.296779
1595.000000	0.296848
1596.000000	0.296830
1597.000000	0.296635
1598.000000	0.296611
1599.000000	0.296727
1600.000000	0.296661
1601.000000	0.296608
1602.000000	0.296622
1603.000000	0.296609
1604.000000	0.296603
1605.000000	0.296758
1606.000000	0.296753
1607.000000	0.296598
1608.000000	0.296611
1609.000000	0.296828
1610.000000	0.296786
1611.000000	0.296676
1612.000000	0.296627
1613.000000	0.296493
1614.000000	0.296412
1615.000000	0.296539
1616.000000	0.296603
1617.000000	0.296537
1618.000000	0.296568
1619.000000	0.296722
1620.000000	0.296712
1621.000000	0.296615
1622.000000	0.296666
1623.000000	0.296627
1624.000000	0.296668
1625.000000	0.296803
1626.000000	0.296727
1627.000000	0.296531
1628.000000	0.296485
1629.000000	0.296371
1630.000000	0.296355
1631.000000	0.296454
1632.000000	0.296383
1633.000000	0.296252
1634.000000	0.296160
1635.000000	0.296015
1636.000000	0.295959
1637.000000	0.295982
1638.000000	0.295990
1639.000000	0.296114
1640.000000	0.296138
1641.000000	0.296195
1642.000000	0.296217
1643.000000	0.296163
1644.000000	0.296217
1645.000000	0.296342
1646.000000	0.296342
1647.000000	0.296409
1648.000000	0.296379
1649.000000	0.296286
1650.000000	0.296314
1651.000000	0.296399
1652.000000	0.296467
1653.000000	0.296542
1654.000000	0.296606
1655.000000	0.296608
1656.000000	0.296558
1657.000000	0.296546
1658.000000	0.296511
1659.000000	0.296519
1660.000000	0.296567
1661.000000	0.296538
1662.000000	0.296627
1663.000000	0.296791
1664.000000	0.296840
1665.000000	0.296882
1666.000000	0.297022
1667.000000	0.297041
1668.000000	0.297100
1669.000000	0.297247
1670.000000	0.297294
1671.000000	0.297383
1672.000000	0.297435
1673.000000	0.297470
1674.000000	0.297393
1675.000000	0.297339
1676.000000	0.297339
1677.000000	0.297221
1678.000000	0.297105
1679.000000	0.297042
1680.000000	0.297092
1681.000000	0.297298
1682.000000	0.297510
1683.000000	0.297701
1684.000000	0.297798
1685.000000	0.297798
1686.000000	0.297765
1687.000000	0.297747
1688.000000	0.297719
1689.000000	0.297630
1690.000000	0.297510
1691.000000	0.297459
1692.000000	0.297171
1693.000000	0.296931
1694.000000	0.296748
1695.000000	0.296570
1696.000000	0.296447
1697.000000	0.296349
1698.000000	0.296363
1699.000000	0.296365
1700.000000	0.296415
1701.000000	0.296525
1702.000000	0.296532
1703.000000	0.296444
1704.000000	0.296343
1705.000000	0.296331
1706.000000	0.296245
1707.000000	0.296311
1708.000000	0.296691
1709.000000	0.296753
1710.000000	0.296787
1711.000000	0.296815
1712.000000	0.296640
1713.000000	0.296571
1714.000000	0.296667
1715.000000	0.296669
1716.000000	0.296622
1717.000000	0.296600
1718.000000	0.296528
1719.000000	0.296488
1720.000000	0.296548
1721.000000	0.296549
1722.000000	0.296488
1723.000000	0.296520
1724.000000	0.296648
1725.000000	0.296694
1726.000000	0.296687
1727.000000	0.296671
1728.000000	0.296490
1729.000000	0.296381
1730.000000	0.296454
1731.000000	0.296466
1732.000000	0.296451
1733.000000	0.296567
1734.000000	0.296628
1735.000000	0.296704
1736.000000	0.296912
1737.000000	0.296797
1738.000000	0.296438
1739.000000	0.296404
1740.000000	0.296321
1741.000000	0.296282
1742.000000	0.296504
1743.000000	0.296562
1744.000000	0.296409
1745.000000	0.296472
1746.000000	0.296703
1747.000000	0.296666
1748.000000	0.296609
1749.000000	0.296453
1750.000000	0.296282
1751.000000	0.296164
1752.000000	0.296233
1753.000000	0.296224
1754.000000	0.296292
1755.000000	0.296659
1756.000000	0.296701
1757.000000	0.296447
1758.000000	0.296422
1759.000000	0.296329
1760.000000	0.296261
1761.000000	0.296363
1762.000000	0.296370
1763.000000	0.296170
1764.000000	0.296226
1765.000000	0.296495
1766.000000	0.296602
1767.000000	0.296743
1768.000000	0.296686
1769.000000	0.296459
1770.000000	0.296390
1771.000000	0.296230
1772.000000	0.296194
1773.000000	0.296272
1774.000000	0.296236
1775.000000	0.296235
1776.000000	0.296258
1777.000000	0.296208
1778.000000	0.296148
1779.000000	0.296128
1780.000000	0.296086
1781.000000	0.295969
1782.000000	0.295812
1783.000000	0.295688
1784.000000	0.295516
1785.000000	0.295321
1786.000000	0.295260
1787.000000	0.295329
1788.000000	0.295277
1789.000000	0.295242
1790.000000	0.295146
1791.000000	0.295054
1792.000000	0.295078
1793.000000	0.295077
1794.000000	0.295185
1795.000000	0.295175
1796.000000	0.294920
1797.000000	0.294899
1798.000000	0.294955
1799.000000	0.294989
1800.000000	0.295356
1801.000000	0.295785
1802.000000	0.295312
1803.000000	0.294202
1804.000000	0.293869
1805.000000	0.293942
1806.000000	0.293865
1807.000000	0.294135
1808.000000	0.294147
1809.000000	0.293743
1810.000000	0.293826
1811.000000	0.293993
1812.000000	0.294327
1813.000000	0.294273
1814.000000	0.294179
1815.000000	0.294302
1816.000000	0.294565
1817.000000	0.294337
1818.000000	0.293989
1819.000000	0.294103
1820.000000	0.293915
1821.000000	0.292660
1822.000000	0.292151
1823.000000	0.291756
1824.000000	0.291579
1825.000000	0.291133
1826.000000	0.291464
1827.000000	0.292308
1828.000000	0.293681
1829.000000	0.294073
1830.000000	0.294044
1831.000000	0.293931
1832.000000	0.292786
1833.000000	0.292376
1834.000000	0.292156
1835.000000	0.292425
1836.000000	0.293322
1837.000000	0.293491
1838.000000	0.293808
1839.000000	0.293547
1840.000000	0.292575
1841.000000	0.292126
1842.000000	0.291916
1843.000000	0.292060
1844.000000	0.292121
1845.000000	0.292282
1846.000000	0.292322
1847.000000	0.292318
1848.000000	0.292157
1849.000000	0.291687
1850.000000	0.291532
1851.000000	0.291217
1852.000000	0.290462
1853.000000	0.290589
1854.000000	0.290795
1855.000000	0.291066
1856.000000	0.292106
1857.000000	0.292331
1858.000000	0.291747
1859.000000	0.291773
1860.000000	0.291351
1861.000000	0.290791
1862.000000	0.290399
1863.000000	0.290361
1864.000000	0.290047
1865.000000	0.289551
1866.000000	0.289123
1867.000000	0.288493
1868.000000	0.288068
1869.000000	0.288161
1870.000000	0.288525
1871.000000	0.289084
1872.000000	0.289334
1873.000000	0.289106
1874.000000	0.287992
1875.000000	0.287488
1876.000000	0.286656
1877.000000	0.285965
1878.000000	0.285463
1879.000000	0.284743
1880.000000	0.284114
1881.000000	0.282984
1882.000000	0.281979
1883.000000	0.281876
1884.000000	0.281757
1885.000000	0.282163
1886.000000	0.281673
1887.000000	0.281096
1888.000000	0.280113
1889.000000	0.278103
1890.000000	0.276234
1891.000000	0.275082
1892.000000	0.273444
1893.000000	0.272605
1894.000000	0.272170
1895.000000	0.271226
1896.000000	0.270374
1897.000000	0.269752
1898.000000	0.268464
1899.000000	0.266809
1900.000000	0.265373
1901.000000	0.263699
1902.000000	0.262268
1903.000000	0.261549
1904.000000	0.261195
1905.000000	0.261066
1906.000000	0.260443
1907.000000	0.259552
1908.000000	0.258595
1909.000000	0.258099
1910.000000	0.257779
1911.000000	0.257743
1912.000000	0.257857
1913.000000	0.258361
1914.000000	0.258438
1915.000000	0.258239
1916.000000	0.258411
1917.000000	0.258171
1918.000000	0.257345
1919.000000	0.257119
1920.000000	0.257300
1921.000000	0.257158
1922.000000	0.257437
1923.000000	0.257393
1924.000000	0.257389
1925.000000	0.257349
1926.000000	0.257448
1927.000000	0.257874
1928.000000	0.257951
1929.000000	0.257824
1930.000000	0.258047
1931.000000	0.257964
1932.000000	0.257721
1933.000000	0.258062
1934.000000	0.258322
1935.000000	0.258727
1936.000000	0.259158
1937.000000	0.259338
1938.000000	0.259069
1939.000000	0.258913
1940.000000	0.258594
1941.000000	0.258800
1942.000000	0.258702
1943.000000	0.258837
1944.000000	0.259591
1945.000000	0.259997
1946.000000	0.260813
1947.000000	0.261675
1948.000000	0.262008
1949.000000	0.262660
1950.000000	0.263017
1951.000000	0.262933
1952.000000	0.262601
1953.000000	0.262352
1954.000000	0.261881
1955.000000	0.261808
1956.000000	0.262181
1957.000000	0.262726
1958.000000	0.263153
1959.000000	0.262696
1960.000000	0.262089
1961.000000	0.261730
1962.000000	0.261368
1963.000000	0.260871
1964.000000	0.260981
1965.000000	0.261123
1966.000000	0.260985
1967.000000	0.261162
1968.000000	0.261219
1969.000000	0.261123
1970.000000	0.261286
1971.000000	0.261748
1972.000000	0.262384
1973.000000	0.262500
1974.000000	0.262707
1975.000000	0.262825
1976.000000	0.262690
1977.000000	0.262009
1978.000000	0.262115
1979.000000	0.261952
1980.000000	0.261314
1981.000000	0.261878
1982.000000	0.262007
1983.000000	0.262264
1984.000000	0.262565
1985.000000	0.262925
1986.000000	0.263124
1987.000000	0.263415
1988.000000	0.263759
1989.000000	0.263881
1990.000000	0.263873
1991.000000	0.263566
1992.000000	0.263619
1993.000000	0.264044
1994.000000	0.264688
1995.000000	0.264902
1996.000000	0.264751
1997.000000	0.264862
1998.000000	0.264663
1999.000000	0.264772
2000.000000	0.265197
2001.000000	0.265837
2002.000000	0.266177
2003.000000	0.266758
2004.000000	0.266966
2005.000000	0.267007
2006.000000	0.267036
2007.000000	0.267139
2008.000000	0.267337
2009.000000	0.267618
2010.000000	0.267997
2011.000000	0.268396
2012.000000	0.268652
2013.000000	0.268885
2014.000000	0.269237
2015.000000	0.269406
2016.000000	0.268754
2017.000000	0.267734
2018.000000	0.267109
2019.000000	0.266854
2020.000000	0.266840
2021.000000	0.267087
2022.000000	0.268124
2023.000000	0.268708
2024.000000	0.269243
2025.000000	0.269897
2026.000000	0.270780
2027.000000	0.270728
2028.000000	0.271025
2029.000000	0.271396
2030.000000	0.271558
2031.000000	0.272430
2032.000000	0.273152
2033.000000	0.273375
2034.000000	0.273378
2035.000000	0.272918
2036.000000	0.272690
2037.000000	0.272488
2038.000000	0.272467
2039.000000	0.272809
2040.000000	0.272890
2041.000000	0.272787
2042.000000	0.272518
2043.000000	0.272325
2044.000000	0.272380
2045.000000	0.272386
2046.000000	0.271941
2047.000000	0.271910
2048.000000	0.271603
2049.000000	0.272085
2050.000000	0.273237
2051.000000	0.273839
2052.000000	0.274435
2053.000000	0.274664
2054.000000	0.274869
2055.000000	0.274602
2056.000000	0.274403
2057.000000	0.274464
2058.000000	0.274336
2059.000000	0.274369
2060.000000	0.274574
2061.000000	0.275142
2062.000000	0.275289
2063.000000	0.275470
2064.000000	0.275356
2065.000000	0.274976
2066.000000	0.274864
2067.000000	0.275093
2068.000000	0.275290
2069.000000	0.275640
2070.000000	0.275625
2071.000000	0.274697
2072.000000	0.274847
2073.000000	0.274878
2074.000000	0.274704
2075.000000	0.275053
2076.000000	0.276003
2077.000000	0.276208
2078.000000	0.276530
2079.000000	0.276568
2080.000000	0.276201
2081.000000	0.276225
2082.000000	0.276318
2083.000000	0.276144
2084.000000	0.276947
2085.000000	0.276626
2086.000000	0.276179
2087.000000	0.275879
2088.000000	0.275301
2089.000000	0.275667
2090.000000	0.275810
2091.000000	0.276586
2092.000000	0.276887
2093.000000	0.276802
2094.000000	0.276735
2095.000000	0.276690
2096.000000	0.276866
2097.000000	0.276759
2098.000000	0.277287
2099.000000	0.277916
2100.000000	0.278152
2101.000000	0.278200
2102.000000	0.277903
2103.000000	0.278475
2104.000000	0.279149
2105.000000	0.279345
2106.000000	0.279899
2107.000000	0.279838
2108.000000	0.278439
2109.000000	0.278149
2110.000000	0.278195
2111.000000	0.278236
2112.000000	0.278153
2113.000000	0.279053
2114.000000	0.279548
2115.000000	0.279351
2116.000000	0.279869
2117.000000	0.279091
2118.000000	0.279128
2119.000000	0.280037
2120.000000	0.279990
2121.000000	0.280088
2122.000000	0.279902
2123.000000	0.278510
2124.000000	0.277990
2125.000000	0.277857
2126.000000	0.277899
2127.000000	0.278446
2128.000000	0.278789
2129.000000	0.279589
2130.000000	0.279500
2131.000000	0.278964
2132.000000	0.278812
2133.000000	0.278446
2134.000000	0.278696
2135.000000	0.279182
2136.000000	0.279891
2137.000000	0.280193
2138.000000	0.280475
2139.000000	0.280421
2140.000000	0.279947
2141.000000	0.279582
2142.000000	0.278664
2143.000000	0.278528
2144.000000	0.279432
2145.000000	0.279473
2146.000000	0.279426
2147.000000	0.279904
2148.000000	0.279609
2149.000000	0.279758
2150.000000	0.280213
2151.000000	0.280455
2152.000000	0.280759
2153.000000	0.280033
2154.000000	0.279718
2155.000000	0.279666
2156.000000	0.279327
2157.000000	0.278537
2158.000000	0.278398
2159.000000	0.278423
2160.000000	0.278426
2161.000000	0.278963
2162.000000	0.279259
2163.000000	0.279328
2164.000000	0.279411
2165.000000	0.279819
2166.000000	0.279445
2167.000000	0.278641
2168.000000	0.278050
2169.000000	0.277458
2170.000000	0.277834
2171.000000	0.278416
2172.000000	0.280058
2173.000000	0.280539
2174.000000	0.280710
2175.000000	0.280996
2176.000000	0.280975
2177.000000	0.281117
2178.000000	0.281772
2179.000000	0.281783
2180.000000	0.281028
2181.000000	0.280768
2182.000000	0.279958
2183.000000	0.279133
2184.000000	0.278664
2185.000000	0.279073
2186.000000	0.279190
2187.000000	0.280443
2188.000000	0.281601
2189.000000	0.281252
2190.000000	0.281131
2191.000000	0.281649
2192.000000	0.281617
2193.000000	0.281050
2194.000000	0.281438
2195.000000	0.282140
2196.000000	0.282661
2197.000000	0.284994
2198.000000	0.284908
2199.000000	0.282630
2200.000000	0.281420
2201.000000	0.278708
2202.000000	0.277314
2203.000000	0.277374
2204.000000	0.276488
2205.000000	0.276880
2206.000000	0.275861
2207.000000	0.275451
2208.000000	0.277386
2209.000000	0.277648
2210.000000	0.279152
2211.000000	0.279580
2212.000000	0.277757
2213.000000	0.277045
2214.000000	0.275762
2215.000000	0.274939
2216.000000	0.274520
2217.000000	0.275082
2218.000000	0.276545
2219.000000	0.277466
2220.000000	0.279256
2221.000000	0.279002
2222.000000	0.277227
2223.000000	0.275990
2224.000000	0.273102
2225.000000	0.272820
2226.000000	0.273533
2227.000000	0.272590
2228.000000	0.271276
2229.000000	0.271873
2230.000000	0.273258
2231.000000	0.276332
2232.000000	0.279903
2233.000000	0.282712
2234.000000	0.284789
2235.000000	0.282528
2236.000000	0.281683
2237.000000	0.279909
2238.000000	0.279393
2239.000000	0.279329
2240.000000	0.279933
2241.000000	0.282693
2242.000000	0.282017
2243.000000	0.278694
2244.000000	0.277168
2245.000000	0.272958
2246.000000	0.272717
2247.000000	0.277404
2248.000000	0.278919
2249.000000	0.280698
2250.000000	0.282559
2251.000000	0.279887
2252.000000	0.278624
2253.000000	0.277964
2254.000000	0.275932
2255.000000	0.276822
2256.000000	0.277331
2257.000000	0.277473
2258.000000	0.278245
2259.000000	0.278435
2260.000000	0.276261
2261.000000	0.274307
2262.000000	0.271234
2263.000000	0.270623
2264.000000	0.270242
2265.000000	0.271331
2266.000000	0.276027
2267.000000	0.276386
2268.000000	0.275150
2269.000000	0.274278
2270.000000	0.270945
2271.000000	0.269017
2272.000000	0.267476
2273.000000	0.267093
2274.000000	0.267258
2275.000000	0.268233
2276.000000	0.271797
2277.000000	0.273140
2278.000000	0.271518
2279.000000	0.270117
2280.000000	0.268190
2281.000000	0.266860
2282.000000	0.266658
2283.000000	0.267208
2284.000000	0.268630
2285.000000	0.267347
2286.000000	0.267240
2287.000000	0.267912
2288.000000	0.265583
2289.000000	0.264186
2290.000000	0.261531
2291.000000	0.258499
2292.000000	0.257127
2293.000000	0.255420
2294.000000	0.256154
2295.000000	0.259534
2296.000000	0.262241
2297.000000	0.267416
2298.000000	0.269005
2299.000000	0.268829
2300.000000	0.268622
2301.000000	0.266256
2302.000000	0.265211
2303.000000	0.264440
2304.000000	0.263944
2305.000000	0.263141
2306.000000	0.263186
2307.000000	0.264321
2308.000000	0.265386
2309.000000	0.264850
2310.000000	0.266618
2311.000000	0.267622
2312.000000	0.269074
2313.000000	0.272062
2314.000000	0.270373
2315.000000	0.269561
2316.000000	0.268253
2317.000000	0.264434
2318.000000	0.265471
2319.000000	0.265796
2320.000000	0.265328
2321.000000	0.266642
2322.000000	0.265911
2323.000000	0.266017
2324.000000	0.266420
2325.000000	0.265239
2326.000000	0.264601
2327.000000	0.263300
2328.000000	0.261749
2329.000000	0.262677
2330.000000	0.263668
2331.000000	0.265247
2332.000000	0.268398
2333.000000	0.269395
2334.000000	0.269439
2335.000000	0.269445
2336.000000	0.267722
2337.000000	0.265488
2338.000000	0.262351
2339.000000	0.260839
2340.000000	0.259235
2341.000000	0.258280
2342.000000	0.257847
2343.000000	0.259770
2344.000000	0.263559
2345.000000	0.265765
2346.000000	0.269523
2347.000000	0.271676
2348.000000	0.272250
2349.000000	0.272563
2350.000000	0.271905
2351.000000	0.272301
2352.000000	0.269445
2353.000000	0.265713
2354.000000	0.262093
2355.000000	0.259364
2356.000000	0.258893
2357.000000	0.258323
2358.000000	0.258482
2359.000000	0.259707
2360.000000	0.258738
2361.000000	0.256331
2362.000000	0.254879
2363.000000	0.253303
2364.000000	0.253234
2365.000000	0.255680
2366.000000	0.258563
2367.000000	0.260764
2368.000000	0.260817
2369.000000	0.261707
2370.000000	0.261389
2371.000000	0.260548
2372.000000	0.258544
2373.000000	0.253317
2374.000000	0.251415
2375.000000	0.249709
2376.000000	0.248366
2377.000000	0.249199
2378.000000	0.248091
2379.000000	0.244859
2380.000000	0.245153
2381.000000	0.245228
2382.000000	0.241713
2383.000000	0.242164
2384.000000	0.243295
2385.000000	0.245127
2386.000000	0.246051
2387.000000	0.246330
2388.000000	0.245671
2389.000000	0.242595
2390.000000	0.248830
2391.000000	0.253734
2392.000000	0.254965
2393.000000	0.255034
2394.000000	0.248274
2395.000000	0.246659
2396.000000	0.246366
2397.000000	0.250086
2398.000000	0.252409
2399.000000	0.251678
2400.000000	0.254709
2401.000000	0.246921
2402.000000	0.245639
2403.000000	0.247077
2404.000000	0.242943
2405.000000	0.248490
2406.000000	0.252549
2407.000000	0.249440
2408.000000	0.244441
2409.000000	0.243838
2410.000000	0.239047
2411.000000	0.236825
2412.000000	0.246006
2413.000000	0.249161
2414.000000	0.248863
2415.000000	0.248060
2416.000000	0.240092
2417.000000	0.230244
2418.000000	0.222874
2419.000000	0.213044
2420.000000	0.205335
2421.000000	0.206805
2422.000000	0.212051
2423.000000	0.223188
2424.000000	0.236238
2425.000000	0.241918
2426.000000	0.241963
2427.000000	0.242301
2428.000000	0.241693
2429.000000	0.236513
2430.000000	0.227832
2431.000000	0.216608
2432.000000	0.216444
2433.000000	0.224133
2434.000000	0.231660
2435.000000	0.250639
2436.000000	0.261843
2437.000000	0.260979
2438.000000	0.260510
2439.000000	0.251672
2440.000000	0.239825
2441.000000	0.226250
2442.000000	0.221551
2443.000000	0.220598
2444.000000	0.217814
2445.000000	0.224273
2446.000000	0.230118
2447.000000	0.238962
2448.000000	0.239489
2449.000000	0.239471
2450.000000	0.247373
2451.000000	0.239053
2452.000000	0.240263
2453.000000	0.244908
2454.000000	0.227825
2455.000000	0.219499
2456.000000	0.218319
2457.000000	0.213466
2458.000000	0.214675
2459.000000	0.222259
2460.000000	0.236728
2461.000000	0.250449
2462.000000	0.261015
2463.000000	0.271655
2464.000000	0.263600
2465.000000	0.254392
2466.000000	0.259442
2467.000000	0.256510
2468.000000	0.262922
2469.000000	0.262901
2470.000000	0.248160
2471.000000	0.230738
2472.000000	0.203663
2473.000000	0.194321
2474.000000	0.190179
2475.000000	0.186641
2476.000000	0.196491
2477.000000	0.186518
2478.000000	0.177908
2479.000000	0.187330
2480.000000	0.200519
2481.000000	0.212258
2482.000000	0.214903
2483.000000	0.224533
2484.000000	0.206440
2485.000000	0.184744
2486.000000	0.193023
2487.000000	0.184463
2488.000000	0.194170
2489.000000	0.223419
2490.000000	0.218982
2491.000000	0.218145
2492.000000	0.205399
2493.000000	0.183348
2494.000000	0.181074
2495.000000	0.160523
2496.000000	0.147230
2497.000000	0.158685
2498.000000	0.152709
2499.000000	0.158733
2500.000000	0.161467
