# Wavelength	NAu-2-10_HEX-80_FV7-10_00001.asd.rts.txt
350.000000	0.291219
351.000000	0.301893
352.000000	0.301207
353.000000	0.288628
354.000000	0.275578
355.000000	0.286745
356.000000	0.293001
357.000000	0.290711
358.000000	0.289267
359.000000	0.290293
360.000000	0.294425
361.000000	0.300115
362.000000	0.301170
363.000000	0.297417
364.000000	0.291340
365.000000	0.292846
366.000000	0.293549
367.000000	0.292084
368.000000	0.293693
369.000000	0.294897
370.000000	0.293818
371.000000	0.290043
372.000000	0.291412
373.000000	0.291480
374.000000	0.287557
375.000000	0.287945
376.000000	0.288711
377.000000	0.288718
378.000000	0.289655
379.000000	0.291501
380.000000	0.292999
381.000000	0.293859
382.000000	0.296298
383.000000	0.297242
384.000000	0.295832
385.000000	0.297910
386.000000	0.297583
387.000000	0.295178
388.000000	0.297439
389.000000	0.298278
390.000000	0.297526
391.000000	0.296615
392.000000	0.295944
393.000000	0.295515
394.000000	0.295452
395.000000	0.296863
396.000000	0.297821
397.000000	0.297743
398.000000	0.297862
399.000000	0.298037
400.000000	0.298112
401.000000	0.297799
402.000000	0.299206
403.000000	0.300134
404.000000	0.299127
405.000000	0.299847
406.000000	0.300977
407.000000	0.301699
408.000000	0.302071
409.000000	0.302220
410.000000	0.302506
411.000000	0.303369
412.000000	0.303392
413.000000	0.303290
414.000000	0.303933
415.000000	0.303896
416.000000	0.303501
417.000000	0.303350
418.000000	0.304561
419.000000	0.305461
420.000000	0.305675
421.000000	0.305833
422.000000	0.306179
423.000000	0.306580
424.000000	0.306893
425.000000	0.307312
426.000000	0.307840
427.000000	0.308384
428.000000	0.308736
429.000000	0.309103
430.000000	0.309544
431.000000	0.309907
432.000000	0.310332
433.000000	0.310534
434.000000	0.310249
435.000000	0.310918
436.000000	0.311617
437.000000	0.311446
438.000000	0.312018
439.000000	0.312571
440.000000	0.312794
441.000000	0.312992
442.000000	0.313162
443.000000	0.313287
444.000000	0.313545
445.000000	0.314028
446.000000	0.314699
447.000000	0.315207
448.000000	0.315208
449.000000	0.315397
450.000000	0.316192
451.000000	0.317028
452.000000	0.317481
453.000000	0.317586
454.000000	0.318235
455.000000	0.318631
456.000000	0.318884
457.000000	0.319220
458.000000	0.319693
459.000000	0.320070
460.000000	0.320252
461.000000	0.320524
462.000000	0.321098
463.000000	0.321724
464.000000	0.321974
465.000000	0.322242
466.000000	0.322554
467.000000	0.322894
468.000000	0.323256
469.000000	0.323574
470.000000	0.323983
471.000000	0.324373
472.000000	0.324686
473.000000	0.324936
474.000000	0.325149
475.000000	0.325330
476.000000	0.325674
477.000000	0.326160
478.000000	0.326570
479.000000	0.326994
480.000000	0.327216
481.000000	0.327523
482.000000	0.327914
483.000000	0.328103
484.000000	0.328390
485.000000	0.328787
486.000000	0.329353
487.000000	0.329469
488.000000	0.329631
489.000000	0.329965
490.000000	0.330342
491.000000	0.330506
492.000000	0.330737
493.000000	0.331181
494.000000	0.331306
495.000000	0.331342
496.000000	0.331480
497.000000	0.331848
498.000000	0.332107
499.000000	0.332286
500.000000	0.332616
501.000000	0.332777
502.000000	0.332906
503.000000	0.333216
504.000000	0.333513
505.000000	0.333732
506.000000	0.333891
507.000000	0.334208
508.000000	0.334595
509.000000	0.334961
510.000000	0.335443
511.000000	0.335813
512.000000	0.336100
513.000000	0.336462
514.000000	0.336827
515.000000	0.337230
516.000000	0.337655
517.000000	0.338167
518.000000	0.338651
519.000000	0.338951
520.000000	0.339370
521.000000	0.339828
522.000000	0.340300
523.000000	0.340826
524.000000	0.341407
525.000000	0.342027
526.000000	0.342717
527.000000	0.343360
528.000000	0.344021
529.000000	0.344846
530.000000	0.345676
531.000000	0.346603
532.000000	0.347571
533.000000	0.348558
534.000000	0.349579
535.000000	0.350595
536.000000	0.351548
537.000000	0.352520
538.000000	0.353512
539.000000	0.354470
540.000000	0.355353
541.000000	0.356149
542.000000	0.356915
543.000000	0.357690
544.000000	0.358544
545.000000	0.359384
546.000000	0.360110
547.000000	0.360908
548.000000	0.361813
549.000000	0.362630
550.000000	0.363539
551.000000	0.364593
552.000000	0.365717
553.000000	0.366804
554.000000	0.367903
555.000000	0.369067
556.000000	0.370268
557.000000	0.371471
558.000000	0.372800
559.000000	0.374080
560.000000	0.375328
561.000000	0.376619
562.000000	0.377866
563.000000	0.379084
564.000000	0.380312
565.000000	0.381437
566.000000	0.382512
567.000000	0.383564
568.000000	0.384572
569.000000	0.385513
570.000000	0.386390
571.000000	0.387183
572.000000	0.387887
573.000000	0.388555
574.000000	0.389183
575.000000	0.389811
576.000000	0.390329
577.000000	0.390703
578.000000	0.391040
579.000000	0.391486
580.000000	0.391876
581.000000	0.392142
582.000000	0.392380
583.000000	0.392579
584.000000	0.392732
585.000000	0.392832
586.000000	0.392931
587.000000	0.393028
588.000000	0.393102
589.000000	0.393119
590.000000	0.393102
591.000000	0.393065
592.000000	0.392970
593.000000	0.392910
594.000000	0.392856
595.000000	0.392657
596.000000	0.392481
597.000000	0.392356
598.000000	0.392126
599.000000	0.391882
600.000000	0.391618
601.000000	0.391249
602.000000	0.391007
603.000000	0.390749
604.000000	0.390430
605.000000	0.390140
606.000000	0.389943
607.000000	0.389762
608.000000	0.389420
609.000000	0.389188
610.000000	0.389008
611.000000	0.388755
612.000000	0.388476
613.000000	0.388218
614.000000	0.388014
615.000000	0.387672
616.000000	0.387375
617.000000	0.387122
618.000000	0.386856
619.000000	0.386639
620.000000	0.386393
621.000000	0.386079
622.000000	0.385733
623.000000	0.385420
624.000000	0.385185
625.000000	0.385014
626.000000	0.384839
627.000000	0.384661
628.000000	0.384587
629.000000	0.384618
630.000000	0.384561
631.000000	0.384477
632.000000	0.384461
633.000000	0.384457
634.000000	0.384388
635.000000	0.384376
636.000000	0.384450
637.000000	0.384553
638.000000	0.384546
639.000000	0.384527
640.000000	0.384582
641.000000	0.384585
642.000000	0.384618
643.000000	0.384690
644.000000	0.384783
645.000000	0.384776
646.000000	0.384824
647.000000	0.384995
648.000000	0.385140
649.000000	0.385367
650.000000	0.385652
651.000000	0.385866
652.000000	0.386061
653.000000	0.386293
654.000000	0.386518
655.000000	0.386794
656.000000	0.387096
657.000000	0.387344
658.000000	0.387682
659.000000	0.388138
660.000000	0.388624
661.000000	0.388891
662.000000	0.389177
663.000000	0.389601
664.000000	0.390088
665.000000	0.390591
666.000000	0.391097
667.000000	0.391571
668.000000	0.392023
669.000000	0.392518
670.000000	0.393081
671.000000	0.393627
672.000000	0.394207
673.000000	0.394818
674.000000	0.395446
675.000000	0.396065
676.000000	0.396715
677.000000	0.397465
678.000000	0.398258
679.000000	0.399006
680.000000	0.399680
681.000000	0.400342
682.000000	0.401196
683.000000	0.402127
684.000000	0.402989
685.000000	0.403862
686.000000	0.404761
687.000000	0.405613
688.000000	0.406457
689.000000	0.407323
690.000000	0.408275
691.000000	0.409285
692.000000	0.410282
693.000000	0.411328
694.000000	0.412392
695.000000	0.413499
696.000000	0.414590
697.000000	0.415591
698.000000	0.416704
699.000000	0.417879
700.000000	0.419041
701.000000	0.420113
702.000000	0.421245
703.000000	0.422452
704.000000	0.423648
705.000000	0.424878
706.000000	0.426091
707.000000	0.427333
708.000000	0.428586
709.000000	0.429811
710.000000	0.431025
711.000000	0.432336
712.000000	0.433624
713.000000	0.434868
714.000000	0.436093
715.000000	0.437378
716.000000	0.438686
717.000000	0.439892
718.000000	0.441178
719.000000	0.442476
720.000000	0.443723
721.000000	0.444910
722.000000	0.446121
723.000000	0.447424
724.000000	0.448594
725.000000	0.449764
726.000000	0.451011
727.000000	0.452156
728.000000	0.453335
729.000000	0.454525
730.000000	0.455620
731.000000	0.456733
732.000000	0.457859
733.000000	0.459059
734.000000	0.460323
735.000000	0.461413
736.000000	0.462511
737.000000	0.463581
738.000000	0.464527
739.000000	0.465524
740.000000	0.466466
741.000000	0.467497
742.000000	0.468494
743.000000	0.469405
744.000000	0.470383
745.000000	0.471218
746.000000	0.472047
747.000000	0.472938
748.000000	0.473773
749.000000	0.474564
750.000000	0.475305
751.000000	0.476121
752.000000	0.476883
753.000000	0.477576
754.000000	0.478238
755.000000	0.478917
756.000000	0.479609
757.000000	0.480228
758.000000	0.480875
759.000000	0.481587
760.000000	0.482228
761.000000	0.482733
762.000000	0.483285
763.000000	0.483840
764.000000	0.484339
765.000000	0.484817
766.000000	0.485247
767.000000	0.485607
768.000000	0.485985
769.000000	0.486409
770.000000	0.486854
771.000000	0.487202
772.000000	0.487649
773.000000	0.488076
774.000000	0.488452
775.000000	0.488741
776.000000	0.489029
777.000000	0.489344
778.000000	0.489629
779.000000	0.489892
780.000000	0.490151
781.000000	0.490398
782.000000	0.490603
783.000000	0.490832
784.000000	0.490916
785.000000	0.491103
786.000000	0.491321
787.000000	0.491479
788.000000	0.491500
789.000000	0.491661
790.000000	0.491898
791.000000	0.492050
792.000000	0.492282
793.000000	0.492509
794.000000	0.492661
795.000000	0.492824
796.000000	0.492857
797.000000	0.492777
798.000000	0.492787
799.000000	0.492869
800.000000	0.493009
801.000000	0.493184
802.000000	0.493387
803.000000	0.493555
804.000000	0.493670
805.000000	0.493562
806.000000	0.493483
807.000000	0.493547
808.000000	0.493556
809.000000	0.493611
810.000000	0.493594
811.000000	0.493432
812.000000	0.493352
813.000000	0.493422
814.000000	0.493557
815.000000	0.493564
816.000000	0.493472
817.000000	0.493420
818.000000	0.493396
819.000000	0.493412
820.000000	0.493443
821.000000	0.493413
822.000000	0.493423
823.000000	0.493435
824.000000	0.493375
825.000000	0.493349
826.000000	0.493293
827.000000	0.493172
828.000000	0.493072
829.000000	0.493091
830.000000	0.492987
831.000000	0.492874
832.000000	0.492778
833.000000	0.492618
834.000000	0.492579
835.000000	0.492746
836.000000	0.492573
837.000000	0.492292
838.000000	0.492125
839.000000	0.492216
840.000000	0.492253
841.000000	0.492246
842.000000	0.492186
843.000000	0.492054
844.000000	0.491894
845.000000	0.491709
846.000000	0.491583
847.000000	0.491537
848.000000	0.491489
849.000000	0.491393
850.000000	0.491184
851.000000	0.490948
852.000000	0.490820
853.000000	0.490827
854.000000	0.490760
855.000000	0.490742
856.000000	0.490671
857.000000	0.490466
858.000000	0.490299
859.000000	0.490142
860.000000	0.490031
861.000000	0.489838
862.000000	0.489670
863.000000	0.489560
864.000000	0.489389
865.000000	0.489106
866.000000	0.488806
867.000000	0.488719
868.000000	0.488636
869.000000	0.488443
870.000000	0.488253
871.000000	0.488032
872.000000	0.487791
873.000000	0.487488
874.000000	0.487319
875.000000	0.487195
876.000000	0.487029
877.000000	0.486664
878.000000	0.486431
879.000000	0.486284
880.000000	0.486002
881.000000	0.485909
882.000000	0.485865
883.000000	0.485802
884.000000	0.485594
885.000000	0.485486
886.000000	0.485367
887.000000	0.485197
888.000000	0.484999
889.000000	0.484675
890.000000	0.484227
891.000000	0.484037
892.000000	0.483896
893.000000	0.483764
894.000000	0.483726
895.000000	0.483409
896.000000	0.483137
897.000000	0.482894
898.000000	0.482580
899.000000	0.482321
900.000000	0.482154
901.000000	0.482050
902.000000	0.482119
903.000000	0.481804
904.000000	0.481380
905.000000	0.481122
906.000000	0.481056
907.000000	0.480904
908.000000	0.480686
909.000000	0.480474
910.000000	0.480198
911.000000	0.480056
912.000000	0.480156
913.000000	0.479988
914.000000	0.479629
915.000000	0.479290
916.000000	0.479013
917.000000	0.478730
918.000000	0.478516
919.000000	0.478360
920.000000	0.478096
921.000000	0.477906
922.000000	0.477822
923.000000	0.477734
924.000000	0.477467
925.000000	0.477114
926.000000	0.476856
927.000000	0.476793
928.000000	0.476620
929.000000	0.476291
930.000000	0.475900
931.000000	0.475670
932.000000	0.475442
933.000000	0.475211
934.000000	0.474996
935.000000	0.474780
936.000000	0.474561
937.000000	0.474232
938.000000	0.474076
939.000000	0.473941
940.000000	0.473636
941.000000	0.473227
942.000000	0.472720
943.000000	0.472482
944.000000	0.472414
945.000000	0.472210
946.000000	0.471770
947.000000	0.471497
948.000000	0.471612
949.000000	0.471209
950.000000	0.470882
951.000000	0.470668
952.000000	0.470234
953.000000	0.469980
954.000000	0.469836
955.000000	0.469588
956.000000	0.469333
957.000000	0.469156
958.000000	0.468836
959.000000	0.468330
960.000000	0.468195
961.000000	0.467985
962.000000	0.467574
963.000000	0.467370
964.000000	0.467048
965.000000	0.466828
966.000000	0.466714
967.000000	0.466594
968.000000	0.466318
969.000000	0.465868
970.000000	0.465523
971.000000	0.465380
972.000000	0.465088
973.000000	0.464610
974.000000	0.464610
975.000000	0.464315
976.000000	0.463966
977.000000	0.463859
978.000000	0.463809
979.000000	0.463890
980.000000	0.463764
981.000000	0.463682
982.000000	0.463364
983.000000	0.463023
984.000000	0.462909
985.000000	0.463008
986.000000	0.463013
987.000000	0.463010
988.000000	0.462827
989.000000	0.462134
990.000000	0.462091
991.000000	0.462220
992.000000	0.461847
993.000000	0.462013
994.000000	0.461960
995.000000	0.461909
996.000000	0.462119
997.000000	0.461832
998.000000	0.461605
999.000000	0.461769
1000.000000	0.461682
1001.000000	0.461889
1002.000000	0.461850
1003.000000	0.461317
1004.000000	0.461488
1005.000000	0.462036
1006.000000	0.461833
1007.000000	0.461674
1008.000000	0.461832
1009.000000	0.461431
1010.000000	0.460508
1011.000000	0.461020
1012.000000	0.462080
1013.000000	0.461966
1014.000000	0.461443
1015.000000	0.461127
1016.000000	0.460957
1017.000000	0.460972
1018.000000	0.461256
1019.000000	0.461389
1020.000000	0.461659
1021.000000	0.461178
1022.000000	0.460383
1023.000000	0.460424
1024.000000	0.460407
1025.000000	0.460645
1026.000000	0.460123
1027.000000	0.459941
1028.000000	0.460276
1029.000000	0.460008
1030.000000	0.460477
1031.000000	0.461394
1032.000000	0.461650
1033.000000	0.461776
1034.000000	0.461922
1035.000000	0.462234
1036.000000	0.462392
1037.000000	0.462090
1038.000000	0.462190
1039.000000	0.462675
1040.000000	0.463328
1041.000000	0.463688
1042.000000	0.463872
1043.000000	0.463354
1044.000000	0.462939
1045.000000	0.462806
1046.000000	0.462667
1047.000000	0.463047
1048.000000	0.464140
1049.000000	0.464401
1050.000000	0.464554
1051.000000	0.464788
1052.000000	0.464384
1053.000000	0.464483
1054.000000	0.465559
1055.000000	0.465997
1056.000000	0.466149
1057.000000	0.466609
1058.000000	0.467080
1059.000000	0.466834
1060.000000	0.466936
1061.000000	0.467535
1062.000000	0.467471
1063.000000	0.467502
1064.000000	0.467790
1065.000000	0.468090
1066.000000	0.468464
1067.000000	0.469296
1068.000000	0.469533
1069.000000	0.469357
1070.000000	0.469401
1071.000000	0.469269
1072.000000	0.469254
1073.000000	0.469515
1074.000000	0.469703
1075.000000	0.469977
1076.000000	0.470312
1077.000000	0.470283
1078.000000	0.470385
1079.000000	0.470464
1080.000000	0.470341
1081.000000	0.470396
1082.000000	0.470791
1083.000000	0.471055
1084.000000	0.471319
1085.000000	0.471604
1086.000000	0.471997
1087.000000	0.472277
1088.000000	0.472236
1089.000000	0.472363
1090.000000	0.472775
1091.000000	0.472586
1092.000000	0.472230
1093.000000	0.472381
1094.000000	0.472539
1095.000000	0.472428
1096.000000	0.472825
1097.000000	0.473957
1098.000000	0.474277
1099.000000	0.474249
1100.000000	0.474410
1101.000000	0.474180
1102.000000	0.474198
1103.000000	0.474319
1104.000000	0.474578
1105.000000	0.474929
1106.000000	0.475228
1107.000000	0.475686
1108.000000	0.475986
1109.000000	0.476447
1110.000000	0.476439
1111.000000	0.476486
1112.000000	0.476363
1113.000000	0.476495
1114.000000	0.476625
1115.000000	0.476793
1116.000000	0.477294
1117.000000	0.477371
1118.000000	0.477000
1119.000000	0.476976
1120.000000	0.476852
1121.000000	0.477002
1122.000000	0.477862
1123.000000	0.478442
1124.000000	0.478599
1125.000000	0.478845
1126.000000	0.478863
1127.000000	0.478780
1128.000000	0.478645
1129.000000	0.478532
1130.000000	0.478550
1131.000000	0.478475
1132.000000	0.478536
1133.000000	0.479009
1134.000000	0.479105
1135.000000	0.478937
1136.000000	0.478862
1137.000000	0.478678
1138.000000	0.478501
1139.000000	0.478548
1140.000000	0.478536
1141.000000	0.478264
1142.000000	0.478212
1143.000000	0.478184
1144.000000	0.478278
1145.000000	0.478357
1146.000000	0.478214
1147.000000	0.478077
1148.000000	0.477699
1149.000000	0.477440
1150.000000	0.477192
1151.000000	0.477005
1152.000000	0.476669
1153.000000	0.476592
1154.000000	0.476716
1155.000000	0.476588
1156.000000	0.476412
1157.000000	0.476327
1158.000000	0.476190
1159.000000	0.475898
1160.000000	0.475498
1161.000000	0.475267
1162.000000	0.475052
1163.000000	0.474939
1164.000000	0.475006
1165.000000	0.474971
1166.000000	0.474969
1167.000000	0.474838
1168.000000	0.474696
1169.000000	0.474687
1170.000000	0.474544
1171.000000	0.474252
1172.000000	0.474151
1173.000000	0.474055
1174.000000	0.473946
1175.000000	0.473846
1176.000000	0.473740
1177.000000	0.473693
1178.000000	0.473716
1179.000000	0.473865
1180.000000	0.473830
1181.000000	0.473926
1182.000000	0.473888
1183.000000	0.473767
1184.000000	0.473685
1185.000000	0.473578
1186.000000	0.473400
1187.000000	0.473326
1188.000000	0.473287
1189.000000	0.473227
1190.000000	0.473408
1191.000000	0.473274
1192.000000	0.473046
1193.000000	0.473106
1194.000000	0.472964
1195.000000	0.472853
1196.000000	0.472854
1197.000000	0.472767
1198.000000	0.472493
1199.000000	0.472436
1200.000000	0.472548
1201.000000	0.472590
1202.000000	0.472537
1203.000000	0.472542
1204.000000	0.472466
1205.000000	0.472365
1206.000000	0.472280
1207.000000	0.472415
1208.000000	0.472353
1209.000000	0.472252
1210.000000	0.472247
1211.000000	0.472306
1212.000000	0.472208
1213.000000	0.472138
1214.000000	0.472102
1215.000000	0.471845
1216.000000	0.471792
1217.000000	0.471879
1218.000000	0.471909
1219.000000	0.471923
1220.000000	0.472226
1221.000000	0.472450
1222.000000	0.472469
1223.000000	0.472506
1224.000000	0.472359
1225.000000	0.472260
1226.000000	0.472328
1227.000000	0.472237
1228.000000	0.472250
1229.000000	0.472263
1230.000000	0.472208
1231.000000	0.472140
1232.000000	0.472368
1233.000000	0.472502
1234.000000	0.472529
1235.000000	0.472499
1236.000000	0.472220
1237.000000	0.472255
1238.000000	0.472316
1239.000000	0.472287
1240.000000	0.472333
1241.000000	0.472471
1242.000000	0.472379
1243.000000	0.472431
1244.000000	0.472750
1245.000000	0.473049
1246.000000	0.473251
1247.000000	0.473420
1248.000000	0.473416
1249.000000	0.473458
1250.000000	0.473557
1251.000000	0.473693
1252.000000	0.473743
1253.000000	0.473836
1254.000000	0.473824
1255.000000	0.473673
1256.000000	0.473648
1257.000000	0.473721
1258.000000	0.473819
1259.000000	0.473822
1260.000000	0.473905
1261.000000	0.473893
1262.000000	0.473954
1263.000000	0.474068
1264.000000	0.474303
1265.000000	0.474595
1266.000000	0.474883
1267.000000	0.474985
1268.000000	0.475013
1269.000000	0.474994
1270.000000	0.474941
1271.000000	0.474904
1272.000000	0.475021
1273.000000	0.475146
1274.000000	0.475159
1275.000000	0.475186
1276.000000	0.475321
1277.000000	0.475393
1278.000000	0.475195
1279.000000	0.475220
1280.000000	0.475276
1281.000000	0.475190
1282.000000	0.475196
1283.000000	0.475305
1284.000000	0.475279
1285.000000	0.475269
1286.000000	0.475317
1287.000000	0.475272
1288.000000	0.475308
1289.000000	0.475347
1290.000000	0.475308
1291.000000	0.475440
1292.000000	0.475536
1293.000000	0.475442
1294.000000	0.475449
1295.000000	0.475447
1296.000000	0.475399
1297.000000	0.475362
1298.000000	0.475358
1299.000000	0.475403
1300.000000	0.475408
1301.000000	0.475336
1302.000000	0.475218
1303.000000	0.475308
1304.000000	0.475138
1305.000000	0.474887
1306.000000	0.474763
1307.000000	0.474655
1308.000000	0.474613
1309.000000	0.474767
1310.000000	0.474761
1311.000000	0.474742
1312.000000	0.474547
1313.000000	0.474513
1314.000000	0.474297
1315.000000	0.473769
1316.000000	0.473455
1317.000000	0.473095
1318.000000	0.472807
1319.000000	0.472718
1320.000000	0.472504
1321.000000	0.472115
1322.000000	0.471635
1323.000000	0.471128
1324.000000	0.470811
1325.000000	0.470533
1326.000000	0.470154
1327.000000	0.469910
1328.000000	0.469753
1329.000000	0.469349
1330.000000	0.468826
1331.000000	0.468440
1332.000000	0.467972
1333.000000	0.467610
1334.000000	0.467615
1335.000000	0.467340
1336.000000	0.466970
1337.000000	0.466538
1338.000000	0.465922
1339.000000	0.465161
1340.000000	0.464640
1341.000000	0.464246
1342.000000	0.463725
1343.000000	0.463263
1344.000000	0.462740
1345.000000	0.462025
1346.000000	0.461469
1347.000000	0.460873
1348.000000	0.460373
1349.000000	0.459765
1350.000000	0.459123
1351.000000	0.458593
1352.000000	0.457998
1353.000000	0.457332
1354.000000	0.456880
1355.000000	0.456350
1356.000000	0.455765
1357.000000	0.455207
1358.000000	0.454549
1359.000000	0.453834
1360.000000	0.453245
1361.000000	0.452767
1362.000000	0.452244
1363.000000	0.451818
1364.000000	0.451370
1365.000000	0.450811
1366.000000	0.450317
1367.000000	0.449912
1368.000000	0.449280
1369.000000	0.448750
1370.000000	0.448175
1371.000000	0.447487
1372.000000	0.446781
1373.000000	0.446117
1374.000000	0.445442
1375.000000	0.444639
1376.000000	0.444086
1377.000000	0.443640
1378.000000	0.443039
1379.000000	0.442251
1380.000000	0.441345
1381.000000	0.440150
1382.000000	0.438776
1383.000000	0.437695
1384.000000	0.436549
1385.000000	0.435345
1386.000000	0.434259
1387.000000	0.432929
1388.000000	0.431451
1389.000000	0.429926
1390.000000	0.428403
1391.000000	0.426779
1392.000000	0.425106
1393.000000	0.423237
1394.000000	0.421228
1395.000000	0.419161
1396.000000	0.416972
1397.000000	0.414662
1398.000000	0.412198
1399.000000	0.409860
1400.000000	0.407518
1401.000000	0.405022
1402.000000	0.402631
1403.000000	0.399937
1404.000000	0.397208
1405.000000	0.394495
1406.000000	0.391774
1407.000000	0.389228
1408.000000	0.386597
1409.000000	0.383983
1410.000000	0.381436
1411.000000	0.378701
1412.000000	0.375957
1413.000000	0.373224
1414.000000	0.370485
1415.000000	0.367971
1416.000000	0.365461
1417.000000	0.362962
1418.000000	0.360399
1419.000000	0.357773
1420.000000	0.355131
1421.000000	0.352569
1422.000000	0.350122
1423.000000	0.347901
1424.000000	0.345597
1425.000000	0.343325
1426.000000	0.341027
1427.000000	0.338652
1428.000000	0.336500
1429.000000	0.334496
1430.000000	0.332584
1431.000000	0.330833
1432.000000	0.329039
1433.000000	0.327274
1434.000000	0.325549
1435.000000	0.323894
1436.000000	0.322313
1437.000000	0.320793
1438.000000	0.319261
1439.000000	0.317814
1440.000000	0.316455
1441.000000	0.315175
1442.000000	0.313880
1443.000000	0.312570
1444.000000	0.311304
1445.000000	0.310073
1446.000000	0.308992
1447.000000	0.308097
1448.000000	0.307325
1449.000000	0.306599
1450.000000	0.305871
1451.000000	0.305156
1452.000000	0.304406
1453.000000	0.303681
1454.000000	0.303074
1455.000000	0.302516
1456.000000	0.302038
1457.000000	0.301667
1458.000000	0.301227
1459.000000	0.300863
1460.000000	0.300488
1461.000000	0.299922
1462.000000	0.299440
1463.000000	0.298962
1464.000000	0.298598
1465.000000	0.298470
1466.000000	0.298275
1467.000000	0.298114
1468.000000	0.297944
1469.000000	0.297769
1470.000000	0.297617
1471.000000	0.297614
1472.000000	0.297714
1473.000000	0.297816
1474.000000	0.297961
1475.000000	0.298154
1476.000000	0.298438
1477.000000	0.298902
1478.000000	0.299492
1479.000000	0.300113
1480.000000	0.300680
1481.000000	0.301307
1482.000000	0.301965
1483.000000	0.302761
1484.000000	0.303732
1485.000000	0.304604
1486.000000	0.305522
1487.000000	0.306409
1488.000000	0.307222
1489.000000	0.308045
1490.000000	0.308788
1491.000000	0.309538
1492.000000	0.310211
1493.000000	0.310948
1494.000000	0.311667
1495.000000	0.312372
1496.000000	0.313047
1497.000000	0.313800
1498.000000	0.314608
1499.000000	0.315410
1500.000000	0.316224
1501.000000	0.316858
1502.000000	0.317413
1503.000000	0.318063
1504.000000	0.318653
1505.000000	0.319313
1506.000000	0.320028
1507.000000	0.320610
1508.000000	0.321274
1509.000000	0.321957
1510.000000	0.322493
1511.000000	0.323056
1512.000000	0.323576
1513.000000	0.323977
1514.000000	0.324401
1515.000000	0.324757
1516.000000	0.325123
1517.000000	0.325499
1518.000000	0.325942
1519.000000	0.326284
1520.000000	0.326461
1521.000000	0.326590
1522.000000	0.326791
1523.000000	0.327052
1524.000000	0.327308
1525.000000	0.327746
1526.000000	0.328047
1527.000000	0.328246
1528.000000	0.328620
1529.000000	0.328843
1530.000000	0.328959
1531.000000	0.329196
1532.000000	0.329397
1533.000000	0.329557
1534.000000	0.329781
1535.000000	0.330088
1536.000000	0.330323
1537.000000	0.330534
1538.000000	0.330705
1539.000000	0.330789
1540.000000	0.330824
1541.000000	0.330975
1542.000000	0.331223
1543.000000	0.331342
1544.000000	0.331516
1545.000000	0.331745
1546.000000	0.331817
1547.000000	0.331935
1548.000000	0.332065
1549.000000	0.332076
1550.000000	0.332036
1551.000000	0.332020
1552.000000	0.332004
1553.000000	0.331903
1554.000000	0.331945
1555.000000	0.332052
1556.000000	0.331951
1557.000000	0.331832
1558.000000	0.331829
1559.000000	0.331723
1560.000000	0.331696
1561.000000	0.331907
1562.000000	0.331940
1563.000000	0.331925
1564.000000	0.331895
1565.000000	0.331788
1566.000000	0.331702
1567.000000	0.331688
1568.000000	0.331685
1569.000000	0.331811
1570.000000	0.331854
1571.000000	0.331884
1572.000000	0.331844
1573.000000	0.331747
1574.000000	0.331678
1575.000000	0.331567
1576.000000	0.331544
1577.000000	0.331532
1578.000000	0.331552
1579.000000	0.331726
1580.000000	0.331789
1581.000000	0.331906
1582.000000	0.331976
1583.000000	0.331947
1584.000000	0.331938
1585.000000	0.332026
1586.000000	0.332108
1587.000000	0.332192
1588.000000	0.332250
1589.000000	0.332332
1590.000000	0.332373
1591.000000	0.332377
1592.000000	0.332463
1593.000000	0.332630
1594.000000	0.332673
1595.000000	0.332691
1596.000000	0.332803
1597.000000	0.332913
1598.000000	0.333040
1599.000000	0.333399
1600.000000	0.333477
1601.000000	0.333446
1602.000000	0.333499
1603.000000	0.333455
1604.000000	0.333535
1605.000000	0.333775
1606.000000	0.333890
1607.000000	0.334060
1608.000000	0.334169
1609.000000	0.334205
1610.000000	0.334336
1611.000000	0.334571
1612.000000	0.334721
1613.000000	0.334993
1614.000000	0.335171
1615.000000	0.335268
1616.000000	0.335481
1617.000000	0.335679
1618.000000	0.335934
1619.000000	0.336278
1620.000000	0.336520
1621.000000	0.336764
1622.000000	0.337086
1623.000000	0.337292
1624.000000	0.337637
1625.000000	0.337978
1626.000000	0.338308
1627.000000	0.338731
1628.000000	0.339136
1629.000000	0.339497
1630.000000	0.339938
1631.000000	0.340309
1632.000000	0.340739
1633.000000	0.341350
1634.000000	0.341776
1635.000000	0.342160
1636.000000	0.342531
1637.000000	0.342799
1638.000000	0.343113
1639.000000	0.343535
1640.000000	0.343893
1641.000000	0.344260
1642.000000	0.344662
1643.000000	0.345091
1644.000000	0.345568
1645.000000	0.346122
1646.000000	0.346552
1647.000000	0.346995
1648.000000	0.347424
1649.000000	0.347865
1650.000000	0.348361
1651.000000	0.348983
1652.000000	0.349489
1653.000000	0.349877
1654.000000	0.350405
1655.000000	0.350861
1656.000000	0.351284
1657.000000	0.351873
1658.000000	0.352361
1659.000000	0.352911
1660.000000	0.353388
1661.000000	0.353726
1662.000000	0.354128
1663.000000	0.354411
1664.000000	0.354834
1665.000000	0.355402
1666.000000	0.355881
1667.000000	0.356241
1668.000000	0.356645
1669.000000	0.356986
1670.000000	0.357371
1671.000000	0.357943
1672.000000	0.358410
1673.000000	0.358829
1674.000000	0.359113
1675.000000	0.359486
1676.000000	0.359996
1677.000000	0.360311
1678.000000	0.360581
1679.000000	0.360993
1680.000000	0.361305
1681.000000	0.361681
1682.000000	0.362171
1683.000000	0.362645
1684.000000	0.363044
1685.000000	0.363361
1686.000000	0.363614
1687.000000	0.363851
1688.000000	0.363910
1689.000000	0.364083
1690.000000	0.364389
1691.000000	0.364643
1692.000000	0.365000
1693.000000	0.365420
1694.000000	0.365667
1695.000000	0.366032
1696.000000	0.366244
1697.000000	0.366395
1698.000000	0.366506
1699.000000	0.366716
1700.000000	0.366934
1701.000000	0.367286
1702.000000	0.367637
1703.000000	0.367832
1704.000000	0.368074
1705.000000	0.368299
1706.000000	0.368453
1707.000000	0.368637
1708.000000	0.368785
1709.000000	0.368932
1710.000000	0.369155
1711.000000	0.369472
1712.000000	0.369977
1713.000000	0.370306
1714.000000	0.370717
1715.000000	0.370956
1716.000000	0.370944
1717.000000	0.371111
1718.000000	0.371242
1719.000000	0.371407
1720.000000	0.371717
1721.000000	0.372018
1722.000000	0.372320
1723.000000	0.372627
1724.000000	0.373022
1725.000000	0.373411
1726.000000	0.373652
1727.000000	0.374008
1728.000000	0.374405
1729.000000	0.374654
1730.000000	0.375049
1731.000000	0.375317
1732.000000	0.375434
1733.000000	0.375779
1734.000000	0.376017
1735.000000	0.376333
1736.000000	0.376785
1737.000000	0.377044
1738.000000	0.377192
1739.000000	0.377506
1740.000000	0.377815
1741.000000	0.378079
1742.000000	0.378457
1743.000000	0.378771
1744.000000	0.378977
1745.000000	0.379124
1746.000000	0.379214
1747.000000	0.379566
1748.000000	0.379743
1749.000000	0.380024
1750.000000	0.380251
1751.000000	0.380476
1752.000000	0.380731
1753.000000	0.380854
1754.000000	0.381021
1755.000000	0.380963
1756.000000	0.381101
1757.000000	0.381424
1758.000000	0.381756
1759.000000	0.382237
1760.000000	0.382579
1761.000000	0.382804
1762.000000	0.383063
1763.000000	0.383373
1764.000000	0.383521
1765.000000	0.383439
1766.000000	0.383644
1767.000000	0.383822
1768.000000	0.383902
1769.000000	0.384306
1770.000000	0.384535
1771.000000	0.384354
1772.000000	0.384546
1773.000000	0.384851
1774.000000	0.385203
1775.000000	0.385855
1776.000000	0.386256
1777.000000	0.386610
1778.000000	0.386818
1779.000000	0.386762
1780.000000	0.386976
1781.000000	0.387218
1782.000000	0.387346
1783.000000	0.387595
1784.000000	0.387691
1785.000000	0.387807
1786.000000	0.388231
1787.000000	0.388556
1788.000000	0.388938
1789.000000	0.389304
1790.000000	0.389610
1791.000000	0.389938
1792.000000	0.390462
1793.000000	0.390780
1794.000000	0.391058
1795.000000	0.391331
1796.000000	0.391353
1797.000000	0.391559
1798.000000	0.391839
1799.000000	0.392185
1800.000000	0.392744
1801.000000	0.392079
1802.000000	0.392436
1803.000000	0.392253
1804.000000	0.392109
1805.000000	0.391532
1806.000000	0.391642
1807.000000	0.391622
1808.000000	0.391795
1809.000000	0.392686
1810.000000	0.393565
1811.000000	0.393735
1812.000000	0.393606
1813.000000	0.393449
1814.000000	0.392639
1815.000000	0.392494
1816.000000	0.392404
1817.000000	0.392365
1818.000000	0.392525
1819.000000	0.393471
1820.000000	0.393509
1821.000000	0.393532
1822.000000	0.393578
1823.000000	0.392842
1824.000000	0.392976
1825.000000	0.394049
1826.000000	0.394392
1827.000000	0.394448
1828.000000	0.394815
1829.000000	0.394703
1830.000000	0.393920
1831.000000	0.393647
1832.000000	0.393565
1833.000000	0.393277
1834.000000	0.392895
1835.000000	0.392634
1836.000000	0.392260
1837.000000	0.392069
1838.000000	0.392212
1839.000000	0.391715
1840.000000	0.391089
1841.000000	0.390461
1842.000000	0.389703
1843.000000	0.388166
1844.000000	0.387733
1845.000000	0.388154
1846.000000	0.387802
1847.000000	0.387601
1848.000000	0.386880
1849.000000	0.385410
1850.000000	0.383610
1851.000000	0.382534
1852.000000	0.381922
1853.000000	0.380854
1854.000000	0.379650
1855.000000	0.378213
1856.000000	0.376045
1857.000000	0.374396
1858.000000	0.373072
1859.000000	0.372056
1860.000000	0.371186
1861.000000	0.369443
1862.000000	0.367381
1863.000000	0.364965
1864.000000	0.362402
1865.000000	0.359201
1866.000000	0.356326
1867.000000	0.353381
1868.000000	0.350403
1869.000000	0.347075
1870.000000	0.343845
1871.000000	0.341242
1872.000000	0.338174
1873.000000	0.334710
1874.000000	0.331325
1875.000000	0.327514
1876.000000	0.322805
1877.000000	0.318053
1878.000000	0.313065
1879.000000	0.308114
1880.000000	0.303244
1881.000000	0.297804
1882.000000	0.292716
1883.000000	0.287680
1884.000000	0.282469
1885.000000	0.276869
1886.000000	0.271339
1887.000000	0.265742
1888.000000	0.259872
1889.000000	0.253823
1890.000000	0.247844
1891.000000	0.241863
1892.000000	0.235650
1893.000000	0.229929
1894.000000	0.223981
1895.000000	0.217937
1896.000000	0.211750
1897.000000	0.206111
1898.000000	0.200409
1899.000000	0.195424
1900.000000	0.190915
1901.000000	0.186604
1902.000000	0.182276
1903.000000	0.177100
1904.000000	0.172288
1905.000000	0.167826
1906.000000	0.163300
1907.000000	0.158698
1908.000000	0.155110
1909.000000	0.151399
1910.000000	0.147160
1911.000000	0.143507
1912.000000	0.139733
1913.000000	0.136729
1914.000000	0.134375
1915.000000	0.131843
1916.000000	0.130048
1917.000000	0.128073
1918.000000	0.126049
1919.000000	0.124215
1920.000000	0.122281
1921.000000	0.120266
1922.000000	0.118604
1923.000000	0.116505
1924.000000	0.115182
1925.000000	0.114770
1926.000000	0.114234
1927.000000	0.113593
1928.000000	0.113223
1929.000000	0.113138
1930.000000	0.112680
1931.000000	0.112692
1932.000000	0.113422
1933.000000	0.113602
1934.000000	0.113255
1935.000000	0.112968
1936.000000	0.112882
1937.000000	0.112785
1938.000000	0.113278
1939.000000	0.113364
1940.000000	0.113357
1941.000000	0.112721
1942.000000	0.112339
1943.000000	0.111632
1944.000000	0.111063
1945.000000	0.110452
1946.000000	0.109841
1947.000000	0.109482
1948.000000	0.108556
1949.000000	0.108166
1950.000000	0.108038
1951.000000	0.107443
1952.000000	0.106360
1953.000000	0.106292
1954.000000	0.106016
1955.000000	0.105106
1956.000000	0.105253
1957.000000	0.104711
1958.000000	0.103733
1959.000000	0.103637
1960.000000	0.103613
1961.000000	0.103575
1962.000000	0.103505
1963.000000	0.103787
1964.000000	0.103680
1965.000000	0.102897
1966.000000	0.102279
1967.000000	0.101661
1968.000000	0.101093
1969.000000	0.101263
1970.000000	0.101747
1971.000000	0.102420
1972.000000	0.102977
1973.000000	0.103248
1974.000000	0.103394
1975.000000	0.103285
1976.000000	0.102722
1977.000000	0.102488
1978.000000	0.102392
1979.000000	0.102571
1980.000000	0.103234
1981.000000	0.103809
1982.000000	0.104445
1983.000000	0.104791
1984.000000	0.105177
1985.000000	0.105430
1986.000000	0.106037
1987.000000	0.106660
1988.000000	0.107711
1989.000000	0.108953
1990.000000	0.109858
1991.000000	0.110555
1992.000000	0.111272
1993.000000	0.111984
1994.000000	0.112934
1995.000000	0.113643
1996.000000	0.114456
1997.000000	0.115258
1998.000000	0.115765
1999.000000	0.116600
2000.000000	0.117817
2001.000000	0.118690
2002.000000	0.119807
2003.000000	0.121203
2004.000000	0.121829
2005.000000	0.122597
2006.000000	0.123059
2007.000000	0.123442
2008.000000	0.124298
2009.000000	0.125664
2010.000000	0.126695
2011.000000	0.127494
2012.000000	0.128610
2013.000000	0.129753
2014.000000	0.131151
2015.000000	0.132505
2016.000000	0.134474
2017.000000	0.135758
2018.000000	0.136974
2019.000000	0.138433
2020.000000	0.139415
2021.000000	0.140768
2022.000000	0.142420
2023.000000	0.143655
2024.000000	0.144894
2025.000000	0.146255
2026.000000	0.147566
2027.000000	0.148444
2028.000000	0.149314
2029.000000	0.150054
2030.000000	0.150672
2031.000000	0.152142
2032.000000	0.154102
2033.000000	0.155921
2034.000000	0.157337
2035.000000	0.158375
2036.000000	0.159533
2037.000000	0.160461
2038.000000	0.161661
2039.000000	0.163144
2040.000000	0.164703
2041.000000	0.165865
2042.000000	0.167108
2043.000000	0.167900
2044.000000	0.169142
2045.000000	0.170250
2046.000000	0.170899
2047.000000	0.171990
2048.000000	0.173187
2049.000000	0.174332
2050.000000	0.175488
2051.000000	0.176719
2052.000000	0.177877
2053.000000	0.178955
2054.000000	0.180376
2055.000000	0.181437
2056.000000	0.182287
2057.000000	0.183162
2058.000000	0.183534
2059.000000	0.184358
2060.000000	0.185427
2061.000000	0.186588
2062.000000	0.187907
2063.000000	0.189927
2064.000000	0.191037
2065.000000	0.192099
2066.000000	0.192861
2067.000000	0.192738
2068.000000	0.193902
2069.000000	0.195243
2070.000000	0.196536
2071.000000	0.198295
2072.000000	0.199151
2073.000000	0.199881
2074.000000	0.200383
2075.000000	0.200991
2076.000000	0.201356
2077.000000	0.202380
2078.000000	0.203847
2079.000000	0.205060
2080.000000	0.206563
2081.000000	0.208009
2082.000000	0.209395
2083.000000	0.210346
2084.000000	0.211922
2085.000000	0.213914
2086.000000	0.215609
2087.000000	0.217142
2088.000000	0.218205
2089.000000	0.219288
2090.000000	0.220432
2091.000000	0.221216
2092.000000	0.222471
2093.000000	0.224324
2094.000000	0.225668
2095.000000	0.227254
2096.000000	0.228524
2097.000000	0.229267
2098.000000	0.229894
2099.000000	0.231338
2100.000000	0.232351
2101.000000	0.234102
2102.000000	0.235939
2103.000000	0.237306
2104.000000	0.238301
2105.000000	0.239022
2106.000000	0.239338
2107.000000	0.239697
2108.000000	0.239421
2109.000000	0.239952
2110.000000	0.240410
2111.000000	0.241392
2112.000000	0.243078
2113.000000	0.244440
2114.000000	0.245755
2115.000000	0.246897
2116.000000	0.247458
2117.000000	0.247606
2118.000000	0.248587
2119.000000	0.249875
2120.000000	0.250743
2121.000000	0.251788
2122.000000	0.252775
2123.000000	0.253228
2124.000000	0.253953
2125.000000	0.255422
2126.000000	0.256129
2127.000000	0.255947
2128.000000	0.256648
2129.000000	0.257740
2130.000000	0.258315
2131.000000	0.258593
2132.000000	0.258617
2133.000000	0.258462
2134.000000	0.258089
2135.000000	0.258290
2136.000000	0.258994
2137.000000	0.259397
2138.000000	0.259814
2139.000000	0.259800
2140.000000	0.259201
2141.000000	0.259397
2142.000000	0.259576
2143.000000	0.259834
2144.000000	0.261417
2145.000000	0.262247
2146.000000	0.263274
2147.000000	0.262825
2148.000000	0.262313
2149.000000	0.262082
2150.000000	0.261749
2151.000000	0.262098
2152.000000	0.263125
2153.000000	0.263765
2154.000000	0.263816
2155.000000	0.263069
2156.000000	0.263153
2157.000000	0.262888
2158.000000	0.263286
2159.000000	0.265110
2160.000000	0.265954
2161.000000	0.266559
2162.000000	0.267145
2163.000000	0.267027
2164.000000	0.267172
2165.000000	0.267628
2166.000000	0.267547
2167.000000	0.267507
2168.000000	0.267974
2169.000000	0.268915
2170.000000	0.269204
2171.000000	0.269216
2172.000000	0.269006
2173.000000	0.268914
2174.000000	0.268591
2175.000000	0.268204
2176.000000	0.267732
2177.000000	0.267639
2178.000000	0.267429
2179.000000	0.267346
2180.000000	0.267793
2181.000000	0.268219
2182.000000	0.268494
2183.000000	0.267585
2184.000000	0.267149
2185.000000	0.267198
2186.000000	0.266313
2187.000000	0.266837
2188.000000	0.267075
2189.000000	0.266658
2190.000000	0.267070
2191.000000	0.267266
2192.000000	0.267193
2193.000000	0.267123
2194.000000	0.267174
2195.000000	0.266741
2196.000000	0.266938
2197.000000	0.268085
2198.000000	0.268280
2199.000000	0.268142
2200.000000	0.268117
2201.000000	0.266932
2202.000000	0.267520
2203.000000	0.269767
2204.000000	0.270728
2205.000000	0.272297
2206.000000	0.272887
2207.000000	0.272490
2208.000000	0.270997
2209.000000	0.268934
2210.000000	0.268420
2211.000000	0.267035
2212.000000	0.268755
2213.000000	0.268400
2214.000000	0.268105
2215.000000	0.267128
2216.000000	0.263975
2217.000000	0.263335
2218.000000	0.263443
2219.000000	0.264655
2220.000000	0.268125
2221.000000	0.269619
2222.000000	0.271423
2223.000000	0.272848
2224.000000	0.272594
2225.000000	0.274363
2226.000000	0.275453
2227.000000	0.274582
2228.000000	0.272429
2229.000000	0.269217
2230.000000	0.268729
2231.000000	0.268919
2232.000000	0.269011
2233.000000	0.269586
2234.000000	0.268345
2235.000000	0.268341
2236.000000	0.269486
2237.000000	0.273079
2238.000000	0.274797
2239.000000	0.277052
2240.000000	0.276997
2241.000000	0.275589
2242.000000	0.273223
2243.000000	0.267681
2244.000000	0.265810
2245.000000	0.264169
2246.000000	0.263917
2247.000000	0.267031
2248.000000	0.268451
2249.000000	0.269986
2250.000000	0.270976
2251.000000	0.271427
2252.000000	0.270772
2253.000000	0.267869
2254.000000	0.267460
2255.000000	0.269112
2256.000000	0.271505
2257.000000	0.275536
2258.000000	0.277103
2259.000000	0.274254
2260.000000	0.271125
2261.000000	0.268718
2262.000000	0.264451
2263.000000	0.263576
2264.000000	0.265474
2265.000000	0.264373
2266.000000	0.264012
2267.000000	0.262795
2268.000000	0.258687
2269.000000	0.257664
2270.000000	0.258577
2271.000000	0.257873
2272.000000	0.256604
2273.000000	0.256837
2274.000000	0.257019
2275.000000	0.258075
2276.000000	0.261451
2277.000000	0.263199
2278.000000	0.264440
2279.000000	0.263375
2280.000000	0.259153
2281.000000	0.257834
2282.000000	0.256269
2283.000000	0.254143
2284.000000	0.252210
2285.000000	0.247796
2286.000000	0.245389
2287.000000	0.242850
2288.000000	0.239150
2289.000000	0.239247
2290.000000	0.238995
2291.000000	0.238359
2292.000000	0.238186
2293.000000	0.237641
2294.000000	0.236819
2295.000000	0.233229
2296.000000	0.232437
2297.000000	0.234052
2298.000000	0.234376
2299.000000	0.235682
2300.000000	0.236165
2301.000000	0.235409
2302.000000	0.234561
2303.000000	0.233289
2304.000000	0.231556
2305.000000	0.229567
2306.000000	0.228276
2307.000000	0.226366
2308.000000	0.225447
2309.000000	0.227240
2310.000000	0.228259
2311.000000	0.228244
2312.000000	0.229466
2313.000000	0.227242
2314.000000	0.223518
2315.000000	0.223951
2316.000000	0.222907
2317.000000	0.220883
2318.000000	0.220444
2319.000000	0.217028
2320.000000	0.213191
2321.000000	0.212204
2322.000000	0.210529
2323.000000	0.209173
2324.000000	0.208484
2325.000000	0.205925
2326.000000	0.205144
2327.000000	0.204183
2328.000000	0.201710
2329.000000	0.201109
2330.000000	0.197866
2331.000000	0.195285
2332.000000	0.194534
2333.000000	0.193800
2334.000000	0.194279
2335.000000	0.194272
2336.000000	0.194552
2337.000000	0.193345
2338.000000	0.191695
2339.000000	0.189857
2340.000000	0.185467
2341.000000	0.183212
2342.000000	0.181808
2343.000000	0.180109
2344.000000	0.179038
2345.000000	0.178443
2346.000000	0.178508
2347.000000	0.178071
2348.000000	0.177611
2349.000000	0.178507
2350.000000	0.177713
2351.000000	0.175494
2352.000000	0.172592
2353.000000	0.169770
2354.000000	0.167651
2355.000000	0.165943
2356.000000	0.165096
2357.000000	0.164489
2358.000000	0.160552
2359.000000	0.155455
2360.000000	0.153053
2361.000000	0.151153
2362.000000	0.147828
2363.000000	0.148280
2364.000000	0.148226
2365.000000	0.145208
2366.000000	0.149035
2367.000000	0.150212
2368.000000	0.146110
2369.000000	0.145370
2370.000000	0.141480
2371.000000	0.135530
2372.000000	0.135163
2373.000000	0.135307
2374.000000	0.132197
2375.000000	0.130505
2376.000000	0.130402
2377.000000	0.131611
2378.000000	0.130800
2379.000000	0.130705
2380.000000	0.129460
2381.000000	0.121854
2382.000000	0.119052
2383.000000	0.119947
2384.000000	0.120604
2385.000000	0.123192
2386.000000	0.125181
2387.000000	0.125223
2388.000000	0.122845
2389.000000	0.118621
2390.000000	0.111976
2391.000000	0.107728
2392.000000	0.111500
2393.000000	0.114180
2394.000000	0.116673
2395.000000	0.122406
2396.000000	0.116444
2397.000000	0.111128
2398.000000	0.115703
2399.000000	0.115691
2400.000000	0.116772
2401.000000	0.117600
2402.000000	0.114420
2403.000000	0.108853
2404.000000	0.102831
2405.000000	0.104027
2406.000000	0.105028
2407.000000	0.100887
2408.000000	0.098337
2409.000000	0.097786
2410.000000	0.095738
2411.000000	0.096206
2412.000000	0.097438
2413.000000	0.097875
2414.000000	0.095481
2415.000000	0.087753
2416.000000	0.081435
2417.000000	0.073883
2418.000000	0.065006
2419.000000	0.060917
2420.000000	0.062469
2421.000000	0.064273
2422.000000	0.066799
2423.000000	0.072983
2424.000000	0.075608
2425.000000	0.077687
2426.000000	0.079500
2427.000000	0.084049
2428.000000	0.091570
2429.000000	0.100424
2430.000000	0.103585
2431.000000	0.089673
2432.000000	0.083459
2433.000000	0.071142
2434.000000	0.052871
2435.000000	0.060290
2436.000000	0.066915
2437.000000	0.078978
2438.000000	0.102418
2439.000000	0.103665
2440.000000	0.099650
2441.000000	0.105319
2442.000000	0.101612
2443.000000	0.103172
2444.000000	0.111833
2445.000000	0.106418
2446.000000	0.110074
2447.000000	0.114104
2448.000000	0.103403
2449.000000	0.092586
2450.000000	0.078050
2451.000000	0.078339
2452.000000	0.085146
2453.000000	0.087838
2454.000000	0.084048
2455.000000	0.067107
2456.000000	0.061981
2457.000000	0.069154
2458.000000	0.076126
2459.000000	0.082053
2460.000000	0.089555
2461.000000	0.072650
2462.000000	0.059590
2463.000000	0.059170
2464.000000	0.045427
2465.000000	0.048038
2466.000000	0.047817
2467.000000	0.038597
2468.000000	0.023662
2469.000000	0.022500
2470.000000	0.040732
2471.000000	0.053243
2472.000000	0.079967
2473.000000	0.076360
2474.000000	0.068810
2475.000000	0.082564
2476.000000	0.070900
2477.000000	0.080518
2478.000000	0.081633
2479.000000	0.061007
2480.000000	0.048687
2481.000000	0.028845
2482.000000	0.001581
2483.000000	-0.049118
2484.000000	-0.078217
2485.000000	-0.105708
2486.000000	-0.142066
2487.000000	-0.118787
2488.000000	-0.111218
2489.000000	-0.103074
2490.000000	-0.064528
2491.000000	-0.061386
2492.000000	-0.046220
2493.000000	-0.001670
2494.000000	0.008515
2495.000000	-0.025148
2496.000000	-0.027321
2497.000000	-0.034846
2498.000000	-0.030857
2499.000000	0.030674
2500.000000	0.063780
