# Wavelength	NAu-2-10_HEX-60_FV7-30_00000.asd.rts.txt
350.000000	0.201467
351.000000	0.211205
352.000000	0.199394
353.000000	0.186617
354.000000	0.187031
355.000000	0.190681
356.000000	0.196023
357.000000	0.201501
358.000000	0.201312
359.000000	0.199377
360.000000	0.195784
361.000000	0.190949
362.000000	0.196809
363.000000	0.201753
364.000000	0.198894
365.000000	0.196976
366.000000	0.195751
367.000000	0.194832
368.000000	0.194104
369.000000	0.195741
370.000000	0.198496
371.000000	0.199787
372.000000	0.193110
373.000000	0.195465
374.000000	0.211064
375.000000	0.203525
376.000000	0.197983
377.000000	0.201274
378.000000	0.204007
379.000000	0.204273
380.000000	0.203449
381.000000	0.204679
382.000000	0.206013
383.000000	0.207185
384.000000	0.208038
385.000000	0.207184
386.000000	0.206588
387.000000	0.207170
388.000000	0.208715
389.000000	0.209276
390.000000	0.208679
391.000000	0.207411
392.000000	0.208430
393.000000	0.208968
394.000000	0.207456
395.000000	0.208852
396.000000	0.209767
397.000000	0.209457
398.000000	0.211079
399.000000	0.210413
400.000000	0.208971
401.000000	0.210292
402.000000	0.210456
403.000000	0.210408
404.000000	0.211442
405.000000	0.212178
406.000000	0.212677
407.000000	0.212906
408.000000	0.212176
409.000000	0.212331
410.000000	0.213398
411.000000	0.214318
412.000000	0.213947
413.000000	0.213326
414.000000	0.213770
415.000000	0.214829
416.000000	0.215769
417.000000	0.216157
418.000000	0.216051
419.000000	0.216239
420.000000	0.216634
421.000000	0.216352
422.000000	0.216480
423.000000	0.217014
424.000000	0.217641
425.000000	0.217882
426.000000	0.218180
427.000000	0.218691
428.000000	0.218262
429.000000	0.218294
430.000000	0.219150
431.000000	0.219922
432.000000	0.220150
433.000000	0.220186
434.000000	0.220861
435.000000	0.221021
436.000000	0.221019
437.000000	0.221333
438.000000	0.221792
439.000000	0.221965
440.000000	0.221876
441.000000	0.222112
442.000000	0.222590
443.000000	0.222948
444.000000	0.222713
445.000000	0.222636
446.000000	0.222821
447.000000	0.223078
448.000000	0.223945
449.000000	0.224630
450.000000	0.224752
451.000000	0.225337
452.000000	0.225872
453.000000	0.226140
454.000000	0.226451
455.000000	0.226267
456.000000	0.226091
457.000000	0.226627
458.000000	0.227062
459.000000	0.227449
460.000000	0.227950
461.000000	0.228288
462.000000	0.228524
463.000000	0.228683
464.000000	0.229225
465.000000	0.229634
466.000000	0.229875
467.000000	0.230330
468.000000	0.230418
469.000000	0.230428
470.000000	0.230897
471.000000	0.231148
472.000000	0.231395
473.000000	0.231810
474.000000	0.232166
475.000000	0.232194
476.000000	0.232160
477.000000	0.232659
478.000000	0.232817
479.000000	0.233002
480.000000	0.233670
481.000000	0.233700
482.000000	0.233810
483.000000	0.234448
484.000000	0.234747
485.000000	0.234844
486.000000	0.235033
487.000000	0.235329
488.000000	0.235473
489.000000	0.235606
490.000000	0.236126
491.000000	0.236340
492.000000	0.236450
493.000000	0.236726
494.000000	0.237068
495.000000	0.237277
496.000000	0.237291
497.000000	0.237628
498.000000	0.237896
499.000000	0.238072
500.000000	0.238410
501.000000	0.238571
502.000000	0.238718
503.000000	0.239127
504.000000	0.239345
505.000000	0.239506
506.000000	0.239786
507.000000	0.239963
508.000000	0.240190
509.000000	0.240501
510.000000	0.240766
511.000000	0.241184
512.000000	0.241678
513.000000	0.241882
514.000000	0.242193
515.000000	0.242584
516.000000	0.242868
517.000000	0.243274
518.000000	0.243709
519.000000	0.244020
520.000000	0.244376
521.000000	0.244749
522.000000	0.245128
523.000000	0.245508
524.000000	0.245881
525.000000	0.246275
526.000000	0.246778
527.000000	0.247337
528.000000	0.247906
529.000000	0.248486
530.000000	0.249006
531.000000	0.249656
532.000000	0.250412
533.000000	0.251010
534.000000	0.251631
535.000000	0.252310
536.000000	0.252975
537.000000	0.253660
538.000000	0.254314
539.000000	0.254854
540.000000	0.255490
541.000000	0.256075
542.000000	0.256526
543.000000	0.257094
544.000000	0.257682
545.000000	0.258191
546.000000	0.258749
547.000000	0.259381
548.000000	0.260080
549.000000	0.260723
550.000000	0.261248
551.000000	0.261822
552.000000	0.262588
553.000000	0.263346
554.000000	0.264067
555.000000	0.264786
556.000000	0.265652
557.000000	0.266511
558.000000	0.267391
559.000000	0.268190
560.000000	0.268972
561.000000	0.269803
562.000000	0.270605
563.000000	0.271330
564.000000	0.272076
565.000000	0.272841
566.000000	0.273596
567.000000	0.274303
568.000000	0.274922
569.000000	0.275471
570.000000	0.276080
571.000000	0.276729
572.000000	0.277286
573.000000	0.277794
574.000000	0.278242
575.000000	0.278665
576.000000	0.279086
577.000000	0.279475
578.000000	0.279860
579.000000	0.280231
580.000000	0.280544
581.000000	0.280804
582.000000	0.281110
583.000000	0.281396
584.000000	0.281648
585.000000	0.281877
586.000000	0.281991
587.000000	0.282058
588.000000	0.282182
589.000000	0.282432
590.000000	0.282615
591.000000	0.282637
592.000000	0.282671
593.000000	0.282766
594.000000	0.282882
595.000000	0.282888
596.000000	0.282851
597.000000	0.282838
598.000000	0.282819
599.000000	0.282754
600.000000	0.282704
601.000000	0.282652
602.000000	0.282612
603.000000	0.282542
604.000000	0.282438
605.000000	0.282330
606.000000	0.282225
607.000000	0.282159
608.000000	0.282176
609.000000	0.282146
610.000000	0.282061
611.000000	0.281956
612.000000	0.281887
613.000000	0.281871
614.000000	0.281894
615.000000	0.281709
616.000000	0.281573
617.000000	0.281519
618.000000	0.281456
619.000000	0.281406
620.000000	0.281346
621.000000	0.281294
622.000000	0.281216
623.000000	0.281161
624.000000	0.281156
625.000000	0.281084
626.000000	0.281071
627.000000	0.281133
628.000000	0.281098
629.000000	0.281125
630.000000	0.281109
631.000000	0.281087
632.000000	0.281121
633.000000	0.281195
634.000000	0.281256
635.000000	0.281298
636.000000	0.281329
637.000000	0.281358
638.000000	0.281453
639.000000	0.281515
640.000000	0.281571
641.000000	0.281596
642.000000	0.281691
643.000000	0.281829
644.000000	0.281952
645.000000	0.282092
646.000000	0.282271
647.000000	0.282463
648.000000	0.282601
649.000000	0.282759
650.000000	0.282953
651.000000	0.283181
652.000000	0.283385
653.000000	0.283601
654.000000	0.283832
655.000000	0.284072
656.000000	0.284348
657.000000	0.284612
658.000000	0.284768
659.000000	0.284977
660.000000	0.285279
661.000000	0.285545
662.000000	0.285794
663.000000	0.286104
664.000000	0.286492
665.000000	0.286845
666.000000	0.287190
667.000000	0.287546
668.000000	0.287879
669.000000	0.288224
670.000000	0.288600
671.000000	0.288979
672.000000	0.289370
673.000000	0.289769
674.000000	0.290176
675.000000	0.290572
676.000000	0.291005
677.000000	0.291528
678.000000	0.291945
679.000000	0.292357
680.000000	0.292853
681.000000	0.293384
682.000000	0.293929
683.000000	0.294417
684.000000	0.294942
685.000000	0.295525
686.000000	0.296110
687.000000	0.296588
688.000000	0.297157
689.000000	0.297752
690.000000	0.298344
691.000000	0.298983
692.000000	0.299587
693.000000	0.300199
694.000000	0.300837
695.000000	0.301501
696.000000	0.302158
697.000000	0.302776
698.000000	0.303456
699.000000	0.304146
700.000000	0.304806
701.000000	0.305489
702.000000	0.306180
703.000000	0.306857
704.000000	0.307547
705.000000	0.308262
706.000000	0.308961
707.000000	0.309676
708.000000	0.310370
709.000000	0.311055
710.000000	0.311761
711.000000	0.312458
712.000000	0.313181
713.000000	0.313947
714.000000	0.314679
715.000000	0.315404
716.000000	0.316137
717.000000	0.316860
718.000000	0.317596
719.000000	0.318296
720.000000	0.318944
721.000000	0.319595
722.000000	0.320241
723.000000	0.320926
724.000000	0.321576
725.000000	0.322200
726.000000	0.322879
727.000000	0.323556
728.000000	0.324272
729.000000	0.324972
730.000000	0.325575
731.000000	0.326258
732.000000	0.326905
733.000000	0.327531
734.000000	0.328200
735.000000	0.328732
736.000000	0.329283
737.000000	0.329858
738.000000	0.330342
739.000000	0.330877
740.000000	0.331394
741.000000	0.331928
742.000000	0.332488
743.000000	0.333005
744.000000	0.333421
745.000000	0.333800
746.000000	0.334210
747.000000	0.334607
748.000000	0.335019
749.000000	0.335457
750.000000	0.335878
751.000000	0.336238
752.000000	0.336663
753.000000	0.337150
754.000000	0.337559
755.000000	0.337940
756.000000	0.338302
757.000000	0.338608
758.000000	0.338925
759.000000	0.339265
760.000000	0.339562
761.000000	0.339898
762.000000	0.340180
763.000000	0.340421
764.000000	0.340778
765.000000	0.341049
766.000000	0.341269
767.000000	0.341502
768.000000	0.341770
769.000000	0.342016
770.000000	0.342236
771.000000	0.342498
772.000000	0.342706
773.000000	0.342858
774.000000	0.343125
775.000000	0.343361
776.000000	0.343518
777.000000	0.343591
778.000000	0.343739
779.000000	0.343884
780.000000	0.344004
781.000000	0.344100
782.000000	0.344124
783.000000	0.344207
784.000000	0.344301
785.000000	0.344413
786.000000	0.344552
787.000000	0.344708
788.000000	0.344877
789.000000	0.345017
790.000000	0.345104
791.000000	0.345180
792.000000	0.345244
793.000000	0.345267
794.000000	0.345264
795.000000	0.345399
796.000000	0.345510
797.000000	0.345557
798.000000	0.345640
799.000000	0.345702
800.000000	0.345710
801.000000	0.345669
802.000000	0.345717
803.000000	0.345768
804.000000	0.345802
805.000000	0.345788
806.000000	0.345773
807.000000	0.345837
808.000000	0.345890
809.000000	0.345892
810.000000	0.345887
811.000000	0.345899
812.000000	0.345910
813.000000	0.345896
814.000000	0.345868
815.000000	0.345894
816.000000	0.345883
817.000000	0.345907
818.000000	0.345943
819.000000	0.345913
820.000000	0.345904
821.000000	0.345895
822.000000	0.345864
823.000000	0.345875
824.000000	0.345860
825.000000	0.345845
826.000000	0.345791
827.000000	0.345728
828.000000	0.345731
829.000000	0.345786
830.000000	0.345779
831.000000	0.345763
832.000000	0.345705
833.000000	0.345681
834.000000	0.345614
835.000000	0.345499
836.000000	0.345454
837.000000	0.345379
838.000000	0.345292
839.000000	0.345247
840.000000	0.345214
841.000000	0.345216
842.000000	0.345195
843.000000	0.344997
844.000000	0.344859
845.000000	0.344808
846.000000	0.344725
847.000000	0.344705
848.000000	0.344648
849.000000	0.344501
850.000000	0.344473
851.000000	0.344482
852.000000	0.344479
853.000000	0.344350
854.000000	0.344124
855.000000	0.344020
856.000000	0.344029
857.000000	0.343833
858.000000	0.343689
859.000000	0.343623
860.000000	0.343493
861.000000	0.343407
862.000000	0.343354
863.000000	0.343198
864.000000	0.343012
865.000000	0.342850
866.000000	0.342754
867.000000	0.342663
868.000000	0.342642
869.000000	0.342591
870.000000	0.342472
871.000000	0.342191
872.000000	0.341948
873.000000	0.341808
874.000000	0.341786
875.000000	0.341674
876.000000	0.341448
877.000000	0.341109
878.000000	0.340829
879.000000	0.340698
880.000000	0.340557
881.000000	0.340351
882.000000	0.340136
883.000000	0.339969
884.000000	0.339814
885.000000	0.339570
886.000000	0.339297
887.000000	0.339081
888.000000	0.338919
889.000000	0.338783
890.000000	0.338564
891.000000	0.338392
892.000000	0.338271
893.000000	0.338111
894.000000	0.337978
895.000000	0.337772
896.000000	0.337490
897.000000	0.337266
898.000000	0.337201
899.000000	0.336893
900.000000	0.336518
901.000000	0.336193
902.000000	0.336042
903.000000	0.335911
904.000000	0.335785
905.000000	0.335597
906.000000	0.335571
907.000000	0.335441
908.000000	0.335204
909.000000	0.334954
910.000000	0.334815
911.000000	0.334726
912.000000	0.334584
913.000000	0.334236
914.000000	0.333926
915.000000	0.333758
916.000000	0.333533
917.000000	0.333191
918.000000	0.332891
919.000000	0.332736
920.000000	0.332700
921.000000	0.332489
922.000000	0.332181
923.000000	0.331995
924.000000	0.331748
925.000000	0.331500
926.000000	0.331273
927.000000	0.330839
928.000000	0.330581
929.000000	0.330395
930.000000	0.330080
931.000000	0.329875
932.000000	0.329766
933.000000	0.329700
934.000000	0.329481
935.000000	0.329036
936.000000	0.328710
937.000000	0.328596
938.000000	0.328152
939.000000	0.327931
940.000000	0.327854
941.000000	0.327647
942.000000	0.327401
943.000000	0.327094
944.000000	0.326679
945.000000	0.326560
946.000000	0.326227
947.000000	0.325928
948.000000	0.325940
949.000000	0.325833
950.000000	0.325549
951.000000	0.325147
952.000000	0.324908
953.000000	0.324641
954.000000	0.324424
955.000000	0.324181
956.000000	0.323576
957.000000	0.323379
958.000000	0.323383
959.000000	0.323166
960.000000	0.322986
961.000000	0.322763
962.000000	0.322447
963.000000	0.322121
964.000000	0.321954
965.000000	0.321913
966.000000	0.321736
967.000000	0.321190
968.000000	0.320914
969.000000	0.320889
970.000000	0.320886
971.000000	0.320762
972.000000	0.320452
973.000000	0.320052
974.000000	0.320018
975.000000	0.319924
976.000000	0.319773
977.000000	0.319554
978.000000	0.318925
979.000000	0.318757
980.000000	0.318619
981.000000	0.318171
982.000000	0.318090
983.000000	0.317979
984.000000	0.317762
985.000000	0.317606
986.000000	0.317512
987.000000	0.317479
988.000000	0.317305
989.000000	0.316773
990.000000	0.316607
991.000000	0.316615
992.000000	0.316445
993.000000	0.316458
994.000000	0.316182
995.000000	0.315881
996.000000	0.315879
997.000000	0.315684
998.000000	0.315565
999.000000	0.315607
1000.000000	0.315242
1001.000000	0.315698
1002.000000	0.315521
1003.000000	0.315195
1004.000000	0.314740
1005.000000	0.313917
1006.000000	0.313464
1007.000000	0.312977
1008.000000	0.312840
1009.000000	0.313181
1010.000000	0.312991
1011.000000	0.312671
1012.000000	0.312770
1013.000000	0.312061
1014.000000	0.311613
1015.000000	0.312014
1016.000000	0.312209
1017.000000	0.312390
1018.000000	0.312841
1019.000000	0.313052
1020.000000	0.312984
1021.000000	0.312774
1022.000000	0.312698
1023.000000	0.312861
1024.000000	0.312797
1025.000000	0.313035
1026.000000	0.313650
1027.000000	0.313500
1028.000000	0.313011
1029.000000	0.312947
1030.000000	0.312675
1031.000000	0.312542
1032.000000	0.313176
1033.000000	0.313530
1034.000000	0.313643
1035.000000	0.313661
1036.000000	0.313719
1037.000000	0.313642
1038.000000	0.313206
1039.000000	0.312470
1040.000000	0.312280
1041.000000	0.312164
1042.000000	0.312264
1043.000000	0.313056
1044.000000	0.313853
1045.000000	0.314418
1046.000000	0.314753
1047.000000	0.314820
1048.000000	0.314402
1049.000000	0.314495
1050.000000	0.314655
1051.000000	0.314739
1052.000000	0.315042
1053.000000	0.315265
1054.000000	0.315318
1055.000000	0.315485
1056.000000	0.315867
1057.000000	0.316425
1058.000000	0.316562
1059.000000	0.316541
1060.000000	0.316411
1061.000000	0.316420
1062.000000	0.316423
1063.000000	0.316398
1064.000000	0.316715
1065.000000	0.317409
1066.000000	0.317792
1067.000000	0.318410
1068.000000	0.318474
1069.000000	0.317767
1070.000000	0.317737
1071.000000	0.317751
1072.000000	0.317964
1073.000000	0.318851
1074.000000	0.319477
1075.000000	0.319643
1076.000000	0.319866
1077.000000	0.319757
1078.000000	0.319752
1079.000000	0.319956
1080.000000	0.320345
1081.000000	0.320590
1082.000000	0.321250
1083.000000	0.321393
1084.000000	0.320982
1085.000000	0.321154
1086.000000	0.321444
1087.000000	0.321610
1088.000000	0.321952
1089.000000	0.322225
1090.000000	0.322263
1091.000000	0.322262
1092.000000	0.322743
1093.000000	0.323578
1094.000000	0.323601
1095.000000	0.323095
1096.000000	0.323333
1097.000000	0.323422
1098.000000	0.323649
1099.000000	0.324604
1100.000000	0.324919
1101.000000	0.324471
1102.000000	0.324563
1103.000000	0.325009
1104.000000	0.325130
1105.000000	0.325069
1106.000000	0.325235
1107.000000	0.325087
1108.000000	0.325241
1109.000000	0.325774
1110.000000	0.326526
1111.000000	0.327010
1112.000000	0.327628
1113.000000	0.327841
1114.000000	0.327790
1115.000000	0.327817
1116.000000	0.327544
1117.000000	0.327594
1118.000000	0.327851
1119.000000	0.327925
1120.000000	0.328032
1121.000000	0.328118
1122.000000	0.328137
1123.000000	0.328441
1124.000000	0.328858
1125.000000	0.329009
1126.000000	0.328749
1127.000000	0.328831
1128.000000	0.328980
1129.000000	0.329129
1130.000000	0.329266
1131.000000	0.329711
1132.000000	0.329844
1133.000000	0.329761
1134.000000	0.329796
1135.000000	0.329807
1136.000000	0.329812
1137.000000	0.329759
1138.000000	0.329719
1139.000000	0.329688
1140.000000	0.329894
1141.000000	0.330254
1142.000000	0.330451
1143.000000	0.330716
1144.000000	0.330966
1145.000000	0.330939
1146.000000	0.330674
1147.000000	0.330738
1148.000000	0.330816
1149.000000	0.330875
1150.000000	0.331114
1151.000000	0.331198
1152.000000	0.331007
1153.000000	0.331108
1154.000000	0.331399
1155.000000	0.331407
1156.000000	0.331375
1157.000000	0.331397
1158.000000	0.331195
1159.000000	0.331070
1160.000000	0.331066
1161.000000	0.331010
1162.000000	0.330750
1163.000000	0.330991
1164.000000	0.331156
1165.000000	0.331249
1166.000000	0.331235
1167.000000	0.331091
1168.000000	0.330976
1169.000000	0.330713
1170.000000	0.330721
1171.000000	0.330975
1172.000000	0.331085
1173.000000	0.331204
1174.000000	0.331310
1175.000000	0.331288
1176.000000	0.331320
1177.000000	0.331549
1178.000000	0.331633
1179.000000	0.331628
1180.000000	0.331604
1181.000000	0.331539
1182.000000	0.331564
1183.000000	0.331841
1184.000000	0.331934
1185.000000	0.331948
1186.000000	0.331911
1187.000000	0.331950
1188.000000	0.331897
1189.000000	0.331863
1190.000000	0.332066
1191.000000	0.332022
1192.000000	0.331790
1193.000000	0.331859
1194.000000	0.331919
1195.000000	0.331926
1196.000000	0.331926
1197.000000	0.331962
1198.000000	0.332028
1199.000000	0.332024
1200.000000	0.331966
1201.000000	0.332047
1202.000000	0.332048
1203.000000	0.331997
1204.000000	0.331981
1205.000000	0.332027
1206.000000	0.332029
1207.000000	0.332063
1208.000000	0.332032
1209.000000	0.332118
1210.000000	0.332106
1211.000000	0.331954
1212.000000	0.331907
1213.000000	0.331948
1214.000000	0.331942
1215.000000	0.331930
1216.000000	0.331936
1217.000000	0.331917
1218.000000	0.331869
1219.000000	0.331817
1220.000000	0.331821
1221.000000	0.331878
1222.000000	0.331844
1223.000000	0.331884
1224.000000	0.331849
1225.000000	0.331880
1226.000000	0.332035
1227.000000	0.332004
1228.000000	0.332127
1229.000000	0.332093
1230.000000	0.331823
1231.000000	0.331696
1232.000000	0.331721
1233.000000	0.331837
1234.000000	0.332027
1235.000000	0.332113
1236.000000	0.332178
1237.000000	0.332233
1238.000000	0.332126
1239.000000	0.332135
1240.000000	0.332230
1241.000000	0.332205
1242.000000	0.332317
1243.000000	0.332389
1244.000000	0.332393
1245.000000	0.332581
1246.000000	0.332588
1247.000000	0.332590
1248.000000	0.332712
1249.000000	0.332585
1250.000000	0.332457
1251.000000	0.332550
1252.000000	0.332613
1253.000000	0.332736
1254.000000	0.332848
1255.000000	0.333085
1256.000000	0.333108
1257.000000	0.332968
1258.000000	0.333017
1259.000000	0.332988
1260.000000	0.333051
1261.000000	0.333246
1262.000000	0.333305
1263.000000	0.333331
1264.000000	0.333261
1265.000000	0.333255
1266.000000	0.333309
1267.000000	0.333457
1268.000000	0.333549
1269.000000	0.333509
1270.000000	0.333597
1271.000000	0.333661
1272.000000	0.333772
1273.000000	0.333958
1274.000000	0.334011
1275.000000	0.333979
1276.000000	0.333807
1277.000000	0.333834
1278.000000	0.333788
1279.000000	0.333752
1280.000000	0.333758
1281.000000	0.333661
1282.000000	0.333499
1283.000000	0.333510
1284.000000	0.333529
1285.000000	0.333550
1286.000000	0.333611
1287.000000	0.333597
1288.000000	0.333707
1289.000000	0.333749
1290.000000	0.333820
1291.000000	0.333862
1292.000000	0.333740
1293.000000	0.333732
1294.000000	0.333758
1295.000000	0.333847
1296.000000	0.334020
1297.000000	0.334064
1298.000000	0.334109
1299.000000	0.334033
1300.000000	0.333863
1301.000000	0.333712
1302.000000	0.333531
1303.000000	0.333377
1304.000000	0.333302
1305.000000	0.333432
1306.000000	0.333432
1307.000000	0.333499
1308.000000	0.333501
1309.000000	0.333350
1310.000000	0.333274
1311.000000	0.333270
1312.000000	0.333201
1313.000000	0.333052
1314.000000	0.333088
1315.000000	0.332973
1316.000000	0.332822
1317.000000	0.332835
1318.000000	0.332917
1319.000000	0.332874
1320.000000	0.332741
1321.000000	0.332504
1322.000000	0.332093
1323.000000	0.331825
1324.000000	0.331909
1325.000000	0.331961
1326.000000	0.331953
1327.000000	0.331987
1328.000000	0.331888
1329.000000	0.331737
1330.000000	0.331562
1331.000000	0.331452
1332.000000	0.331321
1333.000000	0.331240
1334.000000	0.331338
1335.000000	0.331325
1336.000000	0.331281
1337.000000	0.331189
1338.000000	0.331011
1339.000000	0.330755
1340.000000	0.330459
1341.000000	0.330129
1342.000000	0.329947
1343.000000	0.329863
1344.000000	0.329777
1345.000000	0.329746
1346.000000	0.329722
1347.000000	0.329484
1348.000000	0.329403
1349.000000	0.329295
1350.000000	0.329104
1351.000000	0.328926
1352.000000	0.328594
1353.000000	0.328297
1354.000000	0.328195
1355.000000	0.328088
1356.000000	0.328063
1357.000000	0.328019
1358.000000	0.327815
1359.000000	0.327548
1360.000000	0.327308
1361.000000	0.326992
1362.000000	0.326832
1363.000000	0.326806
1364.000000	0.326662
1365.000000	0.326499
1366.000000	0.326389
1367.000000	0.326217
1368.000000	0.326087
1369.000000	0.326103
1370.000000	0.325967
1371.000000	0.325710
1372.000000	0.325290
1373.000000	0.324880
1374.000000	0.324680
1375.000000	0.324482
1376.000000	0.324308
1377.000000	0.324203
1378.000000	0.323914
1379.000000	0.323540
1380.000000	0.323441
1381.000000	0.323150
1382.000000	0.322679
1383.000000	0.322349
1384.000000	0.321822
1385.000000	0.321318
1386.000000	0.320975
1387.000000	0.320468
1388.000000	0.319886
1389.000000	0.319377
1390.000000	0.318827
1391.000000	0.318236
1392.000000	0.317719
1393.000000	0.317092
1394.000000	0.316425
1395.000000	0.315693
1396.000000	0.314951
1397.000000	0.314066
1398.000000	0.312977
1399.000000	0.311986
1400.000000	0.310932
1401.000000	0.309859
1402.000000	0.308811
1403.000000	0.307806
1404.000000	0.306876
1405.000000	0.305971
1406.000000	0.305065
1407.000000	0.304258
1408.000000	0.303315
1409.000000	0.302290
1410.000000	0.301349
1411.000000	0.300275
1412.000000	0.299094
1413.000000	0.298147
1414.000000	0.297243
1415.000000	0.296284
1416.000000	0.295448
1417.000000	0.294501
1418.000000	0.293421
1419.000000	0.292506
1420.000000	0.291528
1421.000000	0.290696
1422.000000	0.289975
1423.000000	0.289226
1424.000000	0.288427
1425.000000	0.287636
1426.000000	0.286687
1427.000000	0.285737
1428.000000	0.284941
1429.000000	0.284063
1430.000000	0.283309
1431.000000	0.282693
1432.000000	0.281959
1433.000000	0.281201
1434.000000	0.280523
1435.000000	0.279902
1436.000000	0.279257
1437.000000	0.278626
1438.000000	0.277968
1439.000000	0.277322
1440.000000	0.276718
1441.000000	0.276157
1442.000000	0.275654
1443.000000	0.275124
1444.000000	0.274624
1445.000000	0.274190
1446.000000	0.273857
1447.000000	0.273507
1448.000000	0.273180
1449.000000	0.272927
1450.000000	0.272579
1451.000000	0.272391
1452.000000	0.272165
1453.000000	0.271836
1454.000000	0.271687
1455.000000	0.271540
1456.000000	0.271466
1457.000000	0.271493
1458.000000	0.271428
1459.000000	0.271208
1460.000000	0.270955
1461.000000	0.270768
1462.000000	0.270540
1463.000000	0.270415
1464.000000	0.270382
1465.000000	0.270245
1466.000000	0.270159
1467.000000	0.270035
1468.000000	0.269917
1469.000000	0.269981
1470.000000	0.269882
1471.000000	0.269923
1472.000000	0.270076
1473.000000	0.270123
1474.000000	0.270230
1475.000000	0.270441
1476.000000	0.270632
1477.000000	0.270950
1478.000000	0.271298
1479.000000	0.271469
1480.000000	0.271675
1481.000000	0.271961
1482.000000	0.272283
1483.000000	0.272690
1484.000000	0.273242
1485.000000	0.273724
1486.000000	0.274211
1487.000000	0.274667
1488.000000	0.275154
1489.000000	0.275588
1490.000000	0.275822
1491.000000	0.276144
1492.000000	0.276478
1493.000000	0.276803
1494.000000	0.277057
1495.000000	0.277397
1496.000000	0.277734
1497.000000	0.278088
1498.000000	0.278542
1499.000000	0.278972
1500.000000	0.279281
1501.000000	0.279572
1502.000000	0.279821
1503.000000	0.280114
1504.000000	0.280373
1505.000000	0.280503
1506.000000	0.280675
1507.000000	0.280840
1508.000000	0.281053
1509.000000	0.281427
1510.000000	0.281718
1511.000000	0.281866
1512.000000	0.282079
1513.000000	0.282337
1514.000000	0.282588
1515.000000	0.282821
1516.000000	0.283043
1517.000000	0.283201
1518.000000	0.283291
1519.000000	0.283358
1520.000000	0.283476
1521.000000	0.283555
1522.000000	0.283650
1523.000000	0.283830
1524.000000	0.283910
1525.000000	0.283911
1526.000000	0.283991
1527.000000	0.284158
1528.000000	0.284374
1529.000000	0.284555
1530.000000	0.284726
1531.000000	0.284936
1532.000000	0.285035
1533.000000	0.285142
1534.000000	0.285208
1535.000000	0.285175
1536.000000	0.285157
1537.000000	0.285204
1538.000000	0.285255
1539.000000	0.285221
1540.000000	0.285318
1541.000000	0.285546
1542.000000	0.285650
1543.000000	0.285759
1544.000000	0.285801
1545.000000	0.285751
1546.000000	0.285703
1547.000000	0.285678
1548.000000	0.285789
1549.000000	0.285852
1550.000000	0.285838
1551.000000	0.285970
1552.000000	0.286032
1553.000000	0.285992
1554.000000	0.285984
1555.000000	0.285941
1556.000000	0.286060
1557.000000	0.286209
1558.000000	0.286273
1559.000000	0.286324
1560.000000	0.286387
1561.000000	0.286388
1562.000000	0.286349
1563.000000	0.286455
1564.000000	0.286441
1565.000000	0.286205
1566.000000	0.286072
1567.000000	0.286054
1568.000000	0.286060
1569.000000	0.286188
1570.000000	0.286245
1571.000000	0.286323
1572.000000	0.286356
1573.000000	0.286314
1574.000000	0.286292
1575.000000	0.286295
1576.000000	0.286303
1577.000000	0.286313
1578.000000	0.286288
1579.000000	0.286306
1580.000000	0.286301
1581.000000	0.286297
1582.000000	0.286278
1583.000000	0.286257
1584.000000	0.286250
1585.000000	0.286328
1586.000000	0.286367
1587.000000	0.286404
1588.000000	0.286415
1589.000000	0.286366
1590.000000	0.286334
1591.000000	0.286372
1592.000000	0.286384
1593.000000	0.286425
1594.000000	0.286405
1595.000000	0.286277
1596.000000	0.286339
1597.000000	0.286516
1598.000000	0.286626
1599.000000	0.286987
1600.000000	0.287048
1601.000000	0.286889
1602.000000	0.286896
1603.000000	0.286861
1604.000000	0.286854
1605.000000	0.287003
1606.000000	0.287042
1607.000000	0.287057
1608.000000	0.287093
1609.000000	0.287201
1610.000000	0.287218
1611.000000	0.287214
1612.000000	0.287165
1613.000000	0.287101
1614.000000	0.287050
1615.000000	0.287018
1616.000000	0.287086
1617.000000	0.287198
1618.000000	0.287263
1619.000000	0.287349
1620.000000	0.287376
1621.000000	0.287333
1622.000000	0.287430
1623.000000	0.287524
1624.000000	0.287670
1625.000000	0.287801
1626.000000	0.287930
1627.000000	0.288046
1628.000000	0.288304
1629.000000	0.288703
1630.000000	0.288946
1631.000000	0.289149
1632.000000	0.289303
1633.000000	0.289266
1634.000000	0.289390
1635.000000	0.289645
1636.000000	0.289885
1637.000000	0.290246
1638.000000	0.290437
1639.000000	0.290599
1640.000000	0.290746
1641.000000	0.290829
1642.000000	0.291001
1643.000000	0.291269
1644.000000	0.291504
1645.000000	0.291769
1646.000000	0.291911
1647.000000	0.292036
1648.000000	0.292096
1649.000000	0.292130
1650.000000	0.292271
1651.000000	0.292447
1652.000000	0.292673
1653.000000	0.292926
1654.000000	0.293164
1655.000000	0.293373
1656.000000	0.293558
1657.000000	0.293861
1658.000000	0.293980
1659.000000	0.294036
1660.000000	0.294234
1661.000000	0.294327
1662.000000	0.294484
1663.000000	0.294796
1664.000000	0.294922
1665.000000	0.294899
1666.000000	0.295045
1667.000000	0.295115
1668.000000	0.295259
1669.000000	0.295458
1670.000000	0.295648
1671.000000	0.295949
1672.000000	0.296229
1673.000000	0.296550
1674.000000	0.296700
1675.000000	0.296896
1676.000000	0.297071
1677.000000	0.297070
1678.000000	0.297078
1679.000000	0.297183
1680.000000	0.297279
1681.000000	0.297487
1682.000000	0.297768
1683.000000	0.298001
1684.000000	0.298160
1685.000000	0.298296
1686.000000	0.298242
1687.000000	0.298246
1688.000000	0.298474
1689.000000	0.298593
1690.000000	0.298608
1691.000000	0.298667
1692.000000	0.298488
1693.000000	0.298419
1694.000000	0.298546
1695.000000	0.298654
1696.000000	0.298758
1697.000000	0.298785
1698.000000	0.298835
1699.000000	0.298920
1700.000000	0.298960
1701.000000	0.299094
1702.000000	0.299125
1703.000000	0.299183
1704.000000	0.299339
1705.000000	0.299479
1706.000000	0.299716
1707.000000	0.299885
1708.000000	0.300050
1709.000000	0.300082
1710.000000	0.300046
1711.000000	0.300085
1712.000000	0.300091
1713.000000	0.300135
1714.000000	0.300263
1715.000000	0.300447
1716.000000	0.300706
1717.000000	0.300896
1718.000000	0.301145
1719.000000	0.301264
1720.000000	0.301296
1721.000000	0.301355
1722.000000	0.301351
1723.000000	0.301417
1724.000000	0.301551
1725.000000	0.301652
1726.000000	0.301712
1727.000000	0.301750
1728.000000	0.301576
1729.000000	0.301668
1730.000000	0.302040
1731.000000	0.302281
1732.000000	0.302768
1733.000000	0.302923
1734.000000	0.302677
1735.000000	0.302624
1736.000000	0.302397
1737.000000	0.302439
1738.000000	0.302713
1739.000000	0.302784
1740.000000	0.302813
1741.000000	0.302980
1742.000000	0.303143
1743.000000	0.303297
1744.000000	0.303605
1745.000000	0.303679
1746.000000	0.303493
1747.000000	0.303761
1748.000000	0.303875
1749.000000	0.304044
1750.000000	0.304150
1751.000000	0.304230
1752.000000	0.304395
1753.000000	0.304549
1754.000000	0.304586
1755.000000	0.304380
1756.000000	0.304363
1757.000000	0.304414
1758.000000	0.304434
1759.000000	0.304562
1760.000000	0.304644
1761.000000	0.304536
1762.000000	0.304568
1763.000000	0.304816
1764.000000	0.304866
1765.000000	0.304701
1766.000000	0.304814
1767.000000	0.304930
1768.000000	0.304991
1769.000000	0.305358
1770.000000	0.305545
1771.000000	0.305402
1772.000000	0.305560
1773.000000	0.305879
1774.000000	0.306039
1775.000000	0.306287
1776.000000	0.306470
1777.000000	0.306498
1778.000000	0.306568
1779.000000	0.306671
1780.000000	0.306728
1781.000000	0.306682
1782.000000	0.306675
1783.000000	0.306725
1784.000000	0.306975
1785.000000	0.306897
1786.000000	0.306961
1787.000000	0.307142
1788.000000	0.307244
1789.000000	0.307497
1790.000000	0.307753
1791.000000	0.307858
1792.000000	0.307886
1793.000000	0.307953
1794.000000	0.308008
1795.000000	0.308129
1796.000000	0.308325
1797.000000	0.308385
1798.000000	0.308333
1799.000000	0.308374
1800.000000	0.308394
1801.000000	0.308869
1802.000000	0.308731
1803.000000	0.307500
1804.000000	0.308243
1805.000000	0.310577
1806.000000	0.311526
1807.000000	0.313668
1808.000000	0.314138
1809.000000	0.312799
1810.000000	0.311297
1811.000000	0.310939
1812.000000	0.310728
1813.000000	0.310770
1814.000000	0.311931
1815.000000	0.312133
1816.000000	0.311596
1817.000000	0.311316
1818.000000	0.310463
1819.000000	0.311059
1820.000000	0.311287
1821.000000	0.311345
1822.000000	0.311484
1823.000000	0.311554
1824.000000	0.311433
1825.000000	0.311172
1826.000000	0.311268
1827.000000	0.311552
1828.000000	0.311346
1829.000000	0.311354
1830.000000	0.310905
1831.000000	0.310571
1832.000000	0.309606
1833.000000	0.309476
1834.000000	0.309986
1835.000000	0.310191
1836.000000	0.310969
1837.000000	0.310973
1838.000000	0.310480
1839.000000	0.309338
1840.000000	0.308705
1841.000000	0.308125
1842.000000	0.307729
1843.000000	0.307814
1844.000000	0.307798
1845.000000	0.307430
1846.000000	0.307418
1847.000000	0.307823
1848.000000	0.307878
1849.000000	0.307617
1850.000000	0.307675
1851.000000	0.307004
1852.000000	0.305404
1853.000000	0.304815
1854.000000	0.303826
1855.000000	0.303280
1856.000000	0.303382
1857.000000	0.303428
1858.000000	0.302977
1859.000000	0.302470
1860.000000	0.301450
1861.000000	0.300317
1862.000000	0.299256
1863.000000	0.298197
1864.000000	0.297157
1865.000000	0.295911
1866.000000	0.295006
1867.000000	0.294243
1868.000000	0.293371
1869.000000	0.292671
1870.000000	0.292062
1871.000000	0.291101
1872.000000	0.289845
1873.000000	0.288320
1874.000000	0.286262
1875.000000	0.284476
1876.000000	0.282512
1877.000000	0.280175
1878.000000	0.277618
1879.000000	0.274943
1880.000000	0.271626
1881.000000	0.268515
1882.000000	0.265652
1883.000000	0.263254
1884.000000	0.260792
1885.000000	0.258380
1886.000000	0.255714
1887.000000	0.253062
1888.000000	0.250161
1889.000000	0.246681
1890.000000	0.243174
1891.000000	0.239915
1892.000000	0.236137
1893.000000	0.232731
1894.000000	0.229941
1895.000000	0.226549
1896.000000	0.222907
1897.000000	0.219518
1898.000000	0.215750
1899.000000	0.211902
1900.000000	0.208445
1901.000000	0.205049
1902.000000	0.202244
1903.000000	0.199922
1904.000000	0.197940
1905.000000	0.195265
1906.000000	0.192534
1907.000000	0.189616
1908.000000	0.186805
1909.000000	0.183843
1910.000000	0.181793
1911.000000	0.179748
1912.000000	0.177895
1913.000000	0.176138
1914.000000	0.174340
1915.000000	0.173213
1916.000000	0.171469
1917.000000	0.169796
1918.000000	0.168170
1919.000000	0.166663
1920.000000	0.164995
1921.000000	0.164274
1922.000000	0.163523
1923.000000	0.162981
1924.000000	0.162388
1925.000000	0.161122
1926.000000	0.160323
1927.000000	0.159968
1928.000000	0.159486
1929.000000	0.158983
1930.000000	0.159013
1931.000000	0.159699
1932.000000	0.159865
1933.000000	0.160108
1934.000000	0.160831
1935.000000	0.160699
1936.000000	0.160522
1937.000000	0.160433
1938.000000	0.159836
1939.000000	0.159763
1940.000000	0.159844
1941.000000	0.160093
1942.000000	0.160588
1943.000000	0.161159
1944.000000	0.160917
1945.000000	0.160541
1946.000000	0.159953
1947.000000	0.159030
1948.000000	0.158262
1949.000000	0.157535
1950.000000	0.156727
1951.000000	0.156201
1952.000000	0.156100
1953.000000	0.155996
1954.000000	0.155690
1955.000000	0.155542
1956.000000	0.154936
1957.000000	0.154914
1958.000000	0.155132
1959.000000	0.154470
1960.000000	0.154410
1961.000000	0.154234
1962.000000	0.153613
1963.000000	0.152282
1964.000000	0.152133
1965.000000	0.152107
1966.000000	0.152099
1967.000000	0.153089
1968.000000	0.153696
1969.000000	0.153774
1970.000000	0.153353
1971.000000	0.152287
1972.000000	0.151604
1973.000000	0.151296
1974.000000	0.151247
1975.000000	0.151483
1976.000000	0.152274
1977.000000	0.152935
1978.000000	0.153860
1979.000000	0.154415
1980.000000	0.154962
1981.000000	0.155588
1982.000000	0.155337
1983.000000	0.155064
1984.000000	0.155023
1985.000000	0.154725
1986.000000	0.154961
1987.000000	0.155634
1988.000000	0.156423
1989.000000	0.157223
1990.000000	0.158054
1991.000000	0.158870
1992.000000	0.159115
1993.000000	0.159841
1994.000000	0.160756
1995.000000	0.161526
1996.000000	0.162639
1997.000000	0.163402
1998.000000	0.163923
1999.000000	0.164549
2000.000000	0.164960
2001.000000	0.165508
2002.000000	0.166619
2003.000000	0.167763
2004.000000	0.168662
2005.000000	0.169641
2006.000000	0.170828
2007.000000	0.171627
2008.000000	0.172440
2009.000000	0.173557
2010.000000	0.174250
2011.000000	0.174380
2012.000000	0.174707
2013.000000	0.174909
2014.000000	0.174925
2015.000000	0.175449
2016.000000	0.176232
2017.000000	0.177445
2018.000000	0.179177
2019.000000	0.180191
2020.000000	0.180990
2021.000000	0.182018
2022.000000	0.182691
2023.000000	0.183524
2024.000000	0.184977
2025.000000	0.185872
2026.000000	0.186267
2027.000000	0.186776
2028.000000	0.187282
2029.000000	0.187880
2030.000000	0.188573
2031.000000	0.189560
2032.000000	0.190249
2033.000000	0.190799
2034.000000	0.191781
2035.000000	0.193004
2036.000000	0.194010
2037.000000	0.195768
2038.000000	0.196814
2039.000000	0.197454
2040.000000	0.198000
2041.000000	0.198409
2042.000000	0.198619
2043.000000	0.198756
2044.000000	0.198615
2045.000000	0.199106
2046.000000	0.199493
2047.000000	0.200313
2048.000000	0.202033
2049.000000	0.203145
2050.000000	0.203878
2051.000000	0.204692
2052.000000	0.205067
2053.000000	0.205637
2054.000000	0.206510
2055.000000	0.207511
2056.000000	0.208206
2057.000000	0.209034
2058.000000	0.209512
2059.000000	0.210123
2060.000000	0.210998
2061.000000	0.212177
2062.000000	0.212778
2063.000000	0.213493
2064.000000	0.213994
2065.000000	0.214139
2066.000000	0.214320
2067.000000	0.214848
2068.000000	0.214985
2069.000000	0.214970
2070.000000	0.216042
2071.000000	0.217377
2072.000000	0.218854
2073.000000	0.220028
2074.000000	0.220717
2075.000000	0.221241
2076.000000	0.221130
2077.000000	0.221432
2078.000000	0.221461
2079.000000	0.221873
2080.000000	0.223069
2081.000000	0.223687
2082.000000	0.223899
2083.000000	0.224734
2084.000000	0.225510
2085.000000	0.225491
2086.000000	0.226627
2087.000000	0.227954
2088.000000	0.228510
2089.000000	0.229221
2090.000000	0.229967
2091.000000	0.230303
2092.000000	0.231114
2093.000000	0.232659
2094.000000	0.233540
2095.000000	0.234338
2096.000000	0.234896
2097.000000	0.234991
2098.000000	0.235011
2099.000000	0.235016
2100.000000	0.235789
2101.000000	0.237144
2102.000000	0.238055
2103.000000	0.239030
2104.000000	0.239355
2105.000000	0.239815
2106.000000	0.239860
2107.000000	0.240313
2108.000000	0.240924
2109.000000	0.241591
2110.000000	0.242231
2111.000000	0.242750
2112.000000	0.243247
2113.000000	0.243745
2114.000000	0.243637
2115.000000	0.243409
2116.000000	0.243640
2117.000000	0.243195
2118.000000	0.243377
2119.000000	0.244035
2120.000000	0.244361
2121.000000	0.244670
2122.000000	0.244903
2123.000000	0.244857
2124.000000	0.245161
2125.000000	0.245592
2126.000000	0.246056
2127.000000	0.246765
2128.000000	0.247512
2129.000000	0.248216
2130.000000	0.249076
2131.000000	0.249440
2132.000000	0.249497
2133.000000	0.249377
2134.000000	0.248913
2135.000000	0.248429
2136.000000	0.248337
2137.000000	0.248841
2138.000000	0.250228
2139.000000	0.250658
2140.000000	0.251312
2141.000000	0.251547
2142.000000	0.250484
2143.000000	0.250231
2144.000000	0.250796
2145.000000	0.251107
2146.000000	0.251571
2147.000000	0.252199
2148.000000	0.251925
2149.000000	0.253010
2150.000000	0.254553
2151.000000	0.254955
2152.000000	0.255670
2153.000000	0.255412
2154.000000	0.254952
2155.000000	0.253256
2156.000000	0.253012
2157.000000	0.253143
2158.000000	0.253365
2159.000000	0.254795
2160.000000	0.255082
2161.000000	0.254711
2162.000000	0.254524
2163.000000	0.253267
2164.000000	0.253047
2165.000000	0.253288
2166.000000	0.254288
2167.000000	0.254999
2168.000000	0.254761
2169.000000	0.254022
2170.000000	0.252885
2171.000000	0.252487
2172.000000	0.252607
2173.000000	0.252461
2174.000000	0.252291
2175.000000	0.252574
2176.000000	0.252853
2177.000000	0.253365
2178.000000	0.254979
2179.000000	0.255617
2180.000000	0.255529
2181.000000	0.256051
2182.000000	0.255978
2183.000000	0.256196
2184.000000	0.256547
2185.000000	0.256095
2186.000000	0.254634
2187.000000	0.253590
2188.000000	0.253814
2189.000000	0.253180
2190.000000	0.253200
2191.000000	0.253278
2192.000000	0.252951
2193.000000	0.251719
2194.000000	0.251364
2195.000000	0.251011
2196.000000	0.251721
2197.000000	0.253750
2198.000000	0.254501
2199.000000	0.255920
2200.000000	0.256867
2201.000000	0.256442
2202.000000	0.256271
2203.000000	0.256002
2204.000000	0.255644
2205.000000	0.256519
2206.000000	0.256313
2207.000000	0.257604
2208.000000	0.258865
2209.000000	0.256171
2210.000000	0.255672
2211.000000	0.254169
2212.000000	0.252661
2213.000000	0.253130
2214.000000	0.255477
2215.000000	0.256554
2216.000000	0.259440
2217.000000	0.259811
2218.000000	0.257760
2219.000000	0.257422
2220.000000	0.256978
2221.000000	0.256160
2222.000000	0.256573
2223.000000	0.256175
2224.000000	0.254286
2225.000000	0.253280
2226.000000	0.252983
2227.000000	0.250653
2228.000000	0.252447
2229.000000	0.254730
2230.000000	0.256559
2231.000000	0.259600
2232.000000	0.259678
2233.000000	0.258262
2234.000000	0.256739
2235.000000	0.256662
2236.000000	0.256765
2237.000000	0.256995
2238.000000	0.257544
2239.000000	0.259700
2240.000000	0.259816
2241.000000	0.259256
2242.000000	0.258492
2243.000000	0.256083
2244.000000	0.254430
2245.000000	0.251418
2246.000000	0.251623
2247.000000	0.254216
2248.000000	0.256461
2249.000000	0.262375
2250.000000	0.264950
2251.000000	0.263025
2252.000000	0.258897
2253.000000	0.254589
2254.000000	0.250972
2255.000000	0.250058
2256.000000	0.252791
2257.000000	0.252090
2258.000000	0.251323
2259.000000	0.253125
2260.000000	0.253229
2261.000000	0.252408
2262.000000	0.252074
2263.000000	0.250944
2264.000000	0.246134
2265.000000	0.245395
2266.000000	0.247686
2267.000000	0.248683
2268.000000	0.250955
2269.000000	0.252118
2270.000000	0.252839
2271.000000	0.252393
2272.000000	0.249964
2273.000000	0.249933
2274.000000	0.249925
2275.000000	0.250031
2276.000000	0.251781
2277.000000	0.253854
2278.000000	0.253034
2279.000000	0.251881
2280.000000	0.248827
2281.000000	0.244566
2282.000000	0.243247
2283.000000	0.242202
2284.000000	0.240934
2285.000000	0.241797
2286.000000	0.241557
2287.000000	0.239688
2288.000000	0.239064
2289.000000	0.238524
2290.000000	0.237595
2291.000000	0.238086
2292.000000	0.238673
2293.000000	0.239546
2294.000000	0.239508
2295.000000	0.238606
2296.000000	0.237182
2297.000000	0.234078
2298.000000	0.233659
2299.000000	0.233935
2300.000000	0.234184
2301.000000	0.237247
2302.000000	0.237773
2303.000000	0.235897
2304.000000	0.235867
2305.000000	0.236353
2306.000000	0.236215
2307.000000	0.236196
2308.000000	0.236478
2309.000000	0.235830
2310.000000	0.234309
2311.000000	0.235469
2312.000000	0.236394
2313.000000	0.236938
2314.000000	0.236473
2315.000000	0.234185
2316.000000	0.232151
2317.000000	0.227518
2318.000000	0.223698
2319.000000	0.221768
2320.000000	0.220627
2321.000000	0.223053
2322.000000	0.225379
2323.000000	0.227793
2324.000000	0.228707
2325.000000	0.227477
2326.000000	0.227882
2327.000000	0.225808
2328.000000	0.222481
2329.000000	0.221388
2330.000000	0.221108
2331.000000	0.219193
2332.000000	0.217734
2333.000000	0.217373
2334.000000	0.212895
2335.000000	0.211492
2336.000000	0.212814
2337.000000	0.212754
2338.000000	0.213446
2339.000000	0.213242
2340.000000	0.211973
2341.000000	0.211097
2342.000000	0.208676
2343.000000	0.208117
2344.000000	0.209386
2345.000000	0.209581
2346.000000	0.211104
2347.000000	0.210715
2348.000000	0.209639
2349.000000	0.206304
2350.000000	0.201642
2351.000000	0.198015
2352.000000	0.197096
2353.000000	0.196955
2354.000000	0.197467
2355.000000	0.197043
2356.000000	0.196311
2357.000000	0.197040
2358.000000	0.196839
2359.000000	0.198495
2360.000000	0.197969
2361.000000	0.192641
2362.000000	0.186029
2363.000000	0.177323
2364.000000	0.167500
2365.000000	0.161979
2366.000000	0.163031
2367.000000	0.168363
2368.000000	0.176765
2369.000000	0.185404
2370.000000	0.190720
2371.000000	0.193008
2372.000000	0.192304
2373.000000	0.187380
2374.000000	0.181140
2375.000000	0.175291
2376.000000	0.171441
2377.000000	0.171523
2378.000000	0.170739
2379.000000	0.172392
2380.000000	0.171920
2381.000000	0.168707
2382.000000	0.169951
2383.000000	0.167590
2384.000000	0.168746
2385.000000	0.170407
2386.000000	0.167910
2387.000000	0.169448
2388.000000	0.167114
2389.000000	0.164592
2390.000000	0.163828
2391.000000	0.159413
2392.000000	0.157977
2393.000000	0.156518
2394.000000	0.152562
2395.000000	0.153943
2396.000000	0.155599
2397.000000	0.154641
2398.000000	0.155353
2399.000000	0.155906
2400.000000	0.155210
2401.000000	0.154397
2402.000000	0.157998
2403.000000	0.160448
2404.000000	0.154885
2405.000000	0.153001
2406.000000	0.149921
2407.000000	0.142798
2408.000000	0.147098
2409.000000	0.155220
2410.000000	0.160017
2411.000000	0.159670
2412.000000	0.150550
2413.000000	0.139965
2414.000000	0.136092
2415.000000	0.139446
2416.000000	0.145475
2417.000000	0.150777
2418.000000	0.152861
2419.000000	0.152924
2420.000000	0.154267
2421.000000	0.152396
2422.000000	0.144211
2423.000000	0.132233
2424.000000	0.121986
2425.000000	0.120701
2426.000000	0.124639
2427.000000	0.135004
2428.000000	0.148884
2429.000000	0.158716
2430.000000	0.161658
2431.000000	0.156716
2432.000000	0.147976
2433.000000	0.134888
2434.000000	0.130150
2435.000000	0.135834
2436.000000	0.141377
2437.000000	0.145402
2438.000000	0.139875
2439.000000	0.124259
2440.000000	0.115269
2441.000000	0.118924
2442.000000	0.123092
2443.000000	0.126377
2444.000000	0.132218
2445.000000	0.132192
2446.000000	0.134127
2447.000000	0.153778
2448.000000	0.164613
2449.000000	0.152312
2450.000000	0.142512
2451.000000	0.130957
2452.000000	0.117456
2453.000000	0.121575
2454.000000	0.136876
2455.000000	0.146200
2456.000000	0.154210
2457.000000	0.165499
2458.000000	0.161775
2459.000000	0.145177
2460.000000	0.134032
2461.000000	0.136184
2462.000000	0.149802
2463.000000	0.162691
2464.000000	0.168249
2465.000000	0.154419
2466.000000	0.143594
2467.000000	0.158275
2468.000000	0.160709
2469.000000	0.171212
2470.000000	0.167949
2471.000000	0.144512
2472.000000	0.150672
2473.000000	0.145045
2474.000000	0.140210
2475.000000	0.136793
2476.000000	0.119487
2477.000000	0.129089
2478.000000	0.128098
2479.000000	0.117376
2480.000000	0.130101
2481.000000	0.132064
2482.000000	0.130122
2483.000000	0.141526
2484.000000	0.128061
2485.000000	0.069264
2486.000000	0.030128
2487.000000	0.028607
2488.000000	0.035519
2489.000000	0.061921
2490.000000	0.079186
2491.000000	0.014264
2492.000000	0.022096
2493.000000	0.108701
2494.000000	0.147508
2495.000000	0.195835
2496.000000	0.234858
2497.000000	0.228966
2498.000000	0.205784
2499.000000	0.197437
2500.000000	0.168279
