# Wavelength	Nau-2_90_FV7_10_00002.asd.rts.txt
350.000000	0.074194
351.000000	0.031081
352.000000	0.054835
353.000000	0.073339
354.000000	0.057509
355.000000	0.064609
356.000000	0.067296
357.000000	0.062927
358.000000	0.064277
359.000000	0.061841
360.000000	0.059133
361.000000	0.060798
362.000000	0.056625
363.000000	0.055070
364.000000	0.060256
365.000000	0.063928
366.000000	0.063417
367.000000	0.059474
368.000000	0.055890
369.000000	0.054749
370.000000	0.057260
371.000000	0.062331
372.000000	0.055632
373.000000	0.049525
374.000000	0.052703
375.000000	0.057007
376.000000	0.060139
377.000000	0.061891
378.000000	0.064070
379.000000	0.063123
380.000000	0.060634
381.000000	0.059740
382.000000	0.059803
383.000000	0.059410
384.000000	0.058074
385.000000	0.057778
386.000000	0.057435
387.000000	0.057016
388.000000	0.057641
389.000000	0.057389
390.000000	0.056687
391.000000	0.056671
392.000000	0.056928
393.000000	0.058378
394.000000	0.060894
395.000000	0.060615
396.000000	0.059740
397.000000	0.059327
398.000000	0.058832
399.000000	0.059746
400.000000	0.061017
401.000000	0.060551
402.000000	0.059533
403.000000	0.059181
404.000000	0.059939
405.000000	0.058818
406.000000	0.059105
407.000000	0.061270
408.000000	0.060656
409.000000	0.060544
410.000000	0.061415
411.000000	0.062286
412.000000	0.061440
413.000000	0.060627
414.000000	0.061718
415.000000	0.062331
416.000000	0.062504
417.000000	0.062554
418.000000	0.062984
419.000000	0.063372
420.000000	0.063554
421.000000	0.063547
422.000000	0.063491
423.000000	0.063748
424.000000	0.064630
425.000000	0.065271
426.000000	0.065424
427.000000	0.065193
428.000000	0.065394
429.000000	0.065934
430.000000	0.066644
431.000000	0.067277
432.000000	0.067520
433.000000	0.067590
434.000000	0.067982
435.000000	0.068170
436.000000	0.068455
437.000000	0.069029
438.000000	0.068829
439.000000	0.068911
440.000000	0.069632
441.000000	0.069747
442.000000	0.069860
443.000000	0.070148
444.000000	0.070593
445.000000	0.071073
446.000000	0.071616
447.000000	0.072177
448.000000	0.072270
449.000000	0.072417
450.000000	0.073002
451.000000	0.073851
452.000000	0.074286
453.000000	0.074284
454.000000	0.074631
455.000000	0.075147
456.000000	0.075733
457.000000	0.076252
458.000000	0.076918
459.000000	0.077471
460.000000	0.077739
461.000000	0.078110
462.000000	0.078611
463.000000	0.079100
464.000000	0.079273
465.000000	0.079443
466.000000	0.079703
467.000000	0.080066
468.000000	0.080676
469.000000	0.081268
470.000000	0.081586
471.000000	0.081841
472.000000	0.082133
473.000000	0.082472
474.000000	0.082594
475.000000	0.082978
476.000000	0.083673
477.000000	0.084180
478.000000	0.084348
479.000000	0.084483
480.000000	0.084962
481.000000	0.085490
482.000000	0.085935
483.000000	0.086176
484.000000	0.086398
485.000000	0.086510
486.000000	0.086600
487.000000	0.086925
488.000000	0.087429
489.000000	0.087830
490.000000	0.087647
491.000000	0.087886
492.000000	0.088227
493.000000	0.088080
494.000000	0.088202
495.000000	0.088436
496.000000	0.088573
497.000000	0.088571
498.000000	0.088571
499.000000	0.088666
500.000000	0.088859
501.000000	0.088970
502.000000	0.088964
503.000000	0.088870
504.000000	0.089076
505.000000	0.089359
506.000000	0.089501
507.000000	0.089931
508.000000	0.090306
509.000000	0.090473
510.000000	0.090746
511.000000	0.091178
512.000000	0.091693
513.000000	0.092068
514.000000	0.092441
515.000000	0.092816
516.000000	0.093145
517.000000	0.093521
518.000000	0.093921
519.000000	0.094302
520.000000	0.094748
521.000000	0.095257
522.000000	0.095826
523.000000	0.096448
524.000000	0.097193
525.000000	0.098031
526.000000	0.098899
527.000000	0.099967
528.000000	0.101156
529.000000	0.102368
530.000000	0.103609
531.000000	0.105076
532.000000	0.106760
533.000000	0.108239
534.000000	0.109828
535.000000	0.111562
536.000000	0.113223
537.000000	0.114805
538.000000	0.116383
539.000000	0.118050
540.000000	0.119496
541.000000	0.120803
542.000000	0.122117
543.000000	0.123472
544.000000	0.124792
545.000000	0.126039
546.000000	0.127350
547.000000	0.128751
548.000000	0.130219
549.000000	0.131637
550.000000	0.133203
551.000000	0.134917
552.000000	0.136700
553.000000	0.138632
554.000000	0.140638
555.000000	0.142691
556.000000	0.144960
557.000000	0.147306
558.000000	0.149721
559.000000	0.152178
560.000000	0.154560
561.000000	0.156946
562.000000	0.159420
563.000000	0.161750
564.000000	0.163971
565.000000	0.166104
566.000000	0.168179
567.000000	0.170131
568.000000	0.171909
569.000000	0.173523
570.000000	0.175005
571.000000	0.176373
572.000000	0.177657
573.000000	0.178784
574.000000	0.179771
575.000000	0.180689
576.000000	0.181451
577.000000	0.182050
578.000000	0.182536
579.000000	0.182917
580.000000	0.183203
581.000000	0.183399
582.000000	0.183507
583.000000	0.183487
584.000000	0.183368
585.000000	0.183223
586.000000	0.182972
587.000000	0.182598
588.000000	0.182125
589.000000	0.181729
590.000000	0.181205
591.000000	0.180480
592.000000	0.179880
593.000000	0.179272
594.000000	0.178603
595.000000	0.177886
596.000000	0.177057
597.000000	0.176162
598.000000	0.175232
599.000000	0.174196
600.000000	0.173204
601.000000	0.172309
602.000000	0.171300
603.000000	0.170307
604.000000	0.169386
605.000000	0.168440
606.000000	0.167471
607.000000	0.166500
608.000000	0.165563
609.000000	0.164751
610.000000	0.163950
611.000000	0.163034
612.000000	0.162176
613.000000	0.161316
614.000000	0.160457
615.000000	0.159741
616.000000	0.159016
617.000000	0.158214
618.000000	0.157393
619.000000	0.156678
620.000000	0.156012
621.000000	0.155300
622.000000	0.154650
623.000000	0.153993
624.000000	0.153284
625.000000	0.152674
626.000000	0.152132
627.000000	0.151632
628.000000	0.151147
629.000000	0.150706
630.000000	0.150253
631.000000	0.149828
632.000000	0.149448
633.000000	0.149091
634.000000	0.148720
635.000000	0.148329
636.000000	0.147981
637.000000	0.147696
638.000000	0.147432
639.000000	0.147222
640.000000	0.147090
641.000000	0.146979
642.000000	0.146859
643.000000	0.146775
644.000000	0.146788
645.000000	0.146789
646.000000	0.146816
647.000000	0.146881
648.000000	0.146919
649.000000	0.147031
650.000000	0.147241
651.000000	0.147513
652.000000	0.147724
653.000000	0.147964
654.000000	0.148369
655.000000	0.148753
656.000000	0.149115
657.000000	0.149480
658.000000	0.149991
659.000000	0.150615
660.000000	0.151268
661.000000	0.151799
662.000000	0.152356
663.000000	0.153026
664.000000	0.153814
665.000000	0.154604
666.000000	0.155382
667.000000	0.156157
668.000000	0.157012
669.000000	0.157918
670.000000	0.158862
671.000000	0.159899
672.000000	0.160991
673.000000	0.162128
674.000000	0.163341
675.000000	0.164492
676.000000	0.165653
677.000000	0.166943
678.000000	0.168222
679.000000	0.169551
680.000000	0.170976
681.000000	0.172457
682.000000	0.173963
683.000000	0.175496
684.000000	0.177233
685.000000	0.178954
686.000000	0.180668
687.000000	0.182437
688.000000	0.184247
689.000000	0.186124
690.000000	0.188107
691.000000	0.190170
692.000000	0.192209
693.000000	0.194263
694.000000	0.196436
695.000000	0.198675
696.000000	0.200962
697.000000	0.203285
698.000000	0.205611
699.000000	0.208018
700.000000	0.210567
701.000000	0.213195
702.000000	0.215821
703.000000	0.218430
704.000000	0.221136
705.000000	0.223900
706.000000	0.226691
707.000000	0.229554
708.000000	0.232446
709.000000	0.235363
710.000000	0.238328
711.000000	0.241366
712.000000	0.244434
713.000000	0.247561
714.000000	0.250848
715.000000	0.254114
716.000000	0.257341
717.000000	0.260571
718.000000	0.263886
719.000000	0.267240
720.000000	0.270601
721.000000	0.274019
722.000000	0.277454
723.000000	0.280914
724.000000	0.284298
725.000000	0.287735
726.000000	0.291270
727.000000	0.294761
728.000000	0.298294
729.000000	0.301868
730.000000	0.305408
731.000000	0.308913
732.000000	0.312309
733.000000	0.315697
734.000000	0.319302
735.000000	0.322764
736.000000	0.326177
737.000000	0.329551
738.000000	0.332881
739.000000	0.336252
740.000000	0.339529
741.000000	0.342763
742.000000	0.346022
743.000000	0.349268
744.000000	0.352460
745.000000	0.355486
746.000000	0.358462
747.000000	0.361453
748.000000	0.364420
749.000000	0.367367
750.000000	0.370255
751.000000	0.373091
752.000000	0.375813
753.000000	0.378447
754.000000	0.381063
755.000000	0.383559
756.000000	0.385996
757.000000	0.388410
758.000000	0.390778
759.000000	0.393072
760.000000	0.395215
761.000000	0.397347
762.000000	0.399526
763.000000	0.401618
764.000000	0.403477
765.000000	0.405432
766.000000	0.407381
767.000000	0.409147
768.000000	0.410715
769.000000	0.412206
770.000000	0.413678
771.000000	0.415055
772.000000	0.416594
773.000000	0.418115
774.000000	0.419448
775.000000	0.420726
776.000000	0.421946
777.000000	0.423049
778.000000	0.423932
779.000000	0.424995
780.000000	0.426190
781.000000	0.427025
782.000000	0.427826
783.000000	0.428693
784.000000	0.429422
785.000000	0.430119
786.000000	0.430756
787.000000	0.431330
788.000000	0.431942
789.000000	0.432486
790.000000	0.432927
791.000000	0.433338
792.000000	0.433724
793.000000	0.434153
794.000000	0.434641
795.000000	0.434974
796.000000	0.435212
797.000000	0.435432
798.000000	0.435747
799.000000	0.435971
800.000000	0.436196
801.000000	0.436546
802.000000	0.436788
803.000000	0.436930
804.000000	0.437016
805.000000	0.436920
806.000000	0.436905
807.000000	0.436925
808.000000	0.436604
809.000000	0.436575
810.000000	0.436749
811.000000	0.436886
812.000000	0.436716
813.000000	0.436554
814.000000	0.436453
815.000000	0.436274
816.000000	0.436136
817.000000	0.436048
818.000000	0.435876
819.000000	0.435731
820.000000	0.435545
821.000000	0.435239
822.000000	0.434938
823.000000	0.434621
824.000000	0.434339
825.000000	0.434283
826.000000	0.434018
827.000000	0.433715
828.000000	0.433519
829.000000	0.433154
830.000000	0.432817
831.000000	0.432560
832.000000	0.432136
833.000000	0.431723
834.000000	0.431283
835.000000	0.430825
836.000000	0.430375
837.000000	0.429984
838.000000	0.429645
839.000000	0.429241
840.000000	0.428882
841.000000	0.428582
842.000000	0.428272
843.000000	0.427969
844.000000	0.427652
845.000000	0.427276
846.000000	0.426880
847.000000	0.426523
848.000000	0.426123
849.000000	0.425640
850.000000	0.425142
851.000000	0.424616
852.000000	0.424092
853.000000	0.423501
854.000000	0.423016
855.000000	0.422717
856.000000	0.422352
857.000000	0.421750
858.000000	0.421184
859.000000	0.420711
860.000000	0.420339
861.000000	0.419707
862.000000	0.419100
863.000000	0.418850
864.000000	0.418512
865.000000	0.418035
866.000000	0.417511
867.000000	0.417137
868.000000	0.416684
869.000000	0.416084
870.000000	0.415504
871.000000	0.414982
872.000000	0.414496
873.000000	0.414009
874.000000	0.413786
875.000000	0.413347
876.000000	0.412717
877.000000	0.412062
878.000000	0.411483
879.000000	0.410940
880.000000	0.410278
881.000000	0.409863
882.000000	0.409313
883.000000	0.408737
884.000000	0.408319
885.000000	0.407928
886.000000	0.407423
887.000000	0.406846
888.000000	0.406467
889.000000	0.405985
890.000000	0.405319
891.000000	0.404782
892.000000	0.404376
893.000000	0.403961
894.000000	0.403625
895.000000	0.403338
896.000000	0.402835
897.000000	0.402218
898.000000	0.401709
899.000000	0.401285
900.000000	0.401038
901.000000	0.400817
902.000000	0.400319
903.000000	0.399909
904.000000	0.399546
905.000000	0.398982
906.000000	0.398434
907.000000	0.398043
908.000000	0.397795
909.000000	0.397297
910.000000	0.396845
911.000000	0.396479
912.000000	0.396160
913.000000	0.395651
914.000000	0.395201
915.000000	0.394879
916.000000	0.394405
917.000000	0.394115
918.000000	0.393840
919.000000	0.393417
920.000000	0.393046
921.000000	0.392599
922.000000	0.392198
923.000000	0.391993
924.000000	0.391615
925.000000	0.391202
926.000000	0.390846
927.000000	0.390291
928.000000	0.389838
929.000000	0.389490
930.000000	0.389141
931.000000	0.388680
932.000000	0.388288
933.000000	0.388077
934.000000	0.387932
935.000000	0.387563
936.000000	0.387131
937.000000	0.386714
938.000000	0.386361
939.000000	0.386171
940.000000	0.385922
941.000000	0.385465
942.000000	0.385217
943.000000	0.385080
944.000000	0.384841
945.000000	0.384762
946.000000	0.384353
947.000000	0.383914
948.000000	0.383764
949.000000	0.383424
950.000000	0.383061
951.000000	0.382762
952.000000	0.382651
953.000000	0.382242
954.000000	0.381882
955.000000	0.381769
956.000000	0.381674
957.000000	0.381527
958.000000	0.381136
959.000000	0.380573
960.000000	0.380652
961.000000	0.380484
962.000000	0.379928
963.000000	0.379905
964.000000	0.379753
965.000000	0.379548
966.000000	0.379324
967.000000	0.379153
968.000000	0.379014
969.000000	0.378842
970.000000	0.378713
971.000000	0.378568
972.000000	0.378339
973.000000	0.378048
974.000000	0.378046
975.000000	0.377928
976.000000	0.377860
977.000000	0.377920
978.000000	0.377576
979.000000	0.377417
980.000000	0.377299
981.000000	0.377357
982.000000	0.377479
983.000000	0.377335
984.000000	0.377001
985.000000	0.376799
986.000000	0.376910
987.000000	0.377275
988.000000	0.377558
989.000000	0.377494
990.000000	0.377291
991.000000	0.377124
992.000000	0.377140
993.000000	0.377061
994.000000	0.377088
995.000000	0.377370
996.000000	0.377494
997.000000	0.377549
998.000000	0.377307
999.000000	0.376993
1000.000000	0.377181
1001.000000	0.376727
1002.000000	0.377192
1003.000000	0.377562
1004.000000	0.377603
1005.000000	0.377551
1006.000000	0.377606
1007.000000	0.377556
1008.000000	0.377303
1009.000000	0.377459
1010.000000	0.377397
1011.000000	0.377207
1012.000000	0.377363
1013.000000	0.377319
1014.000000	0.377303
1015.000000	0.378094
1016.000000	0.378934
1017.000000	0.378813
1018.000000	0.378977
1019.000000	0.379224
1020.000000	0.379034
1021.000000	0.378805
1022.000000	0.379334
1023.000000	0.379628
1024.000000	0.379499
1025.000000	0.379302
1026.000000	0.378930
1027.000000	0.378885
1028.000000	0.379098
1029.000000	0.378849
1030.000000	0.379125
1031.000000	0.379870
1032.000000	0.380026
1033.000000	0.380235
1034.000000	0.380494
1035.000000	0.380552
1036.000000	0.380810
1037.000000	0.381566
1038.000000	0.381781
1039.000000	0.381927
1040.000000	0.381976
1041.000000	0.382302
1042.000000	0.382162
1043.000000	0.381925
1044.000000	0.382207
1045.000000	0.382506
1046.000000	0.382672
1047.000000	0.383163
1048.000000	0.384404
1049.000000	0.384709
1050.000000	0.384513
1051.000000	0.384572
1052.000000	0.384117
1053.000000	0.384108
1054.000000	0.384858
1055.000000	0.385331
1056.000000	0.385842
1057.000000	0.386339
1058.000000	0.386745
1059.000000	0.386425
1060.000000	0.386754
1061.000000	0.387402
1062.000000	0.387254
1063.000000	0.387780
1064.000000	0.388365
1065.000000	0.388752
1066.000000	0.389140
1067.000000	0.390188
1068.000000	0.390520
1069.000000	0.390001
1070.000000	0.390084
1071.000000	0.390239
1072.000000	0.390485
1073.000000	0.390910
1074.000000	0.391776
1075.000000	0.392137
1076.000000	0.392313
1077.000000	0.392203
1078.000000	0.391764
1079.000000	0.392003
1080.000000	0.392656
1081.000000	0.393046
1082.000000	0.393981
1083.000000	0.394380
1084.000000	0.394334
1085.000000	0.394523
1086.000000	0.394387
1087.000000	0.394772
1088.000000	0.395517
1089.000000	0.395992
1090.000000	0.396431
1091.000000	0.397215
1092.000000	0.397828
1093.000000	0.397726
1094.000000	0.397966
1095.000000	0.398208
1096.000000	0.398419
1097.000000	0.398545
1098.000000	0.398814
1099.000000	0.398942
1100.000000	0.399333
1101.000000	0.400119
1102.000000	0.400351
1103.000000	0.400216
1104.000000	0.400489
1105.000000	0.400469
1106.000000	0.400737
1107.000000	0.401644
1108.000000	0.402164
1109.000000	0.402500
1110.000000	0.402945
1111.000000	0.403287
1112.000000	0.403551
1113.000000	0.403761
1114.000000	0.403914
1115.000000	0.404121
1116.000000	0.404202
1117.000000	0.404477
1118.000000	0.404969
1119.000000	0.405188
1120.000000	0.405263
1121.000000	0.405507
1122.000000	0.405867
1123.000000	0.406365
1124.000000	0.406883
1125.000000	0.407223
1126.000000	0.407216
1127.000000	0.407302
1128.000000	0.407374
1129.000000	0.407328
1130.000000	0.407657
1131.000000	0.408316
1132.000000	0.408556
1133.000000	0.408906
1134.000000	0.409144
1135.000000	0.408933
1136.000000	0.409062
1137.000000	0.409470
1138.000000	0.409609
1139.000000	0.409801
1140.000000	0.410031
1141.000000	0.410041
1142.000000	0.410185
1143.000000	0.410365
1144.000000	0.410648
1145.000000	0.410710
1146.000000	0.410883
1147.000000	0.410985
1148.000000	0.410878
1149.000000	0.411043
1150.000000	0.411378
1151.000000	0.411586
1152.000000	0.411698
1153.000000	0.412005
1154.000000	0.412250
1155.000000	0.412553
1156.000000	0.413117
1157.000000	0.413516
1158.000000	0.413755
1159.000000	0.414025
1160.000000	0.414242
1161.000000	0.414491
1162.000000	0.414846
1163.000000	0.415276
1164.000000	0.415569
1165.000000	0.415693
1166.000000	0.416024
1167.000000	0.416285
1168.000000	0.416561
1169.000000	0.417062
1170.000000	0.417353
1171.000000	0.417586
1172.000000	0.417789
1173.000000	0.417757
1174.000000	0.417979
1175.000000	0.418224
1176.000000	0.418451
1177.000000	0.418971
1178.000000	0.419356
1179.000000	0.419650
1180.000000	0.419872
1181.000000	0.420198
1182.000000	0.420376
1183.000000	0.420742
1184.000000	0.421104
1185.000000	0.421354
1186.000000	0.421620
1187.000000	0.421839
1188.000000	0.421854
1189.000000	0.422090
1190.000000	0.422579
1191.000000	0.422836
1192.000000	0.423227
1193.000000	0.423617
1194.000000	0.423688
1195.000000	0.423908
1196.000000	0.424188
1197.000000	0.424354
1198.000000	0.424356
1199.000000	0.424592
1200.000000	0.424889
1201.000000	0.425224
1202.000000	0.425645
1203.000000	0.426139
1204.000000	0.426420
1205.000000	0.426719
1206.000000	0.426928
1207.000000	0.427231
1208.000000	0.427357
1209.000000	0.427366
1210.000000	0.427548
1211.000000	0.427720
1212.000000	0.427958
1213.000000	0.428410
1214.000000	0.428770
1215.000000	0.429114
1216.000000	0.429390
1217.000000	0.429530
1218.000000	0.429766
1219.000000	0.430061
1220.000000	0.430321
1221.000000	0.430606
1222.000000	0.430987
1223.000000	0.431291
1224.000000	0.431546
1225.000000	0.431906
1226.000000	0.432319
1227.000000	0.432457
1228.000000	0.432659
1229.000000	0.432911
1230.000000	0.433080
1231.000000	0.433220
1232.000000	0.433669
1233.000000	0.434044
1234.000000	0.434236
1235.000000	0.434538
1236.000000	0.434818
1237.000000	0.435160
1238.000000	0.435464
1239.000000	0.435749
1240.000000	0.436125
1241.000000	0.436334
1242.000000	0.436482
1243.000000	0.436733
1244.000000	0.436982
1245.000000	0.437424
1246.000000	0.437802
1247.000000	0.438278
1248.000000	0.438734
1249.000000	0.439098
1250.000000	0.439489
1251.000000	0.439774
1252.000000	0.440046
1253.000000	0.440296
1254.000000	0.440522
1255.000000	0.440768
1256.000000	0.440942
1257.000000	0.441004
1258.000000	0.441259
1259.000000	0.441476
1260.000000	0.441757
1261.000000	0.442083
1262.000000	0.442385
1263.000000	0.442784
1264.000000	0.442921
1265.000000	0.443090
1266.000000	0.443414
1267.000000	0.443652
1268.000000	0.443937
1269.000000	0.444199
1270.000000	0.444406
1271.000000	0.444535
1272.000000	0.444835
1273.000000	0.445272
1274.000000	0.445584
1275.000000	0.445796
1276.000000	0.445931
1277.000000	0.446237
1278.000000	0.446395
1279.000000	0.446653
1280.000000	0.446987
1281.000000	0.447191
1282.000000	0.447340
1283.000000	0.447704
1284.000000	0.448141
1285.000000	0.448477
1286.000000	0.448840
1287.000000	0.449034
1288.000000	0.449261
1289.000000	0.449504
1290.000000	0.449802
1291.000000	0.450175
1292.000000	0.450516
1293.000000	0.450734
1294.000000	0.450843
1295.000000	0.451007
1296.000000	0.451162
1297.000000	0.451415
1298.000000	0.451773
1299.000000	0.452040
1300.000000	0.452396
1301.000000	0.452633
1302.000000	0.452750
1303.000000	0.453017
1304.000000	0.453106
1305.000000	0.453063
1306.000000	0.453134
1307.000000	0.453255
1308.000000	0.453413
1309.000000	0.453685
1310.000000	0.453927
1311.000000	0.454261
1312.000000	0.454393
1313.000000	0.454451
1314.000000	0.454402
1315.000000	0.454267
1316.000000	0.454309
1317.000000	0.454514
1318.000000	0.454481
1319.000000	0.454365
1320.000000	0.454496
1321.000000	0.454407
1322.000000	0.454296
1323.000000	0.454451
1324.000000	0.454533
1325.000000	0.454536
1326.000000	0.454638
1327.000000	0.454626
1328.000000	0.454570
1329.000000	0.454504
1330.000000	0.454395
1331.000000	0.454517
1332.000000	0.454881
1333.000000	0.455041
1334.000000	0.455411
1335.000000	0.455689
1336.000000	0.455726
1337.000000	0.455802
1338.000000	0.455853
1339.000000	0.455858
1340.000000	0.455838
1341.000000	0.456008
1342.000000	0.456264
1343.000000	0.456346
1344.000000	0.456393
1345.000000	0.456459
1346.000000	0.456448
1347.000000	0.456399
1348.000000	0.456526
1349.000000	0.456424
1350.000000	0.456328
1351.000000	0.456317
1352.000000	0.456216
1353.000000	0.456246
1354.000000	0.456498
1355.000000	0.456771
1356.000000	0.457012
1357.000000	0.457018
1358.000000	0.457076
1359.000000	0.457173
1360.000000	0.457125
1361.000000	0.457107
1362.000000	0.456983
1363.000000	0.456565
1364.000000	0.456426
1365.000000	0.456448
1366.000000	0.456303
1367.000000	0.456232
1368.000000	0.455918
1369.000000	0.455566
1370.000000	0.455145
1371.000000	0.454673
1372.000000	0.454330
1373.000000	0.453903
1374.000000	0.453339
1375.000000	0.452751
1376.000000	0.452236
1377.000000	0.451591
1378.000000	0.450810
1379.000000	0.449958
1380.000000	0.448902
1381.000000	0.447702
1382.000000	0.446435
1383.000000	0.444986
1384.000000	0.443218
1385.000000	0.441260
1386.000000	0.439071
1387.000000	0.436845
1388.000000	0.434657
1389.000000	0.432201
1390.000000	0.429717
1391.000000	0.426980
1392.000000	0.423978
1393.000000	0.420849
1394.000000	0.417538
1395.000000	0.414254
1396.000000	0.410925
1397.000000	0.407411
1398.000000	0.403677
1399.000000	0.400163
1400.000000	0.396461
1401.000000	0.393017
1402.000000	0.389811
1403.000000	0.386715
1404.000000	0.383808
1405.000000	0.381103
1406.000000	0.378623
1407.000000	0.376556
1408.000000	0.374593
1409.000000	0.372892
1410.000000	0.371486
1411.000000	0.370201
1412.000000	0.369248
1413.000000	0.368650
1414.000000	0.368260
1415.000000	0.368100
1416.000000	0.368090
1417.000000	0.368122
1418.000000	0.368145
1419.000000	0.368158
1420.000000	0.368102
1421.000000	0.368219
1422.000000	0.368385
1423.000000	0.368560
1424.000000	0.368545
1425.000000	0.368530
1426.000000	0.368527
1427.000000	0.368687
1428.000000	0.369013
1429.000000	0.369289
1430.000000	0.369587
1431.000000	0.369792
1432.000000	0.370090
1433.000000	0.370485
1434.000000	0.370883
1435.000000	0.371454
1436.000000	0.372038
1437.000000	0.372453
1438.000000	0.373165
1439.000000	0.374051
1440.000000	0.375040
1441.000000	0.376300
1442.000000	0.377714
1443.000000	0.379121
1444.000000	0.380786
1445.000000	0.382678
1446.000000	0.384610
1447.000000	0.386778
1448.000000	0.388869
1449.000000	0.390933
1450.000000	0.393045
1451.000000	0.394985
1452.000000	0.396821
1453.000000	0.398600
1454.000000	0.400090
1455.000000	0.401258
1456.000000	0.402362
1457.000000	0.403507
1458.000000	0.404536
1459.000000	0.405484
1460.000000	0.406544
1461.000000	0.407482
1462.000000	0.408329
1463.000000	0.409352
1464.000000	0.410391
1465.000000	0.411504
1466.000000	0.412632
1467.000000	0.413652
1468.000000	0.414767
1469.000000	0.415898
1470.000000	0.416884
1471.000000	0.418027
1472.000000	0.419097
1473.000000	0.420188
1474.000000	0.421253
1475.000000	0.422277
1476.000000	0.423324
1477.000000	0.424376
1478.000000	0.425496
1479.000000	0.426496
1480.000000	0.427355
1481.000000	0.428201
1482.000000	0.428972
1483.000000	0.429827
1484.000000	0.430753
1485.000000	0.431591
1486.000000	0.432391
1487.000000	0.433182
1488.000000	0.433903
1489.000000	0.434697
1490.000000	0.435390
1491.000000	0.436105
1492.000000	0.436767
1493.000000	0.437505
1494.000000	0.438177
1495.000000	0.438874
1496.000000	0.439668
1497.000000	0.440361
1498.000000	0.441036
1499.000000	0.441718
1500.000000	0.442294
1501.000000	0.442741
1502.000000	0.443217
1503.000000	0.443736
1504.000000	0.444275
1505.000000	0.444839
1506.000000	0.445407
1507.000000	0.445885
1508.000000	0.446438
1509.000000	0.447032
1510.000000	0.447541
1511.000000	0.448071
1512.000000	0.448509
1513.000000	0.448973
1514.000000	0.449508
1515.000000	0.449982
1516.000000	0.450540
1517.000000	0.450896
1518.000000	0.451112
1519.000000	0.451385
1520.000000	0.451709
1521.000000	0.452067
1522.000000	0.452550
1523.000000	0.453078
1524.000000	0.453476
1525.000000	0.453884
1526.000000	0.454265
1527.000000	0.454580
1528.000000	0.455035
1529.000000	0.455516
1530.000000	0.455814
1531.000000	0.456232
1532.000000	0.456669
1533.000000	0.456952
1534.000000	0.457380
1535.000000	0.457919
1536.000000	0.458217
1537.000000	0.458543
1538.000000	0.458874
1539.000000	0.459096
1540.000000	0.459446
1541.000000	0.459849
1542.000000	0.460227
1543.000000	0.460638
1544.000000	0.460933
1545.000000	0.461252
1546.000000	0.461646
1547.000000	0.461971
1548.000000	0.462293
1549.000000	0.462563
1550.000000	0.462711
1551.000000	0.462864
1552.000000	0.463074
1553.000000	0.463309
1554.000000	0.463553
1555.000000	0.463790
1556.000000	0.464108
1557.000000	0.464355
1558.000000	0.464611
1559.000000	0.464816
1560.000000	0.465032
1561.000000	0.465250
1562.000000	0.465420
1563.000000	0.465644
1564.000000	0.465889
1565.000000	0.466121
1566.000000	0.466279
1567.000000	0.466603
1568.000000	0.466820
1569.000000	0.466973
1570.000000	0.467190
1571.000000	0.467442
1572.000000	0.467654
1573.000000	0.467960
1574.000000	0.468152
1575.000000	0.468240
1576.000000	0.468392
1577.000000	0.468478
1578.000000	0.468577
1579.000000	0.468894
1580.000000	0.469044
1581.000000	0.469126
1582.000000	0.469224
1583.000000	0.469258
1584.000000	0.469241
1585.000000	0.469394
1586.000000	0.469518
1587.000000	0.469525
1588.000000	0.469652
1589.000000	0.469750
1590.000000	0.469994
1591.000000	0.470530
1592.000000	0.470826
1593.000000	0.471204
1594.000000	0.471450
1595.000000	0.471510
1596.000000	0.471664
1597.000000	0.471905
1598.000000	0.472040
1599.000000	0.472171
1600.000000	0.472263
1601.000000	0.472431
1602.000000	0.472480
1603.000000	0.472526
1604.000000	0.472538
1605.000000	0.472456
1606.000000	0.472455
1607.000000	0.472603
1608.000000	0.472622
1609.000000	0.472639
1610.000000	0.472642
1611.000000	0.472644
1612.000000	0.472645
1613.000000	0.472822
1614.000000	0.472934
1615.000000	0.473076
1616.000000	0.473200
1617.000000	0.473247
1618.000000	0.473289
1619.000000	0.473321
1620.000000	0.473302
1621.000000	0.473209
1622.000000	0.473346
1623.000000	0.473499
1624.000000	0.473629
1625.000000	0.473734
1626.000000	0.473710
1627.000000	0.473581
1628.000000	0.473622
1629.000000	0.473694
1630.000000	0.473760
1631.000000	0.473748
1632.000000	0.473745
1633.000000	0.473685
1634.000000	0.473798
1635.000000	0.474173
1636.000000	0.474369
1637.000000	0.474631
1638.000000	0.474725
1639.000000	0.474668
1640.000000	0.474666
1641.000000	0.474773
1642.000000	0.474855
1643.000000	0.475022
1644.000000	0.475116
1645.000000	0.475104
1646.000000	0.475105
1647.000000	0.475170
1648.000000	0.475144
1649.000000	0.475231
1650.000000	0.475318
1651.000000	0.475394
1652.000000	0.475508
1653.000000	0.475571
1654.000000	0.475702
1655.000000	0.475821
1656.000000	0.475768
1657.000000	0.475794
1658.000000	0.475744
1659.000000	0.475728
1660.000000	0.475723
1661.000000	0.475551
1662.000000	0.475574
1663.000000	0.475585
1664.000000	0.475591
1665.000000	0.475789
1666.000000	0.475861
1667.000000	0.475648
1668.000000	0.475651
1669.000000	0.475684
1670.000000	0.475637
1671.000000	0.475794
1672.000000	0.475892
1673.000000	0.475888
1674.000000	0.475829
1675.000000	0.475963
1676.000000	0.476064
1677.000000	0.476057
1678.000000	0.476089
1679.000000	0.476073
1680.000000	0.475959
1681.000000	0.475865
1682.000000	0.475851
1683.000000	0.475927
1684.000000	0.476013
1685.000000	0.476077
1686.000000	0.476011
1687.000000	0.475995
1688.000000	0.475819
1689.000000	0.475651
1690.000000	0.475587
1691.000000	0.475557
1692.000000	0.475677
1693.000000	0.475788
1694.000000	0.475674
1695.000000	0.475702
1696.000000	0.475526
1697.000000	0.475312
1698.000000	0.475112
1699.000000	0.475061
1700.000000	0.475063
1701.000000	0.475186
1702.000000	0.475328
1703.000000	0.475283
1704.000000	0.475210
1705.000000	0.475175
1706.000000	0.475173
1707.000000	0.475111
1708.000000	0.474974
1709.000000	0.474807
1710.000000	0.474706
1711.000000	0.474638
1712.000000	0.474770
1713.000000	0.474630
1714.000000	0.474296
1715.000000	0.474162
1716.000000	0.474012
1717.000000	0.473875
1718.000000	0.473819
1719.000000	0.473765
1720.000000	0.473797
1721.000000	0.473698
1722.000000	0.473629
1723.000000	0.473544
1724.000000	0.473302
1725.000000	0.473222
1726.000000	0.473176
1727.000000	0.473084
1728.000000	0.472931
1729.000000	0.472657
1730.000000	0.472474
1731.000000	0.472333
1732.000000	0.472185
1733.000000	0.472099
1734.000000	0.471872
1735.000000	0.471767
1736.000000	0.471634
1737.000000	0.471518
1738.000000	0.471536
1739.000000	0.471473
1740.000000	0.471305
1741.000000	0.471187
1742.000000	0.471128
1743.000000	0.471098
1744.000000	0.471106
1745.000000	0.470814
1746.000000	0.470358
1747.000000	0.470163
1748.000000	0.469844
1749.000000	0.469757
1750.000000	0.469560
1751.000000	0.469310
1752.000000	0.469220
1753.000000	0.468992
1754.000000	0.468879
1755.000000	0.468816
1756.000000	0.468656
1757.000000	0.468568
1758.000000	0.468430
1759.000000	0.468038
1760.000000	0.467867
1761.000000	0.467767
1762.000000	0.467667
1763.000000	0.467803
1764.000000	0.467725
1765.000000	0.467454
1766.000000	0.467269
1767.000000	0.466895
1768.000000	0.466558
1769.000000	0.466440
1770.000000	0.466255
1771.000000	0.465930
1772.000000	0.465666
1773.000000	0.465306
1774.000000	0.465075
1775.000000	0.465027
1776.000000	0.464877
1777.000000	0.464719
1778.000000	0.464491
1779.000000	0.464159
1780.000000	0.463892
1781.000000	0.463572
1782.000000	0.463304
1783.000000	0.463107
1784.000000	0.462960
1785.000000	0.462722
1786.000000	0.462527
1787.000000	0.462583
1788.000000	0.462796
1789.000000	0.462852
1790.000000	0.462776
1791.000000	0.462658
1792.000000	0.462362
1793.000000	0.462301
1794.000000	0.462566
1795.000000	0.462661
1796.000000	0.462775
1797.000000	0.462800
1798.000000	0.462585
1799.000000	0.462544
1800.000000	0.462709
1801.000000	0.462262
1802.000000	0.462579
1803.000000	0.462996
1804.000000	0.463175
1805.000000	0.463165
1806.000000	0.463228
1807.000000	0.463624
1808.000000	0.463340
1809.000000	0.462127
1810.000000	0.461683
1811.000000	0.461730
1812.000000	0.461512
1813.000000	0.461873
1814.000000	0.463878
1815.000000	0.464351
1816.000000	0.464238
1817.000000	0.464043
1818.000000	0.463396
1819.000000	0.462997
1820.000000	0.462470
1821.000000	0.461363
1822.000000	0.461210
1823.000000	0.461209
1824.000000	0.461327
1825.000000	0.462670
1826.000000	0.462751
1827.000000	0.462267
1828.000000	0.460956
1829.000000	0.460149
1830.000000	0.459519
1831.000000	0.458983
1832.000000	0.459129
1833.000000	0.458591
1834.000000	0.457207
1835.000000	0.456918
1836.000000	0.456924
1837.000000	0.456801
1838.000000	0.457045
1839.000000	0.457393
1840.000000	0.457196
1841.000000	0.456596
1842.000000	0.455900
1843.000000	0.454537
1844.000000	0.454042
1845.000000	0.453458
1846.000000	0.453405
1847.000000	0.454051
1848.000000	0.454506
1849.000000	0.454497
1850.000000	0.454001
1851.000000	0.453573
1852.000000	0.452791
1853.000000	0.452118
1854.000000	0.451164
1855.000000	0.450182
1856.000000	0.449124
1857.000000	0.447685
1858.000000	0.446042
1859.000000	0.445037
1860.000000	0.443629
1861.000000	0.441775
1862.000000	0.440035
1863.000000	0.438189
1864.000000	0.436567
1865.000000	0.435434
1866.000000	0.433650
1867.000000	0.431964
1868.000000	0.429471
1869.000000	0.426436
1870.000000	0.423208
1871.000000	0.419553
1872.000000	0.416367
1873.000000	0.413172
1874.000000	0.409963
1875.000000	0.406650
1876.000000	0.403651
1877.000000	0.399297
1878.000000	0.394303
1879.000000	0.388837
1880.000000	0.382833
1881.000000	0.377088
1882.000000	0.371339
1883.000000	0.364798
1884.000000	0.358244
1885.000000	0.351204
1886.000000	0.343855
1887.000000	0.336187
1888.000000	0.328329
1889.000000	0.319551
1890.000000	0.310343
1891.000000	0.301230
1892.000000	0.291842
1893.000000	0.283208
1894.000000	0.274755
1895.000000	0.266617
1896.000000	0.258698
1897.000000	0.251937
1898.000000	0.244855
1899.000000	0.238367
1900.000000	0.233333
1901.000000	0.228364
1902.000000	0.223806
1903.000000	0.221188
1904.000000	0.219448
1905.000000	0.217670
1906.000000	0.216858
1907.000000	0.217368
1908.000000	0.218013
1909.000000	0.218901
1910.000000	0.221055
1911.000000	0.223096
1912.000000	0.225911
1913.000000	0.228983
1914.000000	0.231392
1915.000000	0.234758
1916.000000	0.238076
1917.000000	0.240928
1918.000000	0.243542
1919.000000	0.246569
1920.000000	0.249153
1921.000000	0.251882
1922.000000	0.254790
1923.000000	0.257747
1924.000000	0.260718
1925.000000	0.263175
1926.000000	0.265517
1927.000000	0.267786
1928.000000	0.269579
1929.000000	0.270934
1930.000000	0.272264
1931.000000	0.273619
1932.000000	0.274968
1933.000000	0.276841
1934.000000	0.278278
1935.000000	0.279112
1936.000000	0.280527
1937.000000	0.281621
1938.000000	0.282196
1939.000000	0.283125
1940.000000	0.284619
1941.000000	0.285108
1942.000000	0.285218
1943.000000	0.286345
1944.000000	0.286943
1945.000000	0.287359
1946.000000	0.288330
1947.000000	0.288871
1948.000000	0.289165
1949.000000	0.289779
1950.000000	0.290536
1951.000000	0.291216
1952.000000	0.291920
1953.000000	0.292807
1954.000000	0.294016
1955.000000	0.294953
1956.000000	0.295969
1957.000000	0.297053
1958.000000	0.297907
1959.000000	0.298617
1960.000000	0.298996
1961.000000	0.299034
1962.000000	0.299313
1963.000000	0.299401
1964.000000	0.300077
1965.000000	0.300938
1966.000000	0.301939
1967.000000	0.303134
1968.000000	0.304239
1969.000000	0.305288
1970.000000	0.306474
1971.000000	0.307532
1972.000000	0.308722
1973.000000	0.309602
1974.000000	0.310277
1975.000000	0.311231
1976.000000	0.312344
1977.000000	0.313197
1978.000000	0.314131
1979.000000	0.315280
1980.000000	0.316393
1981.000000	0.317052
1982.000000	0.317761
1983.000000	0.318561
1984.000000	0.319422
1985.000000	0.320152
1986.000000	0.321508
1987.000000	0.323421
1988.000000	0.325187
1989.000000	0.326604
1990.000000	0.328179
1991.000000	0.328793
1992.000000	0.329402
1993.000000	0.330670
1994.000000	0.331513
1995.000000	0.332539
1996.000000	0.333440
1997.000000	0.334441
1998.000000	0.335489
1999.000000	0.336768
2000.000000	0.338341
2001.000000	0.339616
2002.000000	0.340649
2003.000000	0.341652
2004.000000	0.342304
2005.000000	0.343165
2006.000000	0.344609
2007.000000	0.345999
2008.000000	0.347559
2009.000000	0.349237
2010.000000	0.351153
2011.000000	0.353464
2012.000000	0.355177
2013.000000	0.356893
2014.000000	0.357839
2015.000000	0.358599
2016.000000	0.359538
2017.000000	0.359997
2018.000000	0.360932
2019.000000	0.361648
2020.000000	0.361924
2021.000000	0.362860
2022.000000	0.364178
2023.000000	0.365155
2024.000000	0.366468
2025.000000	0.367612
2026.000000	0.368358
2027.000000	0.369139
2028.000000	0.369788
2029.000000	0.371058
2030.000000	0.371882
2031.000000	0.372482
2032.000000	0.373740
2033.000000	0.374765
2034.000000	0.375659
2035.000000	0.376934
2036.000000	0.377689
2037.000000	0.377878
2038.000000	0.378556
2039.000000	0.379621
2040.000000	0.380183
2041.000000	0.380671
2042.000000	0.381701
2043.000000	0.381785
2044.000000	0.381968
2045.000000	0.381950
2046.000000	0.382067
2047.000000	0.382755
2048.000000	0.383625
2049.000000	0.384714
2050.000000	0.386209
2051.000000	0.387060
2052.000000	0.387641
2053.000000	0.388081
2054.000000	0.388510
2055.000000	0.388933
2056.000000	0.389425
2057.000000	0.389727
2058.000000	0.390204
2059.000000	0.391465
2060.000000	0.392307
2061.000000	0.393535
2062.000000	0.393952
2063.000000	0.393750
2064.000000	0.393561
2065.000000	0.392978
2066.000000	0.393028
2067.000000	0.393584
2068.000000	0.394797
2069.000000	0.395753
2070.000000	0.396297
2071.000000	0.396721
2072.000000	0.396851
2073.000000	0.397016
2074.000000	0.397800
2075.000000	0.398322
2076.000000	0.398631
2077.000000	0.399145
2078.000000	0.399942
2079.000000	0.400270
2080.000000	0.400811
2081.000000	0.401021
2082.000000	0.400629
2083.000000	0.400579
2084.000000	0.400636
2085.000000	0.400417
2086.000000	0.400863
2087.000000	0.400898
2088.000000	0.400835
2089.000000	0.401246
2090.000000	0.401421
2091.000000	0.401644
2092.000000	0.401837
2093.000000	0.401812
2094.000000	0.402110
2095.000000	0.402595
2096.000000	0.403081
2097.000000	0.403824
2098.000000	0.404362
2099.000000	0.404274
2100.000000	0.404998
2101.000000	0.405412
2102.000000	0.405666
2103.000000	0.405872
2104.000000	0.405534
2105.000000	0.405600
2106.000000	0.405547
2107.000000	0.405626
2108.000000	0.405887
2109.000000	0.406300
2110.000000	0.406487
2111.000000	0.406883
2112.000000	0.407602
2113.000000	0.407893
2114.000000	0.408117
2115.000000	0.408064
2116.000000	0.407476
2117.000000	0.406855
2118.000000	0.406919
2119.000000	0.407104
2120.000000	0.407320
2121.000000	0.408028
2122.000000	0.408596
2123.000000	0.409068
2124.000000	0.409373
2125.000000	0.410035
2126.000000	0.410155
2127.000000	0.409456
2128.000000	0.409468
2129.000000	0.409323
2130.000000	0.409557
2131.000000	0.410354
2132.000000	0.411444
2133.000000	0.412471
2134.000000	0.412934
2135.000000	0.413265
2136.000000	0.413572
2137.000000	0.413789
2138.000000	0.414022
2139.000000	0.414224
2140.000000	0.414263
2141.000000	0.414402
2142.000000	0.414707
2143.000000	0.414538
2144.000000	0.414359
2145.000000	0.414200
2146.000000	0.414131
2147.000000	0.413988
2148.000000	0.413428
2149.000000	0.412900
2150.000000	0.412107
2151.000000	0.412497
2152.000000	0.413620
2153.000000	0.414452
2154.000000	0.414983
2155.000000	0.415536
2156.000000	0.415710
2157.000000	0.415655
2158.000000	0.415386
2159.000000	0.414437
2160.000000	0.414434
2161.000000	0.414401
2162.000000	0.414849
2163.000000	0.416649
2164.000000	0.417385
2165.000000	0.417718
2166.000000	0.417712
2167.000000	0.417915
2168.000000	0.417531
2169.000000	0.417410
2170.000000	0.417899
2171.000000	0.417279
2172.000000	0.415750
2173.000000	0.414728
2174.000000	0.413046
2175.000000	0.412341
2176.000000	0.412392
2177.000000	0.412435
2178.000000	0.412791
2179.000000	0.413279
2180.000000	0.414290
2181.000000	0.415186
2182.000000	0.415411
2183.000000	0.416206
2184.000000	0.415534
2185.000000	0.413030
2186.000000	0.411247
2187.000000	0.408708
2188.000000	0.407322
2189.000000	0.406755
2190.000000	0.405748
2191.000000	0.406717
2192.000000	0.406976
2193.000000	0.407669
2194.000000	0.407736
2195.000000	0.407379
2196.000000	0.407579
2197.000000	0.408115
2198.000000	0.407909
2199.000000	0.407682
2200.000000	0.407813
2201.000000	0.407027
2202.000000	0.407012
2203.000000	0.408818
2204.000000	0.408262
2205.000000	0.407670
2206.000000	0.406862
2207.000000	0.403838
2208.000000	0.403877
2209.000000	0.404269
2210.000000	0.404453
2211.000000	0.403173
2212.000000	0.400828
2213.000000	0.400296
2214.000000	0.399513
2215.000000	0.398287
2216.000000	0.399132
2217.000000	0.398125
2218.000000	0.393344
2219.000000	0.391934
2220.000000	0.392281
2221.000000	0.393116
2222.000000	0.397303
2223.000000	0.398073
2224.000000	0.398294
2225.000000	0.396643
2226.000000	0.391824
2227.000000	0.385906
2228.000000	0.385545
2229.000000	0.384826
2230.000000	0.385885
2231.000000	0.389316
2232.000000	0.388508
2233.000000	0.387707
2234.000000	0.387829
2235.000000	0.387986
2236.000000	0.386590
2237.000000	0.384672
2238.000000	0.382185
2239.000000	0.377046
2240.000000	0.374086
2241.000000	0.372015
2242.000000	0.370188
2243.000000	0.368779
2244.000000	0.368257
2245.000000	0.369313
2246.000000	0.369096
2247.000000	0.368057
2248.000000	0.368423
2249.000000	0.370097
2250.000000	0.368698
2251.000000	0.368923
2252.000000	0.370140
2253.000000	0.369806
2254.000000	0.369425
2255.000000	0.370444
2256.000000	0.371699
2257.000000	0.370909
2258.000000	0.370161
2259.000000	0.369236
2260.000000	0.368922
2261.000000	0.368627
2262.000000	0.369394
2263.000000	0.369014
2264.000000	0.368037
2265.000000	0.366626
2266.000000	0.364716
2267.000000	0.364033
2268.000000	0.364244
2269.000000	0.362934
2270.000000	0.362065
2271.000000	0.358694
2272.000000	0.352139
2273.000000	0.347844
2274.000000	0.343200
2275.000000	0.339540
2276.000000	0.337618
2277.000000	0.334485
2278.000000	0.330597
2279.000000	0.328013
2280.000000	0.324985
2281.000000	0.321372
2282.000000	0.317808
2283.000000	0.312599
2284.000000	0.306054
2285.000000	0.301745
2286.000000	0.298845
2287.000000	0.294614
2288.000000	0.294550
2289.000000	0.292692
2290.000000	0.286803
2291.000000	0.285074
2292.000000	0.280947
2293.000000	0.276530
2294.000000	0.274081
2295.000000	0.272754
2296.000000	0.271767
2297.000000	0.271613
2298.000000	0.272787
2299.000000	0.276221
2300.000000	0.278880
2301.000000	0.282244
2302.000000	0.284808
2303.000000	0.285855
2304.000000	0.287671
2305.000000	0.290419
2306.000000	0.292545
2307.000000	0.294011
2308.000000	0.296984
2309.000000	0.300054
2310.000000	0.302822
2311.000000	0.305494
2312.000000	0.309989
2313.000000	0.313913
2314.000000	0.318357
2315.000000	0.323823
2316.000000	0.327547
2317.000000	0.330856
2318.000000	0.332824
2319.000000	0.333714
2320.000000	0.335974
2321.000000	0.339107
2322.000000	0.339206
2323.000000	0.339249
2324.000000	0.339911
2325.000000	0.336504
2326.000000	0.334922
2327.000000	0.334457
2328.000000	0.332852
2329.000000	0.335462
2330.000000	0.337571
2331.000000	0.338775
2332.000000	0.341391
2333.000000	0.340930
2334.000000	0.340106
2335.000000	0.339993
2336.000000	0.339334
2337.000000	0.337873
2338.000000	0.336650
2339.000000	0.335429
2340.000000	0.332611
2341.000000	0.332262
2342.000000	0.332431
2343.000000	0.333832
2344.000000	0.338640
2345.000000	0.339903
2346.000000	0.342014
2347.000000	0.340539
2348.000000	0.334475
2349.000000	0.330877
2350.000000	0.327764
2351.000000	0.326545
2352.000000	0.328444
2353.000000	0.328997
2354.000000	0.330437
2355.000000	0.329238
2356.000000	0.325557
2357.000000	0.323216
2358.000000	0.319746
2359.000000	0.318952
2360.000000	0.319238
2361.000000	0.318714
2362.000000	0.315279
2363.000000	0.310648
2364.000000	0.308254
2365.000000	0.306917
2366.000000	0.309051
2367.000000	0.311731
2368.000000	0.312652
2369.000000	0.313279
2370.000000	0.311589
2371.000000	0.309231
2372.000000	0.307677
2373.000000	0.306217
2374.000000	0.306916
2375.000000	0.304457
2376.000000	0.299516
2377.000000	0.295351
2378.000000	0.289883
2379.000000	0.289866
2380.000000	0.289334
2381.000000	0.288284
2382.000000	0.288856
2383.000000	0.285353
2384.000000	0.288058
2385.000000	0.285781
2386.000000	0.282209
2387.000000	0.284708
2388.000000	0.279176
2389.000000	0.280325
2390.000000	0.280070
2391.000000	0.273596
2392.000000	0.273784
2393.000000	0.269387
2394.000000	0.267763
2395.000000	0.269309
2396.000000	0.268760
2397.000000	0.275440
2398.000000	0.279629
2399.000000	0.277702
2400.000000	0.273612
2401.000000	0.265346
2402.000000	0.261502
2403.000000	0.263224
2404.000000	0.265028
2405.000000	0.269613
2406.000000	0.272139
2407.000000	0.272747
2408.000000	0.269948
2409.000000	0.265738
2410.000000	0.264211
2411.000000	0.263275
2412.000000	0.268770
2413.000000	0.269942
2414.000000	0.266968
2415.000000	0.264667
2416.000000	0.263402
2417.000000	0.267562
2418.000000	0.271023
2419.000000	0.271368
2420.000000	0.263839
2421.000000	0.251812
2422.000000	0.244582
2423.000000	0.244374
2424.000000	0.252155
2425.000000	0.261254
2426.000000	0.264629
2427.000000	0.262675
2428.000000	0.253771
2429.000000	0.252039
2430.000000	0.256174
2431.000000	0.262412
2432.000000	0.275906
2433.000000	0.274804
2434.000000	0.270654
2435.000000	0.274502
2436.000000	0.265529
2437.000000	0.267134
2438.000000	0.273125
2439.000000	0.259534
2440.000000	0.265477
2441.000000	0.274827
2442.000000	0.273754
2443.000000	0.280348
2444.000000	0.273782
2445.000000	0.259473
2446.000000	0.256307
2447.000000	0.262416
2448.000000	0.267904
2449.000000	0.277484
2450.000000	0.288010
2451.000000	0.279092
2452.000000	0.265404
2453.000000	0.253483
2454.000000	0.233081
2455.000000	0.225408
2456.000000	0.223402
2457.000000	0.226159
2458.000000	0.241869
2459.000000	0.249795
2460.000000	0.263207
2461.000000	0.267378
2462.000000	0.241711
2463.000000	0.235192
2464.000000	0.235931
2465.000000	0.235722
2466.000000	0.263710
2467.000000	0.265771
2468.000000	0.243701
2469.000000	0.218610
2470.000000	0.192591
2471.000000	0.193388
2472.000000	0.213760
2473.000000	0.226907
2474.000000	0.218335
2475.000000	0.201192
2476.000000	0.183379
2477.000000	0.189482
2478.000000	0.215273
2479.000000	0.230905
2480.000000	0.243031
2481.000000	0.233895
2482.000000	0.230197
2483.000000	0.232381
2484.000000	0.198634
2485.000000	0.195571
2486.000000	0.193118
2487.000000	0.206987
2488.000000	0.249504
2489.000000	0.263338
2490.000000	0.269519
2491.000000	0.278323
2492.000000	0.260025
2493.000000	0.227604
2494.000000	0.224312
2495.000000	0.193527
2496.000000	0.196226
2497.000000	0.263493
2498.000000	0.273450
2499.000000	0.251849
2500.000000	0.274404
