# Wavelength	NAu-2-10_HEX-60_FV7-30_00002.asd.rts.txt
350.000000	0.187879
351.000000	0.204967
352.000000	0.209883
353.000000	0.199263
354.000000	0.184586
355.000000	0.199169
356.000000	0.199234
357.000000	0.187463
358.000000	0.195053
359.000000	0.198342
360.000000	0.197744
361.000000	0.198151
362.000000	0.198327
363.000000	0.196569
364.000000	0.192596
365.000000	0.190919
366.000000	0.194697
367.000000	0.199781
368.000000	0.195473
369.000000	0.196160
370.000000	0.199244
371.000000	0.198219
372.000000	0.197157
373.000000	0.199305
374.000000	0.205515
375.000000	0.210544
376.000000	0.209350
377.000000	0.204843
378.000000	0.208238
379.000000	0.207795
380.000000	0.203250
381.000000	0.199250
382.000000	0.203483
383.000000	0.206938
384.000000	0.204150
385.000000	0.202877
386.000000	0.204907
387.000000	0.208358
388.000000	0.206603
389.000000	0.208526
390.000000	0.211248
391.000000	0.208526
392.000000	0.208086
393.000000	0.209275
394.000000	0.210455
395.000000	0.211080
396.000000	0.211201
397.000000	0.210828
398.000000	0.209908
399.000000	0.208962
400.000000	0.208880
401.000000	0.210392
402.000000	0.210279
403.000000	0.209741
404.000000	0.210370
405.000000	0.211383
406.000000	0.212407
407.000000	0.213048
408.000000	0.212390
409.000000	0.212552
410.000000	0.213193
411.000000	0.212547
412.000000	0.212683
413.000000	0.213384
414.000000	0.213966
415.000000	0.214157
416.000000	0.214468
417.000000	0.215123
418.000000	0.215633
419.000000	0.216050
420.000000	0.216253
421.000000	0.215927
422.000000	0.216042
423.000000	0.216630
424.000000	0.217434
425.000000	0.217944
426.000000	0.218226
427.000000	0.218432
428.000000	0.218712
429.000000	0.219250
430.000000	0.219882
431.000000	0.219948
432.000000	0.219752
433.000000	0.219615
434.000000	0.219973
435.000000	0.220321
436.000000	0.220493
437.000000	0.220535
438.000000	0.221294
439.000000	0.221659
440.000000	0.221386
441.000000	0.221709
442.000000	0.222285
443.000000	0.222647
444.000000	0.222293
445.000000	0.222595
446.000000	0.223248
447.000000	0.223435
448.000000	0.223819
449.000000	0.224353
450.000000	0.224899
451.000000	0.225196
452.000000	0.225663
453.000000	0.226241
454.000000	0.226533
455.000000	0.226503
456.000000	0.226448
457.000000	0.226659
458.000000	0.227101
459.000000	0.227621
460.000000	0.228083
461.000000	0.228247
462.000000	0.228446
463.000000	0.228743
464.000000	0.229216
465.000000	0.229634
466.000000	0.229903
467.000000	0.230136
468.000000	0.230251
469.000000	0.230430
470.000000	0.230977
471.000000	0.231318
472.000000	0.231611
473.000000	0.231967
474.000000	0.232056
475.000000	0.232037
476.000000	0.232162
477.000000	0.232505
478.000000	0.232800
479.000000	0.233111
480.000000	0.233316
481.000000	0.233478
482.000000	0.233814
483.000000	0.234261
484.000000	0.234700
485.000000	0.234898
486.000000	0.235034
487.000000	0.235539
488.000000	0.235913
489.000000	0.236094
490.000000	0.236276
491.000000	0.236420
492.000000	0.236588
493.000000	0.236733
494.000000	0.236924
495.000000	0.237097
496.000000	0.237229
497.000000	0.237656
498.000000	0.237975
499.000000	0.238154
500.000000	0.238428
501.000000	0.238653
502.000000	0.238885
503.000000	0.239173
504.000000	0.239422
505.000000	0.239670
506.000000	0.239951
507.000000	0.240094
508.000000	0.240405
509.000000	0.240884
510.000000	0.240952
511.000000	0.241255
512.000000	0.241799
513.000000	0.242043
514.000000	0.242287
515.000000	0.242615
516.000000	0.242986
517.000000	0.243376
518.000000	0.243754
519.000000	0.244047
520.000000	0.244410
521.000000	0.244814
522.000000	0.245232
523.000000	0.245637
524.000000	0.245996
525.000000	0.246379
526.000000	0.246960
527.000000	0.247501
528.000000	0.247999
529.000000	0.248551
530.000000	0.249137
531.000000	0.249831
532.000000	0.250557
533.000000	0.251203
534.000000	0.251737
535.000000	0.252243
536.000000	0.252987
537.000000	0.253779
538.000000	0.254489
539.000000	0.255008
540.000000	0.255619
541.000000	0.256205
542.000000	0.256694
543.000000	0.257299
544.000000	0.257968
545.000000	0.258589
546.000000	0.259172
547.000000	0.259758
548.000000	0.260382
549.000000	0.260986
550.000000	0.261578
551.000000	0.262212
552.000000	0.262891
553.000000	0.263548
554.000000	0.264244
555.000000	0.265022
556.000000	0.265810
557.000000	0.266623
558.000000	0.267534
559.000000	0.268316
560.000000	0.269135
561.000000	0.270022
562.000000	0.270804
563.000000	0.271628
564.000000	0.272444
565.000000	0.273114
566.000000	0.273947
567.000000	0.274743
568.000000	0.275359
569.000000	0.275885
570.000000	0.276530
571.000000	0.277223
572.000000	0.277642
573.000000	0.278137
574.000000	0.278655
575.000000	0.279078
576.000000	0.279459
577.000000	0.279809
578.000000	0.280194
579.000000	0.280580
580.000000	0.280923
581.000000	0.281210
582.000000	0.281493
583.000000	0.281726
584.000000	0.281918
585.000000	0.282110
586.000000	0.282262
587.000000	0.282375
588.000000	0.282474
589.000000	0.282670
590.000000	0.282859
591.000000	0.282957
592.000000	0.282948
593.000000	0.283017
594.000000	0.283149
595.000000	0.283123
596.000000	0.283085
597.000000	0.283098
598.000000	0.283095
599.000000	0.283039
600.000000	0.282959
601.000000	0.282828
602.000000	0.282774
603.000000	0.282711
604.000000	0.282616
605.000000	0.282573
606.000000	0.282471
607.000000	0.282339
608.000000	0.282291
609.000000	0.282256
610.000000	0.282168
611.000000	0.281997
612.000000	0.281953
613.000000	0.281942
614.000000	0.281907
615.000000	0.281796
616.000000	0.281702
617.000000	0.281640
618.000000	0.281655
619.000000	0.281652
620.000000	0.281614
621.000000	0.281601
622.000000	0.281521
623.000000	0.281459
624.000000	0.281483
625.000000	0.281495
626.000000	0.281504
627.000000	0.281504
628.000000	0.281441
629.000000	0.281455
630.000000	0.281453
631.000000	0.281484
632.000000	0.281498
633.000000	0.281504
634.000000	0.281511
635.000000	0.281580
636.000000	0.281646
637.000000	0.281658
638.000000	0.281667
639.000000	0.281640
640.000000	0.281652
641.000000	0.281718
642.000000	0.281769
643.000000	0.281871
644.000000	0.282109
645.000000	0.282234
646.000000	0.282368
647.000000	0.282579
648.000000	0.282731
649.000000	0.282910
650.000000	0.283126
651.000000	0.283354
652.000000	0.283524
653.000000	0.283688
654.000000	0.283881
655.000000	0.284164
656.000000	0.284493
657.000000	0.284762
658.000000	0.284989
659.000000	0.285197
660.000000	0.285409
661.000000	0.285711
662.000000	0.285976
663.000000	0.286263
664.000000	0.286645
665.000000	0.287025
666.000000	0.287390
667.000000	0.287719
668.000000	0.288035
669.000000	0.288362
670.000000	0.288715
671.000000	0.289087
672.000000	0.289496
673.000000	0.289896
674.000000	0.290209
675.000000	0.290602
676.000000	0.291064
677.000000	0.291551
678.000000	0.292048
679.000000	0.292539
680.000000	0.293040
681.000000	0.293616
682.000000	0.294170
683.000000	0.294639
684.000000	0.295212
685.000000	0.295772
686.000000	0.296322
687.000000	0.296854
688.000000	0.297418
689.000000	0.297990
690.000000	0.298588
691.000000	0.299238
692.000000	0.299887
693.000000	0.300563
694.000000	0.301208
695.000000	0.301867
696.000000	0.302510
697.000000	0.303092
698.000000	0.303691
699.000000	0.304344
700.000000	0.305065
701.000000	0.305773
702.000000	0.306502
703.000000	0.307235
704.000000	0.307950
705.000000	0.308647
706.000000	0.309321
707.000000	0.310059
708.000000	0.310816
709.000000	0.311557
710.000000	0.312281
711.000000	0.312990
712.000000	0.313729
713.000000	0.314514
714.000000	0.315263
715.000000	0.315966
716.000000	0.316671
717.000000	0.317419
718.000000	0.318131
719.000000	0.318794
720.000000	0.319451
721.000000	0.320199
722.000000	0.320954
723.000000	0.321720
724.000000	0.322434
725.000000	0.323114
726.000000	0.323830
727.000000	0.324504
728.000000	0.325301
729.000000	0.326059
730.000000	0.326609
731.000000	0.327212
732.000000	0.327839
733.000000	0.328508
734.000000	0.329187
735.000000	0.329773
736.000000	0.330394
737.000000	0.330986
738.000000	0.331457
739.000000	0.331967
740.000000	0.332462
741.000000	0.333016
742.000000	0.333574
743.000000	0.334078
744.000000	0.334548
745.000000	0.334973
746.000000	0.335407
747.000000	0.335821
748.000000	0.336296
749.000000	0.336770
750.000000	0.337184
751.000000	0.337682
752.000000	0.338163
753.000000	0.338596
754.000000	0.338978
755.000000	0.339395
756.000000	0.339818
757.000000	0.340142
758.000000	0.340443
759.000000	0.340783
760.000000	0.341117
761.000000	0.341485
762.000000	0.341805
763.000000	0.342085
764.000000	0.342475
765.000000	0.342807
766.000000	0.343094
767.000000	0.343372
768.000000	0.343643
769.000000	0.343828
770.000000	0.343947
771.000000	0.344158
772.000000	0.344378
773.000000	0.344561
774.000000	0.344817
775.000000	0.345031
776.000000	0.345170
777.000000	0.345243
778.000000	0.345418
779.000000	0.345610
780.000000	0.345780
781.000000	0.345899
782.000000	0.345965
783.000000	0.346103
784.000000	0.346237
785.000000	0.346348
786.000000	0.346464
787.000000	0.346591
788.000000	0.346705
789.000000	0.346866
790.000000	0.347009
791.000000	0.347068
792.000000	0.347154
793.000000	0.347217
794.000000	0.347231
795.000000	0.347333
796.000000	0.347406
797.000000	0.347420
798.000000	0.347447
799.000000	0.347509
800.000000	0.347552
801.000000	0.347522
802.000000	0.347519
803.000000	0.347550
804.000000	0.347634
805.000000	0.347691
806.000000	0.347689
807.000000	0.347740
808.000000	0.347838
809.000000	0.347811
810.000000	0.347763
811.000000	0.347766
812.000000	0.347700
813.000000	0.347663
814.000000	0.347656
815.000000	0.347626
816.000000	0.347756
817.000000	0.347941
818.000000	0.347950
819.000000	0.347959
820.000000	0.347969
821.000000	0.347934
822.000000	0.347929
823.000000	0.347870
824.000000	0.347770
825.000000	0.347794
826.000000	0.347719
827.000000	0.347639
828.000000	0.347681
829.000000	0.347837
830.000000	0.347881
831.000000	0.347817
832.000000	0.347600
833.000000	0.347477
834.000000	0.347451
835.000000	0.347477
836.000000	0.347339
837.000000	0.347194
838.000000	0.347109
839.000000	0.347037
840.000000	0.346987
841.000000	0.346944
842.000000	0.346847
843.000000	0.346694
844.000000	0.346707
845.000000	0.346824
846.000000	0.346764
847.000000	0.346677
848.000000	0.346562
849.000000	0.346427
850.000000	0.346274
851.000000	0.346153
852.000000	0.346105
853.000000	0.346024
854.000000	0.345961
855.000000	0.345885
856.000000	0.345593
857.000000	0.345450
858.000000	0.345455
859.000000	0.345435
860.000000	0.345245
861.000000	0.345164
862.000000	0.345144
863.000000	0.344964
864.000000	0.344883
865.000000	0.344782
866.000000	0.344624
867.000000	0.344479
868.000000	0.344379
869.000000	0.344218
870.000000	0.343984
871.000000	0.343776
872.000000	0.343634
873.000000	0.343511
874.000000	0.343475
875.000000	0.343328
876.000000	0.343096
877.000000	0.342845
878.000000	0.342796
879.000000	0.342696
880.000000	0.342336
881.000000	0.342262
882.000000	0.342165
883.000000	0.341999
884.000000	0.341755
885.000000	0.341523
886.000000	0.341326
887.000000	0.341160
888.000000	0.340883
889.000000	0.340719
890.000000	0.340524
891.000000	0.340305
892.000000	0.340188
893.000000	0.340096
894.000000	0.340041
895.000000	0.339755
896.000000	0.339488
897.000000	0.339258
898.000000	0.339010
899.000000	0.338763
900.000000	0.338517
901.000000	0.338265
902.000000	0.338148
903.000000	0.337907
904.000000	0.337641
905.000000	0.337407
906.000000	0.337239
907.000000	0.337032
908.000000	0.336839
909.000000	0.336693
910.000000	0.336537
911.000000	0.336344
912.000000	0.336104
913.000000	0.335729
914.000000	0.335472
915.000000	0.335360
916.000000	0.335058
917.000000	0.334658
918.000000	0.334368
919.000000	0.334257
920.000000	0.334072
921.000000	0.333897
922.000000	0.333734
923.000000	0.333532
924.000000	0.333483
925.000000	0.333268
926.000000	0.332831
927.000000	0.332528
928.000000	0.332230
929.000000	0.331890
930.000000	0.331522
931.000000	0.331336
932.000000	0.331212
933.000000	0.331088
934.000000	0.330869
935.000000	0.330521
936.000000	0.330257
937.000000	0.330078
938.000000	0.329656
939.000000	0.329375
940.000000	0.329197
941.000000	0.329011
942.000000	0.328886
943.000000	0.328663
944.000000	0.328246
945.000000	0.328191
946.000000	0.327987
947.000000	0.327746
948.000000	0.327630
949.000000	0.327438
950.000000	0.327128
951.000000	0.326800
952.000000	0.326785
953.000000	0.326471
954.000000	0.326022
955.000000	0.325617
956.000000	0.325392
957.000000	0.325199
958.000000	0.325029
959.000000	0.325000
960.000000	0.324662
961.000000	0.324398
962.000000	0.324285
963.000000	0.324041
964.000000	0.323770
965.000000	0.323565
966.000000	0.323316
967.000000	0.322857
968.000000	0.322590
969.000000	0.322550
970.000000	0.322644
971.000000	0.322316
972.000000	0.322012
973.000000	0.321827
974.000000	0.321542
975.000000	0.321359
976.000000	0.321222
977.000000	0.321011
978.000000	0.320589
979.000000	0.320290
980.000000	0.319959
981.000000	0.319765
982.000000	0.319738
983.000000	0.319666
984.000000	0.319494
985.000000	0.319206
986.000000	0.319139
987.000000	0.319309
988.000000	0.319348
989.000000	0.318619
990.000000	0.318238
991.000000	0.318161
992.000000	0.318050
993.000000	0.318139
994.000000	0.317897
995.000000	0.317654
996.000000	0.317840
997.000000	0.317629
998.000000	0.317500
999.000000	0.317678
1000.000000	0.317508
1001.000000	0.317612
1002.000000	0.317758
1003.000000	0.317315
1004.000000	0.316546
1005.000000	0.315506
1006.000000	0.315254
1007.000000	0.314655
1008.000000	0.314484
1009.000000	0.316187
1010.000000	0.316804
1011.000000	0.316769
1012.000000	0.316837
1013.000000	0.316404
1014.000000	0.316047
1015.000000	0.315314
1016.000000	0.315285
1017.000000	0.315437
1018.000000	0.315480
1019.000000	0.315669
1020.000000	0.316568
1021.000000	0.316259
1022.000000	0.315376
1023.000000	0.315338
1024.000000	0.314933
1025.000000	0.315208
1026.000000	0.315970
1027.000000	0.315805
1028.000000	0.315368
1029.000000	0.315089
1030.000000	0.315023
1031.000000	0.315412
1032.000000	0.315936
1033.000000	0.316285
1034.000000	0.316443
1035.000000	0.316161
1036.000000	0.316299
1037.000000	0.316939
1038.000000	0.316838
1039.000000	0.316485
1040.000000	0.316408
1041.000000	0.316465
1042.000000	0.315973
1043.000000	0.315779
1044.000000	0.316315
1045.000000	0.316845
1046.000000	0.316565
1047.000000	0.316582
1048.000000	0.316967
1049.000000	0.317049
1050.000000	0.316559
1051.000000	0.316714
1052.000000	0.317284
1053.000000	0.317496
1054.000000	0.317940
1055.000000	0.318378
1056.000000	0.318918
1057.000000	0.319056
1058.000000	0.319198
1059.000000	0.319397
1060.000000	0.319476
1061.000000	0.319380
1062.000000	0.319491
1063.000000	0.319686
1064.000000	0.319807
1065.000000	0.319899
1066.000000	0.320119
1067.000000	0.320375
1068.000000	0.320395
1069.000000	0.320063
1070.000000	0.320242
1071.000000	0.320765
1072.000000	0.321055
1073.000000	0.321652
1074.000000	0.322237
1075.000000	0.322317
1076.000000	0.322066
1077.000000	0.322055
1078.000000	0.322434
1079.000000	0.322687
1080.000000	0.323086
1081.000000	0.323396
1082.000000	0.323833
1083.000000	0.324057
1084.000000	0.324183
1085.000000	0.324403
1086.000000	0.324536
1087.000000	0.324714
1088.000000	0.324827
1089.000000	0.325025
1090.000000	0.325234
1091.000000	0.325408
1092.000000	0.325641
1093.000000	0.325871
1094.000000	0.325943
1095.000000	0.325650
1096.000000	0.325875
1097.000000	0.326302
1098.000000	0.326586
1099.000000	0.327058
1100.000000	0.327384
1101.000000	0.327395
1102.000000	0.327631
1103.000000	0.327975
1104.000000	0.328299
1105.000000	0.328628
1106.000000	0.328990
1107.000000	0.329472
1108.000000	0.329706
1109.000000	0.329810
1110.000000	0.330009
1111.000000	0.330184
1112.000000	0.330237
1113.000000	0.330395
1114.000000	0.330720
1115.000000	0.330861
1116.000000	0.330979
1117.000000	0.330940
1118.000000	0.330549
1119.000000	0.330565
1120.000000	0.330772
1121.000000	0.330808
1122.000000	0.331012
1123.000000	0.331471
1124.000000	0.331670
1125.000000	0.331912
1126.000000	0.332469
1127.000000	0.332720
1128.000000	0.332796
1129.000000	0.332577
1130.000000	0.332657
1131.000000	0.332678
1132.000000	0.332849
1133.000000	0.333373
1134.000000	0.333547
1135.000000	0.333609
1136.000000	0.333585
1137.000000	0.333238
1138.000000	0.333134
1139.000000	0.333084
1140.000000	0.333287
1141.000000	0.333860
1142.000000	0.334088
1143.000000	0.334204
1144.000000	0.334407
1145.000000	0.334333
1146.000000	0.333982
1147.000000	0.334011
1148.000000	0.334147
1149.000000	0.334181
1150.000000	0.334339
1151.000000	0.334394
1152.000000	0.334218
1153.000000	0.334276
1154.000000	0.334463
1155.000000	0.334472
1156.000000	0.334535
1157.000000	0.334490
1158.000000	0.334090
1159.000000	0.333988
1160.000000	0.334100
1161.000000	0.334050
1162.000000	0.334036
1163.000000	0.334201
1164.000000	0.334306
1165.000000	0.334243
1166.000000	0.334241
1167.000000	0.334272
1168.000000	0.334248
1169.000000	0.334135
1170.000000	0.334124
1171.000000	0.334291
1172.000000	0.334314
1173.000000	0.334179
1174.000000	0.334171
1175.000000	0.334127
1176.000000	0.334090
1177.000000	0.334175
1178.000000	0.334276
1179.000000	0.334453
1180.000000	0.334465
1181.000000	0.334483
1182.000000	0.334549
1183.000000	0.334698
1184.000000	0.334746
1185.000000	0.334755
1186.000000	0.334835
1187.000000	0.334798
1188.000000	0.334565
1189.000000	0.334483
1190.000000	0.334510
1191.000000	0.334495
1192.000000	0.334594
1193.000000	0.334746
1194.000000	0.334824
1195.000000	0.334901
1196.000000	0.334941
1197.000000	0.334934
1198.000000	0.334830
1199.000000	0.334865
1200.000000	0.334968
1201.000000	0.335034
1202.000000	0.335152
1203.000000	0.335315
1204.000000	0.335282
1205.000000	0.335281
1206.000000	0.335202
1207.000000	0.335160
1208.000000	0.335030
1209.000000	0.334867
1210.000000	0.334784
1211.000000	0.334673
1212.000000	0.334623
1213.000000	0.334683
1214.000000	0.334721
1215.000000	0.334776
1216.000000	0.334841
1217.000000	0.334922
1218.000000	0.334935
1219.000000	0.334982
1220.000000	0.334945
1221.000000	0.334878
1222.000000	0.334900
1223.000000	0.334989
1224.000000	0.334995
1225.000000	0.334934
1226.000000	0.335055
1227.000000	0.335058
1228.000000	0.334996
1229.000000	0.335019
1230.000000	0.335104
1231.000000	0.335006
1232.000000	0.334940
1233.000000	0.335062
1234.000000	0.335190
1235.000000	0.335179
1236.000000	0.335135
1237.000000	0.335225
1238.000000	0.335160
1239.000000	0.335139
1240.000000	0.335295
1241.000000	0.335358
1242.000000	0.335295
1243.000000	0.335318
1244.000000	0.335381
1245.000000	0.335509
1246.000000	0.335506
1247.000000	0.335606
1248.000000	0.335778
1249.000000	0.335803
1250.000000	0.335866
1251.000000	0.335897
1252.000000	0.335901
1253.000000	0.335904
1254.000000	0.335879
1255.000000	0.335763
1256.000000	0.335755
1257.000000	0.335855
1258.000000	0.335915
1259.000000	0.335982
1260.000000	0.336026
1261.000000	0.335884
1262.000000	0.335808
1263.000000	0.335754
1264.000000	0.335739
1265.000000	0.335781
1266.000000	0.335789
1267.000000	0.335958
1268.000000	0.336053
1269.000000	0.335904
1270.000000	0.335936
1271.000000	0.335895
1272.000000	0.335880
1273.000000	0.336122
1274.000000	0.336341
1275.000000	0.336444
1276.000000	0.336531
1277.000000	0.336619
1278.000000	0.336533
1279.000000	0.336471
1280.000000	0.336320
1281.000000	0.336204
1282.000000	0.336058
1283.000000	0.336091
1284.000000	0.336242
1285.000000	0.336308
1286.000000	0.336367
1287.000000	0.336436
1288.000000	0.336497
1289.000000	0.336374
1290.000000	0.336251
1291.000000	0.336300
1292.000000	0.336434
1293.000000	0.336557
1294.000000	0.336651
1295.000000	0.336823
1296.000000	0.336850
1297.000000	0.336775
1298.000000	0.336883
1299.000000	0.336891
1300.000000	0.336872
1301.000000	0.336877
1302.000000	0.336761
1303.000000	0.336593
1304.000000	0.336481
1305.000000	0.336445
1306.000000	0.336454
1307.000000	0.336635
1308.000000	0.336718
1309.000000	0.336780
1310.000000	0.336792
1311.000000	0.336793
1312.000000	0.336643
1313.000000	0.336610
1314.000000	0.336624
1315.000000	0.336364
1316.000000	0.336215
1317.000000	0.336168
1318.000000	0.336003
1319.000000	0.335861
1320.000000	0.335873
1321.000000	0.335785
1322.000000	0.335625
1323.000000	0.335651
1324.000000	0.335652
1325.000000	0.335568
1326.000000	0.335552
1327.000000	0.335364
1328.000000	0.335277
1329.000000	0.335159
1330.000000	0.335000
1331.000000	0.334844
1332.000000	0.334797
1333.000000	0.334686
1334.000000	0.334550
1335.000000	0.334526
1336.000000	0.334613
1337.000000	0.334573
1338.000000	0.334456
1339.000000	0.334317
1340.000000	0.334166
1341.000000	0.333963
1342.000000	0.333908
1343.000000	0.333873
1344.000000	0.333690
1345.000000	0.333407
1346.000000	0.333216
1347.000000	0.332862
1348.000000	0.332613
1349.000000	0.332568
1350.000000	0.332397
1351.000000	0.332232
1352.000000	0.332180
1353.000000	0.332004
1354.000000	0.331808
1355.000000	0.331700
1356.000000	0.331547
1357.000000	0.331257
1358.000000	0.331141
1359.000000	0.330955
1360.000000	0.330732
1361.000000	0.330518
1362.000000	0.330339
1363.000000	0.330096
1364.000000	0.329965
1365.000000	0.329926
1366.000000	0.329826
1367.000000	0.329705
1368.000000	0.329572
1369.000000	0.329601
1370.000000	0.329451
1371.000000	0.329236
1372.000000	0.328957
1373.000000	0.328603
1374.000000	0.328269
1375.000000	0.327956
1376.000000	0.327816
1377.000000	0.327619
1378.000000	0.327365
1379.000000	0.327109
1380.000000	0.326793
1381.000000	0.326490
1382.000000	0.326098
1383.000000	0.325690
1384.000000	0.325304
1385.000000	0.324817
1386.000000	0.324390
1387.000000	0.324068
1388.000000	0.323490
1389.000000	0.322755
1390.000000	0.322087
1391.000000	0.321310
1392.000000	0.320635
1393.000000	0.319935
1394.000000	0.319342
1395.000000	0.318628
1396.000000	0.317835
1397.000000	0.317026
1398.000000	0.316164
1399.000000	0.315272
1400.000000	0.314369
1401.000000	0.313368
1402.000000	0.312326
1403.000000	0.311257
1404.000000	0.310255
1405.000000	0.309219
1406.000000	0.308238
1407.000000	0.307322
1408.000000	0.306301
1409.000000	0.305337
1410.000000	0.304404
1411.000000	0.303298
1412.000000	0.302156
1413.000000	0.301137
1414.000000	0.300236
1415.000000	0.299394
1416.000000	0.298542
1417.000000	0.297653
1418.000000	0.296592
1419.000000	0.295551
1420.000000	0.294440
1421.000000	0.293423
1422.000000	0.292532
1423.000000	0.291652
1424.000000	0.290752
1425.000000	0.289989
1426.000000	0.289189
1427.000000	0.288291
1428.000000	0.287496
1429.000000	0.286766
1430.000000	0.286072
1431.000000	0.285412
1432.000000	0.284677
1433.000000	0.283947
1434.000000	0.283228
1435.000000	0.282462
1436.000000	0.281830
1437.000000	0.281331
1438.000000	0.280742
1439.000000	0.280237
1440.000000	0.279703
1441.000000	0.279099
1442.000000	0.278604
1443.000000	0.278081
1444.000000	0.277595
1445.000000	0.277260
1446.000000	0.276903
1447.000000	0.276533
1448.000000	0.276203
1449.000000	0.275800
1450.000000	0.275544
1451.000000	0.275478
1452.000000	0.275337
1453.000000	0.275186
1454.000000	0.274979
1455.000000	0.274744
1456.000000	0.274664
1457.000000	0.274632
1458.000000	0.274603
1459.000000	0.274476
1460.000000	0.274192
1461.000000	0.273991
1462.000000	0.273843
1463.000000	0.273632
1464.000000	0.273528
1465.000000	0.273505
1466.000000	0.273424
1467.000000	0.273388
1468.000000	0.273451
1469.000000	0.273456
1470.000000	0.273359
1471.000000	0.273428
1472.000000	0.273440
1473.000000	0.273452
1474.000000	0.273600
1475.000000	0.273804
1476.000000	0.273926
1477.000000	0.274107
1478.000000	0.274305
1479.000000	0.274463
1480.000000	0.274795
1481.000000	0.275114
1482.000000	0.275584
1483.000000	0.275991
1484.000000	0.276356
1485.000000	0.276763
1486.000000	0.277149
1487.000000	0.277584
1488.000000	0.278167
1489.000000	0.278579
1490.000000	0.278805
1491.000000	0.279170
1492.000000	0.279414
1493.000000	0.279762
1494.000000	0.280261
1495.000000	0.280590
1496.000000	0.280816
1497.000000	0.281098
1498.000000	0.281369
1499.000000	0.281596
1500.000000	0.281959
1501.000000	0.282330
1502.000000	0.282530
1503.000000	0.282759
1504.000000	0.282981
1505.000000	0.283235
1506.000000	0.283691
1507.000000	0.284052
1508.000000	0.284311
1509.000000	0.284509
1510.000000	0.284595
1511.000000	0.284789
1512.000000	0.285010
1513.000000	0.285221
1514.000000	0.285430
1515.000000	0.285505
1516.000000	0.285704
1517.000000	0.285915
1518.000000	0.285938
1519.000000	0.286038
1520.000000	0.286156
1521.000000	0.286085
1522.000000	0.286321
1523.000000	0.286666
1524.000000	0.286767
1525.000000	0.287018
1526.000000	0.287212
1527.000000	0.287199
1528.000000	0.287395
1529.000000	0.287650
1530.000000	0.287676
1531.000000	0.287860
1532.000000	0.288056
1533.000000	0.288063
1534.000000	0.288168
1535.000000	0.288262
1536.000000	0.288177
1537.000000	0.288198
1538.000000	0.288237
1539.000000	0.288160
1540.000000	0.288294
1541.000000	0.288540
1542.000000	0.288551
1543.000000	0.288584
1544.000000	0.288630
1545.000000	0.288501
1546.000000	0.288474
1547.000000	0.288605
1548.000000	0.288694
1549.000000	0.288751
1550.000000	0.288820
1551.000000	0.288872
1552.000000	0.288846
1553.000000	0.288784
1554.000000	0.288789
1555.000000	0.288841
1556.000000	0.288929
1557.000000	0.289026
1558.000000	0.289127
1559.000000	0.289153
1560.000000	0.289193
1561.000000	0.289339
1562.000000	0.289345
1563.000000	0.289317
1564.000000	0.289323
1565.000000	0.289248
1566.000000	0.289121
1567.000000	0.289119
1568.000000	0.289032
1569.000000	0.288850
1570.000000	0.288815
1571.000000	0.288828
1572.000000	0.288859
1573.000000	0.289038
1574.000000	0.289072
1575.000000	0.289036
1576.000000	0.289026
1577.000000	0.288940
1578.000000	0.288912
1579.000000	0.288987
1580.000000	0.289026
1581.000000	0.289148
1582.000000	0.289179
1583.000000	0.289174
1584.000000	0.289127
1585.000000	0.289064
1586.000000	0.289033
1587.000000	0.289000
1588.000000	0.289002
1589.000000	0.289027
1590.000000	0.289050
1591.000000	0.289164
1592.000000	0.289190
1593.000000	0.289160
1594.000000	0.289181
1595.000000	0.289232
1596.000000	0.289261
1597.000000	0.289363
1598.000000	0.289414
1599.000000	0.289424
1600.000000	0.289431
1601.000000	0.289486
1602.000000	0.289590
1603.000000	0.289782
1604.000000	0.289884
1605.000000	0.290026
1606.000000	0.290075
1607.000000	0.290059
1608.000000	0.290057
1609.000000	0.290065
1610.000000	0.290065
1611.000000	0.290115
1612.000000	0.290075
1613.000000	0.290068
1614.000000	0.290083
1615.000000	0.290080
1616.000000	0.290178
1617.000000	0.290321
1618.000000	0.290405
1619.000000	0.290469
1620.000000	0.290557
1621.000000	0.290669
1622.000000	0.290834
1623.000000	0.291016
1624.000000	0.291143
1625.000000	0.291086
1626.000000	0.291189
1627.000000	0.291392
1628.000000	0.291592
1629.000000	0.291891
1630.000000	0.292129
1631.000000	0.292231
1632.000000	0.292380
1633.000000	0.292583
1634.000000	0.292742
1635.000000	0.292859
1636.000000	0.293070
1637.000000	0.293390
1638.000000	0.293549
1639.000000	0.293778
1640.000000	0.293907
1641.000000	0.293902
1642.000000	0.294028
1643.000000	0.294218
1644.000000	0.294414
1645.000000	0.294691
1646.000000	0.294783
1647.000000	0.294835
1648.000000	0.294919
1649.000000	0.294950
1650.000000	0.295127
1651.000000	0.295462
1652.000000	0.295749
1653.000000	0.296015
1654.000000	0.296339
1655.000000	0.296649
1656.000000	0.296880
1657.000000	0.297204
1658.000000	0.297383
1659.000000	0.297584
1660.000000	0.297767
1661.000000	0.297769
1662.000000	0.297930
1663.000000	0.298110
1664.000000	0.298265
1665.000000	0.298486
1666.000000	0.298684
1667.000000	0.298751
1668.000000	0.298884
1669.000000	0.299045
1670.000000	0.299110
1671.000000	0.299202
1672.000000	0.299422
1673.000000	0.299631
1674.000000	0.299897
1675.000000	0.300194
1676.000000	0.300374
1677.000000	0.300442
1678.000000	0.300484
1679.000000	0.300729
1680.000000	0.300820
1681.000000	0.300816
1682.000000	0.300873
1683.000000	0.300834
1684.000000	0.300924
1685.000000	0.301181
1686.000000	0.301367
1687.000000	0.301547
1688.000000	0.301705
1689.000000	0.301823
1690.000000	0.301816
1691.000000	0.301876
1692.000000	0.301928
1693.000000	0.301944
1694.000000	0.302112
1695.000000	0.302291
1696.000000	0.302299
1697.000000	0.302327
1698.000000	0.302367
1699.000000	0.302433
1700.000000	0.302613
1701.000000	0.302728
1702.000000	0.302574
1703.000000	0.302492
1704.000000	0.302345
1705.000000	0.302395
1706.000000	0.302801
1707.000000	0.302934
1708.000000	0.302985
1709.000000	0.303021
1710.000000	0.302876
1711.000000	0.302956
1712.000000	0.303303
1713.000000	0.303489
1714.000000	0.303708
1715.000000	0.303903
1716.000000	0.304054
1717.000000	0.304208
1718.000000	0.304387
1719.000000	0.304440
1720.000000	0.304424
1721.000000	0.304450
1722.000000	0.304370
1723.000000	0.304456
1724.000000	0.304713
1725.000000	0.304878
1726.000000	0.305038
1727.000000	0.305097
1728.000000	0.304920
1729.000000	0.304935
1730.000000	0.305140
1731.000000	0.305256
1732.000000	0.305507
1733.000000	0.305635
1734.000000	0.305448
1735.000000	0.305526
1736.000000	0.305653
1737.000000	0.305784
1738.000000	0.306090
1739.000000	0.306156
1740.000000	0.306032
1741.000000	0.306136
1742.000000	0.306244
1743.000000	0.306439
1744.000000	0.306841
1745.000000	0.306908
1746.000000	0.306786
1747.000000	0.306785
1748.000000	0.306803
1749.000000	0.307025
1750.000000	0.307108
1751.000000	0.307220
1752.000000	0.307400
1753.000000	0.307405
1754.000000	0.307458
1755.000000	0.307483
1756.000000	0.307541
1757.000000	0.307644
1758.000000	0.307738
1759.000000	0.307877
1760.000000	0.307940
1761.000000	0.307810
1762.000000	0.307868
1763.000000	0.308094
1764.000000	0.308167
1765.000000	0.308205
1766.000000	0.308317
1767.000000	0.308216
1768.000000	0.308257
1769.000000	0.308633
1770.000000	0.308823
1771.000000	0.308875
1772.000000	0.308989
1773.000000	0.308998
1774.000000	0.309125
1775.000000	0.309400
1776.000000	0.309601
1777.000000	0.309839
1778.000000	0.309891
1779.000000	0.309770
1780.000000	0.309864
1781.000000	0.309918
1782.000000	0.309964
1783.000000	0.310211
1784.000000	0.310169
1785.000000	0.310061
1786.000000	0.310189
1787.000000	0.310376
1788.000000	0.310604
1789.000000	0.310958
1790.000000	0.311036
1791.000000	0.311059
1792.000000	0.310972
1793.000000	0.310977
1794.000000	0.311020
1795.000000	0.311190
1796.000000	0.311561
1797.000000	0.311705
1798.000000	0.311794
1799.000000	0.311843
1800.000000	0.311646
1801.000000	0.312440
1802.000000	0.312264
1803.000000	0.310579
1804.000000	0.310693
1805.000000	0.311904
1806.000000	0.312418
1807.000000	0.313917
1808.000000	0.314181
1809.000000	0.313868
1810.000000	0.312292
1811.000000	0.312092
1812.000000	0.311846
1813.000000	0.311858
1814.000000	0.313009
1815.000000	0.313298
1816.000000	0.312799
1817.000000	0.312601
1818.000000	0.312695
1819.000000	0.312476
1820.000000	0.311823
1821.000000	0.311883
1822.000000	0.311933
1823.000000	0.311447
1824.000000	0.312000
1825.000000	0.314156
1826.000000	0.314721
1827.000000	0.314974
1828.000000	0.314936
1829.000000	0.314187
1830.000000	0.312917
1831.000000	0.312742
1832.000000	0.313526
1833.000000	0.313492
1834.000000	0.313482
1835.000000	0.313513
1836.000000	0.313154
1837.000000	0.312851
1838.000000	0.312751
1839.000000	0.312421
1840.000000	0.311608
1841.000000	0.310463
1842.000000	0.309876
1843.000000	0.309121
1844.000000	0.309071
1845.000000	0.309802
1846.000000	0.310211
1847.000000	0.310925
1848.000000	0.311149
1849.000000	0.310855
1850.000000	0.310059
1851.000000	0.309415
1852.000000	0.308046
1853.000000	0.307453
1854.000000	0.307413
1855.000000	0.306660
1856.000000	0.305584
1857.000000	0.304895
1858.000000	0.303360
1859.000000	0.302179
1860.000000	0.302097
1861.000000	0.301309
1862.000000	0.300638
1863.000000	0.300363
1864.000000	0.299634
1865.000000	0.298834
1866.000000	0.297829
1867.000000	0.296433
1868.000000	0.295182
1869.000000	0.293999
1870.000000	0.291838
1871.000000	0.290815
1872.000000	0.289886
1873.000000	0.288388
1874.000000	0.286760
1875.000000	0.285234
1876.000000	0.283433
1877.000000	0.280661
1878.000000	0.278587
1879.000000	0.276085
1880.000000	0.272950
1881.000000	0.270323
1882.000000	0.267819
1883.000000	0.265009
1884.000000	0.262311
1885.000000	0.259601
1886.000000	0.256784
1887.000000	0.253753
1888.000000	0.250703
1889.000000	0.247866
1890.000000	0.245511
1891.000000	0.242775
1892.000000	0.239271
1893.000000	0.235511
1894.000000	0.231543
1895.000000	0.227370
1896.000000	0.222801
1897.000000	0.218935
1898.000000	0.214745
1899.000000	0.210731
1900.000000	0.207899
1901.000000	0.204819
1902.000000	0.202497
1903.000000	0.200387
1904.000000	0.197755
1905.000000	0.195549
1906.000000	0.192984
1907.000000	0.190185
1908.000000	0.187739
1909.000000	0.185595
1910.000000	0.182757
1911.000000	0.180802
1912.000000	0.179165
1913.000000	0.176819
1914.000000	0.174961
1915.000000	0.173187
1916.000000	0.171122
1917.000000	0.169383
1918.000000	0.167894
1919.000000	0.166714
1920.000000	0.165736
1921.000000	0.164875
1922.000000	0.163906
1923.000000	0.163423
1924.000000	0.162956
1925.000000	0.162472
1926.000000	0.162017
1927.000000	0.161064
1928.000000	0.160430
1929.000000	0.159769
1930.000000	0.159303
1931.000000	0.158939
1932.000000	0.159398
1933.000000	0.160140
1934.000000	0.160606
1935.000000	0.161581
1936.000000	0.162094
1937.000000	0.161938
1938.000000	0.161800
1939.000000	0.161555
1940.000000	0.160919
1941.000000	0.160728
1942.000000	0.160582
1943.000000	0.160167
1944.000000	0.160171
1945.000000	0.159821
1946.000000	0.159500
1947.000000	0.159577
1948.000000	0.159248
1949.000000	0.158964
1950.000000	0.158891
1951.000000	0.158616
1952.000000	0.158357
1953.000000	0.157786
1954.000000	0.157180
1955.000000	0.156529
1956.000000	0.155840
1957.000000	0.155550
1958.000000	0.155166
1959.000000	0.154939
1960.000000	0.154655
1961.000000	0.154356
1962.000000	0.154273
1963.000000	0.154608
1964.000000	0.154547
1965.000000	0.154266
1966.000000	0.154433
1967.000000	0.154173
1968.000000	0.154170
1969.000000	0.154595
1970.000000	0.154484
1971.000000	0.154685
1972.000000	0.154744
1973.000000	0.154521
1974.000000	0.153993
1975.000000	0.153870
1976.000000	0.153546
1977.000000	0.153583
1978.000000	0.154524
1979.000000	0.155607
1980.000000	0.156214
1981.000000	0.156945
1982.000000	0.156953
1983.000000	0.156853
1984.000000	0.157168
1985.000000	0.157885
1986.000000	0.158202
1987.000000	0.158673
1988.000000	0.158876
1989.000000	0.158882
1990.000000	0.159313
1991.000000	0.159557
1992.000000	0.159709
1993.000000	0.160192
1994.000000	0.160778
1995.000000	0.161454
1996.000000	0.162414
1997.000000	0.163140
1998.000000	0.163691
1999.000000	0.164381
2000.000000	0.164995
2001.000000	0.165769
2002.000000	0.166839
2003.000000	0.167464
2004.000000	0.168291
2005.000000	0.168980
2006.000000	0.169563
2007.000000	0.170249
2008.000000	0.170952
2009.000000	0.171470
2010.000000	0.172604
2011.000000	0.174176
2012.000000	0.175355
2013.000000	0.176879
2014.000000	0.177653
2015.000000	0.178265
2016.000000	0.178378
2017.000000	0.178191
2018.000000	0.178413
2019.000000	0.178681
2020.000000	0.179246
2021.000000	0.180179
2022.000000	0.181822
2023.000000	0.183049
2024.000000	0.184594
2025.000000	0.185749
2026.000000	0.186458
2027.000000	0.187338
2028.000000	0.188516
2029.000000	0.189372
2030.000000	0.190633
2031.000000	0.191512
2032.000000	0.191775
2033.000000	0.192168
2034.000000	0.192903
2035.000000	0.193902
2036.000000	0.194768
2037.000000	0.196368
2038.000000	0.197152
2039.000000	0.197247
2040.000000	0.197868
2041.000000	0.198588
2042.000000	0.198850
2043.000000	0.200185
2044.000000	0.200937
2045.000000	0.201025
2046.000000	0.201481
2047.000000	0.202142
2048.000000	0.202597
2049.000000	0.203571
2050.000000	0.205068
2051.000000	0.206128
2052.000000	0.207288
2053.000000	0.208023
2054.000000	0.208536
2055.000000	0.208940
2056.000000	0.209775
2057.000000	0.210382
2058.000000	0.211189
2059.000000	0.211946
2060.000000	0.212497
2061.000000	0.212682
2062.000000	0.213080
2063.000000	0.213452
2064.000000	0.214085
2065.000000	0.215137
2066.000000	0.215707
2067.000000	0.216488
2068.000000	0.217200
2069.000000	0.217488
2070.000000	0.217804
2071.000000	0.218057
2072.000000	0.218625
2073.000000	0.219511
2074.000000	0.220063
2075.000000	0.220626
2076.000000	0.221311
2077.000000	0.221960
2078.000000	0.222453
2079.000000	0.222933
2080.000000	0.223506
2081.000000	0.224174
2082.000000	0.224647
2083.000000	0.225302
2084.000000	0.226672
2085.000000	0.227325
2086.000000	0.227801
2087.000000	0.228756
2088.000000	0.229674
2089.000000	0.230573
2090.000000	0.231425
2091.000000	0.232460
2092.000000	0.233318
2093.000000	0.234240
2094.000000	0.234807
2095.000000	0.235132
2096.000000	0.235525
2097.000000	0.235663
2098.000000	0.235442
2099.000000	0.235707
2100.000000	0.236713
2101.000000	0.237472
2102.000000	0.238159
2103.000000	0.239107
2104.000000	0.239933
2105.000000	0.240576
2106.000000	0.241265
2107.000000	0.241518
2108.000000	0.240833
2109.000000	0.241286
2110.000000	0.242300
2111.000000	0.242813
2112.000000	0.243559
2113.000000	0.244226
2114.000000	0.244009
2115.000000	0.244124
2116.000000	0.245334
2117.000000	0.246073
2118.000000	0.246434
2119.000000	0.246705
2120.000000	0.246914
2121.000000	0.246428
2122.000000	0.246599
2123.000000	0.247078
2124.000000	0.247697
2125.000000	0.248894
2126.000000	0.249654
2127.000000	0.250717
2128.000000	0.251145
2129.000000	0.250898
2130.000000	0.250428
2131.000000	0.250368
2132.000000	0.249931
2133.000000	0.250017
2134.000000	0.250177
2135.000000	0.249329
2136.000000	0.248471
2137.000000	0.248274
2138.000000	0.248062
2139.000000	0.248474
2140.000000	0.250114
2141.000000	0.250792
2142.000000	0.251449
2143.000000	0.251437
2144.000000	0.250327
2145.000000	0.250603
2146.000000	0.251582
2147.000000	0.252287
2148.000000	0.253537
2149.000000	0.254414
2150.000000	0.254243
2151.000000	0.254221
2152.000000	0.254522
2153.000000	0.254280
2154.000000	0.254228
2155.000000	0.254330
2156.000000	0.254043
2157.000000	0.253609
2158.000000	0.253386
2159.000000	0.252857
2160.000000	0.252763
2161.000000	0.252987
2162.000000	0.252969
2163.000000	0.253046
2164.000000	0.252885
2165.000000	0.252504
2166.000000	0.252137
2167.000000	0.251866
2168.000000	0.252259
2169.000000	0.252261
2170.000000	0.252526
2171.000000	0.252822
2172.000000	0.252811
2173.000000	0.253374
2174.000000	0.254929
2175.000000	0.255597
2176.000000	0.256390
2177.000000	0.256480
2178.000000	0.255259
2179.000000	0.254811
2180.000000	0.254472
2181.000000	0.254214
2182.000000	0.253398
2183.000000	0.253660
2184.000000	0.252931
2185.000000	0.252727
2186.000000	0.253656
2187.000000	0.253752
2188.000000	0.254426
2189.000000	0.255033
2190.000000	0.255173
2191.000000	0.256113
2192.000000	0.256584
2193.000000	0.257031
2194.000000	0.257569
2195.000000	0.258055
2196.000000	0.258160
2197.000000	0.258151
2198.000000	0.257966
2199.000000	0.257524
2200.000000	0.257176
2201.000000	0.257022
2202.000000	0.256697
2203.000000	0.255574
2204.000000	0.254364
2205.000000	0.255691
2206.000000	0.255384
2207.000000	0.254781
2208.000000	0.255714
2209.000000	0.257682
2210.000000	0.259025
2211.000000	0.259099
2212.000000	0.259117
2213.000000	0.258844
2214.000000	0.255510
2215.000000	0.254955
2216.000000	0.257186
2217.000000	0.257099
2218.000000	0.255783
2219.000000	0.255279
2220.000000	0.254286
2221.000000	0.254453
2222.000000	0.256202
2223.000000	0.256414
2224.000000	0.256521
2225.000000	0.256185
2226.000000	0.254345
2227.000000	0.252552
2228.000000	0.252588
2229.000000	0.251909
2230.000000	0.252339
2231.000000	0.255809
2232.000000	0.257472
2233.000000	0.259369
2234.000000	0.260111
2235.000000	0.258716
2236.000000	0.258867
2237.000000	0.258675
2238.000000	0.258752
2239.000000	0.260254
2240.000000	0.260327
2241.000000	0.260005
2242.000000	0.259171
2243.000000	0.257400
2244.000000	0.255996
2245.000000	0.252969
2246.000000	0.252072
2247.000000	0.252658
2248.000000	0.252412
2249.000000	0.252137
2250.000000	0.254082
2251.000000	0.255278
2252.000000	0.255521
2253.000000	0.255880
2254.000000	0.254056
2255.000000	0.251772
2256.000000	0.252154
2257.000000	0.252944
2258.000000	0.255651
2259.000000	0.258175
2260.000000	0.258572
2261.000000	0.257530
2262.000000	0.254499
2263.000000	0.252934
2264.000000	0.249583
2265.000000	0.248370
2266.000000	0.249825
2267.000000	0.249232
2268.000000	0.248553
2269.000000	0.247495
2270.000000	0.244738
2271.000000	0.243326
2272.000000	0.241861
2273.000000	0.241669
2274.000000	0.242861
2275.000000	0.244177
2276.000000	0.247452
2277.000000	0.247987
2278.000000	0.247577
2279.000000	0.246766
2280.000000	0.244006
2281.000000	0.241968
2282.000000	0.241195
2283.000000	0.240122
2284.000000	0.239699
2285.000000	0.241898
2286.000000	0.243406
2287.000000	0.244445
2288.000000	0.244962
2289.000000	0.241699
2290.000000	0.238494
2291.000000	0.237002
2292.000000	0.235912
2293.000000	0.236872
2294.000000	0.237506
2295.000000	0.239275
2296.000000	0.239571
2297.000000	0.239110
2298.000000	0.238941
2299.000000	0.238198
2300.000000	0.237831
2301.000000	0.238300
2302.000000	0.237632
2303.000000	0.236604
2304.000000	0.235280
2305.000000	0.233629
2306.000000	0.231338
2307.000000	0.228424
2308.000000	0.224694
2309.000000	0.222379
2310.000000	0.221901
2311.000000	0.222615
2312.000000	0.225425
2313.000000	0.228087
2314.000000	0.228974
2315.000000	0.229228
2316.000000	0.228136
2317.000000	0.226909
2318.000000	0.225036
2319.000000	0.225682
2320.000000	0.227138
2321.000000	0.226933
2322.000000	0.227402
2323.000000	0.226152
2324.000000	0.224592
2325.000000	0.223606
2326.000000	0.221384
2327.000000	0.218916
2328.000000	0.218132
2329.000000	0.216630
2330.000000	0.214959
2331.000000	0.213847
2332.000000	0.211693
2333.000000	0.210660
2334.000000	0.209747
2335.000000	0.210112
2336.000000	0.212492
2337.000000	0.212222
2338.000000	0.211819
2339.000000	0.211132
2340.000000	0.208799
2341.000000	0.206510
2342.000000	0.203218
2343.000000	0.201335
2344.000000	0.199628
2345.000000	0.198077
2346.000000	0.198837
2347.000000	0.197753
2348.000000	0.194912
2349.000000	0.193192
2350.000000	0.192889
2351.000000	0.190987
2352.000000	0.192703
2353.000000	0.194799
2354.000000	0.195396
2355.000000	0.196823
2356.000000	0.194950
2357.000000	0.190575
2358.000000	0.186939
2359.000000	0.186426
2360.000000	0.186010
2361.000000	0.186587
2362.000000	0.188456
2363.000000	0.185824
2364.000000	0.184031
2365.000000	0.185273
2366.000000	0.183837
2367.000000	0.182986
2368.000000	0.184658
2369.000000	0.183178
2370.000000	0.179794
2371.000000	0.179349
2372.000000	0.175099
2373.000000	0.170768
2374.000000	0.170938
2375.000000	0.169570
2376.000000	0.173635
2377.000000	0.180028
2378.000000	0.179770
2379.000000	0.177257
2380.000000	0.174674
2381.000000	0.171731
2382.000000	0.170827
2383.000000	0.172885
2384.000000	0.170103
2385.000000	0.163611
2386.000000	0.159246
2387.000000	0.154540
2388.000000	0.154808
2389.000000	0.158891
2390.000000	0.160449
2391.000000	0.158878
2392.000000	0.157306
2393.000000	0.155964
2394.000000	0.152449
2395.000000	0.151457
2396.000000	0.153016
2397.000000	0.153559
2398.000000	0.154749
2399.000000	0.159757
2400.000000	0.164369
2401.000000	0.168438
2402.000000	0.175682
2403.000000	0.174504
2404.000000	0.169601
2405.000000	0.167936
2406.000000	0.161213
2407.000000	0.156897
2408.000000	0.155080
2409.000000	0.149247
2410.000000	0.145513
2411.000000	0.152145
2412.000000	0.157204
2413.000000	0.160022
2414.000000	0.163139
2415.000000	0.156996
2416.000000	0.161290
2417.000000	0.162044
2418.000000	0.159094
2419.000000	0.165749
2420.000000	0.161896
2421.000000	0.158493
2422.000000	0.157224
2423.000000	0.156893
2424.000000	0.150593
2425.000000	0.140046
2426.000000	0.143960
2427.000000	0.145695
2428.000000	0.152174
2429.000000	0.165392
2430.000000	0.165257
2431.000000	0.162639
2432.000000	0.153036
2433.000000	0.136409
2434.000000	0.126761
2435.000000	0.115192
2436.000000	0.105269
2437.000000	0.114611
2438.000000	0.122943
2439.000000	0.116676
2440.000000	0.115786
2441.000000	0.109242
2442.000000	0.102906
2443.000000	0.121624
2444.000000	0.144903
2445.000000	0.160960
2446.000000	0.169292
2447.000000	0.158075
2448.000000	0.139132
2449.000000	0.122556
2450.000000	0.122633
2451.000000	0.134297
2452.000000	0.140083
2453.000000	0.154563
2454.000000	0.150796
2455.000000	0.127426
2456.000000	0.120156
2457.000000	0.127732
2458.000000	0.125713
2459.000000	0.120597
2460.000000	0.129694
2461.000000	0.120469
2462.000000	0.122894
2463.000000	0.135855
2464.000000	0.109854
2465.000000	0.092102
2466.000000	0.083103
2467.000000	0.080151
2468.000000	0.115804
2469.000000	0.141517
2470.000000	0.138421
2471.000000	0.136315
2472.000000	0.141888
2473.000000	0.146822
2474.000000	0.145245
2475.000000	0.153592
2476.000000	0.150049
2477.000000	0.140834
2478.000000	0.138582
2479.000000	0.125244
2480.000000	0.110421
2481.000000	0.088393
2482.000000	0.088244
2483.000000	0.079137
2484.000000	0.061939
2485.000000	0.075473
2486.000000	0.077307
2487.000000	0.108449
2488.000000	0.159260
2489.000000	0.216020
2490.000000	0.245033
2491.000000	0.209769
2492.000000	0.188508
2493.000000	0.109364
2494.000000	0.073479
2495.000000	0.087010
2496.000000	0.076620
2497.000000	0.071493
2498.000000	0.084720
2499.000000	0.096775
2500.000000	0.124027
