# Wavelength	NAu-2-50_HEX-10_FV7-40_00000.asd.rts.txt
350.000000	0.122602
351.000000	0.129055
352.000000	0.127407
353.000000	0.120596
354.000000	0.114111
355.000000	0.115558
356.000000	0.109263
357.000000	0.099394
358.000000	0.102912
359.000000	0.106641
360.000000	0.108807
361.000000	0.110881
362.000000	0.121190
363.000000	0.122417
364.000000	0.109531
365.000000	0.112241
366.000000	0.116841
367.000000	0.118302
368.000000	0.118599
369.000000	0.117813
370.000000	0.116885
371.000000	0.116928
372.000000	0.118916
373.000000	0.118270
374.000000	0.114510
375.000000	0.118987
376.000000	0.119020
377.000000	0.113104
378.000000	0.109917
379.000000	0.113495
380.000000	0.118540
381.000000	0.118073
382.000000	0.117572
383.000000	0.119955
384.000000	0.124828
385.000000	0.123569
386.000000	0.122088
387.000000	0.122133
388.000000	0.120915
389.000000	0.119901
390.000000	0.120236
391.000000	0.122448
392.000000	0.122381
393.000000	0.122256
394.000000	0.123581
395.000000	0.122572
396.000000	0.121607
397.000000	0.121373
398.000000	0.120215
399.000000	0.120010
400.000000	0.121263
401.000000	0.123639
402.000000	0.123022
403.000000	0.122100
404.000000	0.123476
405.000000	0.124051
406.000000	0.124201
407.000000	0.124436
408.000000	0.125313
409.000000	0.125592
410.000000	0.125251
411.000000	0.124942
412.000000	0.125294
413.000000	0.125765
414.000000	0.125815
415.000000	0.126790
416.000000	0.127150
417.000000	0.126527
418.000000	0.127613
419.000000	0.128222
420.000000	0.128045
421.000000	0.128255
422.000000	0.128477
423.000000	0.128595
424.000000	0.128651
425.000000	0.129248
426.000000	0.129711
427.000000	0.129692
428.000000	0.130454
429.000000	0.130835
430.000000	0.130626
431.000000	0.130849
432.000000	0.131013
433.000000	0.131267
434.000000	0.132013
435.000000	0.132164
436.000000	0.132318
437.000000	0.133034
438.000000	0.133180
439.000000	0.133251
440.000000	0.133522
441.000000	0.133498
442.000000	0.133724
443.000000	0.134112
444.000000	0.134220
445.000000	0.134980
446.000000	0.135490
447.000000	0.134704
448.000000	0.135384
449.000000	0.136296
450.000000	0.136487
451.000000	0.136886
452.000000	0.137219
453.000000	0.137478
454.000000	0.138098
455.000000	0.138675
456.000000	0.138997
457.000000	0.138893
458.000000	0.139297
459.000000	0.139839
460.000000	0.140115
461.000000	0.140469
462.000000	0.140809
463.000000	0.141055
464.000000	0.141500
465.000000	0.141700
466.000000	0.141790
467.000000	0.142354
468.000000	0.142617
469.000000	0.142806
470.000000	0.143372
471.000000	0.143607
472.000000	0.143857
473.000000	0.144317
474.000000	0.144416
475.000000	0.144693
476.000000	0.145225
477.000000	0.145357
478.000000	0.145762
479.000000	0.146314
480.000000	0.146421
481.000000	0.146651
482.000000	0.147031
483.000000	0.147375
484.000000	0.147751
485.000000	0.147980
486.000000	0.148149
487.000000	0.148528
488.000000	0.148734
489.000000	0.148775
490.000000	0.148896
491.000000	0.148986
492.000000	0.149159
493.000000	0.149451
494.000000	0.149581
495.000000	0.149756
496.000000	0.150049
497.000000	0.150124
498.000000	0.150084
499.000000	0.150110
500.000000	0.150412
501.000000	0.150507
502.000000	0.150523
503.000000	0.150788
504.000000	0.150957
505.000000	0.151109
506.000000	0.151377
507.000000	0.151749
508.000000	0.152076
509.000000	0.152306
510.000000	0.152691
511.000000	0.152973
512.000000	0.153197
513.000000	0.153621
514.000000	0.154051
515.000000	0.154459
516.000000	0.154825
517.000000	0.155086
518.000000	0.155483
519.000000	0.156071
520.000000	0.156426
521.000000	0.156743
522.000000	0.157162
523.000000	0.157762
524.000000	0.158307
525.000000	0.158851
526.000000	0.159624
527.000000	0.160477
528.000000	0.161319
529.000000	0.162144
530.000000	0.163143
531.000000	0.164263
532.000000	0.165386
533.000000	0.166507
534.000000	0.167620
535.000000	0.168723
536.000000	0.169829
537.000000	0.171036
538.000000	0.172225
539.000000	0.173205
540.000000	0.174229
541.000000	0.175249
542.000000	0.176211
543.000000	0.177156
544.000000	0.178045
545.000000	0.178857
546.000000	0.179760
547.000000	0.180695
548.000000	0.181679
549.000000	0.182714
550.000000	0.183791
551.000000	0.184916
552.000000	0.186078
553.000000	0.187360
554.000000	0.188728
555.000000	0.190152
556.000000	0.191632
557.000000	0.193177
558.000000	0.194827
559.000000	0.196396
560.000000	0.197951
561.000000	0.199536
562.000000	0.201079
563.000000	0.202533
564.000000	0.203983
565.000000	0.205423
566.000000	0.206718
567.000000	0.207956
568.000000	0.209173
569.000000	0.210320
570.000000	0.211344
571.000000	0.212242
572.000000	0.213091
573.000000	0.213896
574.000000	0.214599
575.000000	0.215169
576.000000	0.215752
577.000000	0.216198
578.000000	0.216467
579.000000	0.216855
580.000000	0.217148
581.000000	0.217292
582.000000	0.217510
583.000000	0.217671
584.000000	0.217748
585.000000	0.217762
586.000000	0.217741
587.000000	0.217687
588.000000	0.217586
589.000000	0.217351
590.000000	0.217098
591.000000	0.216900
592.000000	0.216689
593.000000	0.216453
594.000000	0.216146
595.000000	0.215690
596.000000	0.215271
597.000000	0.214902
598.000000	0.214452
599.000000	0.213893
600.000000	0.213380
601.000000	0.212964
602.000000	0.212490
603.000000	0.211980
604.000000	0.211467
605.000000	0.210985
606.000000	0.210508
607.000000	0.210016
608.000000	0.209490
609.000000	0.208967
610.000000	0.208480
611.000000	0.208058
612.000000	0.207699
613.000000	0.207293
614.000000	0.206825
615.000000	0.206466
616.000000	0.206053
617.000000	0.205575
618.000000	0.205250
619.000000	0.204909
620.000000	0.204487
621.000000	0.204014
622.000000	0.203613
623.000000	0.203265
624.000000	0.202941
625.000000	0.202698
626.000000	0.202417
627.000000	0.202098
628.000000	0.201952
629.000000	0.201778
630.000000	0.201530
631.000000	0.201423
632.000000	0.201301
633.000000	0.201142
634.000000	0.200944
635.000000	0.200730
636.000000	0.200550
637.000000	0.200411
638.000000	0.200278
639.000000	0.200179
640.000000	0.200137
641.000000	0.200060
642.000000	0.200013
643.000000	0.200002
644.000000	0.200023
645.000000	0.200096
646.000000	0.200190
647.000000	0.200262
648.000000	0.200333
649.000000	0.200498
650.000000	0.200740
651.000000	0.200931
652.000000	0.201125
653.000000	0.201390
654.000000	0.201743
655.000000	0.202060
656.000000	0.202379
657.000000	0.202707
658.000000	0.202989
659.000000	0.203337
660.000000	0.203786
661.000000	0.204283
662.000000	0.204712
663.000000	0.205156
664.000000	0.205756
665.000000	0.206302
666.000000	0.206836
667.000000	0.207422
668.000000	0.208076
669.000000	0.208752
670.000000	0.209418
671.000000	0.210039
672.000000	0.210728
673.000000	0.211448
674.000000	0.212061
675.000000	0.212793
676.000000	0.213629
677.000000	0.214493
678.000000	0.215365
679.000000	0.216256
680.000000	0.217193
681.000000	0.218218
682.000000	0.219240
683.000000	0.220215
684.000000	0.221302
685.000000	0.222329
686.000000	0.223401
687.000000	0.224642
688.000000	0.225803
689.000000	0.226952
690.000000	0.228190
691.000000	0.229467
692.000000	0.230720
693.000000	0.231986
694.000000	0.233278
695.000000	0.234643
696.000000	0.236058
697.000000	0.237465
698.000000	0.238838
699.000000	0.240234
700.000000	0.241699
701.000000	0.243198
702.000000	0.244705
703.000000	0.246213
704.000000	0.247798
705.000000	0.249403
706.000000	0.250991
707.000000	0.252611
708.000000	0.254282
709.000000	0.255969
710.000000	0.257647
711.000000	0.259304
712.000000	0.260962
713.000000	0.262660
714.000000	0.264424
715.000000	0.266184
716.000000	0.267919
717.000000	0.269603
718.000000	0.271281
719.000000	0.272975
720.000000	0.274711
721.000000	0.276474
722.000000	0.278213
723.000000	0.279959
724.000000	0.281718
725.000000	0.283388
726.000000	0.285061
727.000000	0.286752
728.000000	0.288419
729.000000	0.290080
730.000000	0.291711
731.000000	0.293357
732.000000	0.294976
733.000000	0.296578
734.000000	0.298130
735.000000	0.299651
736.000000	0.301205
737.000000	0.302634
738.000000	0.304025
739.000000	0.305508
740.000000	0.306984
741.000000	0.308461
742.000000	0.309881
743.000000	0.311207
744.000000	0.312518
745.000000	0.313715
746.000000	0.314883
747.000000	0.316058
748.000000	0.317251
749.000000	0.318432
750.000000	0.319554
751.000000	0.320677
752.000000	0.321729
753.000000	0.322739
754.000000	0.323800
755.000000	0.324858
756.000000	0.325874
757.000000	0.326782
758.000000	0.327732
759.000000	0.328689
760.000000	0.329537
761.000000	0.330313
762.000000	0.330984
763.000000	0.331618
764.000000	0.332417
765.000000	0.333109
766.000000	0.333748
767.000000	0.334421
768.000000	0.335101
769.000000	0.335708
770.000000	0.336243
771.000000	0.336808
772.000000	0.337380
773.000000	0.337863
774.000000	0.338291
775.000000	0.338812
776.000000	0.339279
777.000000	0.339586
778.000000	0.339953
779.000000	0.340305
780.000000	0.340609
781.000000	0.340833
782.000000	0.341039
783.000000	0.341352
784.000000	0.341681
785.000000	0.341975
786.000000	0.342266
787.000000	0.342558
788.000000	0.342809
789.000000	0.343041
790.000000	0.343233
791.000000	0.343396
792.000000	0.343512
793.000000	0.343637
794.000000	0.343807
795.000000	0.343939
796.000000	0.344033
797.000000	0.344100
798.000000	0.344167
799.000000	0.344254
800.000000	0.344372
801.000000	0.344521
802.000000	0.344660
803.000000	0.344736
804.000000	0.344757
805.000000	0.344687
806.000000	0.344626
807.000000	0.344663
808.000000	0.344703
809.000000	0.344756
810.000000	0.344761
811.000000	0.344670
812.000000	0.344569
813.000000	0.344464
814.000000	0.344387
815.000000	0.344415
816.000000	0.344352
817.000000	0.344323
818.000000	0.344360
819.000000	0.344238
820.000000	0.344087
821.000000	0.343928
822.000000	0.343779
823.000000	0.343681
824.000000	0.343532
825.000000	0.343341
826.000000	0.343246
827.000000	0.343212
828.000000	0.343214
829.000000	0.343114
830.000000	0.342965
831.000000	0.342854
832.000000	0.342702
833.000000	0.342556
834.000000	0.342436
835.000000	0.342362
836.000000	0.342208
837.000000	0.342030
838.000000	0.341889
839.000000	0.341802
840.000000	0.341660
841.000000	0.341505
842.000000	0.341347
843.000000	0.341162
844.000000	0.340995
845.000000	0.340834
846.000000	0.340693
847.000000	0.340565
848.000000	0.340389
849.000000	0.340154
850.000000	0.339917
851.000000	0.339689
852.000000	0.339532
853.000000	0.339463
854.000000	0.339289
855.000000	0.339082
856.000000	0.338794
857.000000	0.338493
858.000000	0.338270
859.000000	0.338061
860.000000	0.337820
861.000000	0.337648
862.000000	0.337513
863.000000	0.337266
864.000000	0.337050
865.000000	0.336825
866.000000	0.336594
867.000000	0.336373
868.000000	0.336218
869.000000	0.336052
870.000000	0.335863
871.000000	0.335545
872.000000	0.335261
873.000000	0.335057
874.000000	0.334954
875.000000	0.334772
876.000000	0.334491
877.000000	0.334103
878.000000	0.333722
879.000000	0.333406
880.000000	0.333041
881.000000	0.332764
882.000000	0.332444
883.000000	0.332127
884.000000	0.331854
885.000000	0.331645
886.000000	0.331409
887.000000	0.331151
888.000000	0.330982
889.000000	0.330760
890.000000	0.330420
891.000000	0.330165
892.000000	0.329872
893.000000	0.329559
894.000000	0.329330
895.000000	0.328975
896.000000	0.328641
897.000000	0.328351
898.000000	0.328071
899.000000	0.327698
900.000000	0.327270
901.000000	0.326848
902.000000	0.326649
903.000000	0.326529
904.000000	0.326442
905.000000	0.326258
906.000000	0.326041
907.000000	0.325818
908.000000	0.325644
909.000000	0.325410
910.000000	0.325138
911.000000	0.324769
912.000000	0.324316
913.000000	0.323989
914.000000	0.323779
915.000000	0.323646
916.000000	0.323356
917.000000	0.322975
918.000000	0.322774
919.000000	0.322797
920.000000	0.322525
921.000000	0.322126
922.000000	0.321732
923.000000	0.321427
924.000000	0.321168
925.000000	0.320910
926.000000	0.320640
927.000000	0.320252
928.000000	0.319959
929.000000	0.319741
930.000000	0.319509
931.000000	0.319268
932.000000	0.319021
933.000000	0.318746
934.000000	0.318298
935.000000	0.317995
936.000000	0.317792
937.000000	0.317502
938.000000	0.317263
939.000000	0.317109
940.000000	0.316867
941.000000	0.316470
942.000000	0.316418
943.000000	0.316296
944.000000	0.315788
945.000000	0.315413
946.000000	0.315043
947.000000	0.314823
948.000000	0.314783
949.000000	0.314458
950.000000	0.314213
951.000000	0.314080
952.000000	0.313869
953.000000	0.313655
954.000000	0.313477
955.000000	0.313275
956.000000	0.313043
957.000000	0.312752
958.000000	0.312423
959.000000	0.312218
960.000000	0.312109
961.000000	0.311859
962.000000	0.311459
963.000000	0.311245
964.000000	0.311148
965.000000	0.310968
966.000000	0.310560
967.000000	0.310608
968.000000	0.310430
969.000000	0.310004
970.000000	0.309751
971.000000	0.309559
972.000000	0.309568
973.000000	0.309573
974.000000	0.309149
975.000000	0.308749
976.000000	0.308557
977.000000	0.308523
978.000000	0.308133
979.000000	0.308226
980.000000	0.308175
981.000000	0.307475
982.000000	0.307341
983.000000	0.307113
984.000000	0.306747
985.000000	0.306789
986.000000	0.306795
987.000000	0.306657
988.000000	0.306314
989.000000	0.306089
990.000000	0.305937
991.000000	0.305784
992.000000	0.305661
993.000000	0.305975
994.000000	0.305851
995.000000	0.305472
996.000000	0.305394
997.000000	0.305603
998.000000	0.305577
999.000000	0.305332
1000.000000	0.305487
1001.000000	0.305839
1002.000000	0.305296
1003.000000	0.305260
1004.000000	0.305122
1005.000000	0.304951
1006.000000	0.304547
1007.000000	0.304097
1008.000000	0.303769
1009.000000	0.303286
1010.000000	0.303339
1011.000000	0.304119
1012.000000	0.304234
1013.000000	0.303941
1014.000000	0.304058
1015.000000	0.303365
1016.000000	0.303363
1017.000000	0.304166
1018.000000	0.304073
1019.000000	0.303979
1020.000000	0.303945
1021.000000	0.303680
1022.000000	0.303278
1023.000000	0.303047
1024.000000	0.302572
1025.000000	0.302679
1026.000000	0.303074
1027.000000	0.303266
1028.000000	0.303584
1029.000000	0.303887
1030.000000	0.303584
1031.000000	0.303136
1032.000000	0.303462
1033.000000	0.303583
1034.000000	0.303707
1035.000000	0.303917
1036.000000	0.304084
1037.000000	0.304190
1038.000000	0.304253
1039.000000	0.304439
1040.000000	0.304310
1041.000000	0.304356
1042.000000	0.304639
1043.000000	0.304924
1044.000000	0.305240
1045.000000	0.305362
1046.000000	0.305367
1047.000000	0.305476
1048.000000	0.305365
1049.000000	0.305477
1050.000000	0.305834
1051.000000	0.305963
1052.000000	0.305914
1053.000000	0.306118
1054.000000	0.306749
1055.000000	0.307022
1056.000000	0.307339
1057.000000	0.307380
1058.000000	0.307577
1059.000000	0.307566
1060.000000	0.307876
1061.000000	0.308424
1062.000000	0.308451
1063.000000	0.308356
1064.000000	0.308423
1065.000000	0.308349
1066.000000	0.308573
1067.000000	0.309048
1068.000000	0.309274
1069.000000	0.309496
1070.000000	0.309713
1071.000000	0.309861
1072.000000	0.309979
1073.000000	0.310285
1074.000000	0.310366
1075.000000	0.310076
1076.000000	0.310527
1077.000000	0.310988
1078.000000	0.310981
1079.000000	0.311132
1080.000000	0.311310
1081.000000	0.311461
1082.000000	0.311640
1083.000000	0.311909
1084.000000	0.312173
1085.000000	0.312600
1086.000000	0.313241
1087.000000	0.313677
1088.000000	0.314266
1089.000000	0.314482
1090.000000	0.314392
1091.000000	0.314046
1092.000000	0.313771
1093.000000	0.313751
1094.000000	0.313996
1095.000000	0.314571
1096.000000	0.314909
1097.000000	0.315415
1098.000000	0.315766
1099.000000	0.315696
1100.000000	0.316160
1101.000000	0.317037
1102.000000	0.317429
1103.000000	0.317880
1104.000000	0.318210
1105.000000	0.318070
1106.000000	0.318121
1107.000000	0.318227
1108.000000	0.318305
1109.000000	0.318291
1110.000000	0.318530
1111.000000	0.318666
1112.000000	0.318774
1113.000000	0.319067
1114.000000	0.319571
1115.000000	0.319764
1116.000000	0.319933
1117.000000	0.320120
1118.000000	0.320016
1119.000000	0.320107
1120.000000	0.320424
1121.000000	0.320638
1122.000000	0.321007
1123.000000	0.321331
1124.000000	0.321240
1125.000000	0.321432
1126.000000	0.321551
1127.000000	0.321717
1128.000000	0.321968
1129.000000	0.322551
1130.000000	0.322766
1131.000000	0.322878
1132.000000	0.322929
1133.000000	0.322827
1134.000000	0.322927
1135.000000	0.322976
1136.000000	0.323119
1137.000000	0.323486
1138.000000	0.323582
1139.000000	0.323635
1140.000000	0.323804
1141.000000	0.323832
1142.000000	0.323932
1143.000000	0.324166
1144.000000	0.324342
1145.000000	0.324237
1146.000000	0.324090
1147.000000	0.324156
1148.000000	0.324188
1149.000000	0.324213
1150.000000	0.324384
1151.000000	0.324521
1152.000000	0.324464
1153.000000	0.324603
1154.000000	0.324945
1155.000000	0.325058
1156.000000	0.325013
1157.000000	0.325138
1158.000000	0.325232
1159.000000	0.325325
1160.000000	0.325450
1161.000000	0.325653
1162.000000	0.325959
1163.000000	0.326335
1164.000000	0.326520
1165.000000	0.326663
1166.000000	0.326691
1167.000000	0.326327
1168.000000	0.326313
1169.000000	0.326446
1170.000000	0.326573
1171.000000	0.326927
1172.000000	0.327062
1173.000000	0.327063
1174.000000	0.327114
1175.000000	0.327012
1176.000000	0.326995
1177.000000	0.327171
1178.000000	0.327242
1179.000000	0.327242
1180.000000	0.327241
1181.000000	0.327304
1182.000000	0.327345
1183.000000	0.327438
1184.000000	0.327622
1185.000000	0.327749
1186.000000	0.327842
1187.000000	0.328026
1188.000000	0.328305
1189.000000	0.328368
1190.000000	0.328436
1191.000000	0.328507
1192.000000	0.328531
1193.000000	0.328697
1194.000000	0.328867
1195.000000	0.328978
1196.000000	0.328943
1197.000000	0.329038
1198.000000	0.329275
1199.000000	0.329433
1200.000000	0.329666
1201.000000	0.329741
1202.000000	0.329642
1203.000000	0.329564
1204.000000	0.329593
1205.000000	0.329737
1206.000000	0.329845
1207.000000	0.330226
1208.000000	0.330288
1209.000000	0.330240
1210.000000	0.330264
1211.000000	0.330204
1212.000000	0.330234
1213.000000	0.330366
1214.000000	0.330477
1215.000000	0.330595
1216.000000	0.330685
1217.000000	0.330777
1218.000000	0.330804
1219.000000	0.330745
1220.000000	0.330810
1221.000000	0.330966
1222.000000	0.331091
1223.000000	0.331347
1224.000000	0.331550
1225.000000	0.331615
1226.000000	0.331679
1227.000000	0.331565
1228.000000	0.331552
1229.000000	0.331567
1230.000000	0.331553
1231.000000	0.331554
1232.000000	0.331746
1233.000000	0.331974
1234.000000	0.332286
1235.000000	0.332359
1236.000000	0.332276
1237.000000	0.332292
1238.000000	0.332020
1239.000000	0.331936
1240.000000	0.331989
1241.000000	0.332136
1242.000000	0.332146
1243.000000	0.332371
1244.000000	0.332610
1245.000000	0.332661
1246.000000	0.332770
1247.000000	0.332902
1248.000000	0.332899
1249.000000	0.333069
1250.000000	0.333309
1251.000000	0.333309
1252.000000	0.333372
1253.000000	0.333551
1254.000000	0.333614
1255.000000	0.333560
1256.000000	0.333617
1257.000000	0.333693
1258.000000	0.333763
1259.000000	0.333737
1260.000000	0.333847
1261.000000	0.334038
1262.000000	0.334154
1263.000000	0.334337
1264.000000	0.334434
1265.000000	0.334419
1266.000000	0.334272
1267.000000	0.334280
1268.000000	0.334306
1269.000000	0.334295
1270.000000	0.334527
1271.000000	0.334583
1272.000000	0.334543
1273.000000	0.334700
1274.000000	0.334853
1275.000000	0.334895
1276.000000	0.334945
1277.000000	0.335024
1278.000000	0.334895
1279.000000	0.334870
1280.000000	0.334836
1281.000000	0.334887
1282.000000	0.335075
1283.000000	0.335227
1284.000000	0.335313
1285.000000	0.335434
1286.000000	0.335537
1287.000000	0.335628
1288.000000	0.335729
1289.000000	0.335811
1290.000000	0.335769
1291.000000	0.335725
1292.000000	0.335795
1293.000000	0.335943
1294.000000	0.336013
1295.000000	0.336115
1296.000000	0.336250
1297.000000	0.336354
1298.000000	0.336484
1299.000000	0.336525
1300.000000	0.336411
1301.000000	0.336379
1302.000000	0.336363
1303.000000	0.336525
1304.000000	0.336526
1305.000000	0.336603
1306.000000	0.336644
1307.000000	0.336685
1308.000000	0.336734
1309.000000	0.336799
1310.000000	0.336849
1311.000000	0.336864
1312.000000	0.336853
1313.000000	0.337015
1314.000000	0.337172
1315.000000	0.337050
1316.000000	0.336997
1317.000000	0.337069
1318.000000	0.337022
1319.000000	0.336974
1320.000000	0.336975
1321.000000	0.336860
1322.000000	0.336627
1323.000000	0.336504
1324.000000	0.336585
1325.000000	0.336649
1326.000000	0.336675
1327.000000	0.336605
1328.000000	0.336579
1329.000000	0.336486
1330.000000	0.336199
1331.000000	0.336146
1332.000000	0.336324
1333.000000	0.336350
1334.000000	0.336507
1335.000000	0.336583
1336.000000	0.336499
1337.000000	0.336528
1338.000000	0.336583
1339.000000	0.336493
1340.000000	0.336448
1341.000000	0.336399
1342.000000	0.336223
1343.000000	0.336144
1344.000000	0.336176
1345.000000	0.336240
1346.000000	0.336354
1347.000000	0.336341
1348.000000	0.336309
1349.000000	0.336195
1350.000000	0.336099
1351.000000	0.336092
1352.000000	0.336059
1353.000000	0.335913
1354.000000	0.336073
1355.000000	0.336220
1356.000000	0.336223
1357.000000	0.336319
1358.000000	0.336183
1359.000000	0.335861
1360.000000	0.335670
1361.000000	0.335554
1362.000000	0.335410
1363.000000	0.335250
1364.000000	0.335193
1365.000000	0.335178
1366.000000	0.335163
1367.000000	0.335238
1368.000000	0.335131
1369.000000	0.335143
1370.000000	0.334948
1371.000000	0.334581
1372.000000	0.334372
1373.000000	0.334250
1374.000000	0.334077
1375.000000	0.333786
1376.000000	0.333619
1377.000000	0.333379
1378.000000	0.333075
1379.000000	0.332957
1380.000000	0.332807
1381.000000	0.332506
1382.000000	0.331969
1383.000000	0.331381
1384.000000	0.330848
1385.000000	0.330232
1386.000000	0.329741
1387.000000	0.329302
1388.000000	0.328705
1389.000000	0.328031
1390.000000	0.327314
1391.000000	0.326379
1392.000000	0.325448
1393.000000	0.324540
1394.000000	0.323709
1395.000000	0.322729
1396.000000	0.321728
1397.000000	0.320575
1398.000000	0.319201
1399.000000	0.317948
1400.000000	0.316631
1401.000000	0.315392
1402.000000	0.314239
1403.000000	0.313045
1404.000000	0.312070
1405.000000	0.311154
1406.000000	0.310234
1407.000000	0.309405
1408.000000	0.308513
1409.000000	0.307856
1410.000000	0.307462
1411.000000	0.306961
1412.000000	0.306436
1413.000000	0.306030
1414.000000	0.305518
1415.000000	0.305197
1416.000000	0.305187
1417.000000	0.305096
1418.000000	0.304873
1419.000000	0.304739
1420.000000	0.304507
1421.000000	0.304188
1422.000000	0.304083
1423.000000	0.304154
1424.000000	0.304026
1425.000000	0.304068
1426.000000	0.304022
1427.000000	0.303942
1428.000000	0.303932
1429.000000	0.303799
1430.000000	0.303861
1431.000000	0.303872
1432.000000	0.303858
1433.000000	0.303959
1434.000000	0.303976
1435.000000	0.303979
1436.000000	0.303979
1437.000000	0.303873
1438.000000	0.303854
1439.000000	0.303876
1440.000000	0.304037
1441.000000	0.304354
1442.000000	0.304710
1443.000000	0.305077
1444.000000	0.305480
1445.000000	0.306024
1446.000000	0.306579
1447.000000	0.307048
1448.000000	0.307597
1449.000000	0.308188
1450.000000	0.308648
1451.000000	0.309297
1452.000000	0.309925
1453.000000	0.310301
1454.000000	0.310780
1455.000000	0.311169
1456.000000	0.311519
1457.000000	0.312041
1458.000000	0.312331
1459.000000	0.312554
1460.000000	0.312885
1461.000000	0.313038
1462.000000	0.313195
1463.000000	0.313453
1464.000000	0.313690
1465.000000	0.313900
1466.000000	0.314129
1467.000000	0.314424
1468.000000	0.314684
1469.000000	0.315053
1470.000000	0.315416
1471.000000	0.315731
1472.000000	0.316085
1473.000000	0.316428
1474.000000	0.316649
1475.000000	0.316895
1476.000000	0.317105
1477.000000	0.317365
1478.000000	0.317808
1479.000000	0.318168
1480.000000	0.318402
1481.000000	0.318666
1482.000000	0.318893
1483.000000	0.319158
1484.000000	0.319492
1485.000000	0.319827
1486.000000	0.320139
1487.000000	0.320441
1488.000000	0.320730
1489.000000	0.321107
1490.000000	0.321427
1491.000000	0.321742
1492.000000	0.322049
1493.000000	0.322362
1494.000000	0.322657
1495.000000	0.322869
1496.000000	0.322991
1497.000000	0.323180
1498.000000	0.323370
1499.000000	0.323513
1500.000000	0.323672
1501.000000	0.323956
1502.000000	0.324212
1503.000000	0.324302
1504.000000	0.324378
1505.000000	0.324612
1506.000000	0.324749
1507.000000	0.324782
1508.000000	0.325043
1509.000000	0.325290
1510.000000	0.325371
1511.000000	0.325618
1512.000000	0.325859
1513.000000	0.325977
1514.000000	0.326182
1515.000000	0.326343
1516.000000	0.326487
1517.000000	0.326615
1518.000000	0.326776
1519.000000	0.326854
1520.000000	0.326863
1521.000000	0.326894
1522.000000	0.326919
1523.000000	0.327006
1524.000000	0.327110
1525.000000	0.327176
1526.000000	0.327244
1527.000000	0.327311
1528.000000	0.327466
1529.000000	0.327592
1530.000000	0.327606
1531.000000	0.327859
1532.000000	0.328085
1533.000000	0.328083
1534.000000	0.328137
1535.000000	0.328160
1536.000000	0.328067
1537.000000	0.328236
1538.000000	0.328476
1539.000000	0.328622
1540.000000	0.328799
1541.000000	0.328932
1542.000000	0.329065
1543.000000	0.329142
1544.000000	0.329216
1545.000000	0.329410
1546.000000	0.329569
1547.000000	0.329699
1548.000000	0.329837
1549.000000	0.329900
1550.000000	0.329979
1551.000000	0.330025
1552.000000	0.329942
1553.000000	0.329977
1554.000000	0.330042
1555.000000	0.330075
1556.000000	0.330207
1557.000000	0.330201
1558.000000	0.330321
1559.000000	0.330443
1560.000000	0.330529
1561.000000	0.330716
1562.000000	0.330793
1563.000000	0.330770
1564.000000	0.330772
1565.000000	0.330812
1566.000000	0.330767
1567.000000	0.330701
1568.000000	0.330784
1569.000000	0.331055
1570.000000	0.331088
1571.000000	0.331072
1572.000000	0.331090
1573.000000	0.330982
1574.000000	0.330953
1575.000000	0.331085
1576.000000	0.331112
1577.000000	0.330954
1578.000000	0.330935
1579.000000	0.331068
1580.000000	0.331179
1581.000000	0.331473
1582.000000	0.331569
1583.000000	0.331541
1584.000000	0.331504
1585.000000	0.331442
1586.000000	0.331457
1587.000000	0.331586
1588.000000	0.331571
1589.000000	0.331417
1590.000000	0.331357
1591.000000	0.331276
1592.000000	0.331323
1593.000000	0.331602
1594.000000	0.331683
1595.000000	0.331775
1596.000000	0.331823
1597.000000	0.331813
1598.000000	0.331756
1599.000000	0.331687
1600.000000	0.331584
1601.000000	0.331411
1602.000000	0.331414
1603.000000	0.331628
1604.000000	0.331676
1605.000000	0.331718
1606.000000	0.331779
1607.000000	0.331824
1608.000000	0.331850
1609.000000	0.332054
1610.000000	0.332061
1611.000000	0.331894
1612.000000	0.331847
1613.000000	0.331864
1614.000000	0.331866
1615.000000	0.332067
1616.000000	0.332120
1617.000000	0.331971
1618.000000	0.331966
1619.000000	0.331913
1620.000000	0.331914
1621.000000	0.332128
1622.000000	0.332240
1623.000000	0.332251
1624.000000	0.332218
1625.000000	0.331973
1626.000000	0.331821
1627.000000	0.331660
1628.000000	0.331652
1629.000000	0.331746
1630.000000	0.331822
1631.000000	0.331866
1632.000000	0.331896
1633.000000	0.331960
1634.000000	0.332008
1635.000000	0.332119
1636.000000	0.332198
1637.000000	0.332265
1638.000000	0.332273
1639.000000	0.332309
1640.000000	0.332286
1641.000000	0.332255
1642.000000	0.332262
1643.000000	0.332309
1644.000000	0.332312
1645.000000	0.332351
1646.000000	0.332313
1647.000000	0.332201
1648.000000	0.332158
1649.000000	0.332230
1650.000000	0.332237
1651.000000	0.332293
1652.000000	0.332355
1653.000000	0.332312
1654.000000	0.332381
1655.000000	0.332531
1656.000000	0.332452
1657.000000	0.332361
1658.000000	0.332288
1659.000000	0.332149
1660.000000	0.332199
1661.000000	0.332311
1662.000000	0.332384
1663.000000	0.332496
1664.000000	0.332562
1665.000000	0.332643
1666.000000	0.332665
1667.000000	0.332510
1668.000000	0.332475
1669.000000	0.332372
1670.000000	0.332349
1671.000000	0.332598
1672.000000	0.332684
1673.000000	0.332602
1674.000000	0.332835
1675.000000	0.333040
1676.000000	0.333069
1677.000000	0.333274
1678.000000	0.333233
1679.000000	0.333077
1680.000000	0.333119
1681.000000	0.333224
1682.000000	0.333326
1683.000000	0.333412
1684.000000	0.333565
1685.000000	0.333649
1686.000000	0.333573
1687.000000	0.333576
1688.000000	0.333499
1689.000000	0.333390
1690.000000	0.333380
1691.000000	0.333392
1692.000000	0.333243
1693.000000	0.333151
1694.000000	0.332938
1695.000000	0.332774
1696.000000	0.332762
1697.000000	0.332715
1698.000000	0.332864
1699.000000	0.332989
1700.000000	0.333133
1701.000000	0.333276
1702.000000	0.333235
1703.000000	0.333158
1704.000000	0.333032
1705.000000	0.332998
1706.000000	0.333077
1707.000000	0.333116
1708.000000	0.333257
1709.000000	0.333143
1710.000000	0.332896
1711.000000	0.332782
1712.000000	0.332619
1713.000000	0.332472
1714.000000	0.332459
1715.000000	0.332452
1716.000000	0.332407
1717.000000	0.332420
1718.000000	0.332507
1719.000000	0.332538
1720.000000	0.332599
1721.000000	0.332666
1722.000000	0.332740
1723.000000	0.332822
1724.000000	0.332976
1725.000000	0.333052
1726.000000	0.332998
1727.000000	0.332984
1728.000000	0.332875
1729.000000	0.332742
1730.000000	0.332762
1731.000000	0.332705
1732.000000	0.332583
1733.000000	0.332579
1734.000000	0.332488
1735.000000	0.332401
1736.000000	0.332261
1737.000000	0.332275
1738.000000	0.332363
1739.000000	0.332441
1740.000000	0.332664
1741.000000	0.332661
1742.000000	0.332488
1743.000000	0.332560
1744.000000	0.332660
1745.000000	0.332671
1746.000000	0.332739
1747.000000	0.332811
1748.000000	0.332757
1749.000000	0.332757
1750.000000	0.332685
1751.000000	0.332490
1752.000000	0.332528
1753.000000	0.332551
1754.000000	0.332624
1755.000000	0.332887
1756.000000	0.332920
1757.000000	0.332835
1758.000000	0.332775
1759.000000	0.332502
1760.000000	0.332373
1761.000000	0.332352
1762.000000	0.332239
1763.000000	0.332069
1764.000000	0.332033
1765.000000	0.332031
1766.000000	0.331986
1767.000000	0.331958
1768.000000	0.331847
1769.000000	0.331722
1770.000000	0.331645
1771.000000	0.331471
1772.000000	0.331482
1773.000000	0.331545
1774.000000	0.331565
1775.000000	0.331814
1776.000000	0.331824
1777.000000	0.331582
1778.000000	0.331540
1779.000000	0.331538
1780.000000	0.331474
1781.000000	0.331396
1782.000000	0.331360
1783.000000	0.331285
1784.000000	0.331360
1785.000000	0.331491
1786.000000	0.331559
1787.000000	0.331699
1788.000000	0.331758
1789.000000	0.331653
1790.000000	0.331367
1791.000000	0.331206
1792.000000	0.331239
1793.000000	0.331200
1794.000000	0.331230
1795.000000	0.331282
1796.000000	0.331297
1797.000000	0.331251
1798.000000	0.331191
1799.000000	0.331158
1800.000000	0.331110
1801.000000	0.331476
1802.000000	0.331453
1803.000000	0.330530
1804.000000	0.330316
1805.000000	0.330083
1806.000000	0.329922
1807.000000	0.330032
1808.000000	0.330085
1809.000000	0.330575
1810.000000	0.329945
1811.000000	0.329944
1812.000000	0.330376
1813.000000	0.330096
1814.000000	0.329468
1815.000000	0.329116
1816.000000	0.328036
1817.000000	0.327607
1818.000000	0.327404
1819.000000	0.328316
1820.000000	0.328509
1821.000000	0.328426
1822.000000	0.328696
1823.000000	0.328653
1824.000000	0.328863
1825.000000	0.329510
1826.000000	0.330064
1827.000000	0.331029
1828.000000	0.331000
1829.000000	0.329981
1830.000000	0.329549
1831.000000	0.329136
1832.000000	0.327768
1833.000000	0.327680
1834.000000	0.329093
1835.000000	0.329175
1836.000000	0.328696
1837.000000	0.328687
1838.000000	0.328526
1839.000000	0.328109
1840.000000	0.327927
1841.000000	0.327241
1842.000000	0.326771
1843.000000	0.325595
1844.000000	0.325417
1845.000000	0.326080
1846.000000	0.326163
1847.000000	0.326242
1848.000000	0.326071
1849.000000	0.325656
1850.000000	0.325152
1851.000000	0.324790
1852.000000	0.324137
1853.000000	0.324114
1854.000000	0.324425
1855.000000	0.324465
1856.000000	0.324535
1857.000000	0.325058
1858.000000	0.325056
1859.000000	0.323693
1860.000000	0.322573
1861.000000	0.321964
1862.000000	0.321176
1863.000000	0.320145
1864.000000	0.319730
1865.000000	0.320097
1866.000000	0.319663
1867.000000	0.319023
1868.000000	0.318592
1869.000000	0.317695
1870.000000	0.315818
1871.000000	0.314462
1872.000000	0.312961
1873.000000	0.311802
1874.000000	0.311015
1875.000000	0.310147
1876.000000	0.309146
1877.000000	0.308096
1878.000000	0.306835
1879.000000	0.304794
1880.000000	0.302536
1881.000000	0.299753
1882.000000	0.297056
1883.000000	0.293571
1884.000000	0.290297
1885.000000	0.286756
1886.000000	0.283477
1887.000000	0.280092
1888.000000	0.276808
1889.000000	0.273631
1890.000000	0.269826
1891.000000	0.265943
1892.000000	0.261910
1893.000000	0.258184
1894.000000	0.254469
1895.000000	0.250679
1896.000000	0.247117
1897.000000	0.243603
1898.000000	0.239787
1899.000000	0.236708
1900.000000	0.233791
1901.000000	0.231606
1902.000000	0.229815
1903.000000	0.228044
1904.000000	0.226900
1905.000000	0.225268
1906.000000	0.224155
1907.000000	0.223282
1908.000000	0.222885
1909.000000	0.222749
1910.000000	0.223337
1911.000000	0.223834
1912.000000	0.224738
1913.000000	0.225846
1914.000000	0.227068
1915.000000	0.228101
1916.000000	0.228702
1917.000000	0.229431
1918.000000	0.230115
1919.000000	0.230582
1920.000000	0.231276
1921.000000	0.232493
1922.000000	0.233598
1923.000000	0.234904
1924.000000	0.236300
1925.000000	0.237076
1926.000000	0.237564
1927.000000	0.238022
1928.000000	0.238691
1929.000000	0.239422
1930.000000	0.240602
1931.000000	0.241595
1932.000000	0.242312
1933.000000	0.242683
1934.000000	0.242585
1935.000000	0.242042
1936.000000	0.241553
1937.000000	0.241088
1938.000000	0.240630
1939.000000	0.240662
1940.000000	0.241178
1941.000000	0.241906
1942.000000	0.242741
1943.000000	0.243244
1944.000000	0.243263
1945.000000	0.243622
1946.000000	0.243971
1947.000000	0.244624
1948.000000	0.245735
1949.000000	0.246392
1950.000000	0.246440
1951.000000	0.246483
1952.000000	0.246315
1953.000000	0.246084
1954.000000	0.245858
1955.000000	0.246295
1956.000000	0.246451
1957.000000	0.246223
1958.000000	0.246413
1959.000000	0.246840
1960.000000	0.247569
1961.000000	0.248536
1962.000000	0.249181
1963.000000	0.250039
1964.000000	0.250094
1965.000000	0.249638
1966.000000	0.249489
1967.000000	0.249180
1968.000000	0.249082
1969.000000	0.249527
1970.000000	0.249910
1971.000000	0.250220
1972.000000	0.250304
1973.000000	0.250455
1974.000000	0.250621
1975.000000	0.250991
1976.000000	0.251304
1977.000000	0.252301
1978.000000	0.253378
1979.000000	0.253706
1980.000000	0.254435
1981.000000	0.255033
1982.000000	0.255065
1983.000000	0.255081
1984.000000	0.254982
1985.000000	0.254310
1986.000000	0.254298
1987.000000	0.254455
1988.000000	0.255118
1989.000000	0.256065
1990.000000	0.256742
1991.000000	0.257245
1992.000000	0.257656
1993.000000	0.258003
1994.000000	0.259191
1995.000000	0.260131
1996.000000	0.261111
1997.000000	0.261952
1998.000000	0.262539
1999.000000	0.263138
2000.000000	0.263752
2001.000000	0.264419
2002.000000	0.264711
2003.000000	0.265241
2004.000000	0.265510
2005.000000	0.265775
2006.000000	0.266532
2007.000000	0.267474
2008.000000	0.268247
2009.000000	0.269218
2010.000000	0.269795
2011.000000	0.269854
2012.000000	0.270028
2013.000000	0.270119
2014.000000	0.270040
2015.000000	0.269584
2016.000000	0.270067
2017.000000	0.270672
2018.000000	0.271247
2019.000000	0.272000
2020.000000	0.272397
2021.000000	0.273022
2022.000000	0.273261
2023.000000	0.273975
2024.000000	0.275561
2025.000000	0.276425
2026.000000	0.276807
2027.000000	0.277521
2028.000000	0.277690
2029.000000	0.277398
2030.000000	0.278327
2031.000000	0.278949
2032.000000	0.279716
2033.000000	0.281089
2034.000000	0.281634
2035.000000	0.281605
2036.000000	0.281817
2037.000000	0.281850
2038.000000	0.282070
2039.000000	0.282773
2040.000000	0.282830
2041.000000	0.282464
2042.000000	0.282778
2043.000000	0.282501
2044.000000	0.282363
2045.000000	0.283077
2046.000000	0.283438
2047.000000	0.283850
2048.000000	0.284479
2049.000000	0.285070
2050.000000	0.285175
2051.000000	0.285351
2052.000000	0.285318
2053.000000	0.285454
2054.000000	0.285772
2055.000000	0.286330
2056.000000	0.287102
2057.000000	0.287856
2058.000000	0.288542
2059.000000	0.288959
2060.000000	0.289042
2061.000000	0.288853
2062.000000	0.288649
2063.000000	0.287714
2064.000000	0.287712
2065.000000	0.288390
2066.000000	0.288742
2067.000000	0.289983
2068.000000	0.290778
2069.000000	0.290299
2070.000000	0.290221
2071.000000	0.289635
2072.000000	0.289215
2073.000000	0.289686
2074.000000	0.289841
2075.000000	0.290129
2076.000000	0.290638
2077.000000	0.290987
2078.000000	0.291185
2079.000000	0.291673
2080.000000	0.292401
2081.000000	0.292909
2082.000000	0.293459
2083.000000	0.294104
2084.000000	0.294378
2085.000000	0.294780
2086.000000	0.294921
2087.000000	0.294544
2088.000000	0.294430
2089.000000	0.294144
2090.000000	0.294134
2091.000000	0.294636
2092.000000	0.294752
2093.000000	0.294786
2094.000000	0.294879
2095.000000	0.294806
2096.000000	0.295096
2097.000000	0.295854
2098.000000	0.295730
2099.000000	0.296055
2100.000000	0.296073
2101.000000	0.295360
2102.000000	0.295287
2103.000000	0.295249
2104.000000	0.295159
2105.000000	0.295648
2106.000000	0.296879
2107.000000	0.297643
2108.000000	0.298810
2109.000000	0.299429
2110.000000	0.299268
2111.000000	0.299353
2112.000000	0.299231
2113.000000	0.298948
2114.000000	0.299103
2115.000000	0.299334
2116.000000	0.298952
2117.000000	0.298460
2118.000000	0.297880
2119.000000	0.297752
2120.000000	0.298255
2121.000000	0.300010
2122.000000	0.300535
2123.000000	0.301009
2124.000000	0.301108
2125.000000	0.300256
2126.000000	0.299893
2127.000000	0.299443
2128.000000	0.299867
2129.000000	0.300650
2130.000000	0.301864
2131.000000	0.302510
2132.000000	0.302135
2133.000000	0.301871
2134.000000	0.301019
2135.000000	0.300779
2136.000000	0.300690
2137.000000	0.300949
2138.000000	0.301553
2139.000000	0.301631
2140.000000	0.302114
2141.000000	0.302138
2142.000000	0.300919
2143.000000	0.300496
2144.000000	0.301052
2145.000000	0.300997
2146.000000	0.300984
2147.000000	0.300931
2148.000000	0.300582
2149.000000	0.300803
2150.000000	0.301534
2151.000000	0.302541
2152.000000	0.303516
2153.000000	0.303957
2154.000000	0.304092
2155.000000	0.303875
2156.000000	0.303521
2157.000000	0.302912
2158.000000	0.302036
2159.000000	0.300238
2160.000000	0.299870
2161.000000	0.299877
2162.000000	0.300223
2163.000000	0.301911
2164.000000	0.302802
2165.000000	0.303597
2166.000000	0.303789
2167.000000	0.303734
2168.000000	0.303873
2169.000000	0.303840
2170.000000	0.303496
2171.000000	0.303308
2172.000000	0.303208
2173.000000	0.303005
2174.000000	0.302678
2175.000000	0.302522
2176.000000	0.302255
2177.000000	0.302251
2178.000000	0.303110
2179.000000	0.302935
2180.000000	0.302161
2181.000000	0.301837
2182.000000	0.300279
2183.000000	0.299122
2184.000000	0.299204
2185.000000	0.299272
2186.000000	0.300265
2187.000000	0.300791
2188.000000	0.301456
2189.000000	0.302033
2190.000000	0.301662
2191.000000	0.302648
2192.000000	0.302707
2193.000000	0.302145
2194.000000	0.301879
2195.000000	0.301502
2196.000000	0.301154
2197.000000	0.300804
2198.000000	0.300097
2199.000000	0.298926
2200.000000	0.298597
2201.000000	0.298949
2202.000000	0.298979
2203.000000	0.299469
2204.000000	0.299101
2205.000000	0.299418
2206.000000	0.299330
2207.000000	0.300080
2208.000000	0.302518
2209.000000	0.303783
2210.000000	0.305231
2211.000000	0.306852
2212.000000	0.308435
2213.000000	0.309150
2214.000000	0.309317
2215.000000	0.308656
2216.000000	0.306965
2217.000000	0.305522
2218.000000	0.303340
2219.000000	0.301608
2220.000000	0.300097
2221.000000	0.298554
2222.000000	0.296515
2223.000000	0.295975
2224.000000	0.296546
2225.000000	0.296192
2226.000000	0.297046
2227.000000	0.296596
2228.000000	0.295170
2229.000000	0.294694
2230.000000	0.295284
2231.000000	0.295728
2232.000000	0.293869
2233.000000	0.292230
2234.000000	0.291850
2235.000000	0.290336
2236.000000	0.289816
2237.000000	0.291685
2238.000000	0.291152
2239.000000	0.288776
2240.000000	0.288384
2241.000000	0.288310
2242.000000	0.288633
2243.000000	0.290137
2244.000000	0.290620
2245.000000	0.290961
2246.000000	0.290637
2247.000000	0.289064
2248.000000	0.288970
2249.000000	0.288845
2250.000000	0.289171
2251.000000	0.293072
2252.000000	0.294520
2253.000000	0.292636
2254.000000	0.291474
2255.000000	0.290129
2256.000000	0.290728
2257.000000	0.292292
2258.000000	0.293803
2259.000000	0.293783
2260.000000	0.291062
2261.000000	0.291260
2262.000000	0.293379
2263.000000	0.294122
2264.000000	0.297078
2265.000000	0.296022
2266.000000	0.291627
2267.000000	0.288854
2268.000000	0.283092
2269.000000	0.281350
2270.000000	0.283103
2271.000000	0.282567
2272.000000	0.283031
2273.000000	0.283181
2274.000000	0.281953
2275.000000	0.281716
2276.000000	0.283214
2277.000000	0.282038
2278.000000	0.280796
2279.000000	0.278173
2280.000000	0.276381
2281.000000	0.274074
2282.000000	0.271560
2283.000000	0.269349
2284.000000	0.265860
2285.000000	0.264581
2286.000000	0.265235
2287.000000	0.265727
2288.000000	0.266924
2289.000000	0.265954
2290.000000	0.262660
2291.000000	0.259582
2292.000000	0.255950
2293.000000	0.252981
2294.000000	0.251906
2295.000000	0.253538
2296.000000	0.253166
2297.000000	0.252443
2298.000000	0.253444
2299.000000	0.253919
2300.000000	0.254932
2301.000000	0.258963
2302.000000	0.260075
2303.000000	0.259367
2304.000000	0.259130
2305.000000	0.257822
2306.000000	0.257910
2307.000000	0.258178
2308.000000	0.258834
2309.000000	0.262668
2310.000000	0.264737
2311.000000	0.265647
2312.000000	0.266367
2313.000000	0.265697
2314.000000	0.266022
2315.000000	0.270046
2316.000000	0.274876
2317.000000	0.276553
2318.000000	0.276937
2319.000000	0.275632
2320.000000	0.275503
2321.000000	0.276594
2322.000000	0.276917
2323.000000	0.277726
2324.000000	0.275382
2325.000000	0.271890
2326.000000	0.271108
2327.000000	0.270937
2328.000000	0.273018
2329.000000	0.275747
2330.000000	0.276071
2331.000000	0.274877
2332.000000	0.272607
2333.000000	0.272239
2334.000000	0.272541
2335.000000	0.273146
2336.000000	0.275395
2337.000000	0.275297
2338.000000	0.272900
2339.000000	0.272818
2340.000000	0.273009
2341.000000	0.272751
2342.000000	0.274513
2343.000000	0.274523
2344.000000	0.273300
2345.000000	0.271249
2346.000000	0.267276
2347.000000	0.265156
2348.000000	0.262958
2349.000000	0.260703
2350.000000	0.262326
2351.000000	0.262732
2352.000000	0.258833
2353.000000	0.256646
2354.000000	0.252837
2355.000000	0.249875
2356.000000	0.253609
2357.000000	0.256643
2358.000000	0.259927
2359.000000	0.262870
2360.000000	0.259662
2361.000000	0.257759
2362.000000	0.255129
2363.000000	0.251695
2364.000000	0.249036
2365.000000	0.246281
2366.000000	0.246573
2367.000000	0.245856
2368.000000	0.248846
2369.000000	0.252603
2370.000000	0.251755
2371.000000	0.252073
2372.000000	0.254312
2373.000000	0.256237
2374.000000	0.254669
2375.000000	0.252399
2376.000000	0.245871
2377.000000	0.237620
2378.000000	0.236007
2379.000000	0.236133
2380.000000	0.236285
2381.000000	0.239606
2382.000000	0.239671
2383.000000	0.235290
2384.000000	0.233507
2385.000000	0.231537
2386.000000	0.230196
2387.000000	0.230136
2388.000000	0.230171
2389.000000	0.226739
2390.000000	0.224801
2391.000000	0.227272
2392.000000	0.225281
2393.000000	0.229869
2394.000000	0.237651
2395.000000	0.240176
2396.000000	0.243609
2397.000000	0.241409
2398.000000	0.235632
2399.000000	0.229638
2400.000000	0.229107
2401.000000	0.233152
2402.000000	0.229426
2403.000000	0.228645
2404.000000	0.230898
2405.000000	0.227098
2406.000000	0.229175
2407.000000	0.236026
2408.000000	0.235689
2409.000000	0.234690
2410.000000	0.239194
2411.000000	0.240212
2412.000000	0.234063
2413.000000	0.229087
2414.000000	0.229436
2415.000000	0.230313
2416.000000	0.234939
2417.000000	0.242987
2418.000000	0.244174
2419.000000	0.239982
2420.000000	0.230871
2421.000000	0.217458
2422.000000	0.209201
2423.000000	0.204940
2424.000000	0.205182
2425.000000	0.213309
2426.000000	0.224438
2427.000000	0.235273
2428.000000	0.244708
2429.000000	0.248926
2430.000000	0.251804
2431.000000	0.247453
2432.000000	0.237753
2433.000000	0.232211
2434.000000	0.221437
2435.000000	0.216552
2436.000000	0.216436
2437.000000	0.219696
2438.000000	0.228238
2439.000000	0.221141
2440.000000	0.220220
2441.000000	0.222916
2442.000000	0.213152
2443.000000	0.217976
2444.000000	0.224175
2445.000000	0.218187
2446.000000	0.221497
2447.000000	0.225002
2448.000000	0.224255
2449.000000	0.225769
2450.000000	0.225545
2451.000000	0.228470
2452.000000	0.226376
2453.000000	0.227193
2454.000000	0.227658
2455.000000	0.221234
2456.000000	0.228042
2457.000000	0.233617
2458.000000	0.229262
2459.000000	0.233325
2460.000000	0.233886
2461.000000	0.219699
2462.000000	0.230172
2463.000000	0.230564
2464.000000	0.205807
2465.000000	0.194120
2466.000000	0.178773
2467.000000	0.179164
2468.000000	0.197387
2469.000000	0.219902
2470.000000	0.244583
2471.000000	0.266281
2472.000000	0.274112
2473.000000	0.269585
2474.000000	0.270836
2475.000000	0.259974
2476.000000	0.235807
2477.000000	0.240407
2478.000000	0.228407
2479.000000	0.183897
2480.000000	0.183541
2481.000000	0.176527
2482.000000	0.146760
2483.000000	0.158415
2484.000000	0.166490
2485.000000	0.195942
2486.000000	0.228596
2487.000000	0.227361
2488.000000	0.248147
2489.000000	0.215835
2490.000000	0.207020
2491.000000	0.217339
2492.000000	0.218739
2493.000000	0.233599
2494.000000	0.241558
2495.000000	0.263621
2496.000000	0.256669
2497.000000	0.193050
2498.000000	0.190227
2499.000000	0.238114
2500.000000	0.239345
