# Wavelength	NAu-1-30_HEX-40_FV7-30_00001.asd.rts.txt
350.000000	0.142410
351.000000	0.171272
352.000000	0.185387
353.000000	0.185241
354.000000	0.178784
355.000000	0.174592
356.000000	0.172249
357.000000	0.171707
358.000000	0.170304
359.000000	0.158780
360.000000	0.148723
361.000000	0.153217
362.000000	0.160970
363.000000	0.164510
364.000000	0.161362
365.000000	0.158881
366.000000	0.158587
367.000000	0.159137
368.000000	0.156708
369.000000	0.161086
370.000000	0.165693
371.000000	0.161402
372.000000	0.159700
373.000000	0.162579
374.000000	0.168367
375.000000	0.168397
376.000000	0.165653
377.000000	0.163266
378.000000	0.165015
379.000000	0.167168
380.000000	0.167140
381.000000	0.164535
382.000000	0.169982
383.000000	0.172836
384.000000	0.167903
385.000000	0.169448
386.000000	0.173255
387.000000	0.176284
388.000000	0.176065
389.000000	0.176822
390.000000	0.178529
391.000000	0.179602
392.000000	0.181035
393.000000	0.182812
394.000000	0.184587
395.000000	0.185461
396.000000	0.186117
397.000000	0.186763
398.000000	0.187002
399.000000	0.187444
400.000000	0.188972
401.000000	0.192244
402.000000	0.193303
403.000000	0.193339
404.000000	0.194066
405.000000	0.194616
406.000000	0.195330
407.000000	0.196358
408.000000	0.197388
409.000000	0.198394
410.000000	0.199548
411.000000	0.201112
412.000000	0.202364
413.000000	0.203174
414.000000	0.203632
415.000000	0.203892
416.000000	0.204466
417.000000	0.205416
418.000000	0.205785
419.000000	0.206081
420.000000	0.206632
421.000000	0.207698
422.000000	0.208145
423.000000	0.208089
424.000000	0.208113
425.000000	0.208158
426.000000	0.208463
427.000000	0.208979
428.000000	0.208729
429.000000	0.208531
430.000000	0.208673
431.000000	0.208734
432.000000	0.209254
433.000000	0.209719
434.000000	0.209291
435.000000	0.209144
436.000000	0.209555
437.000000	0.210329
438.000000	0.210198
439.000000	0.209770
440.000000	0.209474
441.000000	0.208872
442.000000	0.208831
443.000000	0.209108
444.000000	0.208789
445.000000	0.208641
446.000000	0.208606
447.000000	0.208401
448.000000	0.209058
449.000000	0.209949
450.000000	0.210688
451.000000	0.211969
452.000000	0.213547
453.000000	0.215172
454.000000	0.216727
455.000000	0.218610
456.000000	0.220744
457.000000	0.222701
458.000000	0.224479
459.000000	0.226310
460.000000	0.228304
461.000000	0.229595
462.000000	0.230852
463.000000	0.232215
464.000000	0.233275
465.000000	0.234391
466.000000	0.235421
467.000000	0.236037
468.000000	0.236468
469.000000	0.236870
470.000000	0.237510
471.000000	0.238266
472.000000	0.239065
473.000000	0.239839
474.000000	0.240398
475.000000	0.240801
476.000000	0.241295
477.000000	0.242055
478.000000	0.242564
479.000000	0.243036
480.000000	0.243613
481.000000	0.243871
482.000000	0.244176
483.000000	0.244686
484.000000	0.245374
485.000000	0.245816
486.000000	0.246113
487.000000	0.246786
488.000000	0.247403
489.000000	0.247934
490.000000	0.248565
491.000000	0.248905
492.000000	0.249202
493.000000	0.249703
494.000000	0.250352
495.000000	0.251009
496.000000	0.251564
497.000000	0.252192
498.000000	0.252728
499.000000	0.253253
500.000000	0.253997
501.000000	0.254508
502.000000	0.254936
503.000000	0.255592
504.000000	0.256093
505.000000	0.256634
506.000000	0.257402
507.000000	0.257985
508.000000	0.258547
509.000000	0.259164
510.000000	0.259839
511.000000	0.260514
512.000000	0.261216
513.000000	0.261987
514.000000	0.262571
515.000000	0.263204
516.000000	0.264137
517.000000	0.264829
518.000000	0.265457
519.000000	0.266156
520.000000	0.267032
521.000000	0.267794
522.000000	0.268398
523.000000	0.269137
524.000000	0.269970
525.000000	0.270797
526.000000	0.271520
527.000000	0.272404
528.000000	0.273309
529.000000	0.274102
530.000000	0.274905
531.000000	0.275801
532.000000	0.276698
533.000000	0.277433
534.000000	0.278227
535.000000	0.279105
536.000000	0.279936
537.000000	0.280822
538.000000	0.281731
539.000000	0.282576
540.000000	0.283461
541.000000	0.284278
542.000000	0.284991
543.000000	0.285830
544.000000	0.286666
545.000000	0.287410
546.000000	0.288332
547.000000	0.289187
548.000000	0.290004
549.000000	0.290894
550.000000	0.291734
551.000000	0.292609
552.000000	0.293565
553.000000	0.294340
554.000000	0.295084
555.000000	0.295939
556.000000	0.296882
557.000000	0.297726
558.000000	0.298535
559.000000	0.299294
560.000000	0.300083
561.000000	0.300913
562.000000	0.301597
563.000000	0.302314
564.000000	0.303068
565.000000	0.303724
566.000000	0.304386
567.000000	0.305036
568.000000	0.305649
569.000000	0.306295
570.000000	0.306894
571.000000	0.307431
572.000000	0.307977
573.000000	0.308583
574.000000	0.309149
575.000000	0.309609
576.000000	0.310164
577.000000	0.310657
578.000000	0.311059
579.000000	0.311648
580.000000	0.312173
581.000000	0.312540
582.000000	0.312913
583.000000	0.313282
584.000000	0.313638
585.000000	0.313970
586.000000	0.314324
587.000000	0.314658
588.000000	0.314930
589.000000	0.315251
590.000000	0.315548
591.000000	0.315801
592.000000	0.316181
593.000000	0.316475
594.000000	0.316659
595.000000	0.316900
596.000000	0.317119
597.000000	0.317322
598.000000	0.317434
599.000000	0.317519
600.000000	0.317672
601.000000	0.317862
602.000000	0.318044
603.000000	0.318142
604.000000	0.318200
605.000000	0.318455
606.000000	0.318647
607.000000	0.318744
608.000000	0.318842
609.000000	0.318966
610.000000	0.319115
611.000000	0.319275
612.000000	0.319426
613.000000	0.319582
614.000000	0.319765
615.000000	0.319833
616.000000	0.319835
617.000000	0.319829
618.000000	0.320028
619.000000	0.320115
620.000000	0.320107
621.000000	0.320204
622.000000	0.320271
623.000000	0.320335
624.000000	0.320423
625.000000	0.320460
626.000000	0.320548
627.000000	0.320715
628.000000	0.320886
629.000000	0.321032
630.000000	0.321074
631.000000	0.321218
632.000000	0.321345
633.000000	0.321442
634.000000	0.321516
635.000000	0.321651
636.000000	0.321836
637.000000	0.322026
638.000000	0.322193
639.000000	0.322369
640.000000	0.322587
641.000000	0.322705
642.000000	0.322872
643.000000	0.323082
644.000000	0.323281
645.000000	0.323455
646.000000	0.323617
647.000000	0.323752
648.000000	0.323881
649.000000	0.324084
650.000000	0.324335
651.000000	0.324538
652.000000	0.324729
653.000000	0.324932
654.000000	0.325083
655.000000	0.325260
656.000000	0.325507
657.000000	0.325782
658.000000	0.326061
659.000000	0.326306
660.000000	0.326485
661.000000	0.326627
662.000000	0.326767
663.000000	0.326981
664.000000	0.327249
665.000000	0.327507
666.000000	0.327729
667.000000	0.327899
668.000000	0.328217
669.000000	0.328543
670.000000	0.328809
671.000000	0.329131
672.000000	0.329420
673.000000	0.329670
674.000000	0.329968
675.000000	0.330210
676.000000	0.330441
677.000000	0.330749
678.000000	0.331061
679.000000	0.331321
680.000000	0.331535
681.000000	0.331815
682.000000	0.332186
683.000000	0.332546
684.000000	0.332901
685.000000	0.333189
686.000000	0.333505
687.000000	0.333910
688.000000	0.334200
689.000000	0.334474
690.000000	0.334862
691.000000	0.335303
692.000000	0.335677
693.000000	0.336018
694.000000	0.336349
695.000000	0.336643
696.000000	0.336943
697.000000	0.337321
698.000000	0.337685
699.000000	0.338058
700.000000	0.338465
701.000000	0.338826
702.000000	0.339180
703.000000	0.339536
704.000000	0.339920
705.000000	0.340291
706.000000	0.340609
707.000000	0.340944
708.000000	0.341330
709.000000	0.341725
710.000000	0.342104
711.000000	0.342441
712.000000	0.342757
713.000000	0.343096
714.000000	0.343473
715.000000	0.343902
716.000000	0.344309
717.000000	0.344564
718.000000	0.344811
719.000000	0.345130
720.000000	0.345547
721.000000	0.345862
722.000000	0.346165
723.000000	0.346545
724.000000	0.346878
725.000000	0.347218
726.000000	0.347589
727.000000	0.347833
728.000000	0.348125
729.000000	0.348460
730.000000	0.348747
731.000000	0.349024
732.000000	0.349307
733.000000	0.349636
734.000000	0.349946
735.000000	0.350244
736.000000	0.350607
737.000000	0.350858
738.000000	0.351084
739.000000	0.351384
740.000000	0.351631
741.000000	0.351934
742.000000	0.352205
743.000000	0.352406
744.000000	0.352659
745.000000	0.352851
746.000000	0.353032
747.000000	0.353196
748.000000	0.353447
749.000000	0.353664
750.000000	0.353744
751.000000	0.353847
752.000000	0.353981
753.000000	0.354146
754.000000	0.354307
755.000000	0.354505
756.000000	0.354695
757.000000	0.354774
758.000000	0.354867
759.000000	0.354999
760.000000	0.355103
761.000000	0.355263
762.000000	0.355365
763.000000	0.355426
764.000000	0.355620
765.000000	0.355665
766.000000	0.355670
767.000000	0.355764
768.000000	0.355811
769.000000	0.355875
770.000000	0.355968
771.000000	0.356007
772.000000	0.356061
773.000000	0.356070
774.000000	0.356081
775.000000	0.356068
776.000000	0.356069
777.000000	0.356076
778.000000	0.356007
779.000000	0.355942
780.000000	0.355899
781.000000	0.355819
782.000000	0.355774
783.000000	0.355814
784.000000	0.355775
785.000000	0.355759
786.000000	0.355726
787.000000	0.355667
788.000000	0.355696
789.000000	0.355609
790.000000	0.355416
791.000000	0.355297
792.000000	0.355224
793.000000	0.355132
794.000000	0.354999
795.000000	0.354952
796.000000	0.354881
797.000000	0.354745
798.000000	0.354589
799.000000	0.354443
800.000000	0.354341
801.000000	0.354301
802.000000	0.354232
803.000000	0.354148
804.000000	0.354088
805.000000	0.353977
806.000000	0.353838
807.000000	0.353737
808.000000	0.353583
809.000000	0.353361
810.000000	0.353171
811.000000	0.353045
812.000000	0.352823
813.000000	0.352655
814.000000	0.352559
815.000000	0.352460
816.000000	0.352300
817.000000	0.352155
818.000000	0.352001
819.000000	0.351753
820.000000	0.351538
821.000000	0.351362
822.000000	0.351233
823.000000	0.351124
824.000000	0.350935
825.000000	0.350707
826.000000	0.350568
827.000000	0.350402
828.000000	0.350201
829.000000	0.350064
830.000000	0.349904
831.000000	0.349730
832.000000	0.349412
833.000000	0.349075
834.000000	0.348779
835.000000	0.348577
836.000000	0.348364
837.000000	0.348180
838.000000	0.348023
839.000000	0.347815
840.000000	0.347669
841.000000	0.347548
842.000000	0.347357
843.000000	0.347157
844.000000	0.346978
845.000000	0.346782
846.000000	0.346541
847.000000	0.346358
848.000000	0.346226
849.000000	0.346123
850.000000	0.345925
851.000000	0.345685
852.000000	0.345502
853.000000	0.345409
854.000000	0.345228
855.000000	0.345052
856.000000	0.344839
857.000000	0.344561
858.000000	0.344394
859.000000	0.344263
860.000000	0.343921
861.000000	0.343692
862.000000	0.343537
863.000000	0.343228
864.000000	0.343003
865.000000	0.342839
866.000000	0.342678
867.000000	0.342328
868.000000	0.342046
869.000000	0.341808
870.000000	0.341610
871.000000	0.341460
872.000000	0.341315
873.000000	0.341095
874.000000	0.340891
875.000000	0.340699
876.000000	0.340527
877.000000	0.340308
878.000000	0.340083
879.000000	0.339948
880.000000	0.339766
881.000000	0.339489
882.000000	0.339367
883.000000	0.339351
884.000000	0.339198
885.000000	0.338995
886.000000	0.338712
887.000000	0.338383
888.000000	0.338064
889.000000	0.337885
890.000000	0.337691
891.000000	0.337474
892.000000	0.337177
893.000000	0.337031
894.000000	0.337124
895.000000	0.336830
896.000000	0.336517
897.000000	0.336308
898.000000	0.336216
899.000000	0.336063
900.000000	0.335922
901.000000	0.335770
902.000000	0.335570
903.000000	0.335509
904.000000	0.335494
905.000000	0.335295
906.000000	0.335214
907.000000	0.335011
908.000000	0.334725
909.000000	0.334516
910.000000	0.334364
911.000000	0.334238
912.000000	0.334111
913.000000	0.333897
914.000000	0.333660
915.000000	0.333499
916.000000	0.333354
917.000000	0.333245
918.000000	0.333150
919.000000	0.332995
920.000000	0.332667
921.000000	0.332455
922.000000	0.332422
923.000000	0.332456
924.000000	0.332400
925.000000	0.332184
926.000000	0.331898
927.000000	0.331756
928.000000	0.331453
929.000000	0.331166
930.000000	0.331132
931.000000	0.330925
932.000000	0.330695
933.000000	0.330588
934.000000	0.330579
935.000000	0.330431
936.000000	0.330285
937.000000	0.330195
938.000000	0.330144
939.000000	0.330078
940.000000	0.329882
941.000000	0.329620
942.000000	0.329512
943.000000	0.329492
944.000000	0.329334
945.000000	0.329052
946.000000	0.328931
947.000000	0.328953
948.000000	0.328910
949.000000	0.328770
950.000000	0.328509
951.000000	0.328204
952.000000	0.328145
953.000000	0.327980
954.000000	0.327904
955.000000	0.327917
956.000000	0.327559
957.000000	0.327293
958.000000	0.327084
959.000000	0.326872
960.000000	0.326884
961.000000	0.326940
962.000000	0.326898
963.000000	0.326764
964.000000	0.326419
965.000000	0.326152
966.000000	0.326067
967.000000	0.326077
968.000000	0.325868
969.000000	0.325478
970.000000	0.325282
971.000000	0.325386
972.000000	0.325482
973.000000	0.325418
974.000000	0.325482
975.000000	0.325562
976.000000	0.325374
977.000000	0.324895
978.000000	0.324967
979.000000	0.324998
980.000000	0.324714
981.000000	0.324552
982.000000	0.324609
983.000000	0.324662
984.000000	0.324731
985.000000	0.324925
986.000000	0.324834
987.000000	0.324724
988.000000	0.324680
989.000000	0.324553
990.000000	0.324348
991.000000	0.324230
992.000000	0.324403
993.000000	0.324744
994.000000	0.324648
995.000000	0.324362
996.000000	0.324293
997.000000	0.324145
998.000000	0.324208
999.000000	0.324565
1000.000000	0.324633
1001.000000	0.324211
1002.000000	0.324647
1003.000000	0.324549
1004.000000	0.324427
1005.000000	0.324189
1006.000000	0.323869
1007.000000	0.323132
1008.000000	0.323089
1009.000000	0.323566
1010.000000	0.323138
1011.000000	0.323108
1012.000000	0.322743
1013.000000	0.322021
1014.000000	0.322199
1015.000000	0.322313
1016.000000	0.322744
1017.000000	0.323450
1018.000000	0.324118
1019.000000	0.324575
1020.000000	0.325486
1021.000000	0.325283
1022.000000	0.324065
1023.000000	0.323901
1024.000000	0.323286
1025.000000	0.323846
1026.000000	0.324783
1027.000000	0.325760
1028.000000	0.326194
1029.000000	0.325491
1030.000000	0.325236
1031.000000	0.324683
1032.000000	0.324120
1033.000000	0.324705
1034.000000	0.325047
1035.000000	0.325610
1036.000000	0.325938
1037.000000	0.326250
1038.000000	0.326436
1039.000000	0.326661
1040.000000	0.326613
1041.000000	0.326472
1042.000000	0.327197
1043.000000	0.327495
1044.000000	0.327925
1045.000000	0.328512
1046.000000	0.328533
1047.000000	0.328911
1048.000000	0.329282
1049.000000	0.329367
1050.000000	0.329398
1051.000000	0.329628
1052.000000	0.329502
1053.000000	0.329710
1054.000000	0.330869
1055.000000	0.331345
1056.000000	0.331545
1057.000000	0.331619
1058.000000	0.331749
1059.000000	0.331644
1060.000000	0.331797
1061.000000	0.332147
1062.000000	0.332173
1063.000000	0.332667
1064.000000	0.333231
1065.000000	0.334083
1066.000000	0.334472
1067.000000	0.334703
1068.000000	0.335009
1069.000000	0.334962
1070.000000	0.335258
1071.000000	0.336094
1072.000000	0.336593
1073.000000	0.337157
1074.000000	0.337332
1075.000000	0.337543
1076.000000	0.337603
1077.000000	0.337842
1078.000000	0.338309
1079.000000	0.338625
1080.000000	0.339061
1081.000000	0.339494
1082.000000	0.340021
1083.000000	0.340357
1084.000000	0.340780
1085.000000	0.341095
1086.000000	0.340982
1087.000000	0.341230
1088.000000	0.341660
1089.000000	0.341965
1090.000000	0.342410
1091.000000	0.342600
1092.000000	0.342706
1093.000000	0.342891
1094.000000	0.343158
1095.000000	0.343228
1096.000000	0.343915
1097.000000	0.345299
1098.000000	0.345761
1099.000000	0.345991
1100.000000	0.346366
1101.000000	0.346118
1102.000000	0.346238
1103.000000	0.346763
1104.000000	0.347194
1105.000000	0.347631
1106.000000	0.347876
1107.000000	0.347963
1108.000000	0.348209
1109.000000	0.348548
1110.000000	0.348570
1111.000000	0.348832
1112.000000	0.349280
1113.000000	0.349766
1114.000000	0.350218
1115.000000	0.350768
1116.000000	0.351703
1117.000000	0.352149
1118.000000	0.352358
1119.000000	0.352517
1120.000000	0.352226
1121.000000	0.352412
1122.000000	0.353111
1123.000000	0.353576
1124.000000	0.353784
1125.000000	0.354147
1126.000000	0.354083
1127.000000	0.354310
1128.000000	0.354715
1129.000000	0.355635
1130.000000	0.355941
1131.000000	0.356158
1132.000000	0.356285
1133.000000	0.356170
1134.000000	0.356190
1135.000000	0.356131
1136.000000	0.356218
1137.000000	0.356262
1138.000000	0.356399
1139.000000	0.356873
1140.000000	0.357241
1141.000000	0.357533
1142.000000	0.357818
1143.000000	0.358064
1144.000000	0.358331
1145.000000	0.358248
1146.000000	0.358295
1147.000000	0.358487
1148.000000	0.358633
1149.000000	0.358803
1150.000000	0.359169
1151.000000	0.359416
1152.000000	0.359461
1153.000000	0.359646
1154.000000	0.359921
1155.000000	0.360085
1156.000000	0.360118
1157.000000	0.360333
1158.000000	0.360668
1159.000000	0.360803
1160.000000	0.360932
1161.000000	0.361013
1162.000000	0.360992
1163.000000	0.361019
1164.000000	0.361133
1165.000000	0.361244
1166.000000	0.361421
1167.000000	0.361593
1168.000000	0.361746
1169.000000	0.361993
1170.000000	0.362151
1171.000000	0.362256
1172.000000	0.362472
1173.000000	0.362734
1174.000000	0.362910
1175.000000	0.363131
1176.000000	0.363163
1177.000000	0.362984
1178.000000	0.363025
1179.000000	0.363143
1180.000000	0.363161
1181.000000	0.363341
1182.000000	0.363511
1183.000000	0.363547
1184.000000	0.363694
1185.000000	0.363793
1186.000000	0.363917
1187.000000	0.363984
1188.000000	0.364044
1189.000000	0.363999
1190.000000	0.363889
1191.000000	0.363926
1192.000000	0.364009
1193.000000	0.364259
1194.000000	0.364616
1195.000000	0.364873
1196.000000	0.365158
1197.000000	0.365282
1198.000000	0.365195
1199.000000	0.365312
1200.000000	0.365420
1201.000000	0.365539
1202.000000	0.365899
1203.000000	0.366090
1204.000000	0.366030
1205.000000	0.366077
1206.000000	0.366102
1207.000000	0.366170
1208.000000	0.366237
1209.000000	0.366453
1210.000000	0.366548
1211.000000	0.366563
1212.000000	0.366600
1213.000000	0.366634
1214.000000	0.366736
1215.000000	0.366890
1216.000000	0.367005
1217.000000	0.367134
1218.000000	0.367163
1219.000000	0.367133
1220.000000	0.367120
1221.000000	0.367160
1222.000000	0.367244
1223.000000	0.367459
1224.000000	0.367560
1225.000000	0.367396
1226.000000	0.367434
1227.000000	0.367423
1228.000000	0.367393
1229.000000	0.367504
1230.000000	0.367861
1231.000000	0.367885
1232.000000	0.367954
1233.000000	0.368110
1234.000000	0.368079
1235.000000	0.368133
1236.000000	0.368299
1237.000000	0.368378
1238.000000	0.368235
1239.000000	0.368264
1240.000000	0.368418
1241.000000	0.368390
1242.000000	0.368431
1243.000000	0.368576
1244.000000	0.368570
1245.000000	0.368695
1246.000000	0.368839
1247.000000	0.369080
1248.000000	0.369387
1249.000000	0.369451
1250.000000	0.369369
1251.000000	0.369370
1252.000000	0.369352
1253.000000	0.369277
1254.000000	0.369266
1255.000000	0.369319
1256.000000	0.369343
1257.000000	0.369403
1258.000000	0.369493
1259.000000	0.369521
1260.000000	0.369615
1261.000000	0.369663
1262.000000	0.369676
1263.000000	0.369700
1264.000000	0.369796
1265.000000	0.369797
1266.000000	0.369728
1267.000000	0.369721
1268.000000	0.369741
1269.000000	0.369723
1270.000000	0.369813
1271.000000	0.369791
1272.000000	0.369672
1273.000000	0.369695
1274.000000	0.369707
1275.000000	0.369757
1276.000000	0.369984
1277.000000	0.370153
1278.000000	0.370292
1279.000000	0.370249
1280.000000	0.369942
1281.000000	0.369780
1282.000000	0.369514
1283.000000	0.369493
1284.000000	0.369759
1285.000000	0.369816
1286.000000	0.369767
1287.000000	0.369757
1288.000000	0.369810
1289.000000	0.369796
1290.000000	0.369857
1291.000000	0.369871
1292.000000	0.369957
1293.000000	0.369971
1294.000000	0.369906
1295.000000	0.370074
1296.000000	0.370073
1297.000000	0.369976
1298.000000	0.370135
1299.000000	0.370262
1300.000000	0.370285
1301.000000	0.370272
1302.000000	0.370178
1303.000000	0.370073
1304.000000	0.369918
1305.000000	0.369824
1306.000000	0.369733
1307.000000	0.369671
1308.000000	0.369585
1309.000000	0.369504
1310.000000	0.369488
1311.000000	0.369501
1312.000000	0.369455
1313.000000	0.369506
1314.000000	0.369411
1315.000000	0.369209
1316.000000	0.369195
1317.000000	0.369204
1318.000000	0.369023
1319.000000	0.368855
1320.000000	0.368772
1321.000000	0.368624
1322.000000	0.368521
1323.000000	0.368481
1324.000000	0.368394
1325.000000	0.368304
1326.000000	0.368457
1327.000000	0.368504
1328.000000	0.368344
1329.000000	0.368185
1330.000000	0.367895
1331.000000	0.367722
1332.000000	0.367755
1333.000000	0.367613
1334.000000	0.367391
1335.000000	0.367332
1336.000000	0.367249
1337.000000	0.367121
1338.000000	0.367038
1339.000000	0.366949
1340.000000	0.366707
1341.000000	0.366626
1342.000000	0.366602
1343.000000	0.366520
1344.000000	0.366358
1345.000000	0.366132
1346.000000	0.366058
1347.000000	0.365802
1348.000000	0.365532
1349.000000	0.365433
1350.000000	0.365321
1351.000000	0.365143
1352.000000	0.365112
1353.000000	0.364953
1354.000000	0.364783
1355.000000	0.364845
1356.000000	0.364972
1357.000000	0.364839
1358.000000	0.364616
1359.000000	0.364453
1360.000000	0.364279
1361.000000	0.364136
1362.000000	0.363976
1363.000000	0.363799
1364.000000	0.363624
1365.000000	0.363391
1366.000000	0.363182
1367.000000	0.363025
1368.000000	0.362732
1369.000000	0.362560
1370.000000	0.362389
1371.000000	0.362180
1372.000000	0.361984
1373.000000	0.361588
1374.000000	0.361156
1375.000000	0.360878
1376.000000	0.360660
1377.000000	0.360412
1378.000000	0.360151
1379.000000	0.359701
1380.000000	0.359207
1381.000000	0.358651
1382.000000	0.358052
1383.000000	0.357500
1384.000000	0.356688
1385.000000	0.355887
1386.000000	0.355336
1387.000000	0.354864
1388.000000	0.354284
1389.000000	0.353600
1390.000000	0.352828
1391.000000	0.351763
1392.000000	0.350907
1393.000000	0.350029
1394.000000	0.349256
1395.000000	0.348375
1396.000000	0.347533
1397.000000	0.346469
1398.000000	0.345303
1399.000000	0.344125
1400.000000	0.342636
1401.000000	0.341381
1402.000000	0.340252
1403.000000	0.339138
1404.000000	0.338123
1405.000000	0.337103
1406.000000	0.335970
1407.000000	0.334814
1408.000000	0.333555
1409.000000	0.332455
1410.000000	0.331413
1411.000000	0.330259
1412.000000	0.329106
1413.000000	0.328115
1414.000000	0.327206
1415.000000	0.326312
1416.000000	0.325529
1417.000000	0.324774
1418.000000	0.323995
1419.000000	0.323300
1420.000000	0.322642
1421.000000	0.322107
1422.000000	0.321423
1423.000000	0.320711
1424.000000	0.320002
1425.000000	0.319249
1426.000000	0.318443
1427.000000	0.317687
1428.000000	0.316873
1429.000000	0.316000
1430.000000	0.315266
1431.000000	0.314641
1432.000000	0.314030
1433.000000	0.313508
1434.000000	0.313091
1435.000000	0.312772
1436.000000	0.312552
1437.000000	0.312453
1438.000000	0.312396
1439.000000	0.312485
1440.000000	0.312589
1441.000000	0.312821
1442.000000	0.313047
1443.000000	0.313207
1444.000000	0.313425
1445.000000	0.313743
1446.000000	0.313989
1447.000000	0.314326
1448.000000	0.314627
1449.000000	0.314706
1450.000000	0.314850
1451.000000	0.315005
1452.000000	0.314886
1453.000000	0.314777
1454.000000	0.314646
1455.000000	0.314347
1456.000000	0.314235
1457.000000	0.314386
1458.000000	0.314406
1459.000000	0.314299
1460.000000	0.314270
1461.000000	0.314157
1462.000000	0.314025
1463.000000	0.313979
1464.000000	0.313959
1465.000000	0.313895
1466.000000	0.313808
1467.000000	0.313759
1468.000000	0.313718
1469.000000	0.313820
1470.000000	0.313914
1471.000000	0.314053
1472.000000	0.314248
1473.000000	0.314496
1474.000000	0.314654
1475.000000	0.314813
1476.000000	0.315028
1477.000000	0.315222
1478.000000	0.315549
1479.000000	0.315925
1480.000000	0.316320
1481.000000	0.316684
1482.000000	0.317054
1483.000000	0.317482
1484.000000	0.317965
1485.000000	0.318344
1486.000000	0.318692
1487.000000	0.318992
1488.000000	0.319219
1489.000000	0.319603
1490.000000	0.319925
1491.000000	0.320328
1492.000000	0.320803
1493.000000	0.321145
1494.000000	0.321383
1495.000000	0.321657
1496.000000	0.321889
1497.000000	0.322165
1498.000000	0.322490
1499.000000	0.322802
1500.000000	0.323070
1501.000000	0.323375
1502.000000	0.323754
1503.000000	0.324188
1504.000000	0.324654
1505.000000	0.325008
1506.000000	0.325253
1507.000000	0.325488
1508.000000	0.325864
1509.000000	0.326193
1510.000000	0.326459
1511.000000	0.326834
1512.000000	0.327062
1513.000000	0.327324
1514.000000	0.327683
1515.000000	0.327893
1516.000000	0.328118
1517.000000	0.328211
1518.000000	0.328282
1519.000000	0.328361
1520.000000	0.328477
1521.000000	0.328646
1522.000000	0.328803
1523.000000	0.328970
1524.000000	0.328982
1525.000000	0.329061
1526.000000	0.329225
1527.000000	0.329356
1528.000000	0.329540
1529.000000	0.329606
1530.000000	0.329541
1531.000000	0.329572
1532.000000	0.329772
1533.000000	0.329945
1534.000000	0.330056
1535.000000	0.330215
1536.000000	0.330206
1537.000000	0.330315
1538.000000	0.330499
1539.000000	0.330564
1540.000000	0.330683
1541.000000	0.330791
1542.000000	0.330908
1543.000000	0.331027
1544.000000	0.331110
1545.000000	0.331243
1546.000000	0.331313
1547.000000	0.331379
1548.000000	0.331551
1549.000000	0.331651
1550.000000	0.331642
1551.000000	0.331607
1552.000000	0.331566
1553.000000	0.331477
1554.000000	0.331464
1555.000000	0.331642
1556.000000	0.331803
1557.000000	0.331825
1558.000000	0.331868
1559.000000	0.331818
1560.000000	0.331816
1561.000000	0.331846
1562.000000	0.331861
1563.000000	0.331993
1564.000000	0.332003
1565.000000	0.331873
1566.000000	0.331827
1567.000000	0.331897
1568.000000	0.331911
1569.000000	0.332025
1570.000000	0.332097
1571.000000	0.332095
1572.000000	0.332104
1573.000000	0.332207
1574.000000	0.332169
1575.000000	0.332011
1576.000000	0.331967
1577.000000	0.331854
1578.000000	0.331835
1579.000000	0.332028
1580.000000	0.332070
1581.000000	0.332147
1582.000000	0.332187
1583.000000	0.332126
1584.000000	0.332102
1585.000000	0.332199
1586.000000	0.332275
1587.000000	0.332312
1588.000000	0.332401
1589.000000	0.332566
1590.000000	0.332660
1591.000000	0.332817
1592.000000	0.332869
1593.000000	0.332845
1594.000000	0.332816
1595.000000	0.332754
1596.000000	0.332772
1597.000000	0.332878
1598.000000	0.332892
1599.000000	0.332940
1600.000000	0.332895
1601.000000	0.332848
1602.000000	0.332787
1603.000000	0.332682
1604.000000	0.332667
1605.000000	0.332727
1606.000000	0.332700
1607.000000	0.332762
1608.000000	0.332749
1609.000000	0.332662
1610.000000	0.332672
1611.000000	0.332733
1612.000000	0.332821
1613.000000	0.333087
1614.000000	0.333219
1615.000000	0.333451
1616.000000	0.333585
1617.000000	0.333519
1618.000000	0.333547
1619.000000	0.333495
1620.000000	0.333572
1621.000000	0.333781
1622.000000	0.334041
1623.000000	0.334461
1624.000000	0.334571
1625.000000	0.334381
1626.000000	0.334309
1627.000000	0.334054
1628.000000	0.334081
1629.000000	0.334344
1630.000000	0.334502
1631.000000	0.334607
1632.000000	0.334711
1633.000000	0.334809
1634.000000	0.334977
1635.000000	0.335265
1636.000000	0.335434
1637.000000	0.335629
1638.000000	0.335714
1639.000000	0.335711
1640.000000	0.335791
1641.000000	0.335892
1642.000000	0.336053
1643.000000	0.336355
1644.000000	0.336567
1645.000000	0.336773
1646.000000	0.336935
1647.000000	0.337075
1648.000000	0.337178
1649.000000	0.337415
1650.000000	0.337525
1651.000000	0.337543
1652.000000	0.337680
1653.000000	0.337675
1654.000000	0.337913
1655.000000	0.338368
1656.000000	0.338471
1657.000000	0.338631
1658.000000	0.338674
1659.000000	0.338572
1660.000000	0.338577
1661.000000	0.338496
1662.000000	0.338536
1663.000000	0.338559
1664.000000	0.338651
1665.000000	0.338871
1666.000000	0.339116
1667.000000	0.339288
1668.000000	0.339478
1669.000000	0.339689
1670.000000	0.339820
1671.000000	0.340061
1672.000000	0.340178
1673.000000	0.340143
1674.000000	0.340440
1675.000000	0.340658
1676.000000	0.340882
1677.000000	0.341124
1678.000000	0.341088
1679.000000	0.341025
1680.000000	0.341188
1681.000000	0.341376
1682.000000	0.341390
1683.000000	0.341363
1684.000000	0.341315
1685.000000	0.341220
1686.000000	0.341318
1687.000000	0.341550
1688.000000	0.341636
1689.000000	0.341700
1690.000000	0.341659
1691.000000	0.341706
1692.000000	0.341761
1693.000000	0.341837
1694.000000	0.341989
1695.000000	0.342126
1696.000000	0.342196
1697.000000	0.342210
1698.000000	0.342173
1699.000000	0.342236
1700.000000	0.342345
1701.000000	0.342531
1702.000000	0.342638
1703.000000	0.342692
1704.000000	0.342798
1705.000000	0.342902
1706.000000	0.343145
1707.000000	0.343187
1708.000000	0.342955
1709.000000	0.342920
1710.000000	0.343027
1711.000000	0.343035
1712.000000	0.343218
1713.000000	0.343267
1714.000000	0.343104
1715.000000	0.343085
1716.000000	0.343179
1717.000000	0.343214
1718.000000	0.343179
1719.000000	0.343199
1720.000000	0.343265
1721.000000	0.343408
1722.000000	0.343715
1723.000000	0.343827
1724.000000	0.343901
1725.000000	0.344013
1726.000000	0.343925
1727.000000	0.343935
1728.000000	0.343982
1729.000000	0.343955
1730.000000	0.343947
1731.000000	0.344075
1732.000000	0.344378
1733.000000	0.344533
1734.000000	0.344574
1735.000000	0.344582
1736.000000	0.344393
1737.000000	0.344341
1738.000000	0.344357
1739.000000	0.344376
1740.000000	0.344408
1741.000000	0.344382
1742.000000	0.344345
1743.000000	0.344439
1744.000000	0.344532
1745.000000	0.344580
1746.000000	0.344683
1747.000000	0.344787
1748.000000	0.344798
1749.000000	0.344862
1750.000000	0.344871
1751.000000	0.344880
1752.000000	0.345006
1753.000000	0.345100
1754.000000	0.345132
1755.000000	0.345027
1756.000000	0.345016
1757.000000	0.344994
1758.000000	0.345045
1759.000000	0.345253
1760.000000	0.345330
1761.000000	0.345260
1762.000000	0.345293
1763.000000	0.345377
1764.000000	0.345409
1765.000000	0.345451
1766.000000	0.345481
1767.000000	0.345282
1768.000000	0.345255
1769.000000	0.345481
1770.000000	0.345617
1771.000000	0.345785
1772.000000	0.345815
1773.000000	0.345644
1774.000000	0.345594
1775.000000	0.345612
1776.000000	0.345567
1777.000000	0.345517
1778.000000	0.345434
1779.000000	0.345142
1780.000000	0.345289
1781.000000	0.345615
1782.000000	0.345834
1783.000000	0.346378
1784.000000	0.346244
1785.000000	0.346331
1786.000000	0.346536
1787.000000	0.346605
1788.000000	0.346917
1789.000000	0.347024
1790.000000	0.346923
1791.000000	0.346843
1792.000000	0.346666
1793.000000	0.346663
1794.000000	0.346851
1795.000000	0.346990
1796.000000	0.347291
1797.000000	0.347390
1798.000000	0.347178
1799.000000	0.347240
1800.000000	0.347519
1801.000000	0.346941
1802.000000	0.347472
1803.000000	0.347524
1804.000000	0.347412
1805.000000	0.346476
1806.000000	0.346091
1807.000000	0.345519
1808.000000	0.345274
1809.000000	0.345577
1810.000000	0.345236
1811.000000	0.345294
1812.000000	0.345729
1813.000000	0.345882
1814.000000	0.346075
1815.000000	0.346112
1816.000000	0.346037
1817.000000	0.345744
1818.000000	0.345007
1819.000000	0.344882
1820.000000	0.345417
1821.000000	0.345035
1822.000000	0.345282
1823.000000	0.346212
1824.000000	0.346491
1825.000000	0.346531
1826.000000	0.346640
1827.000000	0.346903
1828.000000	0.345982
1829.000000	0.345604
1830.000000	0.345462
1831.000000	0.345441
1832.000000	0.345542
1833.000000	0.345813
1834.000000	0.346478
1835.000000	0.346805
1836.000000	0.347283
1837.000000	0.347300
1838.000000	0.347030
1839.000000	0.346311
1840.000000	0.345083
1841.000000	0.343796
1842.000000	0.343160
1843.000000	0.342682
1844.000000	0.342433
1845.000000	0.342789
1846.000000	0.342833
1847.000000	0.342783
1848.000000	0.342121
1849.000000	0.342409
1850.000000	0.342488
1851.000000	0.342474
1852.000000	0.342914
1853.000000	0.342679
1854.000000	0.341636
1855.000000	0.340945
1856.000000	0.339987
1857.000000	0.338876
1858.000000	0.338876
1859.000000	0.338482
1860.000000	0.338123
1861.000000	0.338234
1862.000000	0.337456
1863.000000	0.335735
1864.000000	0.334832
1865.000000	0.334042
1866.000000	0.333035
1867.000000	0.332183
1868.000000	0.331422
1869.000000	0.329624
1870.000000	0.327770
1871.000000	0.326900
1872.000000	0.325660
1873.000000	0.324334
1874.000000	0.323823
1875.000000	0.322114
1876.000000	0.319257
1877.000000	0.316285
1878.000000	0.313451
1879.000000	0.310645
1880.000000	0.308376
1881.000000	0.306197
1882.000000	0.303651
1883.000000	0.301038
1884.000000	0.297996
1885.000000	0.293670
1886.000000	0.290328
1887.000000	0.287249
1888.000000	0.284009
1889.000000	0.280765
1890.000000	0.277702
1891.000000	0.274001
1892.000000	0.270442
1893.000000	0.267144
1894.000000	0.263761
1895.000000	0.260177
1896.000000	0.256886
1897.000000	0.252775
1898.000000	0.248251
1899.000000	0.244741
1900.000000	0.241538
1901.000000	0.238268
1902.000000	0.235140
1903.000000	0.231638
1904.000000	0.228233
1905.000000	0.225194
1906.000000	0.222128
1907.000000	0.219338
1908.000000	0.216778
1909.000000	0.214197
1910.000000	0.211567
1911.000000	0.209762
1912.000000	0.208696
1913.000000	0.206760
1914.000000	0.205165
1915.000000	0.204232
1916.000000	0.202929
1917.000000	0.201962
1918.000000	0.201978
1919.000000	0.201622
1920.000000	0.200184
1921.000000	0.199020
1922.000000	0.197998
1923.000000	0.197670
1924.000000	0.197627
1925.000000	0.197893
1926.000000	0.198027
1927.000000	0.197866
1928.000000	0.197904
1929.000000	0.198160
1930.000000	0.198167
1931.000000	0.198221
1932.000000	0.198167
1933.000000	0.198384
1934.000000	0.198700
1935.000000	0.198639
1936.000000	0.199198
1937.000000	0.199337
1938.000000	0.199081
1939.000000	0.199076
1940.000000	0.199256
1941.000000	0.199325
1942.000000	0.199475
1943.000000	0.199611
1944.000000	0.199525
1945.000000	0.199284
1946.000000	0.199370
1947.000000	0.199080
1948.000000	0.198794
1949.000000	0.198620
1950.000000	0.198094
1951.000000	0.197841
1952.000000	0.197886
1953.000000	0.197864
1954.000000	0.197965
1955.000000	0.198220
1956.000000	0.198388
1957.000000	0.198753
1958.000000	0.198689
1959.000000	0.198692
1960.000000	0.198520
1961.000000	0.197809
1962.000000	0.197466
1963.000000	0.197374
1964.000000	0.197243
1965.000000	0.197025
1966.000000	0.197616
1967.000000	0.198251
1968.000000	0.198070
1969.000000	0.198049
1970.000000	0.197953
1971.000000	0.197657
1972.000000	0.198197
1973.000000	0.198193
1974.000000	0.197977
1975.000000	0.198080
1976.000000	0.198234
1977.000000	0.198058
1978.000000	0.198629
1979.000000	0.199175
1980.000000	0.199476
1981.000000	0.200276
1982.000000	0.200583
1983.000000	0.200911
1984.000000	0.201471
1985.000000	0.201893
1986.000000	0.202538
1987.000000	0.203570
1988.000000	0.204783
1989.000000	0.205447
1990.000000	0.206324
1991.000000	0.206490
1992.000000	0.206628
1993.000000	0.206919
1994.000000	0.206667
1995.000000	0.206450
1996.000000	0.206478
1997.000000	0.207102
1998.000000	0.208514
1999.000000	0.209552
2000.000000	0.211125
2001.000000	0.212121
2002.000000	0.212414
2003.000000	0.213015
2004.000000	0.214446
2005.000000	0.215937
2006.000000	0.217431
2007.000000	0.218498
2008.000000	0.219590
2009.000000	0.220286
2010.000000	0.221135
2011.000000	0.222156
2012.000000	0.223046
2013.000000	0.223678
2014.000000	0.223863
2015.000000	0.224972
2016.000000	0.225732
2017.000000	0.226603
2018.000000	0.227566
2019.000000	0.228059
2020.000000	0.228706
2021.000000	0.229546
2022.000000	0.230435
2023.000000	0.231421
2024.000000	0.232729
2025.000000	0.233810
2026.000000	0.234818
2027.000000	0.235720
2028.000000	0.235766
2029.000000	0.236282
2030.000000	0.237330
2031.000000	0.238008
2032.000000	0.239033
2033.000000	0.239982
2034.000000	0.240513
2035.000000	0.240073
2036.000000	0.240526
2037.000000	0.241407
2038.000000	0.242382
2039.000000	0.243812
2040.000000	0.245169
2041.000000	0.246272
2042.000000	0.247215
2043.000000	0.247485
2044.000000	0.247795
2045.000000	0.248342
2046.000000	0.248568
2047.000000	0.249215
2048.000000	0.250256
2049.000000	0.251198
2050.000000	0.252165
2051.000000	0.252731
2052.000000	0.252836
2053.000000	0.253175
2054.000000	0.253248
2055.000000	0.254001
2056.000000	0.255415
2057.000000	0.256619
2058.000000	0.258180
2059.000000	0.258968
2060.000000	0.259745
2061.000000	0.260298
2062.000000	0.260947
2063.000000	0.261566
2064.000000	0.262066
2065.000000	0.262806
2066.000000	0.263109
2067.000000	0.263170
2068.000000	0.263448
2069.000000	0.264516
2070.000000	0.264927
2071.000000	0.264960
2072.000000	0.265457
2073.000000	0.265589
2074.000000	0.265418
2075.000000	0.265836
2076.000000	0.267195
2077.000000	0.267669
2078.000000	0.267611
2079.000000	0.268088
2080.000000	0.268513
2081.000000	0.269279
2082.000000	0.270445
2083.000000	0.271966
2084.000000	0.272767
2085.000000	0.273106
2086.000000	0.273604
2087.000000	0.273966
2088.000000	0.274557
2089.000000	0.275679
2090.000000	0.276540
2091.000000	0.277373
2092.000000	0.278101
2093.000000	0.279044
2094.000000	0.279506
2095.000000	0.279568
2096.000000	0.279932
2097.000000	0.280334
2098.000000	0.280029
2099.000000	0.280212
2100.000000	0.281155
2101.000000	0.281387
2102.000000	0.282204
2103.000000	0.283506
2104.000000	0.283702
2105.000000	0.284173
2106.000000	0.284762
2107.000000	0.285200
2108.000000	0.285147
2109.000000	0.285666
2110.000000	0.286314
2111.000000	0.286773
2112.000000	0.287324
2113.000000	0.287730
2114.000000	0.287652
2115.000000	0.288239
2116.000000	0.288420
2117.000000	0.288519
2118.000000	0.289285
2119.000000	0.289925
2120.000000	0.290456
2121.000000	0.291336
2122.000000	0.291644
2123.000000	0.291205
2124.000000	0.291312
2125.000000	0.291689
2126.000000	0.291845
2127.000000	0.292199
2128.000000	0.292381
2129.000000	0.292239
2130.000000	0.291926
2131.000000	0.291481
2132.000000	0.291672
2133.000000	0.292031
2134.000000	0.291979
2135.000000	0.292189
2136.000000	0.292485
2137.000000	0.292624
2138.000000	0.292488
2139.000000	0.292841
2140.000000	0.293517
2141.000000	0.293767
2142.000000	0.294118
2143.000000	0.294042
2144.000000	0.293656
2145.000000	0.293561
2146.000000	0.293052
2147.000000	0.293865
2148.000000	0.294941
2149.000000	0.295432
2150.000000	0.296071
2151.000000	0.296233
2152.000000	0.295947
2153.000000	0.295372
2154.000000	0.294670
2155.000000	0.293534
2156.000000	0.293078
2157.000000	0.292539
2158.000000	0.292537
2159.000000	0.293264
2160.000000	0.294069
2161.000000	0.295804
2162.000000	0.296285
2163.000000	0.296285
2164.000000	0.296137
2165.000000	0.294944
2166.000000	0.293777
2167.000000	0.293653
2168.000000	0.293801
2169.000000	0.293794
2170.000000	0.293581
2171.000000	0.293543
2172.000000	0.293404
2173.000000	0.293287
2174.000000	0.293401
2175.000000	0.293410
2176.000000	0.293289
2177.000000	0.293213
2178.000000	0.293341
2179.000000	0.293324
2180.000000	0.293006
2181.000000	0.292972
2182.000000	0.292555
2183.000000	0.291970
2184.000000	0.292025
2185.000000	0.291424
2186.000000	0.290880
2187.000000	0.291764
2188.000000	0.291576
2189.000000	0.290932
2190.000000	0.290645
2191.000000	0.290575
2192.000000	0.290964
2193.000000	0.292281
2194.000000	0.292935
2195.000000	0.294105
2196.000000	0.294294
2197.000000	0.293638
2198.000000	0.293128
2199.000000	0.291446
2200.000000	0.291193
2201.000000	0.292089
2202.000000	0.291966
2203.000000	0.291745
2204.000000	0.292099
2205.000000	0.290873
2206.000000	0.290686
2207.000000	0.293319
2208.000000	0.294821
2209.000000	0.295462
2210.000000	0.296182
2211.000000	0.292768
2212.000000	0.291505
2213.000000	0.290867
2214.000000	0.289884
2215.000000	0.289473
2216.000000	0.291539
2217.000000	0.290757
2218.000000	0.288487
2219.000000	0.287619
2220.000000	0.285369
2221.000000	0.285682
2222.000000	0.288844
2223.000000	0.289685
2224.000000	0.290922
2225.000000	0.291026
2226.000000	0.290639
2227.000000	0.289047
2228.000000	0.290238
2229.000000	0.293819
2230.000000	0.295095
2231.000000	0.298215
2232.000000	0.297865
2233.000000	0.294969
2234.000000	0.295032
2235.000000	0.292962
2236.000000	0.290911
2237.000000	0.289325
2238.000000	0.287834
2239.000000	0.284026
2240.000000	0.283281
2241.000000	0.285687
2242.000000	0.286753
2243.000000	0.287802
2244.000000	0.289418
2245.000000	0.292317
2246.000000	0.292827
2247.000000	0.291988
2248.000000	0.291738
2249.000000	0.290025
2250.000000	0.288629
2251.000000	0.289862
2252.000000	0.293002
2253.000000	0.296963
2254.000000	0.297645
2255.000000	0.296740
2256.000000	0.295055
2257.000000	0.290119
2258.000000	0.287133
2259.000000	0.284953
2260.000000	0.283046
2261.000000	0.282227
2262.000000	0.283337
2263.000000	0.283371
2264.000000	0.283721
2265.000000	0.283667
2266.000000	0.283722
2267.000000	0.283121
2268.000000	0.281924
2269.000000	0.280404
2270.000000	0.278107
2271.000000	0.276424
2272.000000	0.274282
2273.000000	0.273529
2274.000000	0.273865
2275.000000	0.273875
2276.000000	0.274435
2277.000000	0.274920
2278.000000	0.274863
2279.000000	0.275130
2280.000000	0.274451
2281.000000	0.272425
2282.000000	0.271095
2283.000000	0.268975
2284.000000	0.266116
2285.000000	0.265341
2286.000000	0.266240
2287.000000	0.266769
2288.000000	0.267376
2289.000000	0.267328
2290.000000	0.265721
2291.000000	0.264400
2292.000000	0.264702
2293.000000	0.266540
2294.000000	0.268057
2295.000000	0.270622
2296.000000	0.271692
2297.000000	0.272166
2298.000000	0.272251
2299.000000	0.271517
2300.000000	0.270561
2301.000000	0.268480
2302.000000	0.268072
2303.000000	0.267969
2304.000000	0.268055
2305.000000	0.270792
2306.000000	0.271276
2307.000000	0.270169
2308.000000	0.269335
2309.000000	0.268754
2310.000000	0.266863
2311.000000	0.266397
2312.000000	0.264833
2313.000000	0.262635
2314.000000	0.261187
2315.000000	0.260351
2316.000000	0.260289
2317.000000	0.259582
2318.000000	0.258821
2319.000000	0.257257
2320.000000	0.255941
2321.000000	0.258235
2322.000000	0.258529
2323.000000	0.258420
2324.000000	0.260597
2325.000000	0.257914
2326.000000	0.255979
2327.000000	0.255949
2328.000000	0.254198
2329.000000	0.254589
2330.000000	0.254061
2331.000000	0.251871
2332.000000	0.250271
2333.000000	0.250350
2334.000000	0.251729
2335.000000	0.252012
2336.000000	0.252526
2337.000000	0.253321
2338.000000	0.252753
2339.000000	0.252661
2340.000000	0.254804
2341.000000	0.254116
2342.000000	0.250826
2343.000000	0.248389
2344.000000	0.245715
2345.000000	0.243143
2346.000000	0.239598
2347.000000	0.238776
2348.000000	0.239694
2349.000000	0.239168
2350.000000	0.239645
2351.000000	0.239739
2352.000000	0.237603
2353.000000	0.234503
2354.000000	0.231148
2355.000000	0.228626
2356.000000	0.226868
2357.000000	0.226880
2358.000000	0.227504
2359.000000	0.227705
2360.000000	0.227451
2361.000000	0.226694
2362.000000	0.229473
2363.000000	0.233259
2364.000000	0.234189
2365.000000	0.235046
2366.000000	0.230827
2367.000000	0.225401
2368.000000	0.225306
2369.000000	0.222595
2370.000000	0.221802
2371.000000	0.222328
2372.000000	0.219774
2373.000000	0.221757
2374.000000	0.221677
2375.000000	0.219075
2376.000000	0.222198
2377.000000	0.221916
2378.000000	0.222300
2379.000000	0.223954
2380.000000	0.217182
2381.000000	0.211355
2382.000000	0.202507
2383.000000	0.198563
2384.000000	0.203712
2385.000000	0.203422
2386.000000	0.205676
2387.000000	0.205617
2388.000000	0.199058
2389.000000	0.192717
2390.000000	0.192298
2391.000000	0.195826
2392.000000	0.192802
2393.000000	0.194905
2394.000000	0.201871
2395.000000	0.202120
2396.000000	0.203435
2397.000000	0.205423
2398.000000	0.198371
2399.000000	0.192343
2400.000000	0.192946
2401.000000	0.196285
2402.000000	0.202163
2403.000000	0.199405
2404.000000	0.194265
2405.000000	0.187969
2406.000000	0.175568
2407.000000	0.169111
2408.000000	0.168267
2409.000000	0.166935
2410.000000	0.170211
2411.000000	0.177961
2412.000000	0.180510
2413.000000	0.180194
2414.000000	0.180190
2415.000000	0.181850
2416.000000	0.182423
2417.000000	0.190087
2418.000000	0.196920
2419.000000	0.194473
2420.000000	0.198536
2421.000000	0.192523
2422.000000	0.192339
2423.000000	0.192186
2424.000000	0.174030
2425.000000	0.165848
2426.000000	0.154277
2427.000000	0.151194
2428.000000	0.165864
2429.000000	0.176107
2430.000000	0.189013
2431.000000	0.189919
2432.000000	0.181963
2433.000000	0.181682
2434.000000	0.175839
2435.000000	0.177368
2436.000000	0.179529
2437.000000	0.179667
2438.000000	0.184650
2439.000000	0.176222
2440.000000	0.175313
2441.000000	0.177314
2442.000000	0.174506
2443.000000	0.179448
2444.000000	0.175597
2445.000000	0.168792
2446.000000	0.157674
2447.000000	0.150803
2448.000000	0.165041
2449.000000	0.172554
2450.000000	0.179061
2451.000000	0.181729
2452.000000	0.159732
2453.000000	0.147588
2454.000000	0.149404
2455.000000	0.157822
2456.000000	0.163678
2457.000000	0.165457
2458.000000	0.172883
2459.000000	0.166039
2460.000000	0.176439
2461.000000	0.188009
2462.000000	0.166887
2463.000000	0.154839
2464.000000	0.140975
2465.000000	0.123444
2466.000000	0.127479
2467.000000	0.131173
2468.000000	0.135045
2469.000000	0.152690
2470.000000	0.155781
2471.000000	0.139891
2472.000000	0.131973
2473.000000	0.118287
2474.000000	0.105491
2475.000000	0.112914
2476.000000	0.118942
2477.000000	0.129559
2478.000000	0.141602
2479.000000	0.178875
2480.000000	0.212935
2481.000000	0.212791
2482.000000	0.230070
2483.000000	0.226168
2484.000000	0.207220
2485.000000	0.192975
2486.000000	0.165707
2487.000000	0.139904
2488.000000	0.117030
2489.000000	0.120129
2490.000000	0.108412
2491.000000	0.075785
2492.000000	0.072935
2493.000000	0.077482
2494.000000	0.115897
2495.000000	0.244330
2496.000000	0.284472
2497.000000	0.265576
2498.000000	0.242196
2499.000000	0.151846
2500.000000	0.110375
