# Wavelength	Nau-2_60_FV7_40_00002.asd.rts.txt
350.000000	0.109821
351.000000	0.114226
352.000000	0.102813
353.000000	0.102840
354.000000	0.119781
355.000000	0.117301
356.000000	0.106757
357.000000	0.095780
358.000000	0.089862
359.000000	0.093018
360.000000	0.101153
361.000000	0.107377
362.000000	0.099217
363.000000	0.097725
364.000000	0.110654
365.000000	0.108927
366.000000	0.104826
367.000000	0.103398
368.000000	0.104756
369.000000	0.107562
370.000000	0.107776
371.000000	0.102344
372.000000	0.101355
373.000000	0.102342
374.000000	0.102583
375.000000	0.101883
376.000000	0.098586
377.000000	0.095841
378.000000	0.102352
379.000000	0.101685
380.000000	0.098228
381.000000	0.101918
382.000000	0.104647
383.000000	0.105138
384.000000	0.104298
385.000000	0.106109
386.000000	0.108940
387.000000	0.111184
388.000000	0.110909
389.000000	0.109671
390.000000	0.108994
391.000000	0.110051
392.000000	0.111316
393.000000	0.111245
394.000000	0.109421
395.000000	0.108537
396.000000	0.107685
397.000000	0.107296
398.000000	0.110422
399.000000	0.110034
400.000000	0.107892
401.000000	0.109132
402.000000	0.108974
403.000000	0.108509
404.000000	0.109203
405.000000	0.109598
406.000000	0.109637
407.000000	0.109623
408.000000	0.110337
409.000000	0.111075
410.000000	0.111774
411.000000	0.112683
412.000000	0.112846
413.000000	0.112682
414.000000	0.112819
415.000000	0.113024
416.000000	0.112924
417.000000	0.112717
418.000000	0.114096
419.000000	0.114638
420.000000	0.114252
421.000000	0.114777
422.000000	0.115138
423.000000	0.115388
424.000000	0.115840
425.000000	0.115696
426.000000	0.115746
427.000000	0.116396
428.000000	0.116288
429.000000	0.116436
430.000000	0.117032
431.000000	0.117179
432.000000	0.117267
433.000000	0.117478
434.000000	0.117960
435.000000	0.118042
436.000000	0.118313
437.000000	0.119193
438.000000	0.119196
439.000000	0.119210
440.000000	0.119676
441.000000	0.119831
442.000000	0.120135
443.000000	0.120438
444.000000	0.120251
445.000000	0.120565
446.000000	0.121151
447.000000	0.121445
448.000000	0.121974
449.000000	0.122549
450.000000	0.123007
451.000000	0.123415
452.000000	0.123934
453.000000	0.124509
454.000000	0.124941
455.000000	0.125289
456.000000	0.125425
457.000000	0.125150
458.000000	0.125662
459.000000	0.126329
460.000000	0.126500
461.000000	0.126726
462.000000	0.126972
463.000000	0.127263
464.000000	0.128162
465.000000	0.128530
466.000000	0.128400
467.000000	0.128626
468.000000	0.128941
469.000000	0.129295
470.000000	0.129723
471.000000	0.129904
472.000000	0.130245
473.000000	0.130892
474.000000	0.131091
475.000000	0.131149
476.000000	0.131362
477.000000	0.131919
478.000000	0.132061
479.000000	0.132043
480.000000	0.132344
481.000000	0.132810
482.000000	0.133396
483.000000	0.133908
484.000000	0.134154
485.000000	0.134225
486.000000	0.134324
487.000000	0.134547
488.000000	0.134848
489.000000	0.135193
490.000000	0.135534
491.000000	0.135782
492.000000	0.135909
493.000000	0.135868
494.000000	0.135851
495.000000	0.135928
496.000000	0.136108
497.000000	0.136426
498.000000	0.136594
499.000000	0.136598
500.000000	0.136639
501.000000	0.136802
502.000000	0.137017
503.000000	0.137103
504.000000	0.137297
505.000000	0.137485
506.000000	0.137567
507.000000	0.137795
508.000000	0.138134
509.000000	0.138499
510.000000	0.138821
511.000000	0.139087
512.000000	0.139354
513.000000	0.139720
514.000000	0.140096
515.000000	0.140481
516.000000	0.140859
517.000000	0.141207
518.000000	0.141649
519.000000	0.142186
520.000000	0.142578
521.000000	0.142934
522.000000	0.143353
523.000000	0.143948
524.000000	0.144476
525.000000	0.145000
526.000000	0.145774
527.000000	0.146641
528.000000	0.147540
529.000000	0.148465
530.000000	0.149423
531.000000	0.150441
532.000000	0.151516
533.000000	0.152769
534.000000	0.154015
535.000000	0.155195
536.000000	0.156388
537.000000	0.157503
538.000000	0.158593
539.000000	0.159746
540.000000	0.160793
541.000000	0.161776
542.000000	0.162776
543.000000	0.163782
544.000000	0.164690
545.000000	0.165488
546.000000	0.166494
547.000000	0.167543
548.000000	0.168587
549.000000	0.169578
550.000000	0.170679
551.000000	0.171921
552.000000	0.173242
553.000000	0.174456
554.000000	0.175807
555.000000	0.177435
556.000000	0.179042
557.000000	0.180590
558.000000	0.182157
559.000000	0.183738
560.000000	0.185368
561.000000	0.187079
562.000000	0.188790
563.000000	0.190322
564.000000	0.191769
565.000000	0.193195
566.000000	0.194662
567.000000	0.196101
568.000000	0.197435
569.000000	0.198631
570.000000	0.199691
571.000000	0.200624
572.000000	0.201475
573.000000	0.202239
574.000000	0.202902
575.000000	0.203487
576.000000	0.204078
577.000000	0.204542
578.000000	0.204847
579.000000	0.205213
580.000000	0.205480
581.000000	0.205620
582.000000	0.205846
583.000000	0.205912
584.000000	0.205897
585.000000	0.206063
586.000000	0.206064
587.000000	0.205924
588.000000	0.205752
589.000000	0.205588
590.000000	0.205376
591.000000	0.205093
592.000000	0.204824
593.000000	0.204493
594.000000	0.204089
595.000000	0.203668
596.000000	0.203240
597.000000	0.202798
598.000000	0.202260
599.000000	0.201664
600.000000	0.201110
601.000000	0.200610
602.000000	0.200104
603.000000	0.199599
604.000000	0.199098
605.000000	0.198569
606.000000	0.198018
607.000000	0.197448
608.000000	0.196857
609.000000	0.196337
610.000000	0.195840
611.000000	0.195303
612.000000	0.194841
613.000000	0.194355
614.000000	0.193826
615.000000	0.193391
616.000000	0.192936
617.000000	0.192451
618.000000	0.192099
619.000000	0.191640
620.000000	0.191139
621.000000	0.190804
622.000000	0.190404
623.000000	0.189994
624.000000	0.189652
625.000000	0.189382
626.000000	0.189046
627.000000	0.188635
628.000000	0.188339
629.000000	0.188095
630.000000	0.187829
631.000000	0.187629
632.000000	0.187448
633.000000	0.187262
634.000000	0.187056
635.000000	0.186885
636.000000	0.186739
637.000000	0.186607
638.000000	0.186527
639.000000	0.186453
640.000000	0.186422
641.000000	0.186436
642.000000	0.186442
643.000000	0.186430
644.000000	0.186413
645.000000	0.186443
646.000000	0.186536
647.000000	0.186668
648.000000	0.186782
649.000000	0.186912
650.000000	0.187066
651.000000	0.187276
652.000000	0.187433
653.000000	0.187629
654.000000	0.187979
655.000000	0.188305
656.000000	0.188629
657.000000	0.188968
658.000000	0.189355
659.000000	0.189710
660.000000	0.190038
661.000000	0.190549
662.000000	0.191043
663.000000	0.191514
664.000000	0.191994
665.000000	0.192515
666.000000	0.193085
667.000000	0.193682
668.000000	0.194305
669.000000	0.194924
670.000000	0.195557
671.000000	0.196332
672.000000	0.197106
673.000000	0.197853
674.000000	0.198659
675.000000	0.199504
676.000000	0.200373
677.000000	0.201261
678.000000	0.202198
679.000000	0.203166
680.000000	0.204147
681.000000	0.205122
682.000000	0.206158
683.000000	0.207231
684.000000	0.208374
685.000000	0.209538
686.000000	0.210731
687.000000	0.211940
688.000000	0.213139
689.000000	0.214368
690.000000	0.215670
691.000000	0.216951
692.000000	0.218289
693.000000	0.219709
694.000000	0.221034
695.000000	0.222408
696.000000	0.223862
697.000000	0.225375
698.000000	0.226886
699.000000	0.228433
700.000000	0.230043
701.000000	0.231612
702.000000	0.233207
703.000000	0.234830
704.000000	0.236436
705.000000	0.238055
706.000000	0.239719
707.000000	0.241529
708.000000	0.243298
709.000000	0.245066
710.000000	0.246899
711.000000	0.248737
712.000000	0.250645
713.000000	0.252606
714.000000	0.254417
715.000000	0.256261
716.000000	0.258181
717.000000	0.260136
718.000000	0.262032
719.000000	0.263876
720.000000	0.265723
721.000000	0.267674
722.000000	0.269586
723.000000	0.271458
724.000000	0.273328
725.000000	0.275183
726.000000	0.277067
727.000000	0.278902
728.000000	0.280778
729.000000	0.282642
730.000000	0.284416
731.000000	0.286264
732.000000	0.288074
733.000000	0.289843
734.000000	0.291598
735.000000	0.293287
736.000000	0.295004
737.000000	0.296656
738.000000	0.298321
739.000000	0.300044
740.000000	0.301666
741.000000	0.303217
742.000000	0.304774
743.000000	0.306312
744.000000	0.307774
745.000000	0.309233
746.000000	0.310687
747.000000	0.312023
748.000000	0.313384
749.000000	0.314698
750.000000	0.315900
751.000000	0.317142
752.000000	0.318323
753.000000	0.319471
754.000000	0.320696
755.000000	0.321907
756.000000	0.323076
757.000000	0.324147
758.000000	0.325171
759.000000	0.326165
760.000000	0.327092
761.000000	0.328117
762.000000	0.329022
763.000000	0.329797
764.000000	0.330638
765.000000	0.331422
766.000000	0.332185
767.000000	0.332959
768.000000	0.333638
769.000000	0.334279
770.000000	0.334904
771.000000	0.335463
772.000000	0.336007
773.000000	0.336529
774.000000	0.337139
775.000000	0.337724
776.000000	0.338244
777.000000	0.338681
778.000000	0.339119
779.000000	0.339586
780.000000	0.340052
781.000000	0.340411
782.000000	0.340691
783.000000	0.341012
784.000000	0.341314
785.000000	0.341681
786.000000	0.342044
787.000000	0.342353
788.000000	0.342626
789.000000	0.342865
790.000000	0.343057
791.000000	0.343232
792.000000	0.343368
793.000000	0.343486
794.000000	0.343603
795.000000	0.343672
796.000000	0.343718
797.000000	0.343766
798.000000	0.343855
799.000000	0.343974
800.000000	0.344139
801.000000	0.344354
802.000000	0.344490
803.000000	0.344571
804.000000	0.344628
805.000000	0.344537
806.000000	0.344417
807.000000	0.344366
808.000000	0.344306
809.000000	0.344289
810.000000	0.344355
811.000000	0.344478
812.000000	0.344539
813.000000	0.344500
814.000000	0.344395
815.000000	0.344341
816.000000	0.344247
817.000000	0.344173
818.000000	0.344101
819.000000	0.344116
820.000000	0.344088
821.000000	0.343923
822.000000	0.343748
823.000000	0.343641
824.000000	0.343518
825.000000	0.343385
826.000000	0.343347
827.000000	0.343239
828.000000	0.343060
829.000000	0.343049
830.000000	0.342927
831.000000	0.342770
832.000000	0.342645
833.000000	0.342413
834.000000	0.342135
835.000000	0.341913
836.000000	0.341709
837.000000	0.341523
838.000000	0.341387
839.000000	0.341306
840.000000	0.341139
841.000000	0.340983
842.000000	0.340894
843.000000	0.340798
844.000000	0.340615
845.000000	0.340330
846.000000	0.340080
847.000000	0.339832
848.000000	0.339569
849.000000	0.339330
850.000000	0.339188
851.000000	0.339057
852.000000	0.338922
853.000000	0.338754
854.000000	0.338538
855.000000	0.338340
856.000000	0.338061
857.000000	0.337837
858.000000	0.337660
859.000000	0.337430
860.000000	0.337198
861.000000	0.336863
862.000000	0.336585
863.000000	0.336481
864.000000	0.336319
865.000000	0.336102
866.000000	0.335859
867.000000	0.335534
868.000000	0.335177
869.000000	0.334818
870.000000	0.334587
871.000000	0.334327
872.000000	0.333992
873.000000	0.333535
874.000000	0.333091
875.000000	0.332797
876.000000	0.332621
877.000000	0.332368
878.000000	0.332016
879.000000	0.331726
880.000000	0.331421
881.000000	0.331051
882.000000	0.330773
883.000000	0.330559
884.000000	0.330255
885.000000	0.330093
886.000000	0.329892
887.000000	0.329613
888.000000	0.329462
889.000000	0.329267
890.000000	0.328973
891.000000	0.328781
892.000000	0.328425
893.000000	0.327979
894.000000	0.327667
895.000000	0.327473
896.000000	0.327151
897.000000	0.326837
898.000000	0.326709
899.000000	0.326283
900.000000	0.325884
901.000000	0.325622
902.000000	0.325383
903.000000	0.325116
904.000000	0.324912
905.000000	0.324741
906.000000	0.324490
907.000000	0.324255
908.000000	0.324058
909.000000	0.323660
910.000000	0.323346
911.000000	0.322979
912.000000	0.322476
913.000000	0.322201
914.000000	0.321935
915.000000	0.321604
916.000000	0.321100
917.000000	0.320805
918.000000	0.320640
919.000000	0.320435
920.000000	0.320103
921.000000	0.319861
922.000000	0.319674
923.000000	0.319362
924.000000	0.319036
925.000000	0.318722
926.000000	0.318450
927.000000	0.318145
928.000000	0.317861
929.000000	0.317568
930.000000	0.317234
931.000000	0.316919
932.000000	0.316595
933.000000	0.316280
934.000000	0.315939
935.000000	0.315634
936.000000	0.315371
937.000000	0.315042
938.000000	0.314700
939.000000	0.314525
940.000000	0.314390
941.000000	0.314165
942.000000	0.313909
943.000000	0.313710
944.000000	0.313510
945.000000	0.313443
946.000000	0.313372
947.000000	0.313211
948.000000	0.312868
949.000000	0.312564
950.000000	0.312299
951.000000	0.311995
952.000000	0.311650
953.000000	0.311556
954.000000	0.311341
955.000000	0.310735
956.000000	0.310343
957.000000	0.310016
958.000000	0.309736
959.000000	0.309634
960.000000	0.309569
961.000000	0.309420
962.000000	0.309181
963.000000	0.309030
964.000000	0.308721
965.000000	0.308425
966.000000	0.308177
967.000000	0.307892
968.000000	0.307678
969.000000	0.307383
970.000000	0.306958
971.000000	0.306949
972.000000	0.307109
973.000000	0.307049
974.000000	0.306527
975.000000	0.306154
976.000000	0.305997
977.000000	0.305934
978.000000	0.305764
979.000000	0.305641
980.000000	0.305489
981.000000	0.305579
982.000000	0.305515
983.000000	0.305012
984.000000	0.304450
985.000000	0.304640
986.000000	0.304476
987.000000	0.304254
988.000000	0.304161
989.000000	0.303926
990.000000	0.303982
991.000000	0.304068
992.000000	0.303904
993.000000	0.304155
994.000000	0.303867
995.000000	0.303402
996.000000	0.303608
997.000000	0.303801
998.000000	0.303887
999.000000	0.303896
1000.000000	0.303682
1001.000000	0.303433
1002.000000	0.303639
1003.000000	0.304393
1004.000000	0.304666
1005.000000	0.304440
1006.000000	0.304239
1007.000000	0.304186
1008.000000	0.303641
1009.000000	0.302958
1010.000000	0.302631
1011.000000	0.302913
1012.000000	0.302790
1013.000000	0.301785
1014.000000	0.301051
1015.000000	0.300526
1016.000000	0.300777
1017.000000	0.301604
1018.000000	0.302033
1019.000000	0.302358
1020.000000	0.302372
1021.000000	0.302052
1022.000000	0.301616
1023.000000	0.301795
1024.000000	0.301754
1025.000000	0.302108
1026.000000	0.302555
1027.000000	0.303038
1028.000000	0.303848
1029.000000	0.303878
1030.000000	0.303477
1031.000000	0.303423
1032.000000	0.303021
1033.000000	0.302649
1034.000000	0.302616
1035.000000	0.303217
1036.000000	0.303360
1037.000000	0.303422
1038.000000	0.303536
1039.000000	0.303745
1040.000000	0.303907
1041.000000	0.303957
1042.000000	0.303991
1043.000000	0.304428
1044.000000	0.305070
1045.000000	0.305735
1046.000000	0.305730
1047.000000	0.305572
1048.000000	0.304572
1049.000000	0.304500
1050.000000	0.304671
1051.000000	0.304861
1052.000000	0.305331
1053.000000	0.305632
1054.000000	0.306230
1055.000000	0.306537
1056.000000	0.306748
1057.000000	0.306974
1058.000000	0.307298
1059.000000	0.307064
1060.000000	0.307116
1061.000000	0.307538
1062.000000	0.307550
1063.000000	0.307842
1064.000000	0.308020
1065.000000	0.308219
1066.000000	0.308367
1067.000000	0.308364
1068.000000	0.308448
1069.000000	0.308402
1070.000000	0.308604
1071.000000	0.309172
1072.000000	0.309465
1073.000000	0.309867
1074.000000	0.310135
1075.000000	0.310425
1076.000000	0.310643
1077.000000	0.310244
1078.000000	0.310441
1079.000000	0.310787
1080.000000	0.311163
1081.000000	0.311395
1082.000000	0.312287
1083.000000	0.312569
1084.000000	0.311989
1085.000000	0.312287
1086.000000	0.313034
1087.000000	0.313491
1088.000000	0.314212
1089.000000	0.314652
1090.000000	0.314823
1091.000000	0.314903
1092.000000	0.314629
1093.000000	0.314558
1094.000000	0.314476
1095.000000	0.313909
1096.000000	0.314223
1097.000000	0.315190
1098.000000	0.315715
1099.000000	0.316507
1100.000000	0.316977
1101.000000	0.317026
1102.000000	0.317207
1103.000000	0.317514
1104.000000	0.317583
1105.000000	0.317144
1106.000000	0.317265
1107.000000	0.317591
1108.000000	0.317748
1109.000000	0.318038
1110.000000	0.318696
1111.000000	0.319045
1112.000000	0.319198
1113.000000	0.319348
1114.000000	0.319541
1115.000000	0.319647
1116.000000	0.319386
1117.000000	0.319618
1118.000000	0.320211
1119.000000	0.320494
1120.000000	0.320832
1121.000000	0.321158
1122.000000	0.321508
1123.000000	0.321864
1124.000000	0.321958
1125.000000	0.322227
1126.000000	0.322461
1127.000000	0.322537
1128.000000	0.322586
1129.000000	0.322790
1130.000000	0.322863
1131.000000	0.322674
1132.000000	0.322729
1133.000000	0.322947
1134.000000	0.323201
1135.000000	0.323585
1136.000000	0.323720
1137.000000	0.323895
1138.000000	0.323832
1139.000000	0.323329
1140.000000	0.323378
1141.000000	0.323637
1142.000000	0.323781
1143.000000	0.324058
1144.000000	0.324417
1145.000000	0.324523
1146.000000	0.324603
1147.000000	0.324714
1148.000000	0.324792
1149.000000	0.324961
1150.000000	0.325112
1151.000000	0.325340
1152.000000	0.325705
1153.000000	0.325924
1154.000000	0.326010
1155.000000	0.326147
1156.000000	0.326348
1157.000000	0.326408
1158.000000	0.326303
1159.000000	0.326302
1160.000000	0.326133
1161.000000	0.326154
1162.000000	0.326346
1163.000000	0.326855
1164.000000	0.327050
1165.000000	0.327054
1166.000000	0.327168
1167.000000	0.327082
1168.000000	0.327089
1169.000000	0.327266
1170.000000	0.327379
1171.000000	0.327472
1172.000000	0.327574
1173.000000	0.327623
1174.000000	0.327716
1175.000000	0.327815
1176.000000	0.327831
1177.000000	0.327897
1178.000000	0.328021
1179.000000	0.328135
1180.000000	0.328158
1181.000000	0.328296
1182.000000	0.328389
1183.000000	0.328481
1184.000000	0.328588
1185.000000	0.328710
1186.000000	0.328919
1187.000000	0.329038
1188.000000	0.329081
1189.000000	0.329176
1190.000000	0.329341
1191.000000	0.329481
1192.000000	0.329712
1193.000000	0.330016
1194.000000	0.330273
1195.000000	0.330453
1196.000000	0.330556
1197.000000	0.330680
1198.000000	0.330732
1199.000000	0.330851
1200.000000	0.331032
1201.000000	0.331243
1202.000000	0.331220
1203.000000	0.331196
1204.000000	0.331235
1205.000000	0.331244
1206.000000	0.331264
1207.000000	0.331498
1208.000000	0.331580
1209.000000	0.331613
1210.000000	0.331685
1211.000000	0.331798
1212.000000	0.331854
1213.000000	0.331849
1214.000000	0.332002
1215.000000	0.332279
1216.000000	0.332392
1217.000000	0.332449
1218.000000	0.332551
1219.000000	0.332627
1220.000000	0.332649
1221.000000	0.332803
1222.000000	0.332991
1223.000000	0.333051
1224.000000	0.333152
1225.000000	0.333247
1226.000000	0.333316
1227.000000	0.333462
1228.000000	0.333616
1229.000000	0.333631
1230.000000	0.333542
1231.000000	0.333559
1232.000000	0.333649
1233.000000	0.333790
1234.000000	0.334082
1235.000000	0.334202
1236.000000	0.334037
1237.000000	0.334110
1238.000000	0.334301
1239.000000	0.334326
1240.000000	0.334289
1241.000000	0.334321
1242.000000	0.334372
1243.000000	0.334423
1244.000000	0.334621
1245.000000	0.334749
1246.000000	0.334751
1247.000000	0.334813
1248.000000	0.334873
1249.000000	0.335150
1250.000000	0.335411
1251.000000	0.335531
1252.000000	0.335632
1253.000000	0.335715
1254.000000	0.335809
1255.000000	0.335863
1256.000000	0.335902
1257.000000	0.336016
1258.000000	0.336074
1259.000000	0.335940
1260.000000	0.335989
1261.000000	0.336024
1262.000000	0.336069
1263.000000	0.336237
1264.000000	0.336286
1265.000000	0.336345
1266.000000	0.336438
1267.000000	0.336501
1268.000000	0.336616
1269.000000	0.336542
1270.000000	0.336570
1271.000000	0.336749
1272.000000	0.336808
1273.000000	0.336905
1274.000000	0.337078
1275.000000	0.337171
1276.000000	0.337164
1277.000000	0.337306
1278.000000	0.337419
1279.000000	0.337495
1280.000000	0.337527
1281.000000	0.337498
1282.000000	0.337474
1283.000000	0.337563
1284.000000	0.337562
1285.000000	0.337655
1286.000000	0.337825
1287.000000	0.337952
1288.000000	0.338146
1289.000000	0.338175
1290.000000	0.338078
1291.000000	0.338101
1292.000000	0.338227
1293.000000	0.338298
1294.000000	0.338248
1295.000000	0.338300
1296.000000	0.338343
1297.000000	0.338278
1298.000000	0.338510
1299.000000	0.338749
1300.000000	0.338829
1301.000000	0.339017
1302.000000	0.339054
1303.000000	0.339097
1304.000000	0.339084
1305.000000	0.339112
1306.000000	0.339053
1307.000000	0.338901
1308.000000	0.338958
1309.000000	0.339098
1310.000000	0.339211
1311.000000	0.339517
1312.000000	0.339615
1313.000000	0.339574
1314.000000	0.339560
1315.000000	0.339467
1316.000000	0.339480
1317.000000	0.339513
1318.000000	0.339529
1319.000000	0.339557
1320.000000	0.339626
1321.000000	0.339654
1322.000000	0.339535
1323.000000	0.339465
1324.000000	0.339548
1325.000000	0.339521
1326.000000	0.339676
1327.000000	0.339950
1328.000000	0.339943
1329.000000	0.339962
1330.000000	0.340093
1331.000000	0.340113
1332.000000	0.340074
1333.000000	0.340057
1334.000000	0.340117
1335.000000	0.340028
1336.000000	0.339721
1337.000000	0.339631
1338.000000	0.339500
1339.000000	0.339461
1340.000000	0.339667
1341.000000	0.339874
1342.000000	0.339810
1343.000000	0.339680
1344.000000	0.339541
1345.000000	0.339320
1346.000000	0.339313
1347.000000	0.339306
1348.000000	0.339347
1349.000000	0.339373
1350.000000	0.339296
1351.000000	0.339271
1352.000000	0.339186
1353.000000	0.339072
1354.000000	0.339184
1355.000000	0.339369
1356.000000	0.339567
1357.000000	0.339627
1358.000000	0.339634
1359.000000	0.339568
1360.000000	0.339542
1361.000000	0.339581
1362.000000	0.339540
1363.000000	0.339468
1364.000000	0.339420
1365.000000	0.339229
1366.000000	0.339195
1367.000000	0.339285
1368.000000	0.339246
1369.000000	0.339269
1370.000000	0.339220
1371.000000	0.339010
1372.000000	0.338842
1373.000000	0.338609
1374.000000	0.338374
1375.000000	0.338224
1376.000000	0.338085
1377.000000	0.338098
1378.000000	0.338101
1379.000000	0.337795
1380.000000	0.337448
1381.000000	0.337010
1382.000000	0.336453
1383.000000	0.335946
1384.000000	0.335261
1385.000000	0.334572
1386.000000	0.334018
1387.000000	0.333255
1388.000000	0.332402
1389.000000	0.331579
1390.000000	0.330509
1391.000000	0.329401
1392.000000	0.328547
1393.000000	0.327523
1394.000000	0.326430
1395.000000	0.325305
1396.000000	0.324228
1397.000000	0.322879
1398.000000	0.321179
1399.000000	0.319795
1400.000000	0.318342
1401.000000	0.317027
1402.000000	0.315940
1403.000000	0.314898
1404.000000	0.313868
1405.000000	0.312784
1406.000000	0.311680
1407.000000	0.310767
1408.000000	0.309768
1409.000000	0.308926
1410.000000	0.308414
1411.000000	0.307926
1412.000000	0.307594
1413.000000	0.307449
1414.000000	0.307226
1415.000000	0.307005
1416.000000	0.306855
1417.000000	0.306797
1418.000000	0.306832
1419.000000	0.306963
1420.000000	0.306971
1421.000000	0.307041
1422.000000	0.307185
1423.000000	0.307357
1424.000000	0.307603
1425.000000	0.307790
1426.000000	0.307799
1427.000000	0.307913
1428.000000	0.307959
1429.000000	0.308001
1430.000000	0.308164
1431.000000	0.308260
1432.000000	0.308359
1433.000000	0.308501
1434.000000	0.308689
1435.000000	0.308994
1436.000000	0.309221
1437.000000	0.309414
1438.000000	0.309638
1439.000000	0.309834
1440.000000	0.310147
1441.000000	0.310548
1442.000000	0.311087
1443.000000	0.311662
1444.000000	0.312288
1445.000000	0.313013
1446.000000	0.313804
1447.000000	0.314636
1448.000000	0.315394
1449.000000	0.316154
1450.000000	0.316916
1451.000000	0.317615
1452.000000	0.318312
1453.000000	0.318979
1454.000000	0.319598
1455.000000	0.320129
1456.000000	0.320658
1457.000000	0.321175
1458.000000	0.321619
1459.000000	0.322122
1460.000000	0.322447
1461.000000	0.322635
1462.000000	0.322965
1463.000000	0.323179
1464.000000	0.323375
1465.000000	0.323740
1466.000000	0.324018
1467.000000	0.324394
1468.000000	0.325010
1469.000000	0.325590
1470.000000	0.325863
1471.000000	0.326118
1472.000000	0.326460
1473.000000	0.326893
1474.000000	0.327445
1475.000000	0.328060
1476.000000	0.328424
1477.000000	0.328677
1478.000000	0.329065
1479.000000	0.329364
1480.000000	0.329727
1481.000000	0.330050
1482.000000	0.330438
1483.000000	0.330712
1484.000000	0.330919
1485.000000	0.331114
1486.000000	0.331210
1487.000000	0.331441
1488.000000	0.331751
1489.000000	0.332068
1490.000000	0.332327
1491.000000	0.332554
1492.000000	0.332715
1493.000000	0.332888
1494.000000	0.333031
1495.000000	0.333170
1496.000000	0.333277
1497.000000	0.333410
1498.000000	0.333543
1499.000000	0.333666
1500.000000	0.333959
1501.000000	0.334151
1502.000000	0.334297
1503.000000	0.334584
1504.000000	0.334826
1505.000000	0.335110
1506.000000	0.335482
1507.000000	0.335727
1508.000000	0.335941
1509.000000	0.336174
1510.000000	0.336405
1511.000000	0.336630
1512.000000	0.336761
1513.000000	0.336847
1514.000000	0.336936
1515.000000	0.337118
1516.000000	0.337317
1517.000000	0.337384
1518.000000	0.337532
1519.000000	0.337500
1520.000000	0.337414
1521.000000	0.337490
1522.000000	0.337596
1523.000000	0.337676
1524.000000	0.337789
1525.000000	0.337948
1526.000000	0.337974
1527.000000	0.338060
1528.000000	0.338182
1529.000000	0.338150
1530.000000	0.338072
1531.000000	0.338123
1532.000000	0.338261
1533.000000	0.338356
1534.000000	0.338465
1535.000000	0.338646
1536.000000	0.338707
1537.000000	0.338836
1538.000000	0.339014
1539.000000	0.339097
1540.000000	0.339206
1541.000000	0.339331
1542.000000	0.339439
1543.000000	0.339498
1544.000000	0.339567
1545.000000	0.339727
1546.000000	0.339933
1547.000000	0.340163
1548.000000	0.340323
1549.000000	0.340383
1550.000000	0.340368
1551.000000	0.340405
1552.000000	0.340478
1553.000000	0.340528
1554.000000	0.340743
1555.000000	0.340890
1556.000000	0.340918
1557.000000	0.340993
1558.000000	0.341046
1559.000000	0.340949
1560.000000	0.340926
1561.000000	0.340967
1562.000000	0.340988
1563.000000	0.341020
1564.000000	0.341084
1565.000000	0.341222
1566.000000	0.341224
1567.000000	0.341319
1568.000000	0.341332
1569.000000	0.341271
1570.000000	0.341282
1571.000000	0.341306
1572.000000	0.341257
1573.000000	0.341197
1574.000000	0.341206
1575.000000	0.341218
1576.000000	0.341249
1577.000000	0.341358
1578.000000	0.341373
1579.000000	0.341350
1580.000000	0.341383
1581.000000	0.341541
1582.000000	0.341568
1583.000000	0.341543
1584.000000	0.341523
1585.000000	0.341542
1586.000000	0.341535
1587.000000	0.341511
1588.000000	0.341531
1589.000000	0.341508
1590.000000	0.341549
1591.000000	0.341783
1592.000000	0.341873
1593.000000	0.341924
1594.000000	0.341940
1595.000000	0.341899
1596.000000	0.341942
1597.000000	0.342041
1598.000000	0.342105
1599.000000	0.342282
1600.000000	0.342287
1601.000000	0.342237
1602.000000	0.342248
1603.000000	0.342254
1604.000000	0.342232
1605.000000	0.342265
1606.000000	0.342270
1607.000000	0.342288
1608.000000	0.342328
1609.000000	0.342455
1610.000000	0.342447
1611.000000	0.342413
1612.000000	0.342334
1613.000000	0.342260
1614.000000	0.342262
1615.000000	0.342360
1616.000000	0.342419
1617.000000	0.342428
1618.000000	0.342460
1619.000000	0.342479
1620.000000	0.342500
1621.000000	0.342533
1622.000000	0.342720
1623.000000	0.342972
1624.000000	0.343079
1625.000000	0.343125
1626.000000	0.343063
1627.000000	0.342735
1628.000000	0.342737
1629.000000	0.342896
1630.000000	0.343005
1631.000000	0.343200
1632.000000	0.343250
1633.000000	0.343213
1634.000000	0.343182
1635.000000	0.343112
1636.000000	0.343081
1637.000000	0.343074
1638.000000	0.343101
1639.000000	0.343289
1640.000000	0.343278
1641.000000	0.343251
1642.000000	0.343170
1643.000000	0.343007
1644.000000	0.342880
1645.000000	0.342769
1646.000000	0.342593
1647.000000	0.342355
1648.000000	0.342226
1649.000000	0.342238
1650.000000	0.342234
1651.000000	0.342366
1652.000000	0.342365
1653.000000	0.342197
1654.000000	0.342239
1655.000000	0.342275
1656.000000	0.342223
1657.000000	0.342314
1658.000000	0.342350
1659.000000	0.342416
1660.000000	0.342477
1661.000000	0.342459
1662.000000	0.342549
1663.000000	0.342602
1664.000000	0.342682
1665.000000	0.342929
1666.000000	0.343032
1667.000000	0.342907
1668.000000	0.342910
1669.000000	0.342917
1670.000000	0.342831
1671.000000	0.342824
1672.000000	0.342931
1673.000000	0.343009
1674.000000	0.343224
1675.000000	0.343331
1676.000000	0.343246
1677.000000	0.343024
1678.000000	0.342867
1679.000000	0.342853
1680.000000	0.342726
1681.000000	0.342681
1682.000000	0.342679
1683.000000	0.342660
1684.000000	0.342844
1685.000000	0.342969
1686.000000	0.342847
1687.000000	0.342780
1688.000000	0.342609
1689.000000	0.342454
1690.000000	0.342326
1691.000000	0.342244
1692.000000	0.342187
1693.000000	0.342117
1694.000000	0.342156
1695.000000	0.342202
1696.000000	0.341924
1697.000000	0.341724
1698.000000	0.341502
1699.000000	0.341397
1700.000000	0.341380
1701.000000	0.341526
1702.000000	0.341689
1703.000000	0.341715
1704.000000	0.341862
1705.000000	0.341949
1706.000000	0.341887
1707.000000	0.341960
1708.000000	0.342186
1709.000000	0.342177
1710.000000	0.342221
1711.000000	0.342202
1712.000000	0.341981
1713.000000	0.341874
1714.000000	0.341868
1715.000000	0.341847
1716.000000	0.341874
1717.000000	0.341855
1718.000000	0.341725
1719.000000	0.341709
1720.000000	0.341868
1721.000000	0.341850
1722.000000	0.341797
1723.000000	0.341790
1724.000000	0.341681
1725.000000	0.341706
1726.000000	0.341794
1727.000000	0.341839
1728.000000	0.341824
1729.000000	0.341738
1730.000000	0.341758
1731.000000	0.341758
1732.000000	0.341733
1733.000000	0.341771
1734.000000	0.341719
1735.000000	0.341662
1736.000000	0.341571
1737.000000	0.341448
1738.000000	0.341318
1739.000000	0.341185
1740.000000	0.341003
1741.000000	0.340815
1742.000000	0.340627
1743.000000	0.340516
1744.000000	0.340380
1745.000000	0.340299
1746.000000	0.340289
1747.000000	0.340118
1748.000000	0.340037
1749.000000	0.340076
1750.000000	0.340002
1751.000000	0.340083
1752.000000	0.340235
1753.000000	0.340260
1754.000000	0.340180
1755.000000	0.339962
1756.000000	0.339849
1757.000000	0.339569
1758.000000	0.339521
1759.000000	0.339758
1760.000000	0.339879
1761.000000	0.340133
1762.000000	0.340089
1763.000000	0.339817
1764.000000	0.339639
1765.000000	0.339170
1766.000000	0.339011
1767.000000	0.339071
1768.000000	0.338933
1769.000000	0.338925
1770.000000	0.338862
1771.000000	0.338514
1772.000000	0.338489
1773.000000	0.338658
1774.000000	0.338649
1775.000000	0.338815
1776.000000	0.338793
1777.000000	0.338489
1778.000000	0.338359
1779.000000	0.338253
1780.000000	0.338166
1781.000000	0.338052
1782.000000	0.338034
1783.000000	0.338147
1784.000000	0.338191
1785.000000	0.338151
1786.000000	0.338113
1787.000000	0.338042
1788.000000	0.338192
1789.000000	0.338233
1790.000000	0.338109
1791.000000	0.338028
1792.000000	0.337881
1793.000000	0.337855
1794.000000	0.338109
1795.000000	0.338205
1796.000000	0.338243
1797.000000	0.338220
1798.000000	0.338054
1799.000000	0.337927
1800.000000	0.337858
1801.000000	0.337923
1802.000000	0.337959
1803.000000	0.337956
1804.000000	0.338322
1805.000000	0.339085
1806.000000	0.339559
1807.000000	0.340500
1808.000000	0.340893
1809.000000	0.340848
1810.000000	0.340796
1811.000000	0.340547
1812.000000	0.339798
1813.000000	0.339545
1814.000000	0.339358
1815.000000	0.339307
1816.000000	0.339963
1817.000000	0.339762
1818.000000	0.339225
1819.000000	0.338618
1820.000000	0.338319
1821.000000	0.337462
1822.000000	0.337571
1823.000000	0.338836
1824.000000	0.338881
1825.000000	0.338522
1826.000000	0.338569
1827.000000	0.338265
1828.000000	0.337841
1829.000000	0.337910
1830.000000	0.337776
1831.000000	0.337797
1832.000000	0.337743
1833.000000	0.337623
1834.000000	0.337577
1835.000000	0.337688
1836.000000	0.337568
1837.000000	0.337545
1838.000000	0.337784
1839.000000	0.337955
1840.000000	0.337499
1841.000000	0.337045
1842.000000	0.336431
1843.000000	0.335189
1844.000000	0.334541
1845.000000	0.333782
1846.000000	0.333547
1847.000000	0.333452
1848.000000	0.333730
1849.000000	0.334608
1850.000000	0.335058
1851.000000	0.335062
1852.000000	0.334728
1853.000000	0.334635
1854.000000	0.333689
1855.000000	0.333472
1856.000000	0.333718
1857.000000	0.333812
1858.000000	0.333915
1859.000000	0.333839
1860.000000	0.332762
1861.000000	0.331917
1862.000000	0.331196
1863.000000	0.330168
1864.000000	0.329720
1865.000000	0.330062
1866.000000	0.329705
1867.000000	0.329500
1868.000000	0.328617
1869.000000	0.327074
1870.000000	0.325496
1871.000000	0.323691
1872.000000	0.322424
1873.000000	0.321421
1874.000000	0.321190
1875.000000	0.320173
1876.000000	0.319136
1877.000000	0.317209
1878.000000	0.314302
1879.000000	0.311135
1880.000000	0.309034
1881.000000	0.307223
1882.000000	0.305649
1883.000000	0.304444
1884.000000	0.302250
1885.000000	0.299190
1886.000000	0.295543
1887.000000	0.291079
1888.000000	0.286360
1889.000000	0.281527
1890.000000	0.277457
1891.000000	0.274396
1892.000000	0.271110
1893.000000	0.268112
1894.000000	0.265263
1895.000000	0.261399
1896.000000	0.256855
1897.000000	0.252624
1898.000000	0.248497
1899.000000	0.244384
1900.000000	0.241797
1901.000000	0.239540
1902.000000	0.237372
1903.000000	0.235687
1904.000000	0.234321
1905.000000	0.233510
1906.000000	0.233023
1907.000000	0.233072
1908.000000	0.233445
1909.000000	0.233790
1910.000000	0.234727
1911.000000	0.235877
1912.000000	0.237049
1913.000000	0.239230
1914.000000	0.241275
1915.000000	0.243379
1916.000000	0.246136
1917.000000	0.247805
1918.000000	0.248795
1919.000000	0.249804
1920.000000	0.251045
1921.000000	0.252130
1922.000000	0.254148
1923.000000	0.255853
1924.000000	0.257015
1925.000000	0.258131
1926.000000	0.258631
1927.000000	0.259074
1928.000000	0.259811
1929.000000	0.260881
1930.000000	0.261558
1931.000000	0.261959
1932.000000	0.263417
1933.000000	0.264762
1934.000000	0.265165
1935.000000	0.266011
1936.000000	0.266031
1937.000000	0.265758
1938.000000	0.266236
1939.000000	0.266674
1940.000000	0.267191
1941.000000	0.268370
1942.000000	0.269187
1943.000000	0.269576
1944.000000	0.270193
1945.000000	0.269879
1946.000000	0.270090
1947.000000	0.270571
1948.000000	0.270551
1949.000000	0.271055
1950.000000	0.271348
1951.000000	0.271637
1952.000000	0.271891
1953.000000	0.272125
1954.000000	0.272495
1955.000000	0.273227
1956.000000	0.274053
1957.000000	0.274949
1958.000000	0.275566
1959.000000	0.276179
1960.000000	0.276204
1961.000000	0.276340
1962.000000	0.276345
1963.000000	0.276368
1964.000000	0.276263
1965.000000	0.276436
1966.000000	0.275783
1967.000000	0.276076
1968.000000	0.277016
1969.000000	0.277120
1970.000000	0.278367
1971.000000	0.279656
1972.000000	0.279941
1973.000000	0.280140
1974.000000	0.280333
1975.000000	0.280417
1976.000000	0.279947
1977.000000	0.280003
1978.000000	0.280502
1979.000000	0.281231
1980.000000	0.281913
1981.000000	0.282435
1982.000000	0.283409
1983.000000	0.284294
1984.000000	0.284966
1985.000000	0.286127
1986.000000	0.286473
1987.000000	0.285978
1988.000000	0.286216
1989.000000	0.286649
1990.000000	0.287123
1991.000000	0.288876
1992.000000	0.289635
1993.000000	0.290334
1994.000000	0.291892
1995.000000	0.292266
1996.000000	0.292626
1997.000000	0.292721
1998.000000	0.291737
1999.000000	0.291748
2000.000000	0.291902
2001.000000	0.292858
2002.000000	0.293902
2003.000000	0.295003
2004.000000	0.295973
2005.000000	0.296136
2006.000000	0.296941
2007.000000	0.298078
2008.000000	0.298740
2009.000000	0.299360
2010.000000	0.300020
2011.000000	0.300339
2012.000000	0.300371
2013.000000	0.300310
2014.000000	0.299769
2015.000000	0.299595
2016.000000	0.300065
2017.000000	0.300870
2018.000000	0.302113
2019.000000	0.302723
2020.000000	0.302806
2021.000000	0.302931
2022.000000	0.302744
2023.000000	0.302767
2024.000000	0.302612
2025.000000	0.302650
2026.000000	0.302598
2027.000000	0.302930
2028.000000	0.303200
2029.000000	0.303805
2030.000000	0.304025
2031.000000	0.303925
2032.000000	0.304142
2033.000000	0.304576
2034.000000	0.304890
2035.000000	0.305728
2036.000000	0.305946
2037.000000	0.305587
2038.000000	0.305963
2039.000000	0.306719
2040.000000	0.307286
2041.000000	0.308312
2042.000000	0.309403
2043.000000	0.309729
2044.000000	0.310296
2045.000000	0.310987
2046.000000	0.311606
2047.000000	0.311700
2048.000000	0.311571
2049.000000	0.311488
2050.000000	0.310092
2051.000000	0.309520
2052.000000	0.309036
2053.000000	0.308870
2054.000000	0.309303
2055.000000	0.310298
2056.000000	0.310619
2057.000000	0.311558
2058.000000	0.311765
2059.000000	0.311850
2060.000000	0.311866
2061.000000	0.311504
2062.000000	0.311625
2063.000000	0.312103
2064.000000	0.312029
2065.000000	0.312479
2066.000000	0.312343
2067.000000	0.311687
2068.000000	0.311342
2069.000000	0.311263
2070.000000	0.311904
2071.000000	0.312775
2072.000000	0.313233
2073.000000	0.313153
2074.000000	0.312784
2075.000000	0.312772
2076.000000	0.312373
2077.000000	0.312679
2078.000000	0.313932
2079.000000	0.314214
2080.000000	0.314675
2081.000000	0.314720
2082.000000	0.314009
2083.000000	0.313377
2084.000000	0.313232
2085.000000	0.312467
2086.000000	0.312334
2087.000000	0.313040
2088.000000	0.313898
2089.000000	0.314695
2090.000000	0.315038
2091.000000	0.315026
2092.000000	0.315230
2093.000000	0.315001
2094.000000	0.315278
2095.000000	0.316399
2096.000000	0.316831
2097.000000	0.317032
2098.000000	0.317082
2099.000000	0.316713
2100.000000	0.315988
2101.000000	0.315637
2102.000000	0.316124
2103.000000	0.316352
2104.000000	0.316441
2105.000000	0.316544
2106.000000	0.316334
2107.000000	0.316303
2108.000000	0.316551
2109.000000	0.316573
2110.000000	0.316263
2111.000000	0.316016
2112.000000	0.315678
2113.000000	0.314982
2114.000000	0.314331
2115.000000	0.314367
2116.000000	0.314733
2117.000000	0.314624
2118.000000	0.314337
2119.000000	0.314436
2120.000000	0.314456
2121.000000	0.314039
2122.000000	0.314365
2123.000000	0.315549
2124.000000	0.315693
2125.000000	0.315459
2126.000000	0.315555
2127.000000	0.315211
2128.000000	0.315362
2129.000000	0.315811
2130.000000	0.316685
2131.000000	0.317183
2132.000000	0.317449
2133.000000	0.317702
2134.000000	0.317825
2135.000000	0.317226
2136.000000	0.316397
2137.000000	0.316056
2138.000000	0.315667
2139.000000	0.315373
2140.000000	0.315277
2141.000000	0.315732
2142.000000	0.316571
2143.000000	0.317078
2144.000000	0.318626
2145.000000	0.319124
2146.000000	0.318846
2147.000000	0.318817
2148.000000	0.318600
2149.000000	0.318786
2150.000000	0.319080
2151.000000	0.319611
2152.000000	0.320113
2153.000000	0.320227
2154.000000	0.320045
2155.000000	0.319451
2156.000000	0.319001
2157.000000	0.317892
2158.000000	0.317893
2159.000000	0.318831
2160.000000	0.319636
2161.000000	0.321523
2162.000000	0.322002
2163.000000	0.321194
2164.000000	0.320988
2165.000000	0.320019
2166.000000	0.319827
2167.000000	0.320874
2168.000000	0.320699
2169.000000	0.321103
2170.000000	0.320858
2171.000000	0.320495
2172.000000	0.320238
2173.000000	0.319918
2174.000000	0.318971
2175.000000	0.318547
2176.000000	0.318184
2177.000000	0.317617
2178.000000	0.317400
2179.000000	0.317112
2180.000000	0.316128
2181.000000	0.316275
2182.000000	0.316734
2183.000000	0.316502
2184.000000	0.317512
2185.000000	0.318537
2186.000000	0.318053
2187.000000	0.318898
2188.000000	0.318744
2189.000000	0.318031
2190.000000	0.318205
2191.000000	0.318220
2192.000000	0.318766
2193.000000	0.320689
2194.000000	0.320416
2195.000000	0.319370
2196.000000	0.318643
2197.000000	0.314946
2198.000000	0.314236
2199.000000	0.316671
2200.000000	0.317089
2201.000000	0.317676
2202.000000	0.318973
2203.000000	0.320136
2204.000000	0.320618
2205.000000	0.319945
2206.000000	0.319367
2207.000000	0.317095
2208.000000	0.315490
2209.000000	0.317179
2210.000000	0.317972
2211.000000	0.318831
2212.000000	0.319136
2213.000000	0.318867
2214.000000	0.318217
2215.000000	0.317221
2216.000000	0.315201
2217.000000	0.314169
2218.000000	0.312422
2219.000000	0.312238
2220.000000	0.313174
2221.000000	0.314173
2222.000000	0.317345
2223.000000	0.318170
2224.000000	0.317374
2225.000000	0.317899
2226.000000	0.317849
2227.000000	0.315957
2228.000000	0.316810
2229.000000	0.315829
2230.000000	0.312821
2231.000000	0.312005
2232.000000	0.309115
2233.000000	0.306604
2234.000000	0.306813
2235.000000	0.306867
2236.000000	0.307021
2237.000000	0.309307
2238.000000	0.308456
2239.000000	0.305005
2240.000000	0.303881
2241.000000	0.301841
2242.000000	0.301626
2243.000000	0.304113
2244.000000	0.305268
2245.000000	0.307302
2246.000000	0.307412
2247.000000	0.306130
2248.000000	0.304501
2249.000000	0.300182
2250.000000	0.298236
2251.000000	0.300148
2252.000000	0.301713
2253.000000	0.304271
2254.000000	0.307095
2255.000000	0.307113
2256.000000	0.306404
2257.000000	0.307412
2258.000000	0.307201
2259.000000	0.306546
2260.000000	0.307891
2261.000000	0.307181
2262.000000	0.305265
2263.000000	0.305057
2264.000000	0.304875
2265.000000	0.304531
2266.000000	0.306019
2267.000000	0.304506
2268.000000	0.299922
2269.000000	0.297532
2270.000000	0.294350
2271.000000	0.293325
2272.000000	0.295556
2273.000000	0.295218
2274.000000	0.294407
2275.000000	0.293416
2276.000000	0.291357
2277.000000	0.289246
2278.000000	0.286169
2279.000000	0.284273
2280.000000	0.282309
2281.000000	0.280740
2282.000000	0.281450
2283.000000	0.281951
2284.000000	0.280018
2285.000000	0.275436
2286.000000	0.271933
2287.000000	0.269520
2288.000000	0.267750
2289.000000	0.268082
2290.000000	0.266622
2291.000000	0.264007
2292.000000	0.264400
2293.000000	0.265405
2294.000000	0.265679
2295.000000	0.267648
2296.000000	0.267416
2297.000000	0.265078
2298.000000	0.264008
2299.000000	0.261937
2300.000000	0.262279
2301.000000	0.263806
2302.000000	0.265041
2303.000000	0.268439
2304.000000	0.270089
2305.000000	0.269525
2306.000000	0.271373
2307.000000	0.274544
2308.000000	0.276620
2309.000000	0.278915
2310.000000	0.282455
2311.000000	0.281633
2312.000000	0.281439
2313.000000	0.281713
2314.000000	0.279195
2315.000000	0.277176
2316.000000	0.273997
2317.000000	0.272975
2318.000000	0.275750
2319.000000	0.279317
2320.000000	0.284610
2321.000000	0.287709
2322.000000	0.286911
2323.000000	0.285940
2324.000000	0.285819
2325.000000	0.286805
2326.000000	0.289581
2327.000000	0.293483
2328.000000	0.295493
2329.000000	0.293602
2330.000000	0.288940
2331.000000	0.283608
2332.000000	0.280147
2333.000000	0.281555
2334.000000	0.287234
2335.000000	0.290078
2336.000000	0.293204
2337.000000	0.294560
2338.000000	0.292431
2339.000000	0.291822
2340.000000	0.292184
2341.000000	0.290955
2342.000000	0.289297
2343.000000	0.288490
2344.000000	0.287268
2345.000000	0.287176
2346.000000	0.286106
2347.000000	0.286426
2348.000000	0.289108
2349.000000	0.289225
2350.000000	0.288318
2351.000000	0.292480
2352.000000	0.289825
2353.000000	0.286844
2354.000000	0.285087
2355.000000	0.282500
2356.000000	0.282276
2357.000000	0.282408
2358.000000	0.283848
2359.000000	0.283284
2360.000000	0.282928
2361.000000	0.284890
2362.000000	0.282353
2363.000000	0.280418
2364.000000	0.278634
2365.000000	0.274043
2366.000000	0.270926
2367.000000	0.270410
2368.000000	0.273946
2369.000000	0.276020
2370.000000	0.276167
2371.000000	0.276761
2372.000000	0.274438
2373.000000	0.273797
2374.000000	0.276476
2375.000000	0.276910
2376.000000	0.276377
2377.000000	0.272322
2378.000000	0.267488
2379.000000	0.268240
2380.000000	0.268274
2381.000000	0.269433
2382.000000	0.272704
2383.000000	0.271585
2384.000000	0.270431
2385.000000	0.271436
2386.000000	0.268414
2387.000000	0.266338
2388.000000	0.263149
2389.000000	0.258323
2390.000000	0.258717
2391.000000	0.255821
2392.000000	0.251532
2393.000000	0.247047
2394.000000	0.240100
2395.000000	0.234475
2396.000000	0.233826
2397.000000	0.239880
2398.000000	0.245548
2399.000000	0.254651
2400.000000	0.263656
2401.000000	0.263335
2402.000000	0.266857
2403.000000	0.271814
2404.000000	0.270333
2405.000000	0.273515
2406.000000	0.271665
2407.000000	0.259586
2408.000000	0.253767
2409.000000	0.251435
2410.000000	0.253232
2411.000000	0.261367
2412.000000	0.260196
2413.000000	0.259751
2414.000000	0.254247
2415.000000	0.241525
2416.000000	0.246658
2417.000000	0.248668
2418.000000	0.246725
2419.000000	0.249719
2420.000000	0.241070
2421.000000	0.228545
2422.000000	0.226465
2423.000000	0.227472
2424.000000	0.227445
2425.000000	0.236558
2426.000000	0.241256
2427.000000	0.241211
2428.000000	0.248069
2429.000000	0.245451
2430.000000	0.233628
2431.000000	0.225476
2432.000000	0.223202
2433.000000	0.227441
2434.000000	0.242427
2435.000000	0.255230
2436.000000	0.253888
2437.000000	0.247862
2438.000000	0.237082
2439.000000	0.233943
2440.000000	0.236319
2441.000000	0.235139
2442.000000	0.247092
2443.000000	0.252479
2444.000000	0.251588
2445.000000	0.263988
2446.000000	0.262093
2447.000000	0.258600
2448.000000	0.264635
2449.000000	0.258798
2450.000000	0.254027
2451.000000	0.239559
2452.000000	0.225445
2453.000000	0.221056
2454.000000	0.213849
2455.000000	0.228595
2456.000000	0.249127
2457.000000	0.254465
2458.000000	0.254026
2459.000000	0.231843
2460.000000	0.200741
2461.000000	0.196763
2462.000000	0.196587
2463.000000	0.200795
2464.000000	0.219814
2465.000000	0.209200
2466.000000	0.199537
2467.000000	0.214926
2468.000000	0.214863
2469.000000	0.218989
2470.000000	0.245521
2471.000000	0.253422
2472.000000	0.262217
2473.000000	0.282273
2474.000000	0.280152
2475.000000	0.291104
2476.000000	0.292954
2477.000000	0.272322
2478.000000	0.262481
2479.000000	0.248596
2480.000000	0.241123
2481.000000	0.268678
2482.000000	0.290394
2483.000000	0.269706
2484.000000	0.278118
2485.000000	0.273822
2486.000000	0.269014
2487.000000	0.301406
2488.000000	0.292345
2489.000000	0.268728
2490.000000	0.229677
2491.000000	0.217562
2492.000000	0.204004
2493.000000	0.192153
2494.000000	0.189005
2495.000000	0.173285
2496.000000	0.180748
2497.000000	0.222150
2498.000000	0.241866
2499.000000	0.308982
2500.000000	0.296573
