# Wavelength	NAu-2-60_HEX-20_FV7-20_000000000.asd.rts.txt
350.000000	0.102139
351.000000	0.106167
352.000000	0.104646
353.000000	0.097398
354.000000	0.089270
355.000000	0.092014
356.000000	0.093735
357.000000	0.092934
358.000000	0.093325
359.000000	0.093853
360.000000	0.094545
361.000000	0.095183
362.000000	0.093657
363.000000	0.091489
364.000000	0.090168
365.000000	0.091856
366.000000	0.091503
367.000000	0.089251
368.000000	0.089922
369.000000	0.091283
370.000000	0.092547
371.000000	0.093176
372.000000	0.091950
373.000000	0.091376
374.000000	0.092817
375.000000	0.093185
376.000000	0.093258
377.000000	0.093406
378.000000	0.093763
379.000000	0.094306
380.000000	0.094079
381.000000	0.092596
382.000000	0.093156
383.000000	0.093980
384.000000	0.093825
385.000000	0.094234
386.000000	0.094810
387.000000	0.095119
388.000000	0.094381
389.000000	0.094505
390.000000	0.095260
391.000000	0.095579
392.000000	0.095782
393.000000	0.095857
394.000000	0.095837
395.000000	0.096053
396.000000	0.096203
397.000000	0.096196
398.000000	0.096261
399.000000	0.096420
400.000000	0.096594
401.000000	0.096627
402.000000	0.097256
403.000000	0.097734
404.000000	0.097562
405.000000	0.097972
406.000000	0.098494
407.000000	0.098739
408.000000	0.098322
409.000000	0.098522
410.000000	0.099110
411.000000	0.098985
412.000000	0.099422
413.000000	0.099874
414.000000	0.099680
415.000000	0.099895
416.000000	0.100269
417.000000	0.100595
418.000000	0.100971
419.000000	0.101351
420.000000	0.101654
421.000000	0.101744
422.000000	0.102088
423.000000	0.102549
424.000000	0.102867
425.000000	0.103334
426.000000	0.103612
427.000000	0.103588
428.000000	0.104122
429.000000	0.104541
430.000000	0.104713
431.000000	0.105236
432.000000	0.105538
433.000000	0.105717
434.000000	0.106174
435.000000	0.106363
436.000000	0.106489
437.000000	0.106793
438.000000	0.107010
439.000000	0.107242
440.000000	0.107574
441.000000	0.107916
442.000000	0.108096
443.000000	0.108237
444.000000	0.108760
445.000000	0.109022
446.000000	0.109211
447.000000	0.109624
448.000000	0.110115
449.000000	0.110592
450.000000	0.111006
451.000000	0.111384
452.000000	0.111778
453.000000	0.112205
454.000000	0.112755
455.000000	0.113050
456.000000	0.113309
457.000000	0.113885
458.000000	0.114240
459.000000	0.114531
460.000000	0.114970
461.000000	0.115324
462.000000	0.115733
463.000000	0.116169
464.000000	0.116512
465.000000	0.116878
466.000000	0.117252
467.000000	0.117605
468.000000	0.117969
469.000000	0.118303
470.000000	0.118641
471.000000	0.119072
472.000000	0.119424
473.000000	0.119644
474.000000	0.119984
475.000000	0.120347
476.000000	0.120711
477.000000	0.120955
478.000000	0.121184
479.000000	0.121572
480.000000	0.122127
481.000000	0.122476
482.000000	0.122771
483.000000	0.123094
484.000000	0.123424
485.000000	0.123689
486.000000	0.123937
487.000000	0.124142
488.000000	0.124387
489.000000	0.124647
490.000000	0.124810
491.000000	0.125009
492.000000	0.125205
493.000000	0.125275
494.000000	0.125436
495.000000	0.125580
496.000000	0.125628
497.000000	0.125785
498.000000	0.125876
499.000000	0.125921
500.000000	0.126084
501.000000	0.126225
502.000000	0.126345
503.000000	0.126461
504.000000	0.126638
505.000000	0.126810
506.000000	0.126941
507.000000	0.127252
508.000000	0.127600
509.000000	0.127890
510.000000	0.128213
511.000000	0.128532
512.000000	0.128863
513.000000	0.129234
514.000000	0.129631
515.000000	0.130033
516.000000	0.130391
517.000000	0.130797
518.000000	0.131196
519.000000	0.131521
520.000000	0.131907
521.000000	0.132359
522.000000	0.132879
523.000000	0.133456
524.000000	0.134068
525.000000	0.134739
526.000000	0.135547
527.000000	0.136396
528.000000	0.137291
529.000000	0.138292
530.000000	0.139425
531.000000	0.140667
532.000000	0.141944
533.000000	0.143268
534.000000	0.144608
535.000000	0.145954
536.000000	0.147335
537.000000	0.148689
538.000000	0.150013
539.000000	0.151319
540.000000	0.152558
541.000000	0.153746
542.000000	0.154922
543.000000	0.156055
544.000000	0.157180
545.000000	0.158279
546.000000	0.159363
547.000000	0.160479
548.000000	0.161663
549.000000	0.162886
550.000000	0.164177
551.000000	0.165548
552.000000	0.166979
553.000000	0.168528
554.000000	0.170142
555.000000	0.171801
556.000000	0.173614
557.000000	0.175442
558.000000	0.177311
559.000000	0.179244
560.000000	0.181155
561.000000	0.183106
562.000000	0.185123
563.000000	0.187021
564.000000	0.188857
565.000000	0.190645
566.000000	0.192349
567.000000	0.193966
568.000000	0.195482
569.000000	0.196915
570.000000	0.198215
571.000000	0.199385
572.000000	0.200495
573.000000	0.201468
574.000000	0.202304
575.000000	0.203066
576.000000	0.203717
577.000000	0.204283
578.000000	0.204814
579.000000	0.205195
580.000000	0.205504
581.000000	0.205766
582.000000	0.205931
583.000000	0.206054
584.000000	0.206136
585.000000	0.206151
586.000000	0.206046
587.000000	0.205869
588.000000	0.205679
589.000000	0.205432
590.000000	0.205141
591.000000	0.204807
592.000000	0.204369
593.000000	0.203909
594.000000	0.203442
595.000000	0.202923
596.000000	0.202356
597.000000	0.201772
598.000000	0.201143
599.000000	0.200469
600.000000	0.199814
601.000000	0.199168
602.000000	0.198506
603.000000	0.197820
604.000000	0.197120
605.000000	0.196427
606.000000	0.195745
607.000000	0.195064
608.000000	0.194356
609.000000	0.193659
610.000000	0.193010
611.000000	0.192424
612.000000	0.191806
613.000000	0.191176
614.000000	0.190568
615.000000	0.189935
616.000000	0.189323
617.000000	0.188727
618.000000	0.188156
619.000000	0.187605
620.000000	0.187054
621.000000	0.186523
622.000000	0.186068
623.000000	0.185642
624.000000	0.185192
625.000000	0.184735
626.000000	0.184303
627.000000	0.183912
628.000000	0.183544
629.000000	0.183225
630.000000	0.182884
631.000000	0.182572
632.000000	0.182298
633.000000	0.182047
634.000000	0.181792
635.000000	0.181553
636.000000	0.181345
637.000000	0.181162
638.000000	0.180994
639.000000	0.180862
640.000000	0.180792
641.000000	0.180717
642.000000	0.180667
643.000000	0.180647
644.000000	0.180656
645.000000	0.180711
646.000000	0.180781
647.000000	0.180837
648.000000	0.180935
649.000000	0.181074
650.000000	0.181243
651.000000	0.181467
652.000000	0.181696
653.000000	0.181960
654.000000	0.182272
655.000000	0.182602
656.000000	0.182959
657.000000	0.183327
658.000000	0.183755
659.000000	0.184212
660.000000	0.184673
661.000000	0.185161
662.000000	0.185670
663.000000	0.186242
664.000000	0.186877
665.000000	0.187474
666.000000	0.188092
667.000000	0.188789
668.000000	0.189536
669.000000	0.190312
670.000000	0.191116
671.000000	0.191982
672.000000	0.192867
673.000000	0.193769
674.000000	0.194726
675.000000	0.195685
676.000000	0.196669
677.000000	0.197731
678.000000	0.198836
679.000000	0.199969
680.000000	0.201130
681.000000	0.202316
682.000000	0.203578
683.000000	0.204875
684.000000	0.206217
685.000000	0.207568
686.000000	0.208953
687.000000	0.210381
688.000000	0.211872
689.000000	0.213392
690.000000	0.214949
691.000000	0.216567
692.000000	0.218198
693.000000	0.219875
694.000000	0.221591
695.000000	0.223344
696.000000	0.225132
697.000000	0.226956
698.000000	0.228800
699.000000	0.230688
700.000000	0.232641
701.000000	0.234618
702.000000	0.236647
703.000000	0.238717
704.000000	0.240792
705.000000	0.242941
706.000000	0.245101
707.000000	0.247233
708.000000	0.249448
709.000000	0.251684
710.000000	0.253899
711.000000	0.256145
712.000000	0.258434
713.000000	0.260777
714.000000	0.263142
715.000000	0.265502
716.000000	0.267875
717.000000	0.270279
718.000000	0.272720
719.000000	0.275159
720.000000	0.277581
721.000000	0.280028
722.000000	0.282456
723.000000	0.284909
724.000000	0.287386
725.000000	0.289810
726.000000	0.292248
727.000000	0.294671
728.000000	0.297073
729.000000	0.299490
730.000000	0.301902
731.000000	0.304330
732.000000	0.306759
733.000000	0.309201
734.000000	0.311579
735.000000	0.313915
736.000000	0.316301
737.000000	0.318595
738.000000	0.320826
739.000000	0.323074
740.000000	0.325220
741.000000	0.327357
742.000000	0.329492
743.000000	0.331585
744.000000	0.333635
745.000000	0.335589
746.000000	0.337507
747.000000	0.339377
748.000000	0.341243
749.000000	0.343093
750.000000	0.344880
751.000000	0.346628
752.000000	0.348363
753.000000	0.350098
754.000000	0.351808
755.000000	0.353459
756.000000	0.355052
757.000000	0.356546
758.000000	0.357961
759.000000	0.359344
760.000000	0.360647
761.000000	0.361926
762.000000	0.363191
763.000000	0.364426
764.000000	0.365685
765.000000	0.366866
766.000000	0.367984
767.000000	0.369058
768.000000	0.370044
769.000000	0.370980
770.000000	0.371900
771.000000	0.372822
772.000000	0.373741
773.000000	0.374592
774.000000	0.375441
775.000000	0.376187
776.000000	0.376873
777.000000	0.377525
778.000000	0.378168
779.000000	0.378786
780.000000	0.379366
781.000000	0.379871
782.000000	0.380398
783.000000	0.381017
784.000000	0.381549
785.000000	0.382010
786.000000	0.382428
787.000000	0.382813
788.000000	0.383162
789.000000	0.383439
790.000000	0.383646
791.000000	0.383871
792.000000	0.384128
793.000000	0.384398
794.000000	0.384656
795.000000	0.384860
796.000000	0.385051
797.000000	0.385226
798.000000	0.385349
799.000000	0.385496
800.000000	0.385673
801.000000	0.385863
802.000000	0.386036
803.000000	0.386146
804.000000	0.386208
805.000000	0.386182
806.000000	0.386116
807.000000	0.386094
808.000000	0.386031
809.000000	0.386009
810.000000	0.385994
811.000000	0.385940
812.000000	0.385875
813.000000	0.385859
814.000000	0.385861
815.000000	0.385796
816.000000	0.385640
817.000000	0.385465
818.000000	0.385264
819.000000	0.385192
820.000000	0.385160
821.000000	0.385065
822.000000	0.384991
823.000000	0.384941
824.000000	0.384823
825.000000	0.384672
826.000000	0.384515
827.000000	0.384325
828.000000	0.384154
829.000000	0.384060
830.000000	0.383890
831.000000	0.383715
832.000000	0.383516
833.000000	0.383315
834.000000	0.383087
835.000000	0.382849
836.000000	0.382584
837.000000	0.382341
838.000000	0.382162
839.000000	0.382025
840.000000	0.381832
841.000000	0.381637
842.000000	0.381450
843.000000	0.381253
844.000000	0.381069
845.000000	0.380872
846.000000	0.380674
847.000000	0.380515
848.000000	0.380288
849.000000	0.379935
850.000000	0.379580
851.000000	0.379220
852.000000	0.378918
853.000000	0.378709
854.000000	0.378424
855.000000	0.378175
856.000000	0.377904
857.000000	0.377534
858.000000	0.377244
859.000000	0.377008
860.000000	0.376749
861.000000	0.376426
862.000000	0.376086
863.000000	0.375724
864.000000	0.375444
865.000000	0.375210
866.000000	0.374983
867.000000	0.374614
868.000000	0.374292
869.000000	0.373963
870.000000	0.373621
871.000000	0.373273
872.000000	0.372956
873.000000	0.372609
874.000000	0.372235
875.000000	0.371826
876.000000	0.371433
877.000000	0.371051
878.000000	0.370738
879.000000	0.370494
880.000000	0.370158
881.000000	0.369883
882.000000	0.369528
883.000000	0.369157
884.000000	0.368824
885.000000	0.368481
886.000000	0.368118
887.000000	0.367769
888.000000	0.367443
889.000000	0.367154
890.000000	0.366811
891.000000	0.366546
892.000000	0.366219
893.000000	0.365867
894.000000	0.365613
895.000000	0.365215
896.000000	0.364730
897.000000	0.364287
898.000000	0.364005
899.000000	0.363730
900.000000	0.363392
901.000000	0.362970
902.000000	0.362656
903.000000	0.362309
904.000000	0.361999
905.000000	0.361709
906.000000	0.361512
907.000000	0.361276
908.000000	0.360996
909.000000	0.360599
910.000000	0.360237
911.000000	0.359893
912.000000	0.359553
913.000000	0.359275
914.000000	0.358962
915.000000	0.358667
916.000000	0.358359
917.000000	0.358052
918.000000	0.357772
919.000000	0.357516
920.000000	0.357329
921.000000	0.357016
922.000000	0.356574
923.000000	0.356092
924.000000	0.355733
925.000000	0.355471
926.000000	0.355271
927.000000	0.354985
928.000000	0.354674
929.000000	0.354324
930.000000	0.353926
931.000000	0.353556
932.000000	0.353226
933.000000	0.352987
934.000000	0.352800
935.000000	0.352489
936.000000	0.352194
937.000000	0.351932
938.000000	0.351621
939.000000	0.351414
940.000000	0.351238
941.000000	0.351061
942.000000	0.350705
943.000000	0.350431
944.000000	0.350212
945.000000	0.349905
946.000000	0.349581
947.000000	0.349312
948.000000	0.349058
949.000000	0.348747
950.000000	0.348436
951.000000	0.348107
952.000000	0.347803
953.000000	0.347524
954.000000	0.347285
955.000000	0.347012
956.000000	0.346732
957.000000	0.346475
958.000000	0.346213
959.000000	0.346032
960.000000	0.345838
961.000000	0.345659
962.000000	0.345483
963.000000	0.345320
964.000000	0.345153
965.000000	0.344996
966.000000	0.344745
967.000000	0.344562
968.000000	0.344323
969.000000	0.344069
970.000000	0.344021
971.000000	0.343865
972.000000	0.343698
973.000000	0.343486
974.000000	0.343225
975.000000	0.343029
976.000000	0.342913
977.000000	0.342835
978.000000	0.342680
979.000000	0.342617
980.000000	0.342466
981.000000	0.342438
982.000000	0.342276
983.000000	0.342125
984.000000	0.342096
985.000000	0.342045
986.000000	0.341955
987.000000	0.341839
988.000000	0.341625
989.000000	0.341523
990.000000	0.341418
991.000000	0.341331
992.000000	0.341355
993.000000	0.341382
994.000000	0.341288
995.000000	0.341248
996.000000	0.341193
997.000000	0.341216
998.000000	0.341236
999.000000	0.341289
1000.000000	0.341316
1001.000000	0.341306
1002.000000	0.341302
1003.000000	0.341233
1004.000000	0.341098
1005.000000	0.340702
1006.000000	0.340501
1007.000000	0.340416
1008.000000	0.340349
1009.000000	0.340358
1010.000000	0.340434
1011.000000	0.340475
1012.000000	0.340587
1013.000000	0.340469
1014.000000	0.340413
1015.000000	0.340439
1016.000000	0.340571
1017.000000	0.340675
1018.000000	0.340951
1019.000000	0.341105
1020.000000	0.341271
1021.000000	0.341032
1022.000000	0.340811
1023.000000	0.340885
1024.000000	0.340627
1025.000000	0.340961
1026.000000	0.341364
1027.000000	0.341334
1028.000000	0.341440
1029.000000	0.341451
1030.000000	0.341272
1031.000000	0.341370
1032.000000	0.341588
1033.000000	0.341781
1034.000000	0.342028
1035.000000	0.342512
1036.000000	0.342730
1037.000000	0.342812
1038.000000	0.342878
1039.000000	0.342937
1040.000000	0.343130
1041.000000	0.343240
1042.000000	0.343353
1043.000000	0.343593
1044.000000	0.343801
1045.000000	0.344096
1046.000000	0.344215
1047.000000	0.344423
1048.000000	0.344626
1049.000000	0.344693
1050.000000	0.344660
1051.000000	0.344802
1052.000000	0.344869
1053.000000	0.344901
1054.000000	0.345230
1055.000000	0.345542
1056.000000	0.345849
1057.000000	0.346123
1058.000000	0.346394
1059.000000	0.346561
1060.000000	0.346757
1061.000000	0.346913
1062.000000	0.347140
1063.000000	0.347594
1064.000000	0.347943
1065.000000	0.348255
1066.000000	0.348561
1067.000000	0.348848
1068.000000	0.349038
1069.000000	0.349010
1070.000000	0.349214
1071.000000	0.349600
1072.000000	0.349860
1073.000000	0.350218
1074.000000	0.350666
1075.000000	0.350789
1076.000000	0.350921
1077.000000	0.351061
1078.000000	0.351187
1079.000000	0.351437
1080.000000	0.351848
1081.000000	0.352088
1082.000000	0.352439
1083.000000	0.352743
1084.000000	0.352977
1085.000000	0.353271
1086.000000	0.353614
1087.000000	0.353920
1088.000000	0.353990
1089.000000	0.354229
1090.000000	0.354541
1091.000000	0.354834
1092.000000	0.355097
1093.000000	0.355638
1094.000000	0.355911
1095.000000	0.355945
1096.000000	0.356227
1097.000000	0.356552
1098.000000	0.356870
1099.000000	0.357253
1100.000000	0.357619
1101.000000	0.357883
1102.000000	0.358157
1103.000000	0.358388
1104.000000	0.358714
1105.000000	0.359112
1106.000000	0.359412
1107.000000	0.359605
1108.000000	0.359878
1109.000000	0.360180
1110.000000	0.360492
1111.000000	0.360780
1112.000000	0.361176
1113.000000	0.361497
1114.000000	0.361765
1115.000000	0.361978
1116.000000	0.362167
1117.000000	0.362395
1118.000000	0.362532
1119.000000	0.362676
1120.000000	0.362933
1121.000000	0.363083
1122.000000	0.363206
1123.000000	0.363559
1124.000000	0.363761
1125.000000	0.363965
1126.000000	0.364085
1127.000000	0.364225
1128.000000	0.364354
1129.000000	0.364455
1130.000000	0.364672
1131.000000	0.365035
1132.000000	0.365192
1133.000000	0.365354
1134.000000	0.365547
1135.000000	0.365611
1136.000000	0.365698
1137.000000	0.365812
1138.000000	0.365899
1139.000000	0.366036
1140.000000	0.366229
1141.000000	0.366415
1142.000000	0.366603
1143.000000	0.366711
1144.000000	0.366946
1145.000000	0.367083
1146.000000	0.367110
1147.000000	0.367158
1148.000000	0.367049
1149.000000	0.367094
1150.000000	0.367173
1151.000000	0.367314
1152.000000	0.367481
1153.000000	0.367656
1154.000000	0.367827
1155.000000	0.367960
1156.000000	0.368101
1157.000000	0.368237
1158.000000	0.368275
1159.000000	0.368374
1160.000000	0.368435
1161.000000	0.368576
1162.000000	0.368849
1163.000000	0.369244
1164.000000	0.369555
1165.000000	0.369828
1166.000000	0.370050
1167.000000	0.370144
1168.000000	0.370224
1169.000000	0.370278
1170.000000	0.370401
1171.000000	0.370561
1172.000000	0.370751
1173.000000	0.370953
1174.000000	0.371122
1175.000000	0.371238
1176.000000	0.371337
1177.000000	0.371547
1178.000000	0.371694
1179.000000	0.371786
1180.000000	0.371838
1181.000000	0.371945
1182.000000	0.372004
1183.000000	0.372193
1184.000000	0.372405
1185.000000	0.372555
1186.000000	0.372711
1187.000000	0.372840
1188.000000	0.372904
1189.000000	0.372993
1190.000000	0.373153
1191.000000	0.373304
1192.000000	0.373584
1193.000000	0.373877
1194.000000	0.374046
1195.000000	0.374238
1196.000000	0.374370
1197.000000	0.374487
1198.000000	0.374590
1199.000000	0.374742
1200.000000	0.374886
1201.000000	0.375037
1202.000000	0.375170
1203.000000	0.375336
1204.000000	0.375480
1205.000000	0.375601
1206.000000	0.375702
1207.000000	0.375951
1208.000000	0.376061
1209.000000	0.376136
1210.000000	0.376272
1211.000000	0.376415
1212.000000	0.376540
1213.000000	0.376761
1214.000000	0.376930
1215.000000	0.377021
1216.000000	0.377127
1217.000000	0.377169
1218.000000	0.377239
1219.000000	0.377333
1220.000000	0.377504
1221.000000	0.377653
1222.000000	0.377795
1223.000000	0.377960
1224.000000	0.378122
1225.000000	0.378237
1226.000000	0.378423
1227.000000	0.378573
1228.000000	0.378701
1229.000000	0.378819
1230.000000	0.378917
1231.000000	0.378987
1232.000000	0.379182
1233.000000	0.379438
1234.000000	0.379713
1235.000000	0.379899
1236.000000	0.379953
1237.000000	0.380116
1238.000000	0.380193
1239.000000	0.380314
1240.000000	0.380504
1241.000000	0.380693
1242.000000	0.380836
1243.000000	0.381034
1244.000000	0.381214
1245.000000	0.381389
1246.000000	0.381496
1247.000000	0.381681
1248.000000	0.381931
1249.000000	0.382154
1250.000000	0.382360
1251.000000	0.382570
1252.000000	0.382728
1253.000000	0.382859
1254.000000	0.383003
1255.000000	0.383106
1256.000000	0.383252
1257.000000	0.383455
1258.000000	0.383657
1259.000000	0.383814
1260.000000	0.384030
1261.000000	0.384160
1262.000000	0.384327
1263.000000	0.384568
1264.000000	0.384758
1265.000000	0.384947
1266.000000	0.385139
1267.000000	0.385272
1268.000000	0.385375
1269.000000	0.385437
1270.000000	0.385577
1271.000000	0.385705
1272.000000	0.385855
1273.000000	0.386108
1274.000000	0.386300
1275.000000	0.386421
1276.000000	0.386547
1277.000000	0.386735
1278.000000	0.386764
1279.000000	0.386841
1280.000000	0.386895
1281.000000	0.386927
1282.000000	0.386983
1283.000000	0.387127
1284.000000	0.387244
1285.000000	0.387376
1286.000000	0.387484
1287.000000	0.387601
1288.000000	0.387861
1289.000000	0.388025
1290.000000	0.388097
1291.000000	0.388195
1292.000000	0.388268
1293.000000	0.388370
1294.000000	0.388465
1295.000000	0.388605
1296.000000	0.388658
1297.000000	0.388670
1298.000000	0.388869
1299.000000	0.389037
1300.000000	0.389241
1301.000000	0.389403
1302.000000	0.389461
1303.000000	0.389575
1304.000000	0.389625
1305.000000	0.389703
1306.000000	0.389784
1307.000000	0.389937
1308.000000	0.390041
1309.000000	0.390102
1310.000000	0.390177
1311.000000	0.390301
1312.000000	0.390274
1313.000000	0.390285
1314.000000	0.390290
1315.000000	0.390165
1316.000000	0.390210
1317.000000	0.390305
1318.000000	0.390315
1319.000000	0.390260
1320.000000	0.390225
1321.000000	0.390152
1322.000000	0.390022
1323.000000	0.389990
1324.000000	0.390007
1325.000000	0.389912
1326.000000	0.389820
1327.000000	0.389823
1328.000000	0.389855
1329.000000	0.389759
1330.000000	0.389668
1331.000000	0.389605
1332.000000	0.389489
1333.000000	0.389407
1334.000000	0.389469
1335.000000	0.389507
1336.000000	0.389514
1337.000000	0.389541
1338.000000	0.389555
1339.000000	0.389507
1340.000000	0.389439
1341.000000	0.389416
1342.000000	0.389380
1343.000000	0.389339
1344.000000	0.389360
1345.000000	0.389329
1346.000000	0.389340
1347.000000	0.389259
1348.000000	0.389189
1349.000000	0.389043
1350.000000	0.388909
1351.000000	0.388801
1352.000000	0.388651
1353.000000	0.388524
1354.000000	0.388479
1355.000000	0.388354
1356.000000	0.388287
1357.000000	0.388180
1358.000000	0.388004
1359.000000	0.387841
1360.000000	0.387705
1361.000000	0.387643
1362.000000	0.387497
1363.000000	0.387299
1364.000000	0.387179
1365.000000	0.387002
1366.000000	0.386853
1367.000000	0.386769
1368.000000	0.386606
1369.000000	0.386505
1370.000000	0.386300
1371.000000	0.385997
1372.000000	0.385704
1373.000000	0.385362
1374.000000	0.385035
1375.000000	0.384732
1376.000000	0.384463
1377.000000	0.384129
1378.000000	0.383664
1379.000000	0.383044
1380.000000	0.382385
1381.000000	0.381646
1382.000000	0.380852
1383.000000	0.380109
1384.000000	0.379165
1385.000000	0.378049
1386.000000	0.376933
1387.000000	0.375756
1388.000000	0.374463
1389.000000	0.373073
1390.000000	0.371623
1391.000000	0.370000
1392.000000	0.368318
1393.000000	0.366510
1394.000000	0.364666
1395.000000	0.362711
1396.000000	0.360611
1397.000000	0.358449
1398.000000	0.356150
1399.000000	0.353957
1400.000000	0.351634
1401.000000	0.349467
1402.000000	0.347463
1403.000000	0.345412
1404.000000	0.343541
1405.000000	0.341797
1406.000000	0.340089
1407.000000	0.338602
1408.000000	0.337177
1409.000000	0.335912
1410.000000	0.334861
1411.000000	0.333856
1412.000000	0.332952
1413.000000	0.332215
1414.000000	0.331577
1415.000000	0.331014
1416.000000	0.330512
1417.000000	0.330091
1418.000000	0.329635
1419.000000	0.329307
1420.000000	0.328993
1421.000000	0.328717
1422.000000	0.328482
1423.000000	0.328274
1424.000000	0.327976
1425.000000	0.327700
1426.000000	0.327398
1427.000000	0.327147
1428.000000	0.326959
1429.000000	0.326746
1430.000000	0.326599
1431.000000	0.326468
1432.000000	0.326324
1433.000000	0.326236
1434.000000	0.326139
1435.000000	0.326092
1436.000000	0.326082
1437.000000	0.326054
1438.000000	0.326087
1439.000000	0.326165
1440.000000	0.326392
1441.000000	0.326714
1442.000000	0.327195
1443.000000	0.327742
1444.000000	0.328445
1445.000000	0.329256
1446.000000	0.330099
1447.000000	0.331007
1448.000000	0.331908
1449.000000	0.332798
1450.000000	0.333649
1451.000000	0.334465
1452.000000	0.335205
1453.000000	0.335865
1454.000000	0.336484
1455.000000	0.337063
1456.000000	0.337633
1457.000000	0.338203
1458.000000	0.338701
1459.000000	0.339156
1460.000000	0.339601
1461.000000	0.339949
1462.000000	0.340299
1463.000000	0.340613
1464.000000	0.340948
1465.000000	0.341430
1466.000000	0.341833
1467.000000	0.342261
1468.000000	0.342751
1469.000000	0.343196
1470.000000	0.343613
1471.000000	0.344118
1472.000000	0.344599
1473.000000	0.345158
1474.000000	0.345702
1475.000000	0.346251
1476.000000	0.346830
1477.000000	0.347380
1478.000000	0.347951
1479.000000	0.348512
1480.000000	0.349070
1481.000000	0.349607
1482.000000	0.350194
1483.000000	0.350775
1484.000000	0.351344
1485.000000	0.351897
1486.000000	0.352431
1487.000000	0.352979
1488.000000	0.353556
1489.000000	0.354117
1490.000000	0.354529
1491.000000	0.355030
1492.000000	0.355500
1493.000000	0.355978
1494.000000	0.356444
1495.000000	0.356895
1496.000000	0.357313
1497.000000	0.357748
1498.000000	0.358210
1499.000000	0.358661
1500.000000	0.359116
1501.000000	0.359554
1502.000000	0.359949
1503.000000	0.360383
1504.000000	0.360789
1505.000000	0.361160
1506.000000	0.361561
1507.000000	0.361902
1508.000000	0.362324
1509.000000	0.362757
1510.000000	0.363129
1511.000000	0.363575
1512.000000	0.363920
1513.000000	0.364234
1514.000000	0.364626
1515.000000	0.364893
1516.000000	0.365166
1517.000000	0.365394
1518.000000	0.365547
1519.000000	0.365670
1520.000000	0.365833
1521.000000	0.365942
1522.000000	0.366090
1523.000000	0.366311
1524.000000	0.366456
1525.000000	0.366694
1526.000000	0.366921
1527.000000	0.367101
1528.000000	0.367376
1529.000000	0.367594
1530.000000	0.367726
1531.000000	0.367988
1532.000000	0.368253
1533.000000	0.368454
1534.000000	0.368718
1535.000000	0.368985
1536.000000	0.369162
1537.000000	0.369461
1538.000000	0.369748
1539.000000	0.369904
1540.000000	0.370074
1541.000000	0.370266
1542.000000	0.370432
1543.000000	0.370607
1544.000000	0.370787
1545.000000	0.370988
1546.000000	0.371162
1547.000000	0.371288
1548.000000	0.371432
1549.000000	0.371551
1550.000000	0.371634
1551.000000	0.371752
1552.000000	0.371894
1553.000000	0.371978
1554.000000	0.372076
1555.000000	0.372235
1556.000000	0.372372
1557.000000	0.372483
1558.000000	0.372622
1559.000000	0.372706
1560.000000	0.372785
1561.000000	0.372915
1562.000000	0.372981
1563.000000	0.373052
1564.000000	0.373129
1565.000000	0.373169
1566.000000	0.373186
1567.000000	0.373335
1568.000000	0.373416
1569.000000	0.373533
1570.000000	0.373654
1571.000000	0.373730
1572.000000	0.373826
1573.000000	0.373964
1574.000000	0.374075
1575.000000	0.374210
1576.000000	0.374349
1577.000000	0.374470
1578.000000	0.374558
1579.000000	0.374712
1580.000000	0.374796
1581.000000	0.374923
1582.000000	0.374975
1583.000000	0.374941
1584.000000	0.374901
1585.000000	0.374895
1586.000000	0.374937
1587.000000	0.375020
1588.000000	0.375067
1589.000000	0.375122
1590.000000	0.375183
1591.000000	0.375262
1592.000000	0.375338
1593.000000	0.375488
1594.000000	0.375530
1595.000000	0.375570
1596.000000	0.375600
1597.000000	0.375595
1598.000000	0.375615
1599.000000	0.375687
1600.000000	0.375699
1601.000000	0.375775
1602.000000	0.375850
1603.000000	0.375958
1604.000000	0.376020
1605.000000	0.376122
1606.000000	0.376161
1607.000000	0.376196
1608.000000	0.376233
1609.000000	0.376303
1610.000000	0.376336
1611.000000	0.376371
1612.000000	0.376415
1613.000000	0.376578
1614.000000	0.376651
1615.000000	0.376776
1616.000000	0.376918
1617.000000	0.376968
1618.000000	0.377039
1619.000000	0.377110
1620.000000	0.377183
1621.000000	0.377259
1622.000000	0.377433
1623.000000	0.377641
1624.000000	0.377797
1625.000000	0.377830
1626.000000	0.377826
1627.000000	0.377764
1628.000000	0.377835
1629.000000	0.377923
1630.000000	0.378042
1631.000000	0.378182
1632.000000	0.378228
1633.000000	0.378230
1634.000000	0.378297
1635.000000	0.378407
1636.000000	0.378496
1637.000000	0.378647
1638.000000	0.378725
1639.000000	0.378832
1640.000000	0.378886
1641.000000	0.378962
1642.000000	0.379036
1643.000000	0.379114
1644.000000	0.379200
1645.000000	0.379304
1646.000000	0.379356
1647.000000	0.379437
1648.000000	0.379451
1649.000000	0.379528
1650.000000	0.379617
1651.000000	0.379721
1652.000000	0.379836
1653.000000	0.379905
1654.000000	0.380021
1655.000000	0.380094
1656.000000	0.380075
1657.000000	0.380115
1658.000000	0.380162
1659.000000	0.380293
1660.000000	0.380400
1661.000000	0.380439
1662.000000	0.380512
1663.000000	0.380510
1664.000000	0.380563
1665.000000	0.380683
1666.000000	0.380840
1667.000000	0.380887
1668.000000	0.381024
1669.000000	0.381207
1670.000000	0.381289
1671.000000	0.381483
1672.000000	0.381693
1673.000000	0.381841
1674.000000	0.382020
1675.000000	0.382254
1676.000000	0.382344
1677.000000	0.382393
1678.000000	0.382442
1679.000000	0.382437
1680.000000	0.382453
1681.000000	0.382483
1682.000000	0.382542
1683.000000	0.382651
1684.000000	0.382636
1685.000000	0.382630
1686.000000	0.382590
1687.000000	0.382558
1688.000000	0.382622
1689.000000	0.382740
1690.000000	0.382776
1691.000000	0.382848
1692.000000	0.382819
1693.000000	0.382774
1694.000000	0.382794
1695.000000	0.382853
1696.000000	0.382874
1697.000000	0.382849
1698.000000	0.382834
1699.000000	0.382877
1700.000000	0.382953
1701.000000	0.383106
1702.000000	0.383128
1703.000000	0.383108
1704.000000	0.383208
1705.000000	0.383222
1706.000000	0.383194
1707.000000	0.383200
1708.000000	0.383140
1709.000000	0.383043
1710.000000	0.383066
1711.000000	0.383089
1712.000000	0.383130
1713.000000	0.383131
1714.000000	0.383193
1715.000000	0.383230
1716.000000	0.383234
1717.000000	0.383231
1718.000000	0.383194
1719.000000	0.383139
1720.000000	0.383119
1721.000000	0.383086
1722.000000	0.383017
1723.000000	0.383032
1724.000000	0.383117
1725.000000	0.383205
1726.000000	0.383263
1727.000000	0.383303
1728.000000	0.383267
1729.000000	0.383157
1730.000000	0.383138
1731.000000	0.383149
1732.000000	0.383144
1733.000000	0.383240
1734.000000	0.383281
1735.000000	0.383320
1736.000000	0.383327
1737.000000	0.383332
1738.000000	0.383351
1739.000000	0.383397
1740.000000	0.383447
1741.000000	0.383424
1742.000000	0.383415
1743.000000	0.383432
1744.000000	0.383379
1745.000000	0.383310
1746.000000	0.383250
1747.000000	0.383187
1748.000000	0.383058
1749.000000	0.382943
1750.000000	0.382824
1751.000000	0.382841
1752.000000	0.382898
1753.000000	0.382855
1754.000000	0.382789
1755.000000	0.382615
1756.000000	0.382438
1757.000000	0.382219
1758.000000	0.382075
1759.000000	0.381893
1760.000000	0.381794
1761.000000	0.381763
1762.000000	0.381690
1763.000000	0.381662
1764.000000	0.381633
1765.000000	0.381507
1766.000000	0.381509
1767.000000	0.381516
1768.000000	0.381470
1769.000000	0.381587
1770.000000	0.381666
1771.000000	0.381649
1772.000000	0.381642
1773.000000	0.381565
1774.000000	0.381552
1775.000000	0.381622
1776.000000	0.381656
1777.000000	0.381695
1778.000000	0.381667
1779.000000	0.381565
1780.000000	0.381513
1781.000000	0.381404
1782.000000	0.381318
1783.000000	0.381287
1784.000000	0.381294
1785.000000	0.381289
1786.000000	0.381327
1787.000000	0.381416
1788.000000	0.381494
1789.000000	0.381535
1790.000000	0.381609
1791.000000	0.381597
1792.000000	0.381605
1793.000000	0.381624
1794.000000	0.381665
1795.000000	0.381720
1796.000000	0.381777
1797.000000	0.381810
1798.000000	0.381801
1799.000000	0.381810
1800.000000	0.381895
1801.000000	0.381994
1802.000000	0.382051
1803.000000	0.381461
1804.000000	0.381390
1805.000000	0.381213
1806.000000	0.381169
1807.000000	0.381398
1808.000000	0.381519
1809.000000	0.381660
1810.000000	0.381509
1811.000000	0.381572
1812.000000	0.381812
1813.000000	0.381878
1814.000000	0.381957
1815.000000	0.381935
1816.000000	0.381856
1817.000000	0.381536
1818.000000	0.380922
1819.000000	0.380846
1820.000000	0.380501
1821.000000	0.380139
1822.000000	0.380119
1823.000000	0.380305
1824.000000	0.380295
1825.000000	0.380449
1826.000000	0.380492
1827.000000	0.380190
1828.000000	0.380095
1829.000000	0.380025
1830.000000	0.379765
1831.000000	0.379554
1832.000000	0.379267
1833.000000	0.379052
1834.000000	0.378795
1835.000000	0.378718
1836.000000	0.378721
1837.000000	0.378622
1838.000000	0.378623
1839.000000	0.378259
1840.000000	0.377528
1841.000000	0.377137
1842.000000	0.376791
1843.000000	0.376252
1844.000000	0.376146
1845.000000	0.376357
1846.000000	0.376443
1847.000000	0.376602
1848.000000	0.376590
1849.000000	0.376305
1850.000000	0.375685
1851.000000	0.375201
1852.000000	0.374378
1853.000000	0.373860
1854.000000	0.373378
1855.000000	0.372783
1856.000000	0.372081
1857.000000	0.371320
1858.000000	0.370664
1859.000000	0.369583
1860.000000	0.368291
1861.000000	0.367178
1862.000000	0.366031
1863.000000	0.364861
1864.000000	0.363783
1865.000000	0.363064
1866.000000	0.361838
1867.000000	0.360371
1868.000000	0.358736
1869.000000	0.356962
1870.000000	0.354789
1871.000000	0.352491
1872.000000	0.350145
1873.000000	0.347810
1874.000000	0.345311
1875.000000	0.342863
1876.000000	0.340335
1877.000000	0.337404
1878.000000	0.334304
1879.000000	0.330817
1880.000000	0.327199
1881.000000	0.323477
1882.000000	0.319333
1883.000000	0.315137
1884.000000	0.310798
1885.000000	0.305984
1886.000000	0.301068
1887.000000	0.296124
1888.000000	0.290618
1889.000000	0.284735
1890.000000	0.279048
1891.000000	0.273172
1892.000000	0.267111
1893.000000	0.261250
1894.000000	0.255366
1895.000000	0.249565
1896.000000	0.243852
1897.000000	0.238504
1898.000000	0.233116
1899.000000	0.228205
1900.000000	0.223810
1901.000000	0.219643
1902.000000	0.216062
1903.000000	0.213189
1904.000000	0.210761
1905.000000	0.208869
1906.000000	0.207299
1907.000000	0.206318
1908.000000	0.205463
1909.000000	0.205202
1910.000000	0.205328
1911.000000	0.205671
1912.000000	0.206389
1913.000000	0.207104
1914.000000	0.207725
1915.000000	0.208394
1916.000000	0.209315
1917.000000	0.210197
1918.000000	0.211157
1919.000000	0.212314
1920.000000	0.213508
1921.000000	0.214616
1922.000000	0.215767
1923.000000	0.216771
1924.000000	0.217760
1925.000000	0.218672
1926.000000	0.219365
1927.000000	0.220096
1928.000000	0.220823
1929.000000	0.221503
1930.000000	0.222239
1931.000000	0.223173
1932.000000	0.224067
1933.000000	0.224820
1934.000000	0.225544
1935.000000	0.226145
1936.000000	0.226717
1937.000000	0.227350
1938.000000	0.227748
1939.000000	0.228189
1940.000000	0.228601
1941.000000	0.229081
1942.000000	0.229424
1943.000000	0.229665
1944.000000	0.229826
1945.000000	0.229848
1946.000000	0.229911
1947.000000	0.230203
1948.000000	0.230474
1949.000000	0.230718
1950.000000	0.230928
1951.000000	0.230973
1952.000000	0.230939
1953.000000	0.230771
1954.000000	0.230774
1955.000000	0.230907
1956.000000	0.231111
1957.000000	0.231663
1958.000000	0.232053
1959.000000	0.232235
1960.000000	0.232334
1961.000000	0.232407
1962.000000	0.232611
1963.000000	0.232894
1964.000000	0.233366
1965.000000	0.233798
1966.000000	0.234121
1967.000000	0.234502
1968.000000	0.234768
1969.000000	0.235164
1970.000000	0.235580
1971.000000	0.235879
1972.000000	0.236414
1973.000000	0.236747
1974.000000	0.237082
1975.000000	0.237595
1976.000000	0.238218
1977.000000	0.238617
1978.000000	0.239215
1979.000000	0.239882
1980.000000	0.240486
1981.000000	0.241159
1982.000000	0.241890
1983.000000	0.242660
1984.000000	0.243293
1985.000000	0.243857
1986.000000	0.244375
1987.000000	0.244820
1988.000000	0.245479
1989.000000	0.246047
1990.000000	0.246769
1991.000000	0.247605
1992.000000	0.248187
1993.000000	0.248851
1994.000000	0.249772
1995.000000	0.250557
1996.000000	0.251346
1997.000000	0.252177
1998.000000	0.252983
1999.000000	0.253895
2000.000000	0.254931
2001.000000	0.255946
2002.000000	0.256903
2003.000000	0.258030
2004.000000	0.258954
2005.000000	0.259655
2006.000000	0.260515
2007.000000	0.261216
2008.000000	0.262096
2009.000000	0.263085
2010.000000	0.264134
2011.000000	0.265236
2012.000000	0.266227
2013.000000	0.267188
2014.000000	0.267863
2015.000000	0.268712
2016.000000	0.269443
2017.000000	0.270096
2018.000000	0.270928
2019.000000	0.271836
2020.000000	0.272633
2021.000000	0.273543
2022.000000	0.274560
2023.000000	0.275542
2024.000000	0.276670
2025.000000	0.277677
2026.000000	0.278572
2027.000000	0.279333
2028.000000	0.279926
2029.000000	0.280491
2030.000000	0.281209
2031.000000	0.281874
2032.000000	0.282829
2033.000000	0.284007
2034.000000	0.284909
2035.000000	0.285940
2036.000000	0.286703
2037.000000	0.287256
2038.000000	0.287966
2039.000000	0.288724
2040.000000	0.289579
2041.000000	0.290363
2042.000000	0.291138
2043.000000	0.291783
2044.000000	0.292268
2045.000000	0.292822
2046.000000	0.293378
2047.000000	0.293967
2048.000000	0.294503
2049.000000	0.295310
2050.000000	0.295961
2051.000000	0.296513
2052.000000	0.297001
2053.000000	0.297415
2054.000000	0.297899
2055.000000	0.298538
2056.000000	0.298973
2057.000000	0.299704
2058.000000	0.300522
2059.000000	0.301124
2060.000000	0.301653
2061.000000	0.302242
2062.000000	0.302620
2063.000000	0.302769
2064.000000	0.302940
2065.000000	0.303325
2066.000000	0.303648
2067.000000	0.304180
2068.000000	0.304638
2069.000000	0.305222
2070.000000	0.305856
2071.000000	0.306400
2072.000000	0.306960
2073.000000	0.307563
2074.000000	0.308127
2075.000000	0.308630
2076.000000	0.309099
2077.000000	0.309496
2078.000000	0.309771
2079.000000	0.310079
2080.000000	0.310366
2081.000000	0.310794
2082.000000	0.311337
2083.000000	0.311810
2084.000000	0.312378
2085.000000	0.312864
2086.000000	0.313310
2087.000000	0.313823
2088.000000	0.314368
2089.000000	0.314955
2090.000000	0.315504
2091.000000	0.316200
2092.000000	0.316702
2093.000000	0.317068
2094.000000	0.317481
2095.000000	0.317932
2096.000000	0.318314
2097.000000	0.318603
2098.000000	0.318827
2099.000000	0.319043
2100.000000	0.319199
2101.000000	0.319513
2102.000000	0.320145
2103.000000	0.320776
2104.000000	0.321404
2105.000000	0.321934
2106.000000	0.322399
2107.000000	0.322866
2108.000000	0.323174
2109.000000	0.323624
2110.000000	0.323958
2111.000000	0.324367
2112.000000	0.324765
2113.000000	0.325047
2114.000000	0.325314
2115.000000	0.325530
2116.000000	0.325658
2117.000000	0.325673
2118.000000	0.326006
2119.000000	0.326356
2120.000000	0.326711
2121.000000	0.327286
2122.000000	0.327644
2123.000000	0.327818
2124.000000	0.328033
2125.000000	0.328139
2126.000000	0.328302
2127.000000	0.328523
2128.000000	0.328911
2129.000000	0.329435
2130.000000	0.329723
2131.000000	0.329899
2132.000000	0.329953
2133.000000	0.329727
2134.000000	0.329796
2135.000000	0.329929
2136.000000	0.330181
2137.000000	0.330261
2138.000000	0.330290
2139.000000	0.330383
2140.000000	0.330268
2141.000000	0.330410
2142.000000	0.330810
2143.000000	0.330904
2144.000000	0.331249
2145.000000	0.331577
2146.000000	0.331823
2147.000000	0.332488
2148.000000	0.332857
2149.000000	0.333299
2150.000000	0.333558
2151.000000	0.333505
2152.000000	0.333652
2153.000000	0.333442
2154.000000	0.333399
2155.000000	0.333414
2156.000000	0.333395
2157.000000	0.333413
2158.000000	0.333429
2159.000000	0.333385
2160.000000	0.333666
2161.000000	0.334376
2162.000000	0.334675
2163.000000	0.334653
2164.000000	0.334739
2165.000000	0.334720
2166.000000	0.334446
2167.000000	0.334595
2168.000000	0.334671
2169.000000	0.334337
2170.000000	0.334002
2171.000000	0.333766
2172.000000	0.333533
2173.000000	0.333496
2174.000000	0.333534
2175.000000	0.333636
2176.000000	0.333855
2177.000000	0.334060
2178.000000	0.334580
2179.000000	0.334880
2180.000000	0.334994
2181.000000	0.335412
2182.000000	0.335201
2183.000000	0.335124
2184.000000	0.335264
2185.000000	0.334701
2186.000000	0.334142
2187.000000	0.333777
2188.000000	0.333422
2189.000000	0.333562
2190.000000	0.333523
2191.000000	0.334030
2192.000000	0.334152
2193.000000	0.334071
2194.000000	0.333945
2195.000000	0.333811
2196.000000	0.333586
2197.000000	0.333113
2198.000000	0.332892
2199.000000	0.332916
2200.000000	0.332901
2201.000000	0.332781
2202.000000	0.332912
2203.000000	0.333243
2204.000000	0.332968
2205.000000	0.333038
2206.000000	0.333285
2207.000000	0.332337
2208.000000	0.332064
2209.000000	0.331369
2210.000000	0.331139
2211.000000	0.331865
2212.000000	0.332295
2213.000000	0.332327
2214.000000	0.332251
2215.000000	0.331847
2216.000000	0.330855
2217.000000	0.330334
2218.000000	0.329598
2219.000000	0.329348
2220.000000	0.329637
2221.000000	0.329571
2222.000000	0.329763
2223.000000	0.329685
2224.000000	0.329287
2225.000000	0.329007
2226.000000	0.328308
2227.000000	0.327113
2228.000000	0.326376
2229.000000	0.324372
2230.000000	0.322984
2231.000000	0.322438
2232.000000	0.321970
2233.000000	0.322308
2234.000000	0.322312
2235.000000	0.322922
2236.000000	0.322267
2237.000000	0.320271
2238.000000	0.319490
2239.000000	0.318280
2240.000000	0.317815
2241.000000	0.318979
2242.000000	0.318833
2243.000000	0.318041
2244.000000	0.317528
2245.000000	0.316621
2246.000000	0.315891
2247.000000	0.314817
2248.000000	0.314493
2249.000000	0.315018
2250.000000	0.314668
2251.000000	0.314266
2252.000000	0.315225
2253.000000	0.314516
2254.000000	0.314616
2255.000000	0.315682
2256.000000	0.316282
2257.000000	0.316811
2258.000000	0.316776
2259.000000	0.316447
2260.000000	0.315709
2261.000000	0.314923
2262.000000	0.314186
2263.000000	0.313211
2264.000000	0.311565
2265.000000	0.311043
2266.000000	0.311299
2267.000000	0.310707
2268.000000	0.310590
2269.000000	0.309551
2270.000000	0.307285
2271.000000	0.305554
2272.000000	0.303896
2273.000000	0.302247
2274.000000	0.300486
2275.000000	0.298729
2276.000000	0.297404
2277.000000	0.294986
2278.000000	0.291827
2279.000000	0.289523
2280.000000	0.287266
2281.000000	0.285352
2282.000000	0.284077
2283.000000	0.282669
2284.000000	0.280232
2285.000000	0.276984
2286.000000	0.273536
2287.000000	0.270218
2288.000000	0.267943
2289.000000	0.266153
2290.000000	0.264889
2291.000000	0.264262
2292.000000	0.262981
2293.000000	0.261582
2294.000000	0.260671
2295.000000	0.259762
2296.000000	0.259219
2297.000000	0.259060
2298.000000	0.259228
2299.000000	0.259792
2300.000000	0.260219
2301.000000	0.260898
2302.000000	0.261763
2303.000000	0.262358
2304.000000	0.263488
2305.000000	0.265336
2306.000000	0.266856
2307.000000	0.268239
2308.000000	0.270202
2309.000000	0.272028
2310.000000	0.272827
2311.000000	0.274017
2312.000000	0.275391
2313.000000	0.276179
2314.000000	0.277591
2315.000000	0.278843
2316.000000	0.279844
2317.000000	0.280461
2318.000000	0.281055
2319.000000	0.282376
2320.000000	0.282307
2321.000000	0.282377
2322.000000	0.283090
2323.000000	0.282595
2324.000000	0.283485
2325.000000	0.284569
2326.000000	0.284199
2327.000000	0.284320
2328.000000	0.284143
2329.000000	0.283836
2330.000000	0.284044
2331.000000	0.284294
2332.000000	0.284635
2333.000000	0.284345
2334.000000	0.283563
2335.000000	0.283268
2336.000000	0.281999
2337.000000	0.281310
2338.000000	0.281553
2339.000000	0.281043
2340.000000	0.280381
2341.000000	0.279291
2342.000000	0.277357
2343.000000	0.276185
2344.000000	0.275064
2345.000000	0.274364
2346.000000	0.274656
2347.000000	0.274230
2348.000000	0.273922
2349.000000	0.272262
2350.000000	0.270800
2351.000000	0.268133
2352.000000	0.265569
2353.000000	0.264882
2354.000000	0.264161
2355.000000	0.264112
2356.000000	0.264158
2357.000000	0.263787
2358.000000	0.262214
2359.000000	0.260996
2360.000000	0.261135
2361.000000	0.260782
2362.000000	0.260414
2363.000000	0.260204
2364.000000	0.257675
2365.000000	0.255501
2366.000000	0.255264
2367.000000	0.253611
2368.000000	0.253226
2369.000000	0.252668
2370.000000	0.250495
2371.000000	0.250978
2372.000000	0.250304
2373.000000	0.249523
2374.000000	0.248037
2375.000000	0.244079
2376.000000	0.242847
2377.000000	0.240621
2378.000000	0.238280
2379.000000	0.238678
2380.000000	0.237119
2381.000000	0.235119
2382.000000	0.234688
2383.000000	0.233351
2384.000000	0.231585
2385.000000	0.232036
2386.000000	0.232465
2387.000000	0.230564
2388.000000	0.230791
2389.000000	0.228928
2390.000000	0.224610
2391.000000	0.223575
2392.000000	0.221200
2393.000000	0.220509
2394.000000	0.220367
2395.000000	0.219044
2396.000000	0.219672
2397.000000	0.218313
2398.000000	0.219500
2399.000000	0.222549
2400.000000	0.222349
2401.000000	0.223883
2402.000000	0.225408
2403.000000	0.226272
2404.000000	0.228366
2405.000000	0.227848
2406.000000	0.226431
2407.000000	0.225447
2408.000000	0.223741
2409.000000	0.222358
2410.000000	0.221461
2411.000000	0.218506
2412.000000	0.215719
2413.000000	0.216534
2414.000000	0.217940
2415.000000	0.218815
2416.000000	0.220922
2417.000000	0.222522
2418.000000	0.223381
2419.000000	0.225719
2420.000000	0.226573
2421.000000	0.225528
2422.000000	0.223196
2423.000000	0.221553
2424.000000	0.222500
2425.000000	0.220947
2426.000000	0.221050
2427.000000	0.221701
2428.000000	0.219227
2429.000000	0.220420
2430.000000	0.222737
2431.000000	0.223402
2432.000000	0.223607
2433.000000	0.225410
2434.000000	0.225990
2435.000000	0.224823
2436.000000	0.223323
2437.000000	0.220061
2438.000000	0.219148
2439.000000	0.217854
2440.000000	0.219794
2441.000000	0.223645
2442.000000	0.224632
2443.000000	0.225924
2444.000000	0.222865
2445.000000	0.219476
2446.000000	0.216886
2447.000000	0.210627
2448.000000	0.204952
2449.000000	0.202002
2450.000000	0.200437
2451.000000	0.204248
2452.000000	0.208423
2453.000000	0.208163
2454.000000	0.209658
2455.000000	0.205216
2456.000000	0.204557
2457.000000	0.210082
2458.000000	0.207945
2459.000000	0.208380
2460.000000	0.209822
2461.000000	0.209149
2462.000000	0.208832
2463.000000	0.209555
2464.000000	0.209746
2465.000000	0.209747
2466.000000	0.210389
2467.000000	0.203086
2468.000000	0.200395
2469.000000	0.201458
2470.000000	0.201375
2471.000000	0.208322
2472.000000	0.210115
2473.000000	0.206314
2474.000000	0.203482
2475.000000	0.200364
2476.000000	0.199667
2477.000000	0.196312
2478.000000	0.193402
2479.000000	0.196943
2480.000000	0.202490
2481.000000	0.211173
2482.000000	0.211887
2483.000000	0.206975
2484.000000	0.202474
2485.000000	0.193490
2486.000000	0.187018
2487.000000	0.195189
2488.000000	0.201473
2489.000000	0.199380
2490.000000	0.208166
2491.000000	0.209796
2492.000000	0.196132
2493.000000	0.172839
2494.000000	0.171701
2495.000000	0.171590
2496.000000	0.168838
2497.000000	0.185613
2498.000000	0.190063
2499.000000	0.181896
2500.000000	0.175363
