# Wavelength	NAu-1-60_HEX-10_FV7-30_00001.asd.rts.txt
350.000000	0.127838
351.000000	0.128671
352.000000	0.134180
353.000000	0.124981
354.000000	0.102860
355.000000	0.107377
356.000000	0.119837
357.000000	0.129396
358.000000	0.126150
359.000000	0.127554
360.000000	0.129121
361.000000	0.123051
362.000000	0.120354
363.000000	0.121527
364.000000	0.123803
365.000000	0.119492
366.000000	0.119039
367.000000	0.124023
368.000000	0.129399
369.000000	0.126646
370.000000	0.122841
371.000000	0.127595
372.000000	0.125899
373.000000	0.125572
374.000000	0.130212
375.000000	0.124172
376.000000	0.121893
377.000000	0.125493
378.000000	0.126071
379.000000	0.125638
380.000000	0.125463
381.000000	0.127160
382.000000	0.131263
383.000000	0.132752
384.000000	0.129934
385.000000	0.129938
386.000000	0.132413
387.000000	0.135866
388.000000	0.137268
389.000000	0.137862
390.000000	0.139890
391.000000	0.145150
392.000000	0.147078
393.000000	0.146633
394.000000	0.145889
395.000000	0.146405
396.000000	0.148717
397.000000	0.151537
398.000000	0.150838
399.000000	0.151460
400.000000	0.153584
401.000000	0.155404
402.000000	0.156794
403.000000	0.158159
404.000000	0.159879
405.000000	0.161349
406.000000	0.162553
407.000000	0.163751
408.000000	0.165671
409.000000	0.166909
410.000000	0.167744
411.000000	0.169374
412.000000	0.169954
413.000000	0.170349
414.000000	0.171759
415.000000	0.173633
416.000000	0.174875
417.000000	0.175062
418.000000	0.175009
419.000000	0.175600
420.000000	0.176532
421.000000	0.176394
422.000000	0.177079
423.000000	0.177822
424.000000	0.177338
425.000000	0.177078
426.000000	0.176891
427.000000	0.176602
428.000000	0.176672
429.000000	0.177056
430.000000	0.177425
431.000000	0.176933
432.000000	0.176833
433.000000	0.177007
434.000000	0.176834
435.000000	0.177118
436.000000	0.177274
437.000000	0.176774
438.000000	0.176666
439.000000	0.176449
440.000000	0.175978
441.000000	0.175664
442.000000	0.175470
443.000000	0.175185
444.000000	0.174556
445.000000	0.174130
446.000000	0.174103
447.000000	0.174411
448.000000	0.174989
449.000000	0.175756
450.000000	0.176784
451.000000	0.178543
452.000000	0.180593
453.000000	0.182767
454.000000	0.185394
455.000000	0.187727
456.000000	0.190137
457.000000	0.193241
458.000000	0.195932
459.000000	0.198297
460.000000	0.200569
461.000000	0.202317
462.000000	0.204090
463.000000	0.205954
464.000000	0.207527
465.000000	0.208810
466.000000	0.209913
467.000000	0.211157
468.000000	0.212056
469.000000	0.212829
470.000000	0.213911
471.000000	0.214717
472.000000	0.215467
473.000000	0.216297
474.000000	0.216795
475.000000	0.217247
476.000000	0.217898
477.000000	0.218703
478.000000	0.219455
479.000000	0.220111
480.000000	0.220434
481.000000	0.221012
482.000000	0.221665
483.000000	0.222049
484.000000	0.222760
485.000000	0.223585
486.000000	0.224388
487.000000	0.224624
488.000000	0.225014
489.000000	0.225672
490.000000	0.226310
491.000000	0.226837
492.000000	0.227434
493.000000	0.228178
494.000000	0.228747
495.000000	0.229334
496.000000	0.230052
497.000000	0.230800
498.000000	0.231534
499.000000	0.232295
500.000000	0.233055
501.000000	0.233821
502.000000	0.234588
503.000000	0.235274
504.000000	0.235932
505.000000	0.236685
506.000000	0.237579
507.000000	0.238232
508.000000	0.238900
509.000000	0.239686
510.000000	0.240466
511.000000	0.241267
512.000000	0.242135
513.000000	0.243088
514.000000	0.243943
515.000000	0.244791
516.000000	0.245731
517.000000	0.246595
518.000000	0.247488
519.000000	0.248414
520.000000	0.249293
521.000000	0.250216
522.000000	0.251206
523.000000	0.252186
524.000000	0.253061
525.000000	0.253973
526.000000	0.255240
527.000000	0.256439
528.000000	0.257475
529.000000	0.258430
530.000000	0.259555
531.000000	0.260750
532.000000	0.261859
533.000000	0.262981
534.000000	0.264100
535.000000	0.265214
536.000000	0.266378
537.000000	0.267583
538.000000	0.268790
539.000000	0.269942
540.000000	0.271071
541.000000	0.272196
542.000000	0.273354
543.000000	0.274486
544.000000	0.275664
545.000000	0.276832
546.000000	0.277925
547.000000	0.279070
548.000000	0.280259
549.000000	0.281300
550.000000	0.282422
551.000000	0.283631
552.000000	0.284807
553.000000	0.285845
554.000000	0.286908
555.000000	0.288102
556.000000	0.289277
557.000000	0.290325
558.000000	0.291361
559.000000	0.292411
560.000000	0.293374
561.000000	0.294365
562.000000	0.295434
563.000000	0.296333
564.000000	0.297217
565.000000	0.298161
566.000000	0.299137
567.000000	0.300050
568.000000	0.300843
569.000000	0.301645
570.000000	0.302407
571.000000	0.303134
572.000000	0.303912
573.000000	0.304597
574.000000	0.305165
575.000000	0.305708
576.000000	0.306362
577.000000	0.307025
578.000000	0.307648
579.000000	0.308170
580.000000	0.308692
581.000000	0.309219
582.000000	0.309603
583.000000	0.309912
584.000000	0.310230
585.000000	0.310663
586.000000	0.311052
587.000000	0.311361
588.000000	0.311614
589.000000	0.312015
590.000000	0.312334
591.000000	0.312478
592.000000	0.312784
593.000000	0.313059
594.000000	0.313223
595.000000	0.313296
596.000000	0.313441
597.000000	0.313654
598.000000	0.313763
599.000000	0.313913
600.000000	0.314058
601.000000	0.314091
602.000000	0.314278
603.000000	0.314416
604.000000	0.314451
605.000000	0.314564
606.000000	0.314715
607.000000	0.314833
608.000000	0.314804
609.000000	0.314853
610.000000	0.314939
611.000000	0.314960
612.000000	0.314914
613.000000	0.314885
614.000000	0.314964
615.000000	0.315110
616.000000	0.315215
617.000000	0.315211
618.000000	0.315161
619.000000	0.315227
620.000000	0.315277
621.000000	0.315156
622.000000	0.315117
623.000000	0.315123
624.000000	0.315122
625.000000	0.315239
626.000000	0.315277
627.000000	0.315211
628.000000	0.315298
629.000000	0.315458
630.000000	0.315538
631.000000	0.315631
632.000000	0.315691
633.000000	0.315755
634.000000	0.315849
635.000000	0.315962
636.000000	0.316138
637.000000	0.316361
638.000000	0.316548
639.000000	0.316710
640.000000	0.316908
641.000000	0.317081
642.000000	0.317258
643.000000	0.317409
644.000000	0.317502
645.000000	0.317600
646.000000	0.317716
647.000000	0.317827
648.000000	0.317968
649.000000	0.318113
650.000000	0.318263
651.000000	0.318531
652.000000	0.318729
653.000000	0.318892
654.000000	0.319073
655.000000	0.319351
656.000000	0.319660
657.000000	0.319879
658.000000	0.320139
659.000000	0.320434
660.000000	0.320728
661.000000	0.321016
662.000000	0.321170
663.000000	0.321294
664.000000	0.321524
665.000000	0.321866
666.000000	0.322185
667.000000	0.322340
668.000000	0.322652
669.000000	0.323001
670.000000	0.323315
671.000000	0.323657
672.000000	0.323989
673.000000	0.324292
674.000000	0.324588
675.000000	0.324873
676.000000	0.325150
677.000000	0.325451
678.000000	0.325838
679.000000	0.326210
680.000000	0.326519
681.000000	0.326865
682.000000	0.327274
683.000000	0.327664
684.000000	0.328076
685.000000	0.328431
686.000000	0.328816
687.000000	0.329288
688.000000	0.329687
689.000000	0.330073
690.000000	0.330540
691.000000	0.331017
692.000000	0.331459
693.000000	0.331906
694.000000	0.332299
695.000000	0.332754
696.000000	0.333237
697.000000	0.333664
698.000000	0.334106
699.000000	0.334582
700.000000	0.335097
701.000000	0.335596
702.000000	0.336122
703.000000	0.336632
704.000000	0.337022
705.000000	0.337477
706.000000	0.337946
707.000000	0.338384
708.000000	0.338846
709.000000	0.339314
710.000000	0.339784
711.000000	0.340245
712.000000	0.340732
713.000000	0.341266
714.000000	0.341771
715.000000	0.342314
716.000000	0.342886
717.000000	0.343416
718.000000	0.343940
719.000000	0.344453
720.000000	0.344962
721.000000	0.345472
722.000000	0.345926
723.000000	0.346371
724.000000	0.346781
725.000000	0.347174
726.000000	0.347639
727.000000	0.348103
728.000000	0.348583
729.000000	0.349059
730.000000	0.349458
731.000000	0.349830
732.000000	0.350224
733.000000	0.350685
734.000000	0.351127
735.000000	0.351451
736.000000	0.351795
737.000000	0.352106
738.000000	0.352441
739.000000	0.352833
740.000000	0.353111
741.000000	0.353427
742.000000	0.353706
743.000000	0.353939
744.000000	0.354298
745.000000	0.354549
746.000000	0.354770
747.000000	0.355021
748.000000	0.355327
749.000000	0.355636
750.000000	0.355880
751.000000	0.356141
752.000000	0.356371
753.000000	0.356592
754.000000	0.356854
755.000000	0.357085
756.000000	0.357303
757.000000	0.357481
758.000000	0.357561
759.000000	0.357657
760.000000	0.357755
761.000000	0.357863
762.000000	0.357992
763.000000	0.358122
764.000000	0.358301
765.000000	0.358362
766.000000	0.358375
767.000000	0.358422
768.000000	0.358441
769.000000	0.358443
770.000000	0.358439
771.000000	0.358406
772.000000	0.358447
773.000000	0.358467
774.000000	0.358453
775.000000	0.358379
776.000000	0.358298
777.000000	0.358214
778.000000	0.358038
779.000000	0.357874
780.000000	0.357753
781.000000	0.357621
782.000000	0.357465
783.000000	0.357365
784.000000	0.357211
785.000000	0.357039
786.000000	0.356896
787.000000	0.356776
788.000000	0.356581
789.000000	0.356475
790.000000	0.356380
791.000000	0.356159
792.000000	0.356000
793.000000	0.355838
794.000000	0.355605
795.000000	0.355320
796.000000	0.355090
797.000000	0.354903
798.000000	0.354632
799.000000	0.354403
800.000000	0.354185
801.000000	0.353924
802.000000	0.353725
803.000000	0.353511
804.000000	0.353265
805.000000	0.352962
806.000000	0.352604
807.000000	0.352301
808.000000	0.352037
809.000000	0.351804
810.000000	0.351586
811.000000	0.351336
812.000000	0.350984
813.000000	0.350593
814.000000	0.350223
815.000000	0.349956
816.000000	0.349669
817.000000	0.349379
818.000000	0.349039
819.000000	0.348715
820.000000	0.348401
821.000000	0.348054
822.000000	0.347758
823.000000	0.347439
824.000000	0.347021
825.000000	0.346588
826.000000	0.346252
827.000000	0.345995
828.000000	0.345818
829.000000	0.345625
830.000000	0.345336
831.000000	0.345008
832.000000	0.344605
833.000000	0.344334
834.000000	0.344078
835.000000	0.343770
836.000000	0.343516
837.000000	0.343174
838.000000	0.342738
839.000000	0.342264
840.000000	0.341874
841.000000	0.341536
842.000000	0.341162
843.000000	0.340874
844.000000	0.340621
845.000000	0.340365
846.000000	0.340180
847.000000	0.339823
848.000000	0.339428
849.000000	0.339198
850.000000	0.338836
851.000000	0.338385
852.000000	0.337997
853.000000	0.337842
854.000000	0.337589
855.000000	0.337299
856.000000	0.336963
857.000000	0.336700
858.000000	0.336465
859.000000	0.336146
860.000000	0.335790
861.000000	0.335555
862.000000	0.335388
863.000000	0.335080
864.000000	0.334732
865.000000	0.334455
866.000000	0.334271
867.000000	0.333939
868.000000	0.333600
869.000000	0.333296
870.000000	0.333118
871.000000	0.332739
872.000000	0.332423
873.000000	0.332217
874.000000	0.331863
875.000000	0.331604
876.000000	0.331420
877.000000	0.331124
878.000000	0.330896
879.000000	0.330649
880.000000	0.330242
881.000000	0.330031
882.000000	0.329801
883.000000	0.329572
884.000000	0.329361
885.000000	0.329104
886.000000	0.328702
887.000000	0.328251
888.000000	0.328114
889.000000	0.328031
890.000000	0.327817
891.000000	0.327566
892.000000	0.327220
893.000000	0.326897
894.000000	0.326722
895.000000	0.326383
896.000000	0.326114
897.000000	0.325958
898.000000	0.325876
899.000000	0.325755
900.000000	0.325584
901.000000	0.325369
902.000000	0.325267
903.000000	0.325069
904.000000	0.324862
905.000000	0.324668
906.000000	0.324490
907.000000	0.324225
908.000000	0.323964
909.000000	0.323806
910.000000	0.323742
911.000000	0.323612
912.000000	0.323328
913.000000	0.323068
914.000000	0.322991
915.000000	0.323083
916.000000	0.323008
917.000000	0.322822
918.000000	0.322569
919.000000	0.322299
920.000000	0.322166
921.000000	0.321948
922.000000	0.321751
923.000000	0.321768
924.000000	0.321645
925.000000	0.321479
926.000000	0.321367
927.000000	0.321172
928.000000	0.321064
929.000000	0.321013
930.000000	0.320926
931.000000	0.320734
932.000000	0.320610
933.000000	0.320586
934.000000	0.320418
935.000000	0.320172
936.000000	0.320029
937.000000	0.319984
938.000000	0.319860
939.000000	0.319794
940.000000	0.319661
941.000000	0.319393
942.000000	0.319262
943.000000	0.319222
944.000000	0.319073
945.000000	0.318853
946.000000	0.318807
947.000000	0.318894
948.000000	0.318904
949.000000	0.318829
950.000000	0.318720
951.000000	0.318622
952.000000	0.318680
953.000000	0.318522
954.000000	0.318523
955.000000	0.318719
956.000000	0.318180
957.000000	0.317964
958.000000	0.317962
959.000000	0.317780
960.000000	0.317710
961.000000	0.317654
962.000000	0.317564
963.000000	0.317542
964.000000	0.317505
965.000000	0.317478
966.000000	0.317410
967.000000	0.317521
968.000000	0.317580
969.000000	0.317446
970.000000	0.317227
971.000000	0.317255
972.000000	0.317229
973.000000	0.317053
974.000000	0.317150
975.000000	0.317355
976.000000	0.317460
977.000000	0.317322
978.000000	0.316990
979.000000	0.317172
980.000000	0.317449
981.000000	0.317487
982.000000	0.317484
983.000000	0.317529
984.000000	0.317658
985.000000	0.317684
986.000000	0.317599
987.000000	0.317563
988.000000	0.317619
989.000000	0.317949
990.000000	0.318030
991.000000	0.317845
992.000000	0.317704
993.000000	0.318129
994.000000	0.318333
995.000000	0.318348
996.000000	0.318411
997.000000	0.318524
998.000000	0.318595
999.000000	0.318754
1000.000000	0.319192
1001.000000	0.318730
1002.000000	0.318696
1003.000000	0.319115
1004.000000	0.319169
1005.000000	0.318323
1006.000000	0.318187
1007.000000	0.318520
1008.000000	0.318591
1009.000000	0.318840
1010.000000	0.319511
1011.000000	0.319670
1012.000000	0.319930
1013.000000	0.319858
1014.000000	0.319300
1015.000000	0.319476
1016.000000	0.319980
1017.000000	0.319954
1018.000000	0.320633
1019.000000	0.321249
1020.000000	0.321968
1021.000000	0.321911
1022.000000	0.321978
1023.000000	0.322279
1024.000000	0.322015
1025.000000	0.321991
1026.000000	0.322750
1027.000000	0.323064
1028.000000	0.323037
1029.000000	0.323471
1030.000000	0.323683
1031.000000	0.323751
1032.000000	0.323575
1033.000000	0.322986
1034.000000	0.323033
1035.000000	0.323172
1036.000000	0.323478
1037.000000	0.324580
1038.000000	0.325078
1039.000000	0.325433
1040.000000	0.325553
1041.000000	0.325893
1042.000000	0.326388
1043.000000	0.326861
1044.000000	0.327371
1045.000000	0.327863
1046.000000	0.327535
1047.000000	0.327883
1048.000000	0.328590
1049.000000	0.328898
1050.000000	0.329382
1051.000000	0.329537
1052.000000	0.328753
1053.000000	0.328851
1054.000000	0.329841
1055.000000	0.330244
1056.000000	0.330645
1057.000000	0.331221
1058.000000	0.331816
1059.000000	0.331968
1060.000000	0.332674
1061.000000	0.333532
1062.000000	0.333631
1063.000000	0.333807
1064.000000	0.334216
1065.000000	0.334814
1066.000000	0.335219
1067.000000	0.335650
1068.000000	0.335964
1069.000000	0.335928
1070.000000	0.336188
1071.000000	0.336563
1072.000000	0.337080
1073.000000	0.337901
1074.000000	0.338727
1075.000000	0.339166
1076.000000	0.339763
1077.000000	0.340288
1078.000000	0.340502
1079.000000	0.341008
1080.000000	0.342002
1081.000000	0.342329
1082.000000	0.342290
1083.000000	0.342660
1084.000000	0.342742
1085.000000	0.343359
1086.000000	0.344853
1087.000000	0.345605
1088.000000	0.346004
1089.000000	0.346515
1090.000000	0.346825
1091.000000	0.346890
1092.000000	0.347134
1093.000000	0.347606
1094.000000	0.348248
1095.000000	0.348907
1096.000000	0.349461
1097.000000	0.350386
1098.000000	0.350915
1099.000000	0.350916
1100.000000	0.351265
1101.000000	0.351718
1102.000000	0.352016
1103.000000	0.352044
1104.000000	0.352485
1105.000000	0.353185
1106.000000	0.353699
1107.000000	0.354343
1108.000000	0.354886
1109.000000	0.355136
1110.000000	0.355586
1111.000000	0.356218
1112.000000	0.357178
1113.000000	0.357675
1114.000000	0.358061
1115.000000	0.358575
1116.000000	0.358983
1117.000000	0.359305
1118.000000	0.359662
1119.000000	0.360034
1120.000000	0.360152
1121.000000	0.360472
1122.000000	0.361208
1123.000000	0.361924
1124.000000	0.362353
1125.000000	0.362850
1126.000000	0.363488
1127.000000	0.363784
1128.000000	0.363912
1129.000000	0.363735
1130.000000	0.364153
1131.000000	0.364658
1132.000000	0.365046
1133.000000	0.365861
1134.000000	0.366413
1135.000000	0.366627
1136.000000	0.366889
1137.000000	0.367218
1138.000000	0.367481
1139.000000	0.367595
1140.000000	0.367946
1141.000000	0.368480
1142.000000	0.368895
1143.000000	0.369251
1144.000000	0.369673
1145.000000	0.369938
1146.000000	0.369924
1147.000000	0.370242
1148.000000	0.370520
1149.000000	0.370898
1150.000000	0.371530
1151.000000	0.371943
1152.000000	0.372196
1153.000000	0.372520
1154.000000	0.372772
1155.000000	0.373029
1156.000000	0.373354
1157.000000	0.373583
1158.000000	0.373560
1159.000000	0.373774
1160.000000	0.374091
1161.000000	0.374351
1162.000000	0.374762
1163.000000	0.375347
1164.000000	0.375611
1165.000000	0.375741
1166.000000	0.376118
1167.000000	0.376541
1168.000000	0.376800
1169.000000	0.377159
1170.000000	0.377469
1171.000000	0.377662
1172.000000	0.377969
1173.000000	0.378313
1174.000000	0.378641
1175.000000	0.378991
1176.000000	0.379163
1177.000000	0.379389
1178.000000	0.379593
1179.000000	0.379564
1180.000000	0.379623
1181.000000	0.379906
1182.000000	0.380024
1183.000000	0.380339
1184.000000	0.380863
1185.000000	0.381110
1186.000000	0.381330
1187.000000	0.381515
1188.000000	0.381485
1189.000000	0.381621
1190.000000	0.381937
1191.000000	0.382186
1192.000000	0.382520
1193.000000	0.382940
1194.000000	0.383308
1195.000000	0.383624
1196.000000	0.383897
1197.000000	0.384147
1198.000000	0.384297
1199.000000	0.384542
1200.000000	0.384890
1201.000000	0.385096
1202.000000	0.385277
1203.000000	0.385444
1204.000000	0.385455
1205.000000	0.385577
1206.000000	0.385669
1207.000000	0.385911
1208.000000	0.386010
1209.000000	0.386165
1210.000000	0.386242
1211.000000	0.386179
1212.000000	0.386275
1213.000000	0.386436
1214.000000	0.386624
1215.000000	0.386973
1216.000000	0.387176
1217.000000	0.387282
1218.000000	0.387352
1219.000000	0.387358
1220.000000	0.387395
1221.000000	0.387570
1222.000000	0.387698
1223.000000	0.387703
1224.000000	0.387773
1225.000000	0.387819
1226.000000	0.387999
1227.000000	0.388286
1228.000000	0.388589
1229.000000	0.388757
1230.000000	0.388725
1231.000000	0.388790
1232.000000	0.389014
1233.000000	0.389276
1234.000000	0.389564
1235.000000	0.389790
1236.000000	0.389932
1237.000000	0.390097
1238.000000	0.390205
1239.000000	0.390251
1240.000000	0.390202
1241.000000	0.390217
1242.000000	0.390356
1243.000000	0.390421
1244.000000	0.390584
1245.000000	0.390780
1246.000000	0.390739
1247.000000	0.390829
1248.000000	0.391010
1249.000000	0.391195
1250.000000	0.391331
1251.000000	0.391465
1252.000000	0.391629
1253.000000	0.391857
1254.000000	0.391932
1255.000000	0.391993
1256.000000	0.392036
1257.000000	0.391964
1258.000000	0.392020
1259.000000	0.392044
1260.000000	0.392113
1261.000000	0.392129
1262.000000	0.392166
1263.000000	0.392195
1264.000000	0.392430
1265.000000	0.392593
1266.000000	0.392572
1267.000000	0.392522
1268.000000	0.392402
1269.000000	0.392207
1270.000000	0.392120
1271.000000	0.392139
1272.000000	0.392238
1273.000000	0.392371
1274.000000	0.392554
1275.000000	0.392569
1276.000000	0.392400
1277.000000	0.392509
1278.000000	0.392619
1279.000000	0.392626
1280.000000	0.392700
1281.000000	0.392654
1282.000000	0.392362
1283.000000	0.392381
1284.000000	0.392499
1285.000000	0.392584
1286.000000	0.392733
1287.000000	0.392838
1288.000000	0.392934
1289.000000	0.393065
1290.000000	0.393048
1291.000000	0.393136
1292.000000	0.393265
1293.000000	0.393162
1294.000000	0.393181
1295.000000	0.393248
1296.000000	0.393184
1297.000000	0.393103
1298.000000	0.393029
1299.000000	0.393158
1300.000000	0.393336
1301.000000	0.393330
1302.000000	0.393278
1303.000000	0.393303
1304.000000	0.393196
1305.000000	0.393127
1306.000000	0.393019
1307.000000	0.392853
1308.000000	0.392775
1309.000000	0.392704
1310.000000	0.392648
1311.000000	0.392713
1312.000000	0.392644
1313.000000	0.392622
1314.000000	0.392512
1315.000000	0.392236
1316.000000	0.392199
1317.000000	0.392194
1318.000000	0.392102
1319.000000	0.392083
1320.000000	0.392122
1321.000000	0.392006
1322.000000	0.391859
1323.000000	0.391796
1324.000000	0.391681
1325.000000	0.391570
1326.000000	0.391486
1327.000000	0.391313
1328.000000	0.391204
1329.000000	0.391118
1330.000000	0.391124
1331.000000	0.391028
1332.000000	0.390950
1333.000000	0.390926
1334.000000	0.390938
1335.000000	0.390904
1336.000000	0.390916
1337.000000	0.390966
1338.000000	0.390950
1339.000000	0.390853
1340.000000	0.390694
1341.000000	0.390508
1342.000000	0.390238
1343.000000	0.389948
1344.000000	0.389918
1345.000000	0.389921
1346.000000	0.389912
1347.000000	0.389660
1348.000000	0.389431
1349.000000	0.389206
1350.000000	0.389043
1351.000000	0.389104
1352.000000	0.389091
1353.000000	0.388984
1354.000000	0.388932
1355.000000	0.388832
1356.000000	0.388824
1357.000000	0.388788
1358.000000	0.388727
1359.000000	0.388613
1360.000000	0.388528
1361.000000	0.388542
1362.000000	0.388454
1363.000000	0.388268
1364.000000	0.388190
1365.000000	0.388086
1366.000000	0.387886
1367.000000	0.387692
1368.000000	0.387479
1369.000000	0.387311
1370.000000	0.387104
1371.000000	0.386786
1372.000000	0.386503
1373.000000	0.386122
1374.000000	0.385676
1375.000000	0.385389
1376.000000	0.385223
1377.000000	0.384863
1378.000000	0.384326
1379.000000	0.383655
1380.000000	0.382857
1381.000000	0.382098
1382.000000	0.381453
1383.000000	0.380803
1384.000000	0.380033
1385.000000	0.379254
1386.000000	0.378336
1387.000000	0.377381
1388.000000	0.376435
1389.000000	0.375344
1390.000000	0.374332
1391.000000	0.373165
1392.000000	0.371954
1393.000000	0.370780
1394.000000	0.369596
1395.000000	0.368412
1396.000000	0.367332
1397.000000	0.366081
1398.000000	0.364711
1399.000000	0.363377
1400.000000	0.361973
1401.000000	0.360470
1402.000000	0.358948
1403.000000	0.357412
1404.000000	0.356060
1405.000000	0.354829
1406.000000	0.353681
1407.000000	0.352466
1408.000000	0.351029
1409.000000	0.349827
1410.000000	0.348837
1411.000000	0.347857
1412.000000	0.346937
1413.000000	0.346105
1414.000000	0.345276
1415.000000	0.344561
1416.000000	0.344119
1417.000000	0.343810
1418.000000	0.343586
1419.000000	0.343496
1420.000000	0.343279
1421.000000	0.343036
1422.000000	0.342720
1423.000000	0.342458
1424.000000	0.342063
1425.000000	0.341677
1426.000000	0.341320
1427.000000	0.340913
1428.000000	0.340467
1429.000000	0.340042
1430.000000	0.339562
1431.000000	0.338989
1432.000000	0.338703
1433.000000	0.338629
1434.000000	0.338620
1435.000000	0.338873
1436.000000	0.339262
1437.000000	0.339670
1438.000000	0.340356
1439.000000	0.341347
1440.000000	0.342402
1441.000000	0.343748
1442.000000	0.345019
1443.000000	0.346278
1444.000000	0.347590
1445.000000	0.348829
1446.000000	0.349961
1447.000000	0.350967
1448.000000	0.351891
1449.000000	0.352723
1450.000000	0.353379
1451.000000	0.354073
1452.000000	0.354566
1453.000000	0.354863
1454.000000	0.355130
1455.000000	0.355287
1456.000000	0.355481
1457.000000	0.355671
1458.000000	0.355876
1459.000000	0.356102
1460.000000	0.356214
1461.000000	0.356249
1462.000000	0.356253
1463.000000	0.356250
1464.000000	0.356371
1465.000000	0.356579
1466.000000	0.356871
1467.000000	0.357137
1468.000000	0.357225
1469.000000	0.357545
1470.000000	0.357824
1471.000000	0.358004
1472.000000	0.358328
1473.000000	0.358709
1474.000000	0.358981
1475.000000	0.359313
1476.000000	0.359701
1477.000000	0.360011
1478.000000	0.360329
1479.000000	0.360778
1480.000000	0.361254
1481.000000	0.361644
1482.000000	0.362110
1483.000000	0.362522
1484.000000	0.362841
1485.000000	0.363171
1486.000000	0.363411
1487.000000	0.363772
1488.000000	0.364227
1489.000000	0.364652
1490.000000	0.365061
1491.000000	0.365406
1492.000000	0.365523
1493.000000	0.365838
1494.000000	0.366218
1495.000000	0.366542
1496.000000	0.366908
1497.000000	0.367297
1498.000000	0.367704
1499.000000	0.367998
1500.000000	0.368385
1501.000000	0.368730
1502.000000	0.368959
1503.000000	0.369311
1504.000000	0.369654
1505.000000	0.369923
1506.000000	0.370169
1507.000000	0.370278
1508.000000	0.370408
1509.000000	0.370654
1510.000000	0.370905
1511.000000	0.371238
1512.000000	0.371562
1513.000000	0.371823
1514.000000	0.372114
1515.000000	0.372250
1516.000000	0.372404
1517.000000	0.372657
1518.000000	0.372845
1519.000000	0.372953
1520.000000	0.373027
1521.000000	0.372930
1522.000000	0.372942
1523.000000	0.373093
1524.000000	0.373178
1525.000000	0.373407
1526.000000	0.373645
1527.000000	0.373862
1528.000000	0.374119
1529.000000	0.374291
1530.000000	0.374326
1531.000000	0.374297
1532.000000	0.374315
1533.000000	0.374378
1534.000000	0.374422
1535.000000	0.374517
1536.000000	0.374589
1537.000000	0.374801
1538.000000	0.374997
1539.000000	0.375040
1540.000000	0.375198
1541.000000	0.375361
1542.000000	0.375492
1543.000000	0.375776
1544.000000	0.376097
1545.000000	0.376344
1546.000000	0.376555
1547.000000	0.376790
1548.000000	0.376891
1549.000000	0.376849
1550.000000	0.376920
1551.000000	0.377057
1552.000000	0.377141
1553.000000	0.377216
1554.000000	0.377258
1555.000000	0.377329
1556.000000	0.377411
1557.000000	0.377464
1558.000000	0.377573
1559.000000	0.377603
1560.000000	0.377644
1561.000000	0.377816
1562.000000	0.377878
1563.000000	0.377932
1564.000000	0.377985
1565.000000	0.377953
1566.000000	0.377917
1567.000000	0.377989
1568.000000	0.378089
1569.000000	0.378320
1570.000000	0.378444
1571.000000	0.378594
1572.000000	0.378579
1573.000000	0.378355
1574.000000	0.378356
1575.000000	0.378401
1576.000000	0.378467
1577.000000	0.378729
1578.000000	0.378798
1579.000000	0.378773
1580.000000	0.378821
1581.000000	0.378899
1582.000000	0.378963
1583.000000	0.379109
1584.000000	0.379113
1585.000000	0.379153
1586.000000	0.379184
1587.000000	0.379104
1588.000000	0.379073
1589.000000	0.379130
1590.000000	0.379089
1591.000000	0.379024
1592.000000	0.378953
1593.000000	0.378820
1594.000000	0.378748
1595.000000	0.378786
1596.000000	0.378814
1597.000000	0.378897
1598.000000	0.378929
1599.000000	0.378925
1600.000000	0.378965
1601.000000	0.379165
1602.000000	0.379250
1603.000000	0.379411
1604.000000	0.379435
1605.000000	0.379268
1606.000000	0.379304
1607.000000	0.379479
1608.000000	0.379547
1609.000000	0.379752
1610.000000	0.379805
1611.000000	0.379745
1612.000000	0.379740
1613.000000	0.379878
1614.000000	0.379863
1615.000000	0.379827
1616.000000	0.379793
1617.000000	0.379634
1618.000000	0.379546
1619.000000	0.379412
1620.000000	0.379407
1621.000000	0.379593
1622.000000	0.379631
1623.000000	0.379547
1624.000000	0.379629
1625.000000	0.379527
1626.000000	0.379483
1627.000000	0.379627
1628.000000	0.379801
1629.000000	0.379923
1630.000000	0.380107
1631.000000	0.380424
1632.000000	0.380505
1633.000000	0.380425
1634.000000	0.380421
1635.000000	0.380373
1636.000000	0.380407
1637.000000	0.380585
1638.000000	0.380566
1639.000000	0.380537
1640.000000	0.380524
1641.000000	0.380503
1642.000000	0.380486
1643.000000	0.380575
1644.000000	0.380548
1645.000000	0.380380
1646.000000	0.380277
1647.000000	0.380221
1648.000000	0.380181
1649.000000	0.380268
1650.000000	0.380401
1651.000000	0.380677
1652.000000	0.380770
1653.000000	0.380735
1654.000000	0.380779
1655.000000	0.380698
1656.000000	0.380618
1657.000000	0.380664
1658.000000	0.380690
1659.000000	0.380793
1660.000000	0.380877
1661.000000	0.380898
1662.000000	0.380970
1663.000000	0.380982
1664.000000	0.381033
1665.000000	0.381184
1666.000000	0.381310
1667.000000	0.381266
1668.000000	0.381331
1669.000000	0.381415
1670.000000	0.381440
1671.000000	0.381658
1672.000000	0.381727
1673.000000	0.381620
1674.000000	0.381662
1675.000000	0.381753
1676.000000	0.381969
1677.000000	0.382176
1678.000000	0.382114
1679.000000	0.382117
1680.000000	0.382096
1681.000000	0.381964
1682.000000	0.381904
1683.000000	0.381870
1684.000000	0.381800
1685.000000	0.381820
1686.000000	0.381886
1687.000000	0.381957
1688.000000	0.381845
1689.000000	0.381653
1690.000000	0.381508
1691.000000	0.381422
1692.000000	0.381350
1693.000000	0.381394
1694.000000	0.381430
1695.000000	0.381433
1696.000000	0.381350
1697.000000	0.381258
1698.000000	0.381128
1699.000000	0.381118
1700.000000	0.381254
1701.000000	0.381380
1702.000000	0.381272
1703.000000	0.381261
1704.000000	0.381425
1705.000000	0.381480
1706.000000	0.381618
1707.000000	0.381723
1708.000000	0.381693
1709.000000	0.381619
1710.000000	0.381696
1711.000000	0.381698
1712.000000	0.381580
1713.000000	0.381544
1714.000000	0.381585
1715.000000	0.381639
1716.000000	0.381782
1717.000000	0.381832
1718.000000	0.381852
1719.000000	0.381773
1720.000000	0.381620
1721.000000	0.381545
1722.000000	0.381452
1723.000000	0.381375
1724.000000	0.381389
1725.000000	0.381377
1726.000000	0.381200
1727.000000	0.381166
1728.000000	0.381175
1729.000000	0.381027
1730.000000	0.380976
1731.000000	0.380969
1732.000000	0.380932
1733.000000	0.380985
1734.000000	0.381020
1735.000000	0.381011
1736.000000	0.380889
1737.000000	0.380870
1738.000000	0.380918
1739.000000	0.380962
1740.000000	0.381061
1741.000000	0.380977
1742.000000	0.380821
1743.000000	0.380796
1744.000000	0.380679
1745.000000	0.380627
1746.000000	0.380670
1747.000000	0.380755
1748.000000	0.380698
1749.000000	0.380622
1750.000000	0.380550
1751.000000	0.380561
1752.000000	0.380605
1753.000000	0.380514
1754.000000	0.380486
1755.000000	0.380385
1756.000000	0.380273
1757.000000	0.380217
1758.000000	0.380181
1759.000000	0.380096
1760.000000	0.380010
1761.000000	0.379902
1762.000000	0.379812
1763.000000	0.379721
1764.000000	0.379653
1765.000000	0.379626
1766.000000	0.379537
1767.000000	0.379219
1768.000000	0.379110
1769.000000	0.379305
1770.000000	0.379260
1771.000000	0.379089
1772.000000	0.379056
1773.000000	0.378891
1774.000000	0.378760
1775.000000	0.378858
1776.000000	0.378888
1777.000000	0.378699
1778.000000	0.378652
1779.000000	0.378818
1780.000000	0.378785
1781.000000	0.378556
1782.000000	0.378506
1783.000000	0.378511
1784.000000	0.378624
1785.000000	0.378803
1786.000000	0.378772
1787.000000	0.378738
1788.000000	0.378713
1789.000000	0.378521
1790.000000	0.378578
1791.000000	0.378523
1792.000000	0.378502
1793.000000	0.378493
1794.000000	0.378457
1795.000000	0.378500
1796.000000	0.378644
1797.000000	0.378675
1798.000000	0.378763
1799.000000	0.378656
1800.000000	0.378238
1801.000000	0.378954
1802.000000	0.378700
1803.000000	0.378002
1804.000000	0.377838
1805.000000	0.377169
1806.000000	0.377480
1807.000000	0.379005
1808.000000	0.379523
1809.000000	0.379793
1810.000000	0.380907
1811.000000	0.380606
1812.000000	0.378736
1813.000000	0.378673
1814.000000	0.378934
1815.000000	0.379154
1816.000000	0.380434
1817.000000	0.380907
1818.000000	0.381042
1819.000000	0.381098
1820.000000	0.380763
1821.000000	0.380922
1822.000000	0.380725
1823.000000	0.379763
1824.000000	0.379461
1825.000000	0.379470
1826.000000	0.379486
1827.000000	0.379447
1828.000000	0.379765
1829.000000	0.379993
1830.000000	0.379612
1831.000000	0.379236
1832.000000	0.378265
1833.000000	0.378158
1834.000000	0.378478
1835.000000	0.378492
1836.000000	0.378972
1837.000000	0.378818
1838.000000	0.378065
1839.000000	0.376908
1840.000000	0.375865
1841.000000	0.376079
1842.000000	0.376108
1843.000000	0.377047
1844.000000	0.376870
1845.000000	0.375756
1846.000000	0.375466
1847.000000	0.374789
1848.000000	0.374295
1849.000000	0.375132
1850.000000	0.376063
1851.000000	0.376327
1852.000000	0.376292
1853.000000	0.376463
1854.000000	0.376037
1855.000000	0.375766
1856.000000	0.375643
1857.000000	0.375597
1858.000000	0.374274
1859.000000	0.373757
1860.000000	0.373419
1861.000000	0.372022
1862.000000	0.371038
1863.000000	0.370455
1864.000000	0.369500
1865.000000	0.368199
1866.000000	0.367323
1867.000000	0.366720
1868.000000	0.365895
1869.000000	0.364659
1870.000000	0.362953
1871.000000	0.361438
1872.000000	0.359681
1873.000000	0.357961
1874.000000	0.356332
1875.000000	0.354808
1876.000000	0.352954
1877.000000	0.350857
1878.000000	0.348993
1879.000000	0.347484
1880.000000	0.345844
1881.000000	0.343361
1882.000000	0.340572
1883.000000	0.337567
1884.000000	0.334737
1885.000000	0.331575
1886.000000	0.328402
1887.000000	0.325510
1888.000000	0.321986
1889.000000	0.317765
1890.000000	0.313774
1891.000000	0.309635
1892.000000	0.304924
1893.000000	0.300454
1894.000000	0.295653
1895.000000	0.291130
1896.000000	0.286826
1897.000000	0.282840
1898.000000	0.278445
1899.000000	0.274729
1900.000000	0.271116
1901.000000	0.267724
1902.000000	0.264762
1903.000000	0.262225
1904.000000	0.259845
1905.000000	0.257516
1906.000000	0.255496
1907.000000	0.253940
1908.000000	0.252308
1909.000000	0.251320
1910.000000	0.250548
1911.000000	0.249650
1912.000000	0.249493
1913.000000	0.248896
1914.000000	0.248429
1915.000000	0.248568
1916.000000	0.248847
1917.000000	0.249162
1918.000000	0.249727
1919.000000	0.250625
1920.000000	0.251703
1921.000000	0.252336
1922.000000	0.253537
1923.000000	0.254648
1924.000000	0.255190
1925.000000	0.256143
1926.000000	0.256455
1927.000000	0.256646
1928.000000	0.257082
1929.000000	0.257665
1930.000000	0.258063
1931.000000	0.258803
1932.000000	0.259661
1933.000000	0.260290
1934.000000	0.260305
1935.000000	0.260254
1936.000000	0.260953
1937.000000	0.261283
1938.000000	0.261792
1939.000000	0.262480
1940.000000	0.263596
1941.000000	0.263864
1942.000000	0.264118
1943.000000	0.264582
1944.000000	0.264858
1945.000000	0.264998
1946.000000	0.265341
1947.000000	0.265567
1948.000000	0.265607
1949.000000	0.266055
1950.000000	0.267009
1951.000000	0.267612
1952.000000	0.268480
1953.000000	0.269059
1954.000000	0.269302
1955.000000	0.269419
1956.000000	0.269550
1957.000000	0.269777
1958.000000	0.270300
1959.000000	0.270607
1960.000000	0.271095
1961.000000	0.271498
1962.000000	0.271928
1963.000000	0.272350
1964.000000	0.273203
1965.000000	0.273458
1966.000000	0.274134
1967.000000	0.275067
1968.000000	0.275016
1969.000000	0.275220
1970.000000	0.275625
1971.000000	0.275919
1972.000000	0.276499
1973.000000	0.277027
1974.000000	0.277876
1975.000000	0.278654
1976.000000	0.279494
1977.000000	0.280338
1978.000000	0.280783
1979.000000	0.281156
1980.000000	0.281750
1981.000000	0.282456
1982.000000	0.283150
1983.000000	0.284003
1984.000000	0.284484
1985.000000	0.284394
1986.000000	0.284371
1987.000000	0.284227
1988.000000	0.284508
1989.000000	0.284789
1990.000000	0.285968
1991.000000	0.287044
1992.000000	0.287656
1993.000000	0.288590
1994.000000	0.289424
1995.000000	0.290501
1996.000000	0.291649
1997.000000	0.292232
1998.000000	0.292295
1999.000000	0.292631
2000.000000	0.292562
2001.000000	0.292673
2002.000000	0.294076
2003.000000	0.295315
2004.000000	0.296657
2005.000000	0.297732
2006.000000	0.297976
2007.000000	0.298049
2008.000000	0.298617
2009.000000	0.299252
2010.000000	0.300234
2011.000000	0.301669
2012.000000	0.302768
2013.000000	0.303871
2014.000000	0.304546
2015.000000	0.305369
2016.000000	0.306337
2017.000000	0.306746
2018.000000	0.307304
2019.000000	0.308051
2020.000000	0.307830
2021.000000	0.308283
2022.000000	0.309239
2023.000000	0.309830
2024.000000	0.310474
2025.000000	0.311217
2026.000000	0.311888
2027.000000	0.311901
2028.000000	0.312490
2029.000000	0.313181
2030.000000	0.313648
2031.000000	0.314406
2032.000000	0.315271
2033.000000	0.315892
2034.000000	0.316077
2035.000000	0.315968
2036.000000	0.316036
2037.000000	0.315630
2038.000000	0.315813
2039.000000	0.316487
2040.000000	0.317429
2041.000000	0.317947
2042.000000	0.318981
2043.000000	0.320402
2044.000000	0.320922
2045.000000	0.321679
2046.000000	0.322181
2047.000000	0.322418
2048.000000	0.321970
2049.000000	0.322298
2050.000000	0.322457
2051.000000	0.322684
2052.000000	0.323127
2053.000000	0.323431
2054.000000	0.324016
2055.000000	0.324047
2056.000000	0.324660
2057.000000	0.325321
2058.000000	0.325839
2059.000000	0.326841
2060.000000	0.327475
2061.000000	0.327759
2062.000000	0.328352
2063.000000	0.329306
2064.000000	0.329741
2065.000000	0.330633
2066.000000	0.330961
2067.000000	0.331219
2068.000000	0.330777
2069.000000	0.330620
2070.000000	0.330761
2071.000000	0.330502
2072.000000	0.330296
2073.000000	0.330233
2074.000000	0.329928
2075.000000	0.330280
2076.000000	0.331280
2077.000000	0.331938
2078.000000	0.332990
2079.000000	0.333582
2080.000000	0.334154
2081.000000	0.334355
2082.000000	0.334336
2083.000000	0.333788
2084.000000	0.333419
2085.000000	0.333413
2086.000000	0.333415
2087.000000	0.334160
2088.000000	0.335283
2089.000000	0.335841
2090.000000	0.336062
2091.000000	0.335989
2092.000000	0.336316
2093.000000	0.336291
2094.000000	0.336551
2095.000000	0.337711
2096.000000	0.338104
2097.000000	0.337809
2098.000000	0.337621
2099.000000	0.337739
2100.000000	0.338524
2101.000000	0.339720
2102.000000	0.340546
2103.000000	0.341041
2104.000000	0.340909
2105.000000	0.340804
2106.000000	0.340299
2107.000000	0.340093
2108.000000	0.339609
2109.000000	0.339593
2110.000000	0.339480
2111.000000	0.339766
2112.000000	0.340202
2113.000000	0.341338
2114.000000	0.341520
2115.000000	0.341599
2116.000000	0.341731
2117.000000	0.340698
2118.000000	0.340943
2119.000000	0.341957
2120.000000	0.342468
2121.000000	0.343305
2122.000000	0.343551
2123.000000	0.343372
2124.000000	0.343115
2125.000000	0.342190
2126.000000	0.342117
2127.000000	0.342471
2128.000000	0.342691
2129.000000	0.343055
2130.000000	0.343796
2131.000000	0.344032
2132.000000	0.343611
2133.000000	0.344221
2134.000000	0.344382
2135.000000	0.343720
2136.000000	0.344136
2137.000000	0.343879
2138.000000	0.343068
2139.000000	0.342457
2140.000000	0.341479
2141.000000	0.341244
2142.000000	0.341548
2143.000000	0.341204
2144.000000	0.341451
2145.000000	0.341520
2146.000000	0.340998
2147.000000	0.340953
2148.000000	0.341534
2149.000000	0.341862
2150.000000	0.341973
2151.000000	0.341682
2152.000000	0.340957
2153.000000	0.340101
2154.000000	0.340007
2155.000000	0.340161
2156.000000	0.340672
2157.000000	0.342600
2158.000000	0.343024
2159.000000	0.342950
2160.000000	0.342806
2161.000000	0.341343
2162.000000	0.341158
2163.000000	0.341496
2164.000000	0.341838
2165.000000	0.343146
2166.000000	0.343678
2167.000000	0.343639
2168.000000	0.343249
2169.000000	0.342194
2170.000000	0.341012
2171.000000	0.340587
2172.000000	0.340372
2173.000000	0.340420
2174.000000	0.341544
2175.000000	0.341786
2176.000000	0.341544
2177.000000	0.341799
2178.000000	0.341934
2179.000000	0.342293
2180.000000	0.343530
2181.000000	0.343962
2182.000000	0.343583
2183.000000	0.342577
2184.000000	0.341333
2185.000000	0.339916
2186.000000	0.338388
2187.000000	0.337937
2188.000000	0.337810
2189.000000	0.338135
2190.000000	0.338987
2191.000000	0.339356
2192.000000	0.339461
2193.000000	0.339110
2194.000000	0.338427
2195.000000	0.337186
2196.000000	0.336612
2197.000000	0.335797
2198.000000	0.335124
2199.000000	0.335449
2200.000000	0.335335
2201.000000	0.333839
2202.000000	0.333833
2203.000000	0.335664
2204.000000	0.335276
2205.000000	0.335094
2206.000000	0.335122
2207.000000	0.332701
2208.000000	0.329810
2209.000000	0.327998
2210.000000	0.328015
2211.000000	0.327066
2212.000000	0.328282
2213.000000	0.329419
2214.000000	0.330896
2215.000000	0.331473
2216.000000	0.332950
2217.000000	0.333293
2218.000000	0.330877
2219.000000	0.332043
2220.000000	0.335923
2221.000000	0.337556
2222.000000	0.340188
2223.000000	0.341469
2224.000000	0.341189
2225.000000	0.340571
2226.000000	0.336976
2227.000000	0.335736
2228.000000	0.336651
2229.000000	0.333169
2230.000000	0.333975
2231.000000	0.334166
2232.000000	0.330829
2233.000000	0.331987
2234.000000	0.331671
2235.000000	0.331450
2236.000000	0.331741
2237.000000	0.331676
2238.000000	0.332002
2239.000000	0.333915
2240.000000	0.334140
2241.000000	0.334236
2242.000000	0.333951
2243.000000	0.331686
2244.000000	0.331041
2245.000000	0.330569
2246.000000	0.330623
2247.000000	0.331836
2248.000000	0.332557
2249.000000	0.333544
2250.000000	0.334485
2251.000000	0.335199
2252.000000	0.336496
2253.000000	0.336539
2254.000000	0.335818
2255.000000	0.335347
2256.000000	0.333613
2257.000000	0.332683
2258.000000	0.334088
2259.000000	0.333135
2260.000000	0.332347
2261.000000	0.331530
2262.000000	0.329855
2263.000000	0.327216
2264.000000	0.325103
2265.000000	0.322317
2266.000000	0.318192
2267.000000	0.316044
2268.000000	0.313925
2269.000000	0.312303
2270.000000	0.311909
2271.000000	0.310081
2272.000000	0.307651
2273.000000	0.306745
2274.000000	0.305984
2275.000000	0.304802
2276.000000	0.305474
2277.000000	0.303825
2278.000000	0.299934
2279.000000	0.296827
2280.000000	0.292421
2281.000000	0.289276
2282.000000	0.286428
2283.000000	0.283777
2284.000000	0.281749
2285.000000	0.280867
2286.000000	0.282231
2287.000000	0.283694
2288.000000	0.285232
2289.000000	0.286488
2290.000000	0.286702
2291.000000	0.287173
2292.000000	0.288866
2293.000000	0.290190
2294.000000	0.292157
2295.000000	0.295055
2296.000000	0.296985
2297.000000	0.299217
2298.000000	0.300535
2299.000000	0.300258
2300.000000	0.301257
2301.000000	0.302359
2302.000000	0.304005
2303.000000	0.306270
2304.000000	0.308655
2305.000000	0.311930
2306.000000	0.313824
2307.000000	0.315478
2308.000000	0.316854
2309.000000	0.316685
2310.000000	0.316803
2311.000000	0.316963
2312.000000	0.316867
2313.000000	0.316641
2314.000000	0.314273
2315.000000	0.312789
2316.000000	0.312538
2317.000000	0.311137
2318.000000	0.312915
2319.000000	0.314241
2320.000000	0.313108
2321.000000	0.315816
2322.000000	0.315341
2323.000000	0.313266
2324.000000	0.313623
2325.000000	0.309718
2326.000000	0.306081
2327.000000	0.303695
2328.000000	0.300265
2329.000000	0.298278
2330.000000	0.296422
2331.000000	0.296597
2332.000000	0.298031
2333.000000	0.298667
2334.000000	0.302123
2335.000000	0.303682
2336.000000	0.301853
2337.000000	0.302943
2338.000000	0.304987
2339.000000	0.306751
2340.000000	0.312059
2341.000000	0.313680
2342.000000	0.313090
2343.000000	0.311882
2344.000000	0.307614
2345.000000	0.304528
2346.000000	0.300747
2347.000000	0.298680
2348.000000	0.297534
2349.000000	0.296703
2350.000000	0.297946
2351.000000	0.296227
2352.000000	0.290432
2353.000000	0.288831
2354.000000	0.286027
2355.000000	0.285026
2356.000000	0.286628
2357.000000	0.285066
2358.000000	0.283480
2359.000000	0.282637
2360.000000	0.284749
2361.000000	0.285527
2362.000000	0.282870
2363.000000	0.280491
2364.000000	0.275023
2365.000000	0.274531
2366.000000	0.277244
2367.000000	0.278615
2368.000000	0.283667
2369.000000	0.282979
2370.000000	0.281549
2371.000000	0.283236
2372.000000	0.279558
2373.000000	0.275032
2374.000000	0.269450
2375.000000	0.265683
2376.000000	0.267923
2377.000000	0.272644
2378.000000	0.278399
2379.000000	0.282326
2380.000000	0.278889
2381.000000	0.269939
2382.000000	0.262780
2383.000000	0.256584
2384.000000	0.255035
2385.000000	0.261998
2386.000000	0.270557
2387.000000	0.271981
2388.000000	0.268169
2389.000000	0.264842
2390.000000	0.258184
2391.000000	0.255789
2392.000000	0.257487
2393.000000	0.256516
2394.000000	0.257457
2395.000000	0.260594
2396.000000	0.261987
2397.000000	0.262329
2398.000000	0.264250
2399.000000	0.260195
2400.000000	0.256640
2401.000000	0.255075
2402.000000	0.249769
2403.000000	0.250916
2404.000000	0.252811
2405.000000	0.248055
2406.000000	0.244721
2407.000000	0.245358
2408.000000	0.248576
2409.000000	0.259776
2410.000000	0.271494
2411.000000	0.269454
2412.000000	0.262015
2413.000000	0.249078
2414.000000	0.236411
2415.000000	0.241693
2416.000000	0.243417
2417.000000	0.240815
2418.000000	0.242262
2419.000000	0.232620
2420.000000	0.233939
2421.000000	0.244956
2422.000000	0.260508
2423.000000	0.276698
2424.000000	0.280263
2425.000000	0.283217
2426.000000	0.274327
2427.000000	0.266138
2428.000000	0.265460
2429.000000	0.260002
2430.000000	0.252063
2431.000000	0.246674
2432.000000	0.248061
2433.000000	0.246084
2434.000000	0.241020
2435.000000	0.242168
2436.000000	0.243615
2437.000000	0.246496
2438.000000	0.259308
2439.000000	0.260776
2440.000000	0.243910
2441.000000	0.230693
2442.000000	0.215362
2443.000000	0.207472
2444.000000	0.221782
2445.000000	0.227820
2446.000000	0.233588
2447.000000	0.231871
2448.000000	0.212527
2449.000000	0.208714
2450.000000	0.205300
2451.000000	0.209951
2452.000000	0.229443
2453.000000	0.235216
2454.000000	0.239201
2455.000000	0.238313
2456.000000	0.225623
2457.000000	0.218349
2458.000000	0.213598
2459.000000	0.217714
2460.000000	0.232045
2461.000000	0.242123
2462.000000	0.249468
2463.000000	0.245070
2464.000000	0.235193
2465.000000	0.246648
2466.000000	0.251675
2467.000000	0.240429
2468.000000	0.246589
2469.000000	0.233659
2470.000000	0.228982
2471.000000	0.244188
2472.000000	0.230988
2473.000000	0.220002
2474.000000	0.197147
2475.000000	0.202270
2476.000000	0.217733
2477.000000	0.227611
2478.000000	0.259278
2479.000000	0.256245
2480.000000	0.246176
2481.000000	0.243751
2482.000000	0.214519
2483.000000	0.174109
2484.000000	0.185775
2485.000000	0.220159
2486.000000	0.227992
2487.000000	0.268510
2488.000000	0.271359
2489.000000	0.253736
2490.000000	0.245962
2491.000000	0.250585
2492.000000	0.230011
2493.000000	0.170554
2494.000000	0.152278
2495.000000	0.123991
2496.000000	0.123840
2497.000000	0.188801
2498.000000	0.216329
2499.000000	0.275908
2500.000000	0.285151
