# Wavelength	NAu-1-10_HEX-50_FV7-40_00000.asd.rts.txt
350.000000	0.248081
351.000000	0.240395
352.000000	0.205030
353.000000	0.193625
354.000000	0.218086
355.000000	0.208985
356.000000	0.204311
357.000000	0.209302
358.000000	0.204830
359.000000	0.197651
360.000000	0.196049
361.000000	0.204342
362.000000	0.199830
363.000000	0.193264
364.000000	0.192617
365.000000	0.194029
366.000000	0.196917
367.000000	0.200533
368.000000	0.204579
369.000000	0.206680
370.000000	0.206131
371.000000	0.203684
372.000000	0.206358
373.000000	0.209798
374.000000	0.210575
375.000000	0.208807
376.000000	0.206269
377.000000	0.205193
378.000000	0.208906
379.000000	0.213081
380.000000	0.214251
381.000000	0.211249
382.000000	0.211373
383.000000	0.212275
384.000000	0.212129
385.000000	0.213458
386.000000	0.212443
387.000000	0.210355
388.000000	0.214042
389.000000	0.216696
390.000000	0.216370
391.000000	0.213289
392.000000	0.216739
393.000000	0.220986
394.000000	0.220921
395.000000	0.219831
396.000000	0.220012
397.000000	0.221415
398.000000	0.221039
399.000000	0.221353
400.000000	0.222268
401.000000	0.222642
402.000000	0.223543
403.000000	0.224852
404.000000	0.226192
405.000000	0.226098
406.000000	0.227431
407.000000	0.230341
408.000000	0.230057
409.000000	0.229816
410.000000	0.230401
411.000000	0.231325
412.000000	0.230736
413.000000	0.230492
414.000000	0.232384
415.000000	0.232527
416.000000	0.232585
417.000000	0.233548
418.000000	0.234148
419.000000	0.234141
420.000000	0.234026
421.000000	0.235039
422.000000	0.235686
423.000000	0.235741
424.000000	0.235554
425.000000	0.235991
426.000000	0.236599
427.000000	0.236902
428.000000	0.236905
429.000000	0.237131
430.000000	0.237597
431.000000	0.237602
432.000000	0.237831
433.000000	0.238242
434.000000	0.238574
435.000000	0.238591
436.000000	0.238574
437.000000	0.238730
438.000000	0.238458
439.000000	0.238428
440.000000	0.238905
441.000000	0.239000
442.000000	0.238900
443.000000	0.238735
444.000000	0.238808
445.000000	0.238887
446.000000	0.239096
447.000000	0.239483
448.000000	0.240337
449.000000	0.240983
450.000000	0.241114
451.000000	0.241521
452.000000	0.242433
453.000000	0.243570
454.000000	0.244211
455.000000	0.245185
456.000000	0.246323
457.000000	0.246966
458.000000	0.248186
459.000000	0.249351
460.000000	0.249913
461.000000	0.250611
462.000000	0.251291
463.000000	0.251772
464.000000	0.252426
465.000000	0.252917
466.000000	0.253175
467.000000	0.253432
468.000000	0.254258
469.000000	0.254860
470.000000	0.254578
471.000000	0.255003
472.000000	0.255532
473.000000	0.255797
474.000000	0.256542
475.000000	0.257017
476.000000	0.257200
477.000000	0.257490
478.000000	0.257706
479.000000	0.257987
480.000000	0.258225
481.000000	0.258408
482.000000	0.258827
483.000000	0.259436
484.000000	0.259887
485.000000	0.260043
486.000000	0.260147
487.000000	0.260525
488.000000	0.260881
489.000000	0.261228
490.000000	0.261743
491.000000	0.262087
492.000000	0.262365
493.000000	0.262660
494.000000	0.263073
495.000000	0.263465
496.000000	0.263764
497.000000	0.264408
498.000000	0.264842
499.000000	0.265063
500.000000	0.265542
501.000000	0.265971
502.000000	0.266375
503.000000	0.266820
504.000000	0.267299
505.000000	0.267723
506.000000	0.268024
507.000000	0.268229
508.000000	0.268627
509.000000	0.269232
510.000000	0.269628
511.000000	0.270055
512.000000	0.270595
513.000000	0.271177
514.000000	0.271560
515.000000	0.271912
516.000000	0.272432
517.000000	0.272866
518.000000	0.273317
519.000000	0.273789
520.000000	0.274224
521.000000	0.274643
522.000000	0.275064
523.000000	0.275498
524.000000	0.275869
525.000000	0.276274
526.000000	0.276953
527.000000	0.277488
528.000000	0.277906
529.000000	0.278384
530.000000	0.278921
531.000000	0.279431
532.000000	0.279805
533.000000	0.280230
534.000000	0.280809
535.000000	0.281479
536.000000	0.282041
537.000000	0.282545
538.000000	0.283009
539.000000	0.283444
540.000000	0.283909
541.000000	0.284389
542.000000	0.284881
543.000000	0.285291
544.000000	0.285760
545.000000	0.286273
546.000000	0.286790
547.000000	0.287271
548.000000	0.287745
549.000000	0.288194
550.000000	0.288730
551.000000	0.289267
552.000000	0.289642
553.000000	0.290071
554.000000	0.290580
555.000000	0.291160
556.000000	0.291788
557.000000	0.292302
558.000000	0.292794
559.000000	0.293294
560.000000	0.293746
561.000000	0.294269
562.000000	0.294894
563.000000	0.295279
564.000000	0.295640
565.000000	0.296121
566.000000	0.296556
567.000000	0.297043
568.000000	0.297580
569.000000	0.298001
570.000000	0.298397
571.000000	0.298803
572.000000	0.299241
573.000000	0.299620
574.000000	0.299934
575.000000	0.300275
576.000000	0.300653
577.000000	0.301028
578.000000	0.301420
579.000000	0.301776
580.000000	0.302125
581.000000	0.302458
582.000000	0.302699
583.000000	0.303012
584.000000	0.303404
585.000000	0.303797
586.000000	0.304126
587.000000	0.304386
588.000000	0.304615
589.000000	0.304949
590.000000	0.305272
591.000000	0.305521
592.000000	0.305810
593.000000	0.306079
594.000000	0.306329
595.000000	0.306626
596.000000	0.306845
597.000000	0.307051
598.000000	0.307272
599.000000	0.307470
600.000000	0.307677
601.000000	0.307851
602.000000	0.308067
603.000000	0.308245
604.000000	0.308376
605.000000	0.308556
606.000000	0.308735
607.000000	0.308923
608.000000	0.309161
609.000000	0.309322
610.000000	0.309449
611.000000	0.309615
612.000000	0.309737
613.000000	0.309911
614.000000	0.310193
615.000000	0.310355
616.000000	0.310445
617.000000	0.310513
618.000000	0.310745
619.000000	0.310956
620.000000	0.311084
621.000000	0.311176
622.000000	0.311217
623.000000	0.311269
624.000000	0.311380
625.000000	0.311481
626.000000	0.311650
627.000000	0.311872
628.000000	0.311954
629.000000	0.312154
630.000000	0.312336
631.000000	0.312466
632.000000	0.312601
633.000000	0.312762
634.000000	0.312926
635.000000	0.313027
636.000000	0.313179
637.000000	0.313410
638.000000	0.313625
639.000000	0.313819
640.000000	0.314026
641.000000	0.314141
642.000000	0.314345
643.000000	0.314563
644.000000	0.314665
645.000000	0.314794
646.000000	0.314971
647.000000	0.315134
648.000000	0.315103
649.000000	0.315214
650.000000	0.315509
651.000000	0.315713
652.000000	0.315880
653.000000	0.316057
654.000000	0.316214
655.000000	0.316366
656.000000	0.316555
657.000000	0.316747
658.000000	0.316912
659.000000	0.317099
660.000000	0.317305
661.000000	0.317502
662.000000	0.317648
663.000000	0.317811
664.000000	0.318017
665.000000	0.318198
666.000000	0.318375
667.000000	0.318553
668.000000	0.318719
669.000000	0.318911
670.000000	0.319148
671.000000	0.319376
672.000000	0.319597
673.000000	0.319812
674.000000	0.320056
675.000000	0.320271
676.000000	0.320461
677.000000	0.320665
678.000000	0.320888
679.000000	0.321099
680.000000	0.321292
681.000000	0.321506
682.000000	0.321777
683.000000	0.322014
684.000000	0.322243
685.000000	0.322414
686.000000	0.322610
687.000000	0.322882
688.000000	0.323037
689.000000	0.323179
690.000000	0.323437
691.000000	0.323752
692.000000	0.324021
693.000000	0.324277
694.000000	0.324512
695.000000	0.324761
696.000000	0.324998
697.000000	0.325182
698.000000	0.325418
699.000000	0.325674
700.000000	0.325913
701.000000	0.326114
702.000000	0.326324
703.000000	0.326532
704.000000	0.326705
705.000000	0.326927
706.000000	0.327152
707.000000	0.327377
708.000000	0.327561
709.000000	0.327749
710.000000	0.328006
711.000000	0.328292
712.000000	0.328553
713.000000	0.328789
714.000000	0.329021
715.000000	0.329229
716.000000	0.329441
717.000000	0.329674
718.000000	0.329884
719.000000	0.330099
720.000000	0.330347
721.000000	0.330531
722.000000	0.330684
723.000000	0.330888
724.000000	0.331084
725.000000	0.331288
726.000000	0.331531
727.000000	0.331673
728.000000	0.331790
729.000000	0.331949
730.000000	0.332135
731.000000	0.332357
732.000000	0.332520
733.000000	0.332662
734.000000	0.332864
735.000000	0.333006
736.000000	0.333226
737.000000	0.333478
738.000000	0.333705
739.000000	0.333939
740.000000	0.334053
741.000000	0.334242
742.000000	0.334417
743.000000	0.334514
744.000000	0.334583
745.000000	0.334638
746.000000	0.334755
747.000000	0.334908
748.000000	0.335132
749.000000	0.335349
750.000000	0.335474
751.000000	0.335591
752.000000	0.335665
753.000000	0.335742
754.000000	0.335904
755.000000	0.336012
756.000000	0.336090
757.000000	0.336148
758.000000	0.336198
759.000000	0.336282
760.000000	0.336346
761.000000	0.336455
762.000000	0.336541
763.000000	0.336583
764.000000	0.336671
765.000000	0.336753
766.000000	0.336835
767.000000	0.336917
768.000000	0.336992
769.000000	0.337018
770.000000	0.337011
771.000000	0.337048
772.000000	0.337143
773.000000	0.337213
774.000000	0.337283
775.000000	0.337391
776.000000	0.337503
777.000000	0.337583
778.000000	0.337705
779.000000	0.337756
780.000000	0.337728
781.000000	0.337686
782.000000	0.337669
783.000000	0.337711
784.000000	0.337654
785.000000	0.337636
786.000000	0.337594
787.000000	0.337536
788.000000	0.337675
789.000000	0.337727
790.000000	0.337671
791.000000	0.337664
792.000000	0.337643
793.000000	0.337614
794.000000	0.337593
795.000000	0.337551
796.000000	0.337502
797.000000	0.337483
798.000000	0.337568
799.000000	0.337667
800.000000	0.337735
801.000000	0.337744
802.000000	0.337688
803.000000	0.337661
804.000000	0.337698
805.000000	0.337558
806.000000	0.337365
807.000000	0.337305
808.000000	0.337406
809.000000	0.337413
810.000000	0.337394
811.000000	0.337408
812.000000	0.337372
813.000000	0.337282
814.000000	0.337171
815.000000	0.337136
816.000000	0.337128
817.000000	0.337149
818.000000	0.337112
819.000000	0.337011
820.000000	0.336940
821.000000	0.336861
822.000000	0.336689
823.000000	0.336707
824.000000	0.336758
825.000000	0.336681
826.000000	0.336531
827.000000	0.336420
828.000000	0.336443
829.000000	0.336491
830.000000	0.336440
831.000000	0.336358
832.000000	0.336237
833.000000	0.336103
834.000000	0.335938
835.000000	0.335781
836.000000	0.335707
837.000000	0.335634
838.000000	0.335541
839.000000	0.335405
840.000000	0.335244
841.000000	0.335168
842.000000	0.335184
843.000000	0.335074
844.000000	0.335000
845.000000	0.334959
846.000000	0.334850
847.000000	0.334740
848.000000	0.334639
849.000000	0.334575
850.000000	0.334449
851.000000	0.334338
852.000000	0.334324
853.000000	0.334374
854.000000	0.334278
855.000000	0.334194
856.000000	0.334145
857.000000	0.333908
858.000000	0.333767
859.000000	0.333733
860.000000	0.333595
861.000000	0.333450
862.000000	0.333372
863.000000	0.333317
864.000000	0.333123
865.000000	0.332922
866.000000	0.332808
867.000000	0.332653
868.000000	0.332607
869.000000	0.332534
870.000000	0.332342
871.000000	0.332246
872.000000	0.332161
873.000000	0.331988
874.000000	0.331916
875.000000	0.331707
876.000000	0.331489
877.000000	0.331427
878.000000	0.331224
879.000000	0.331150
880.000000	0.331140
881.000000	0.330898
882.000000	0.330636
883.000000	0.330446
884.000000	0.330287
885.000000	0.330098
886.000000	0.329899
887.000000	0.329777
888.000000	0.329850
889.000000	0.329771
890.000000	0.329498
891.000000	0.329344
892.000000	0.329185
893.000000	0.328929
894.000000	0.328685
895.000000	0.328442
896.000000	0.328277
897.000000	0.328123
898.000000	0.327909
899.000000	0.327843
900.000000	0.327721
901.000000	0.327461
902.000000	0.327319
903.000000	0.327173
904.000000	0.326993
905.000000	0.326700
906.000000	0.326554
907.000000	0.326388
908.000000	0.326231
909.000000	0.326133
910.000000	0.326014
911.000000	0.325844
912.000000	0.325631
913.000000	0.325372
914.000000	0.325167
915.000000	0.325036
916.000000	0.324765
917.000000	0.324535
918.000000	0.324310
919.000000	0.324050
920.000000	0.323932
921.000000	0.323738
922.000000	0.323492
923.000000	0.323306
924.000000	0.323141
925.000000	0.323030
926.000000	0.322934
927.000000	0.322539
928.000000	0.322270
929.000000	0.322136
930.000000	0.321983
931.000000	0.321643
932.000000	0.321404
933.000000	0.321344
934.000000	0.321177
935.000000	0.320924
936.000000	0.320718
937.000000	0.320530
938.000000	0.320198
939.000000	0.320132
940.000000	0.320155
941.000000	0.319929
942.000000	0.319612
943.000000	0.319350
944.000000	0.319104
945.000000	0.318972
946.000000	0.318769
947.000000	0.318661
948.000000	0.318708
949.000000	0.318279
950.000000	0.317919
951.000000	0.317721
952.000000	0.317446
953.000000	0.317341
954.000000	0.317061
955.000000	0.316441
956.000000	0.316348
957.000000	0.316327
958.000000	0.316191
959.000000	0.316008
960.000000	0.315828
961.000000	0.315532
962.000000	0.315182
963.000000	0.315114
964.000000	0.314970
965.000000	0.314777
966.000000	0.314531
967.000000	0.314450
968.000000	0.314251
969.000000	0.313885
970.000000	0.313585
971.000000	0.313458
972.000000	0.313540
973.000000	0.313604
974.000000	0.313357
975.000000	0.313231
976.000000	0.313100
977.000000	0.312827
978.000000	0.312605
979.000000	0.312698
980.000000	0.312612
981.000000	0.312164
982.000000	0.311898
983.000000	0.311703
984.000000	0.311503
985.000000	0.311178
986.000000	0.311197
987.000000	0.311117
988.000000	0.310581
989.000000	0.310215
990.000000	0.310455
991.000000	0.310718
992.000000	0.310410
993.000000	0.310601
994.000000	0.310639
995.000000	0.310483
996.000000	0.310205
997.000000	0.310319
998.000000	0.310188
999.000000	0.309806
1000.000000	0.309996
1001.000000	0.310831
1002.000000	0.309806
1003.000000	0.309353
1004.000000	0.309137
1005.000000	0.309275
1006.000000	0.309035
1007.000000	0.309038
1008.000000	0.308748
1009.000000	0.308312
1010.000000	0.307849
1011.000000	0.307550
1012.000000	0.307510
1013.000000	0.307373
1014.000000	0.306979
1015.000000	0.307264
1016.000000	0.307988
1017.000000	0.308232
1018.000000	0.308364
1019.000000	0.308396
1020.000000	0.308133
1021.000000	0.308006
1022.000000	0.308229
1023.000000	0.308304
1024.000000	0.308264
1025.000000	0.308097
1026.000000	0.308246
1027.000000	0.308606
1028.000000	0.308906
1029.000000	0.309520
1030.000000	0.309428
1031.000000	0.308563
1032.000000	0.308322
1033.000000	0.308385
1034.000000	0.308453
1035.000000	0.308875
1036.000000	0.309103
1037.000000	0.309373
1038.000000	0.309405
1039.000000	0.309287
1040.000000	0.309296
1041.000000	0.309749
1042.000000	0.309747
1043.000000	0.309491
1044.000000	0.309835
1045.000000	0.310444
1046.000000	0.310568
1047.000000	0.310742
1048.000000	0.311302
1049.000000	0.311295
1050.000000	0.310595
1051.000000	0.310539
1052.000000	0.310538
1053.000000	0.310567
1054.000000	0.311027
1055.000000	0.311407
1056.000000	0.311946
1057.000000	0.312213
1058.000000	0.312379
1059.000000	0.312593
1060.000000	0.312899
1061.000000	0.313193
1062.000000	0.313264
1063.000000	0.313446
1064.000000	0.313792
1065.000000	0.314068
1066.000000	0.314305
1067.000000	0.314782
1068.000000	0.315043
1069.000000	0.314926
1070.000000	0.314976
1071.000000	0.315178
1072.000000	0.315419
1073.000000	0.315606
1074.000000	0.315992
1075.000000	0.316351
1076.000000	0.316937
1077.000000	0.317482
1078.000000	0.317896
1079.000000	0.318163
1080.000000	0.318398
1081.000000	0.318449
1082.000000	0.318288
1083.000000	0.318373
1084.000000	0.318563
1085.000000	0.318782
1086.000000	0.318942
1087.000000	0.319223
1088.000000	0.319539
1089.000000	0.319868
1090.000000	0.320465
1091.000000	0.320641
1092.000000	0.320992
1093.000000	0.321162
1094.000000	0.321261
1095.000000	0.321213
1096.000000	0.321256
1097.000000	0.321009
1098.000000	0.321310
1099.000000	0.321966
1100.000000	0.322301
1101.000000	0.322851
1102.000000	0.323107
1103.000000	0.322695
1104.000000	0.322898
1105.000000	0.323529
1106.000000	0.323858
1107.000000	0.324222
1108.000000	0.324562
1109.000000	0.324712
1110.000000	0.324933
1111.000000	0.325205
1112.000000	0.325646
1113.000000	0.325910
1114.000000	0.326008
1115.000000	0.326377
1116.000000	0.327004
1117.000000	0.327245
1118.000000	0.327345
1119.000000	0.327545
1120.000000	0.327554
1121.000000	0.327636
1122.000000	0.328112
1123.000000	0.328467
1124.000000	0.328360
1125.000000	0.328416
1126.000000	0.328349
1127.000000	0.328378
1128.000000	0.328456
1129.000000	0.328651
1130.000000	0.328779
1131.000000	0.328956
1132.000000	0.329090
1133.000000	0.329255
1134.000000	0.329386
1135.000000	0.329453
1136.000000	0.329546
1137.000000	0.329519
1138.000000	0.329635
1139.000000	0.330085
1140.000000	0.330310
1141.000000	0.330510
1142.000000	0.330577
1143.000000	0.330104
1144.000000	0.330155
1145.000000	0.330225
1146.000000	0.330310
1147.000000	0.330536
1148.000000	0.330981
1149.000000	0.331249
1150.000000	0.331498
1151.000000	0.331724
1152.000000	0.331912
1153.000000	0.332031
1154.000000	0.332050
1155.000000	0.332075
1156.000000	0.331994
1157.000000	0.332033
1158.000000	0.332067
1159.000000	0.332119
1160.000000	0.332257
1161.000000	0.332320
1162.000000	0.332421
1163.000000	0.332589
1164.000000	0.332656
1165.000000	0.332704
1166.000000	0.332673
1167.000000	0.332455
1168.000000	0.332452
1169.000000	0.332509
1170.000000	0.332587
1171.000000	0.332914
1172.000000	0.333015
1173.000000	0.332952
1174.000000	0.332903
1175.000000	0.332708
1176.000000	0.332613
1177.000000	0.332581
1178.000000	0.332598
1179.000000	0.332741
1180.000000	0.332772
1181.000000	0.332904
1182.000000	0.332923
1183.000000	0.333073
1184.000000	0.333090
1185.000000	0.333104
1186.000000	0.333087
1187.000000	0.333131
1188.000000	0.333188
1189.000000	0.333131
1190.000000	0.333069
1191.000000	0.333110
1192.000000	0.333268
1193.000000	0.333390
1194.000000	0.333452
1195.000000	0.333520
1196.000000	0.333361
1197.000000	0.333361
1198.000000	0.333612
1199.000000	0.333735
1200.000000	0.333847
1201.000000	0.333828
1202.000000	0.333907
1203.000000	0.333957
1204.000000	0.333911
1205.000000	0.334048
1206.000000	0.334019
1207.000000	0.333930
1208.000000	0.333871
1209.000000	0.333897
1210.000000	0.333865
1211.000000	0.333790
1212.000000	0.333778
1213.000000	0.333826
1214.000000	0.333862
1215.000000	0.333938
1216.000000	0.333953
1217.000000	0.333879
1218.000000	0.333836
1219.000000	0.333827
1220.000000	0.333777
1221.000000	0.333820
1222.000000	0.333885
1223.000000	0.333819
1224.000000	0.333965
1225.000000	0.334184
1226.000000	0.334040
1227.000000	0.333990
1228.000000	0.334108
1229.000000	0.334042
1230.000000	0.333832
1231.000000	0.333712
1232.000000	0.333724
1233.000000	0.333687
1234.000000	0.333599
1235.000000	0.333577
1236.000000	0.333365
1237.000000	0.333411
1238.000000	0.333667
1239.000000	0.333746
1240.000000	0.333820
1241.000000	0.333984
1242.000000	0.333991
1243.000000	0.333853
1244.000000	0.333799
1245.000000	0.333832
1246.000000	0.333729
1247.000000	0.333730
1248.000000	0.333819
1249.000000	0.333830
1250.000000	0.333782
1251.000000	0.333825
1252.000000	0.333921
1253.000000	0.334180
1254.000000	0.334169
1255.000000	0.334047
1256.000000	0.334024
1257.000000	0.333844
1258.000000	0.333873
1259.000000	0.334128
1260.000000	0.334276
1261.000000	0.334294
1262.000000	0.334328
1263.000000	0.334392
1264.000000	0.334391
1265.000000	0.334363
1266.000000	0.334396
1267.000000	0.334397
1268.000000	0.334407
1269.000000	0.334453
1270.000000	0.334430
1271.000000	0.334300
1272.000000	0.334225
1273.000000	0.334156
1274.000000	0.334159
1275.000000	0.334123
1276.000000	0.334122
1277.000000	0.334190
1278.000000	0.334207
1279.000000	0.334176
1280.000000	0.334103
1281.000000	0.334043
1282.000000	0.333994
1283.000000	0.333965
1284.000000	0.333865
1285.000000	0.333863
1286.000000	0.333840
1287.000000	0.333861
1288.000000	0.333900
1289.000000	0.333923
1290.000000	0.333810
1291.000000	0.333601
1292.000000	0.333551
1293.000000	0.333588
1294.000000	0.333582
1295.000000	0.333570
1296.000000	0.333554
1297.000000	0.333544
1298.000000	0.333638
1299.000000	0.333775
1300.000000	0.333990
1301.000000	0.334083
1302.000000	0.334006
1303.000000	0.333883
1304.000000	0.333823
1305.000000	0.333703
1306.000000	0.333646
1307.000000	0.333828
1308.000000	0.333847
1309.000000	0.333725
1310.000000	0.333669
1311.000000	0.333648
1312.000000	0.333546
1313.000000	0.333450
1314.000000	0.333478
1315.000000	0.333494
1316.000000	0.333510
1317.000000	0.333634
1318.000000	0.333762
1319.000000	0.333807
1320.000000	0.333829
1321.000000	0.333602
1322.000000	0.333413
1323.000000	0.333474
1324.000000	0.333301
1325.000000	0.333087
1326.000000	0.332989
1327.000000	0.332705
1328.000000	0.332667
1329.000000	0.332573
1330.000000	0.332564
1331.000000	0.332516
1332.000000	0.332590
1333.000000	0.332430
1334.000000	0.332191
1335.000000	0.332147
1336.000000	0.332023
1337.000000	0.331948
1338.000000	0.332011
1339.000000	0.331968
1340.000000	0.331814
1341.000000	0.331529
1342.000000	0.331130
1343.000000	0.330821
1344.000000	0.330555
1345.000000	0.330455
1346.000000	0.330554
1347.000000	0.330494
1348.000000	0.330326
1349.000000	0.329992
1350.000000	0.329900
1351.000000	0.329847
1352.000000	0.329642
1353.000000	0.329542
1354.000000	0.329288
1355.000000	0.328927
1356.000000	0.328928
1357.000000	0.328958
1358.000000	0.328783
1359.000000	0.328703
1360.000000	0.328639
1361.000000	0.328496
1362.000000	0.328418
1363.000000	0.328562
1364.000000	0.328429
1365.000000	0.328004
1366.000000	0.327864
1367.000000	0.327736
1368.000000	0.327603
1369.000000	0.327774
1370.000000	0.327747
1371.000000	0.327442
1372.000000	0.327132
1373.000000	0.326773
1374.000000	0.326462
1375.000000	0.326297
1376.000000	0.326264
1377.000000	0.326221
1378.000000	0.326163
1379.000000	0.325957
1380.000000	0.325710
1381.000000	0.325408
1382.000000	0.325052
1383.000000	0.324872
1384.000000	0.324545
1385.000000	0.324210
1386.000000	0.324048
1387.000000	0.323738
1388.000000	0.323488
1389.000000	0.323179
1390.000000	0.322669
1391.000000	0.322239
1392.000000	0.321750
1393.000000	0.321266
1394.000000	0.320908
1395.000000	0.320451
1396.000000	0.319948
1397.000000	0.319349
1398.000000	0.318576
1399.000000	0.317901
1400.000000	0.317205
1401.000000	0.316476
1402.000000	0.315815
1403.000000	0.315138
1404.000000	0.314332
1405.000000	0.313445
1406.000000	0.312719
1407.000000	0.311947
1408.000000	0.311171
1409.000000	0.310563
1410.000000	0.309732
1411.000000	0.308792
1412.000000	0.307937
1413.000000	0.307166
1414.000000	0.306556
1415.000000	0.306095
1416.000000	0.305576
1417.000000	0.304905
1418.000000	0.304196
1419.000000	0.303550
1420.000000	0.302892
1421.000000	0.302392
1422.000000	0.301845
1423.000000	0.301213
1424.000000	0.300545
1425.000000	0.299875
1426.000000	0.299131
1427.000000	0.298585
1428.000000	0.298065
1429.000000	0.297353
1430.000000	0.296814
1431.000000	0.296256
1432.000000	0.295671
1433.000000	0.295094
1434.000000	0.294653
1435.000000	0.294313
1436.000000	0.293951
1437.000000	0.293652
1438.000000	0.293311
1439.000000	0.292967
1440.000000	0.292708
1441.000000	0.292534
1442.000000	0.292358
1443.000000	0.292167
1444.000000	0.291972
1445.000000	0.291726
1446.000000	0.291428
1447.000000	0.291085
1448.000000	0.290805
1449.000000	0.290611
1450.000000	0.290434
1451.000000	0.290348
1452.000000	0.290189
1453.000000	0.289997
1454.000000	0.289757
1455.000000	0.289402
1456.000000	0.289167
1457.000000	0.288991
1458.000000	0.288859
1459.000000	0.288837
1460.000000	0.288779
1461.000000	0.288653
1462.000000	0.288473
1463.000000	0.288266
1464.000000	0.288267
1465.000000	0.288387
1466.000000	0.288366
1467.000000	0.288460
1468.000000	0.288598
1469.000000	0.288545
1470.000000	0.288495
1471.000000	0.288480
1472.000000	0.288324
1473.000000	0.288324
1474.000000	0.288395
1475.000000	0.288527
1476.000000	0.288695
1477.000000	0.288877
1478.000000	0.289121
1479.000000	0.289187
1480.000000	0.289217
1481.000000	0.289400
1482.000000	0.289659
1483.000000	0.289957
1484.000000	0.290500
1485.000000	0.290798
1486.000000	0.290866
1487.000000	0.291114
1488.000000	0.291454
1489.000000	0.291742
1490.000000	0.291948
1491.000000	0.292208
1492.000000	0.292340
1493.000000	0.292557
1494.000000	0.292891
1495.000000	0.293142
1496.000000	0.293311
1497.000000	0.293603
1498.000000	0.293954
1499.000000	0.294258
1500.000000	0.294636
1501.000000	0.294863
1502.000000	0.294959
1503.000000	0.295191
1504.000000	0.295543
1505.000000	0.295859
1506.000000	0.296155
1507.000000	0.296382
1508.000000	0.296579
1509.000000	0.296740
1510.000000	0.296879
1511.000000	0.297003
1512.000000	0.296989
1513.000000	0.297133
1514.000000	0.297351
1515.000000	0.297417
1516.000000	0.297597
1517.000000	0.297613
1518.000000	0.297640
1519.000000	0.297762
1520.000000	0.297762
1521.000000	0.297778
1522.000000	0.297838
1523.000000	0.297958
1524.000000	0.298096
1525.000000	0.298210
1526.000000	0.298172
1527.000000	0.298114
1528.000000	0.298347
1529.000000	0.298555
1530.000000	0.298594
1531.000000	0.298773
1532.000000	0.298816
1533.000000	0.298742
1534.000000	0.298916
1535.000000	0.299117
1536.000000	0.299130
1537.000000	0.299218
1538.000000	0.299262
1539.000000	0.299168
1540.000000	0.299296
1541.000000	0.299423
1542.000000	0.299450
1543.000000	0.299633
1544.000000	0.299552
1545.000000	0.299485
1546.000000	0.299696
1547.000000	0.299799
1548.000000	0.299970
1549.000000	0.300060
1550.000000	0.299913
1551.000000	0.299821
1552.000000	0.299749
1553.000000	0.299714
1554.000000	0.299782
1555.000000	0.299884
1556.000000	0.300032
1557.000000	0.300186
1558.000000	0.300230
1559.000000	0.300135
1560.000000	0.300048
1561.000000	0.299885
1562.000000	0.299791
1563.000000	0.299803
1564.000000	0.299748
1565.000000	0.299675
1566.000000	0.299499
1567.000000	0.299316
1568.000000	0.299212
1569.000000	0.299139
1570.000000	0.299142
1571.000000	0.299252
1572.000000	0.299258
1573.000000	0.299290
1574.000000	0.299242
1575.000000	0.299113
1576.000000	0.299097
1577.000000	0.299010
1578.000000	0.299048
1579.000000	0.299354
1580.000000	0.299381
1581.000000	0.299417
1582.000000	0.299437
1583.000000	0.299270
1584.000000	0.299187
1585.000000	0.299243
1586.000000	0.299219
1587.000000	0.299168
1588.000000	0.299100
1589.000000	0.299002
1590.000000	0.298992
1591.000000	0.299010
1592.000000	0.299079
1593.000000	0.299313
1594.000000	0.299353
1595.000000	0.299331
1596.000000	0.299364
1597.000000	0.299400
1598.000000	0.299374
1599.000000	0.299373
1600.000000	0.299332
1601.000000	0.299241
1602.000000	0.299211
1603.000000	0.299289
1604.000000	0.299325
1605.000000	0.299411
1606.000000	0.299416
1607.000000	0.299419
1608.000000	0.299422
1609.000000	0.299359
1610.000000	0.299379
1611.000000	0.299508
1612.000000	0.299565
1613.000000	0.299785
1614.000000	0.299829
1615.000000	0.299813
1616.000000	0.299860
1617.000000	0.299783
1618.000000	0.299739
1619.000000	0.299686
1620.000000	0.299679
1621.000000	0.299723
1622.000000	0.299824
1623.000000	0.299945
1624.000000	0.300063
1625.000000	0.300085
1626.000000	0.300088
1627.000000	0.300087
1628.000000	0.300212
1629.000000	0.300370
1630.000000	0.300544
1631.000000	0.300715
1632.000000	0.300896
1633.000000	0.301084
1634.000000	0.301227
1635.000000	0.301465
1636.000000	0.301645
1637.000000	0.301819
1638.000000	0.301880
1639.000000	0.301892
1640.000000	0.301954
1641.000000	0.301975
1642.000000	0.302060
1643.000000	0.302314
1644.000000	0.302436
1645.000000	0.302509
1646.000000	0.302539
1647.000000	0.302500
1648.000000	0.302553
1649.000000	0.302719
1650.000000	0.302797
1651.000000	0.302970
1652.000000	0.303111
1653.000000	0.303070
1654.000000	0.303190
1655.000000	0.303363
1656.000000	0.303425
1657.000000	0.303538
1658.000000	0.303693
1659.000000	0.303943
1660.000000	0.304141
1661.000000	0.304304
1662.000000	0.304429
1663.000000	0.304448
1664.000000	0.304553
1665.000000	0.304693
1666.000000	0.304857
1667.000000	0.304948
1668.000000	0.305094
1669.000000	0.305263
1670.000000	0.305343
1671.000000	0.305510
1672.000000	0.305684
1673.000000	0.305806
1674.000000	0.305845
1675.000000	0.305992
1676.000000	0.306101
1677.000000	0.306057
1678.000000	0.306044
1679.000000	0.306173
1680.000000	0.306405
1681.000000	0.306619
1682.000000	0.306805
1683.000000	0.306965
1684.000000	0.306923
1685.000000	0.306906
1686.000000	0.306926
1687.000000	0.306965
1688.000000	0.307003
1689.000000	0.307022
1690.000000	0.307137
1691.000000	0.307255
1692.000000	0.307295
1693.000000	0.307487
1694.000000	0.307528
1695.000000	0.307643
1696.000000	0.307816
1697.000000	0.307824
1698.000000	0.307786
1699.000000	0.307848
1700.000000	0.307855
1701.000000	0.307977
1702.000000	0.308088
1703.000000	0.308139
1704.000000	0.308233
1705.000000	0.308316
1706.000000	0.308482
1707.000000	0.308543
1708.000000	0.308464
1709.000000	0.308425
1710.000000	0.308433
1711.000000	0.308464
1712.000000	0.308600
1713.000000	0.308658
1714.000000	0.308698
1715.000000	0.308763
1716.000000	0.308934
1717.000000	0.308892
1718.000000	0.308648
1719.000000	0.308543
1720.000000	0.308305
1721.000000	0.308330
1722.000000	0.308717
1723.000000	0.308822
1724.000000	0.308868
1725.000000	0.309042
1726.000000	0.309067
1727.000000	0.309145
1728.000000	0.309317
1729.000000	0.309388
1730.000000	0.309468
1731.000000	0.309594
1732.000000	0.309816
1733.000000	0.310002
1734.000000	0.310054
1735.000000	0.310067
1736.000000	0.309994
1737.000000	0.310012
1738.000000	0.310020
1739.000000	0.310043
1740.000000	0.310104
1741.000000	0.310174
1742.000000	0.310237
1743.000000	0.310337
1744.000000	0.310514
1745.000000	0.310536
1746.000000	0.310431
1747.000000	0.310571
1748.000000	0.310553
1749.000000	0.310503
1750.000000	0.310471
1751.000000	0.310393
1752.000000	0.310511
1753.000000	0.310740
1754.000000	0.310866
1755.000000	0.310920
1756.000000	0.311003
1757.000000	0.311127
1758.000000	0.311125
1759.000000	0.311042
1760.000000	0.310982
1761.000000	0.310699
1762.000000	0.310587
1763.000000	0.310664
1764.000000	0.310671
1765.000000	0.310645
1766.000000	0.310674
1767.000000	0.310663
1768.000000	0.310599
1769.000000	0.310621
1770.000000	0.310681
1771.000000	0.310633
1772.000000	0.310703
1773.000000	0.310855
1774.000000	0.310956
1775.000000	0.311118
1776.000000	0.311264
1777.000000	0.311349
1778.000000	0.311486
1779.000000	0.311715
1780.000000	0.311743
1781.000000	0.311595
1782.000000	0.311641
1783.000000	0.311702
1784.000000	0.311747
1785.000000	0.311891
1786.000000	0.311997
1787.000000	0.312087
1788.000000	0.312232
1789.000000	0.312390
1790.000000	0.312491
1791.000000	0.312536
1792.000000	0.312723
1793.000000	0.312844
1794.000000	0.312930
1795.000000	0.312961
1796.000000	0.312937
1797.000000	0.312904
1798.000000	0.312679
1799.000000	0.312647
1800.000000	0.312814
1801.000000	0.312852
1802.000000	0.312725
1803.000000	0.312562
1804.000000	0.312722
1805.000000	0.312894
1806.000000	0.312881
1807.000000	0.313241
1808.000000	0.313341
1809.000000	0.313258
1810.000000	0.312476
1811.000000	0.312345
1812.000000	0.312573
1813.000000	0.312618
1814.000000	0.312836
1815.000000	0.312790
1816.000000	0.312229
1817.000000	0.312106
1818.000000	0.311889
1819.000000	0.312494
1820.000000	0.312940
1821.000000	0.313591
1822.000000	0.313738
1823.000000	0.313349
1824.000000	0.313139
1825.000000	0.312770
1826.000000	0.312512
1827.000000	0.312118
1828.000000	0.311925
1829.000000	0.311846
1830.000000	0.311067
1831.000000	0.310496
1832.000000	0.309698
1833.000000	0.309437
1834.000000	0.309142
1835.000000	0.309268
1836.000000	0.310385
1837.000000	0.310493
1838.000000	0.309939
1839.000000	0.309707
1840.000000	0.309492
1841.000000	0.309130
1842.000000	0.308975
1843.000000	0.309483
1844.000000	0.309441
1845.000000	0.308616
1846.000000	0.308494
1847.000000	0.308631
1848.000000	0.308326
1849.000000	0.308623
1850.000000	0.308971
1851.000000	0.308957
1852.000000	0.308886
1853.000000	0.308519
1854.000000	0.307520
1855.000000	0.306774
1856.000000	0.305625
1857.000000	0.304970
1858.000000	0.304570
1859.000000	0.303791
1860.000000	0.303594
1861.000000	0.303229
1862.000000	0.302893
1863.000000	0.302985
1864.000000	0.302635
1865.000000	0.302228
1866.000000	0.301524
1867.000000	0.300424
1868.000000	0.299105
1869.000000	0.297997
1870.000000	0.296259
1871.000000	0.295126
1872.000000	0.294412
1873.000000	0.293413
1874.000000	0.292748
1875.000000	0.291710
1876.000000	0.290317
1877.000000	0.288266
1878.000000	0.286292
1879.000000	0.284195
1880.000000	0.282159
1881.000000	0.280536
1882.000000	0.279329
1883.000000	0.278003
1884.000000	0.276273
1885.000000	0.274300
1886.000000	0.271898
1887.000000	0.268701
1888.000000	0.265849
1889.000000	0.263165
1890.000000	0.260935
1891.000000	0.259395
1892.000000	0.257313
1893.000000	0.255276
1894.000000	0.252843
1895.000000	0.249913
1896.000000	0.246363
1897.000000	0.243460
1898.000000	0.240259
1899.000000	0.237175
1900.000000	0.235362
1901.000000	0.232740
1902.000000	0.229734
1903.000000	0.227629
1904.000000	0.225042
1905.000000	0.222540
1906.000000	0.220139
1907.000000	0.218076
1908.000000	0.215693
1909.000000	0.213538
1910.000000	0.211606
1911.000000	0.209576
1912.000000	0.207772
1913.000000	0.206191
1914.000000	0.204674
1915.000000	0.202904
1916.000000	0.201050
1917.000000	0.199887
1918.000000	0.199224
1919.000000	0.198336
1920.000000	0.197521
1921.000000	0.197050
1922.000000	0.195488
1923.000000	0.194021
1924.000000	0.193438
1925.000000	0.193066
1926.000000	0.192927
1927.000000	0.193296
1928.000000	0.193156
1929.000000	0.192904
1930.000000	0.192345
1931.000000	0.191584
1932.000000	0.190697
1933.000000	0.190084
1934.000000	0.189864
1935.000000	0.190396
1936.000000	0.190169
1937.000000	0.189985
1938.000000	0.190012
1939.000000	0.189575
1940.000000	0.188452
1941.000000	0.188246
1942.000000	0.188323
1943.000000	0.188446
1944.000000	0.189305
1945.000000	0.189674
1946.000000	0.189534
1947.000000	0.189107
1948.000000	0.188564
1949.000000	0.188421
1950.000000	0.188360
1951.000000	0.188158
1952.000000	0.188052
1953.000000	0.187660
1954.000000	0.187405
1955.000000	0.187538
1956.000000	0.187151
1957.000000	0.186751
1958.000000	0.186487
1959.000000	0.185706
1960.000000	0.185406
1961.000000	0.185205
1962.000000	0.184920
1963.000000	0.184563
1964.000000	0.184446
1965.000000	0.184104
1966.000000	0.184122
1967.000000	0.184040
1968.000000	0.183979
1969.000000	0.184203
1970.000000	0.184098
1971.000000	0.184430
1972.000000	0.184882
1973.000000	0.184710
1974.000000	0.183926
1975.000000	0.183961
1976.000000	0.184032
1977.000000	0.184009
1978.000000	0.184528
1979.000000	0.185723
1980.000000	0.186631
1981.000000	0.187223
1982.000000	0.188152
1983.000000	0.188974
1984.000000	0.189171
1985.000000	0.188625
1986.000000	0.188406
1987.000000	0.187837
1988.000000	0.187608
1989.000000	0.188494
1990.000000	0.189550
1991.000000	0.190398
1992.000000	0.191577
1993.000000	0.192073
1994.000000	0.192536
1995.000000	0.193215
1996.000000	0.193104
1997.000000	0.193369
1998.000000	0.193522
1999.000000	0.194065
2000.000000	0.194926
2001.000000	0.195710
2002.000000	0.196776
2003.000000	0.197155
2004.000000	0.197902
2005.000000	0.199345
2006.000000	0.200411
2007.000000	0.201428
2008.000000	0.202192
2009.000000	0.202225
2010.000000	0.203119
2011.000000	0.204321
2012.000000	0.205221
2013.000000	0.206395
2014.000000	0.207336
2015.000000	0.207961
2016.000000	0.208881
2017.000000	0.209448
2018.000000	0.210399
2019.000000	0.210876
2020.000000	0.211116
2021.000000	0.211762
2022.000000	0.212732
2023.000000	0.213187
2024.000000	0.213419
2025.000000	0.214163
2026.000000	0.214764
2027.000000	0.215392
2028.000000	0.216931
2029.000000	0.218034
2030.000000	0.219025
2031.000000	0.220089
2032.000000	0.220388
2033.000000	0.221466
2034.000000	0.221944
2035.000000	0.221764
2036.000000	0.222064
2037.000000	0.222433
2038.000000	0.222925
2039.000000	0.223553
2040.000000	0.224636
2041.000000	0.225868
2042.000000	0.226897
2043.000000	0.227370
2044.000000	0.227742
2045.000000	0.227715
2046.000000	0.228014
2047.000000	0.228706
2048.000000	0.230064
2049.000000	0.230830
2050.000000	0.231327
2051.000000	0.231768
2052.000000	0.231563
2053.000000	0.231803
2054.000000	0.232463
2055.000000	0.233317
2056.000000	0.234102
2057.000000	0.235126
2058.000000	0.235150
2059.000000	0.234864
2060.000000	0.235034
2061.000000	0.234773
2062.000000	0.235098
2063.000000	0.236358
2064.000000	0.236850
2065.000000	0.237246
2066.000000	0.237625
2067.000000	0.237781
2068.000000	0.238495
2069.000000	0.239737
2070.000000	0.240902
2071.000000	0.241984
2072.000000	0.242837
2073.000000	0.242869
2074.000000	0.243131
2075.000000	0.243701
2076.000000	0.244514
2077.000000	0.245018
2078.000000	0.245722
2079.000000	0.246013
2080.000000	0.245937
2081.000000	0.246170
2082.000000	0.246318
2083.000000	0.246807
2084.000000	0.247039
2085.000000	0.247026
2086.000000	0.247704
2087.000000	0.248270
2088.000000	0.248941
2089.000000	0.249784
2090.000000	0.250537
2091.000000	0.251145
2092.000000	0.251803
2093.000000	0.252742
2094.000000	0.253392
2095.000000	0.253799
2096.000000	0.254205
2097.000000	0.254616
2098.000000	0.254588
2099.000000	0.254758
2100.000000	0.255057
2101.000000	0.255348
2102.000000	0.256026
2103.000000	0.256541
2104.000000	0.257140
2105.000000	0.257704
2106.000000	0.258419
2107.000000	0.258888
2108.000000	0.259280
2109.000000	0.259451
2110.000000	0.258920
2111.000000	0.258864
2112.000000	0.258813
2113.000000	0.258700
2114.000000	0.259054
2115.000000	0.259882
2116.000000	0.259831
2117.000000	0.259780
2118.000000	0.260181
2119.000000	0.260267
2120.000000	0.260848
2121.000000	0.262349
2122.000000	0.263092
2123.000000	0.263427
2124.000000	0.263994
2125.000000	0.264726
2126.000000	0.264982
2127.000000	0.265086
2128.000000	0.265374
2129.000000	0.265764
2130.000000	0.265012
2131.000000	0.264638
2132.000000	0.264251
2133.000000	0.263388
2134.000000	0.263338
2135.000000	0.263218
2136.000000	0.263828
2137.000000	0.264235
2138.000000	0.264681
2139.000000	0.265059
2140.000000	0.265661
2141.000000	0.265837
2142.000000	0.265812
2143.000000	0.265669
2144.000000	0.265321
2145.000000	0.265412
2146.000000	0.265712
2147.000000	0.266158
2148.000000	0.266717
2149.000000	0.267105
2150.000000	0.266988
2151.000000	0.266990
2152.000000	0.266896
2153.000000	0.266239
2154.000000	0.266288
2155.000000	0.266555
2156.000000	0.267018
2157.000000	0.268211
2158.000000	0.268855
2159.000000	0.269352
2160.000000	0.269870
2161.000000	0.270309
2162.000000	0.270595
2163.000000	0.271270
2164.000000	0.271143
2165.000000	0.270044
2166.000000	0.269266
2167.000000	0.269196
2168.000000	0.267508
2169.000000	0.267277
2170.000000	0.267461
2171.000000	0.267550
2172.000000	0.268115
2173.000000	0.268270
2174.000000	0.268247
2175.000000	0.268406
2176.000000	0.268116
2177.000000	0.268228
2178.000000	0.268758
2179.000000	0.269487
2180.000000	0.270743
2181.000000	0.271609
2182.000000	0.272222
2183.000000	0.272495
2184.000000	0.271486
2185.000000	0.270465
2186.000000	0.269990
2187.000000	0.269486
2188.000000	0.269933
2189.000000	0.269989
2190.000000	0.269005
2191.000000	0.268572
2192.000000	0.268215
2193.000000	0.267788
2194.000000	0.267424
2195.000000	0.267515
2196.000000	0.267468
2197.000000	0.266970
2198.000000	0.266742
2199.000000	0.267516
2200.000000	0.267119
2201.000000	0.265229
2202.000000	0.265115
2203.000000	0.265100
2204.000000	0.265182
2205.000000	0.267864
2206.000000	0.269760
2207.000000	0.270030
2208.000000	0.271513
2209.000000	0.271167
2210.000000	0.269571
2211.000000	0.268827
2212.000000	0.267439
2213.000000	0.267101
2214.000000	0.267682
2215.000000	0.267954
2216.000000	0.268801
2217.000000	0.268651
2218.000000	0.268025
2219.000000	0.268280
2220.000000	0.269068
2221.000000	0.268807
2222.000000	0.268202
2223.000000	0.267497
2224.000000	0.265642
2225.000000	0.264085
2226.000000	0.264320
2227.000000	0.264877
2228.000000	0.266731
2229.000000	0.269296
2230.000000	0.273296
2231.000000	0.276134
2232.000000	0.275230
2233.000000	0.272994
2234.000000	0.269465
2235.000000	0.266871
2236.000000	0.265745
2237.000000	0.266905
2238.000000	0.267441
2239.000000	0.267591
2240.000000	0.268972
2241.000000	0.272162
2242.000000	0.273442
2243.000000	0.274991
2244.000000	0.276368
2245.000000	0.276772
2246.000000	0.276651
2247.000000	0.276078
2248.000000	0.275531
2249.000000	0.274349
2250.000000	0.272996
2251.000000	0.271117
2252.000000	0.270456
2253.000000	0.270558
2254.000000	0.269056
2255.000000	0.269392
2256.000000	0.271629
2257.000000	0.271786
2258.000000	0.272387
2259.000000	0.271350
2260.000000	0.268865
2261.000000	0.267322
2262.000000	0.264446
2263.000000	0.264049
2264.000000	0.265710
2265.000000	0.265908
2266.000000	0.267022
2267.000000	0.266968
2268.000000	0.265662
2269.000000	0.265145
2270.000000	0.264374
2271.000000	0.263857
2272.000000	0.263732
2273.000000	0.263250
2274.000000	0.263239
2275.000000	0.262551
2276.000000	0.261466
2277.000000	0.259207
2278.000000	0.258142
2279.000000	0.259015
2280.000000	0.259702
2281.000000	0.261114
2282.000000	0.261399
2283.000000	0.257293
2284.000000	0.253916
2285.000000	0.251482
2286.000000	0.251493
2287.000000	0.254296
2288.000000	0.256793
2289.000000	0.260591
2290.000000	0.260531
2291.000000	0.258566
2292.000000	0.258320
2293.000000	0.256506
2294.000000	0.255560
2295.000000	0.255777
2296.000000	0.255815
2297.000000	0.255557
2298.000000	0.255207
2299.000000	0.255991
2300.000000	0.255489
2301.000000	0.252810
2302.000000	0.252045
2303.000000	0.252705
2304.000000	0.251891
2305.000000	0.251012
2306.000000	0.250453
2307.000000	0.249394
2308.000000	0.246997
2309.000000	0.247481
2310.000000	0.249271
2311.000000	0.249820
2312.000000	0.250763
2313.000000	0.250712
2314.000000	0.248166
2315.000000	0.246356
2316.000000	0.245981
2317.000000	0.244872
2318.000000	0.246481
2319.000000	0.249813
2320.000000	0.247990
2321.000000	0.247245
2322.000000	0.248894
2323.000000	0.244817
2324.000000	0.243115
2325.000000	0.244487
2326.000000	0.241109
2327.000000	0.241124
2328.000000	0.243233
2329.000000	0.241010
2330.000000	0.239109
2331.000000	0.237403
2332.000000	0.235622
2333.000000	0.234767
2334.000000	0.234120
2335.000000	0.233677
2336.000000	0.233104
2337.000000	0.231872
2338.000000	0.229226
2339.000000	0.228577
2340.000000	0.229006
2341.000000	0.229222
2342.000000	0.232662
2343.000000	0.233368
2344.000000	0.230411
2345.000000	0.230138
2346.000000	0.229820
2347.000000	0.229106
2348.000000	0.230007
2349.000000	0.230378
2350.000000	0.226716
2351.000000	0.225399
2352.000000	0.225130
2353.000000	0.223953
2354.000000	0.223577
2355.000000	0.223861
2356.000000	0.222687
2357.000000	0.221413
2358.000000	0.219149
2359.000000	0.214713
2360.000000	0.208558
2361.000000	0.203812
2362.000000	0.204840
2363.000000	0.205991
2364.000000	0.206285
2365.000000	0.207970
2366.000000	0.204578
2367.000000	0.200414
2368.000000	0.201128
2369.000000	0.201080
2370.000000	0.199330
2371.000000	0.198553
2372.000000	0.200182
2373.000000	0.201061
2374.000000	0.200926
2375.000000	0.206128
2376.000000	0.208473
2377.000000	0.204130
2378.000000	0.203074
2379.000000	0.199020
2380.000000	0.190221
2381.000000	0.187289
2382.000000	0.181814
2383.000000	0.180068
2384.000000	0.184983
2385.000000	0.186395
2386.000000	0.192588
2387.000000	0.194327
2388.000000	0.195641
2389.000000	0.196883
2390.000000	0.194462
2391.000000	0.197131
2392.000000	0.190800
2393.000000	0.182334
2394.000000	0.177590
2395.000000	0.176328
2396.000000	0.182795
2397.000000	0.188579
2398.000000	0.191205
2399.000000	0.187919
2400.000000	0.181725
2401.000000	0.178181
2402.000000	0.172161
2403.000000	0.167329
2404.000000	0.168138
2405.000000	0.169397
2406.000000	0.171600
2407.000000	0.174511
2408.000000	0.170074
2409.000000	0.160390
2410.000000	0.156610
2411.000000	0.159668
2412.000000	0.161453
2413.000000	0.166670
2414.000000	0.178397
2415.000000	0.183853
2416.000000	0.191233
2417.000000	0.193539
2418.000000	0.189530
2419.000000	0.190283
2420.000000	0.183856
2421.000000	0.181011
2422.000000	0.177474
2423.000000	0.166173
2424.000000	0.160459
2425.000000	0.156931
2426.000000	0.154476
2427.000000	0.153988
2428.000000	0.152352
2429.000000	0.158274
2430.000000	0.166904
2431.000000	0.175495
2432.000000	0.188573
2433.000000	0.192522
2434.000000	0.182816
2435.000000	0.171955
2436.000000	0.159114
2437.000000	0.155837
2438.000000	0.164153
2439.000000	0.159355
2440.000000	0.162392
2441.000000	0.160816
2442.000000	0.143347
2443.000000	0.140972
2444.000000	0.140039
2445.000000	0.142134
2446.000000	0.156964
2447.000000	0.164965
2448.000000	0.171066
2449.000000	0.175942
2450.000000	0.166329
2451.000000	0.158016
2452.000000	0.158039
2453.000000	0.154860
2454.000000	0.144400
2455.000000	0.141653
2456.000000	0.146233
2457.000000	0.140548
2458.000000	0.151758
2459.000000	0.167588
2460.000000	0.161438
2461.000000	0.167621
2462.000000	0.151132
2463.000000	0.121857
2464.000000	0.113784
2465.000000	0.090378
2466.000000	0.086229
2467.000000	0.099781
2468.000000	0.107840
2469.000000	0.129188
2470.000000	0.142142
2471.000000	0.141541
2472.000000	0.142127
2473.000000	0.151301
2474.000000	0.164927
2475.000000	0.172000
2476.000000	0.181211
2477.000000	0.177359
2478.000000	0.162519
2479.000000	0.174066
2480.000000	0.183816
2481.000000	0.161041
2482.000000	0.144378
2483.000000	0.132139
2484.000000	0.076461
2485.000000	0.064935
2486.000000	0.093208
2487.000000	0.079407
2488.000000	0.116683
2489.000000	0.141579
2490.000000	0.095002
2491.000000	0.123429
2492.000000	0.141222
2493.000000	0.214423
2494.000000	0.236946
2495.000000	0.194124
2496.000000	0.175940
2497.000000	0.129230
2498.000000	0.109127
2499.000000	0.150388
2500.000000	0.135096
