# Wavelength	NAu-2-70_HEX-10_FV7-20_000000000.asd.rts.txt
350.000000	0.093540
351.000000	0.093134
352.000000	0.092947
353.000000	0.090831
354.000000	0.087038
355.000000	0.082731
356.000000	0.080965
357.000000	0.081627
358.000000	0.081192
359.000000	0.080930
360.000000	0.081004
361.000000	0.081277
362.000000	0.082297
363.000000	0.082572
364.000000	0.081406
365.000000	0.081018
366.000000	0.079760
367.000000	0.078270
368.000000	0.079439
369.000000	0.080827
370.000000	0.081197
371.000000	0.080158
372.000000	0.081398
373.000000	0.082374
374.000000	0.081524
375.000000	0.080663
376.000000	0.080127
377.000000	0.080319
378.000000	0.081947
379.000000	0.082392
380.000000	0.081594
381.000000	0.080781
382.000000	0.081374
383.000000	0.081824
384.000000	0.081155
385.000000	0.080211
386.000000	0.081319
387.000000	0.083767
388.000000	0.083339
389.000000	0.082635
390.000000	0.082803
391.000000	0.084175
392.000000	0.083691
393.000000	0.082953
394.000000	0.083449
395.000000	0.084262
396.000000	0.084730
397.000000	0.084613
398.000000	0.084095
399.000000	0.083954
400.000000	0.084154
401.000000	0.084261
402.000000	0.084761
403.000000	0.084987
404.000000	0.084632
405.000000	0.085496
406.000000	0.085837
407.000000	0.085262
408.000000	0.085724
409.000000	0.086296
410.000000	0.086596
411.000000	0.086470
412.000000	0.086722
413.000000	0.086958
414.000000	0.086751
415.000000	0.087123
416.000000	0.087545
417.000000	0.087724
418.000000	0.088116
419.000000	0.088610
420.000000	0.089099
421.000000	0.089464
422.000000	0.089670
423.000000	0.089832
424.000000	0.090129
425.000000	0.090463
426.000000	0.090810
427.000000	0.091164
428.000000	0.091613
429.000000	0.091834
430.000000	0.091877
431.000000	0.092316
432.000000	0.092572
433.000000	0.092740
434.000000	0.093223
435.000000	0.093535
436.000000	0.093808
437.000000	0.094197
438.000000	0.094433
439.000000	0.094682
440.000000	0.095035
441.000000	0.095281
442.000000	0.095473
443.000000	0.095680
444.000000	0.096069
445.000000	0.096323
446.000000	0.096544
447.000000	0.096872
448.000000	0.097380
449.000000	0.097846
450.000000	0.098155
451.000000	0.098519
452.000000	0.099057
453.000000	0.099684
454.000000	0.100159
455.000000	0.100421
456.000000	0.100710
457.000000	0.101292
458.000000	0.101642
459.000000	0.101926
460.000000	0.102373
461.000000	0.102856
462.000000	0.103264
463.000000	0.103542
464.000000	0.103944
465.000000	0.104313
466.000000	0.104619
467.000000	0.104953
468.000000	0.105290
469.000000	0.105645
470.000000	0.106083
471.000000	0.106375
472.000000	0.106653
473.000000	0.107020
474.000000	0.107357
475.000000	0.107702
476.000000	0.108101
477.000000	0.108460
478.000000	0.108798
479.000000	0.109177
480.000000	0.109529
481.000000	0.109840
482.000000	0.110156
483.000000	0.110440
484.000000	0.110812
485.000000	0.111093
486.000000	0.111290
487.000000	0.111485
488.000000	0.111731
489.000000	0.111997
490.000000	0.112179
491.000000	0.112408
492.000000	0.112613
493.000000	0.112651
494.000000	0.112732
495.000000	0.112838
496.000000	0.112920
497.000000	0.112994
498.000000	0.113076
499.000000	0.113196
500.000000	0.113323
501.000000	0.113442
502.000000	0.113547
503.000000	0.113613
504.000000	0.113820
505.000000	0.114042
506.000000	0.114167
507.000000	0.114436
508.000000	0.114773
509.000000	0.115101
510.000000	0.115422
511.000000	0.115724
512.000000	0.116033
513.000000	0.116376
514.000000	0.116794
515.000000	0.117240
516.000000	0.117619
517.000000	0.118007
518.000000	0.118408
519.000000	0.118797
520.000000	0.119273
521.000000	0.119738
522.000000	0.120184
523.000000	0.120722
524.000000	0.121363
525.000000	0.122102
526.000000	0.122933
527.000000	0.123776
528.000000	0.124698
529.000000	0.125798
530.000000	0.126971
531.000000	0.128229
532.000000	0.129536
533.000000	0.130886
534.000000	0.132291
535.000000	0.133735
536.000000	0.135194
537.000000	0.136637
538.000000	0.138047
539.000000	0.139410
540.000000	0.140747
541.000000	0.142032
542.000000	0.143255
543.000000	0.144425
544.000000	0.145551
545.000000	0.146633
546.000000	0.147804
547.000000	0.148984
548.000000	0.150199
549.000000	0.151493
550.000000	0.152879
551.000000	0.154348
552.000000	0.155863
553.000000	0.157479
554.000000	0.159184
555.000000	0.160973
556.000000	0.162878
557.000000	0.164803
558.000000	0.166789
559.000000	0.168838
560.000000	0.170874
561.000000	0.172926
562.000000	0.174977
563.000000	0.176954
564.000000	0.178889
565.000000	0.180762
566.000000	0.182603
567.000000	0.184355
568.000000	0.185970
569.000000	0.187484
570.000000	0.188860
571.000000	0.190098
572.000000	0.191255
573.000000	0.192254
574.000000	0.193110
575.000000	0.193905
576.000000	0.194603
577.000000	0.195200
578.000000	0.195731
579.000000	0.196127
580.000000	0.196445
581.000000	0.196705
582.000000	0.196877
583.000000	0.196960
584.000000	0.196972
585.000000	0.196943
586.000000	0.196827
587.000000	0.196641
588.000000	0.196412
589.000000	0.196119
590.000000	0.195777
591.000000	0.195386
592.000000	0.194894
593.000000	0.194368
594.000000	0.193825
595.000000	0.193242
596.000000	0.192644
597.000000	0.192036
598.000000	0.191354
599.000000	0.190613
600.000000	0.189887
601.000000	0.189173
602.000000	0.188424
603.000000	0.187664
604.000000	0.186913
605.000000	0.186162
606.000000	0.185436
607.000000	0.184707
608.000000	0.183917
609.000000	0.183119
610.000000	0.182365
611.000000	0.181688
612.000000	0.181022
613.000000	0.180355
614.000000	0.179707
615.000000	0.179051
616.000000	0.178426
617.000000	0.177805
618.000000	0.177157
619.000000	0.176534
620.000000	0.175930
621.000000	0.175366
622.000000	0.174916
623.000000	0.174470
624.000000	0.173950
625.000000	0.173503
626.000000	0.173067
627.000000	0.172617
628.000000	0.172179
629.000000	0.171807
630.000000	0.171426
631.000000	0.171056
632.000000	0.170735
633.000000	0.170451
634.000000	0.170174
635.000000	0.169930
636.000000	0.169707
637.000000	0.169502
638.000000	0.169364
639.000000	0.169236
640.000000	0.169133
641.000000	0.169041
642.000000	0.168975
643.000000	0.168950
644.000000	0.168976
645.000000	0.169017
646.000000	0.169076
647.000000	0.169148
648.000000	0.169231
649.000000	0.169354
650.000000	0.169520
651.000000	0.169733
652.000000	0.169976
653.000000	0.170261
654.000000	0.170570
655.000000	0.170900
656.000000	0.171262
657.000000	0.171643
658.000000	0.172098
659.000000	0.172560
660.000000	0.173011
661.000000	0.173548
662.000000	0.174095
663.000000	0.174678
664.000000	0.175323
665.000000	0.175958
666.000000	0.176625
667.000000	0.177360
668.000000	0.178126
669.000000	0.178913
670.000000	0.179734
671.000000	0.180637
672.000000	0.181567
673.000000	0.182518
674.000000	0.183530
675.000000	0.184552
676.000000	0.185605
677.000000	0.186734
678.000000	0.187902
679.000000	0.189094
680.000000	0.190311
681.000000	0.191558
682.000000	0.192889
683.000000	0.194269
684.000000	0.195714
685.000000	0.197192
686.000000	0.198713
687.000000	0.200266
688.000000	0.201852
689.000000	0.203462
690.000000	0.205113
691.000000	0.206797
692.000000	0.208501
693.000000	0.210259
694.000000	0.212042
695.000000	0.213888
696.000000	0.215798
697.000000	0.217758
698.000000	0.219739
699.000000	0.221784
700.000000	0.223916
701.000000	0.226053
702.000000	0.228215
703.000000	0.230395
704.000000	0.232589
705.000000	0.234841
706.000000	0.237128
707.000000	0.239470
708.000000	0.241842
709.000000	0.244229
710.000000	0.246637
711.000000	0.249075
712.000000	0.251562
713.000000	0.254112
714.000000	0.256680
715.000000	0.259236
716.000000	0.261793
717.000000	0.264370
718.000000	0.266990
719.000000	0.269621
720.000000	0.272253
721.000000	0.274917
722.000000	0.277579
723.000000	0.280280
724.000000	0.282988
725.000000	0.285678
726.000000	0.288409
727.000000	0.291121
728.000000	0.293832
729.000000	0.296543
730.000000	0.299204
731.000000	0.301863
732.000000	0.304503
733.000000	0.307143
734.000000	0.309734
735.000000	0.312292
736.000000	0.314917
737.000000	0.317476
738.000000	0.319971
739.000000	0.322452
740.000000	0.324792
741.000000	0.327147
742.000000	0.329485
743.000000	0.331764
744.000000	0.334023
745.000000	0.336212
746.000000	0.338396
747.000000	0.340560
748.000000	0.342711
749.000000	0.344822
750.000000	0.346835
751.000000	0.348759
752.000000	0.350624
753.000000	0.352462
754.000000	0.354275
755.000000	0.356105
756.000000	0.357917
757.000000	0.359613
758.000000	0.361227
759.000000	0.362822
760.000000	0.364352
761.000000	0.365860
762.000000	0.367312
763.000000	0.368681
764.000000	0.370037
765.000000	0.371340
766.000000	0.372587
767.000000	0.373764
768.000000	0.374868
769.000000	0.375911
770.000000	0.376919
771.000000	0.377929
772.000000	0.378928
773.000000	0.379839
774.000000	0.380723
775.000000	0.381572
776.000000	0.382386
777.000000	0.383156
778.000000	0.383958
779.000000	0.384713
780.000000	0.385375
781.000000	0.385899
782.000000	0.386415
783.000000	0.387037
784.000000	0.387615
785.000000	0.388109
786.000000	0.388571
787.000000	0.389023
788.000000	0.389429
789.000000	0.389808
790.000000	0.390149
791.000000	0.390485
792.000000	0.390782
793.000000	0.391044
794.000000	0.391290
795.000000	0.391532
796.000000	0.391727
797.000000	0.391885
798.000000	0.392084
799.000000	0.392236
800.000000	0.392380
801.000000	0.392571
802.000000	0.392706
803.000000	0.392792
804.000000	0.392874
805.000000	0.392879
806.000000	0.392843
807.000000	0.392855
808.000000	0.392832
809.000000	0.392781
810.000000	0.392740
811.000000	0.392709
812.000000	0.392633
813.000000	0.392555
814.000000	0.392484
815.000000	0.392428
816.000000	0.392333
817.000000	0.392254
818.000000	0.392142
819.000000	0.392033
820.000000	0.391909
821.000000	0.391722
822.000000	0.391568
823.000000	0.391436
824.000000	0.391229
825.000000	0.390996
826.000000	0.390824
827.000000	0.390677
828.000000	0.390559
829.000000	0.390405
830.000000	0.390146
831.000000	0.389884
832.000000	0.389610
833.000000	0.389363
834.000000	0.389104
835.000000	0.388836
836.000000	0.388566
837.000000	0.388303
838.000000	0.388089
839.000000	0.387926
840.000000	0.387706
841.000000	0.387443
842.000000	0.387135
843.000000	0.386874
844.000000	0.386678
845.000000	0.386470
846.000000	0.386175
847.000000	0.385907
848.000000	0.385625
849.000000	0.385306
850.000000	0.384978
851.000000	0.384639
852.000000	0.384351
853.000000	0.384119
854.000000	0.383786
855.000000	0.383509
856.000000	0.383268
857.000000	0.382891
858.000000	0.382574
859.000000	0.382277
860.000000	0.381850
861.000000	0.381445
862.000000	0.381106
863.000000	0.380739
864.000000	0.380386
865.000000	0.380075
866.000000	0.379811
867.000000	0.379459
868.000000	0.379167
869.000000	0.378880
870.000000	0.378600
871.000000	0.378189
872.000000	0.377751
873.000000	0.377321
874.000000	0.377037
875.000000	0.376725
876.000000	0.376334
877.000000	0.375802
878.000000	0.375325
879.000000	0.374982
880.000000	0.374610
881.000000	0.374224
882.000000	0.373809
883.000000	0.373392
884.000000	0.372945
885.000000	0.372556
886.000000	0.372194
887.000000	0.371865
888.000000	0.371565
889.000000	0.371290
890.000000	0.370924
891.000000	0.370590
892.000000	0.370194
893.000000	0.369817
894.000000	0.369599
895.000000	0.369269
896.000000	0.368825
897.000000	0.368355
898.000000	0.367974
899.000000	0.367695
900.000000	0.367390
901.000000	0.367002
902.000000	0.366745
903.000000	0.366434
904.000000	0.366091
905.000000	0.365675
906.000000	0.365332
907.000000	0.364990
908.000000	0.364656
909.000000	0.364218
910.000000	0.363850
911.000000	0.363546
912.000000	0.363260
913.000000	0.362839
914.000000	0.362457
915.000000	0.362236
916.000000	0.362041
917.000000	0.361756
918.000000	0.361465
919.000000	0.361208
920.000000	0.360919
921.000000	0.360600
922.000000	0.360270
923.000000	0.359929
924.000000	0.359604
925.000000	0.359276
926.000000	0.358990
927.000000	0.358785
928.000000	0.358482
929.000000	0.358052
930.000000	0.357570
931.000000	0.357251
932.000000	0.356959
933.000000	0.356659
934.000000	0.356327
935.000000	0.355965
936.000000	0.355657
937.000000	0.355350
938.000000	0.355038
939.000000	0.354878
940.000000	0.354729
941.000000	0.354470
942.000000	0.354093
943.000000	0.353781
944.000000	0.353488
945.000000	0.353210
946.000000	0.352971
947.000000	0.352759
948.000000	0.352479
949.000000	0.352205
950.000000	0.351953
951.000000	0.351680
952.000000	0.351432
953.000000	0.351191
954.000000	0.350885
955.000000	0.350439
956.000000	0.350143
957.000000	0.349852
958.000000	0.349563
959.000000	0.349437
960.000000	0.349213
961.000000	0.348957
962.000000	0.348702
963.000000	0.348485
964.000000	0.348322
965.000000	0.348202
966.000000	0.348000
967.000000	0.347907
968.000000	0.347694
969.000000	0.347398
970.000000	0.347296
971.000000	0.347146
972.000000	0.346944
973.000000	0.346683
974.000000	0.346539
975.000000	0.346350
976.000000	0.346219
977.000000	0.346179
978.000000	0.345930
979.000000	0.345882
980.000000	0.345754
981.000000	0.345579
982.000000	0.345488
983.000000	0.345315
984.000000	0.345124
985.000000	0.345043
986.000000	0.345007
987.000000	0.344990
988.000000	0.344871
989.000000	0.344781
990.000000	0.344781
991.000000	0.344789
992.000000	0.344766
993.000000	0.344860
994.000000	0.344883
995.000000	0.344911
996.000000	0.344770
997.000000	0.344703
998.000000	0.344690
999.000000	0.344782
1000.000000	0.344879
1001.000000	0.344896
1002.000000	0.344832
1003.000000	0.344623
1004.000000	0.344473
1005.000000	0.344347
1006.000000	0.344281
1007.000000	0.344285
1008.000000	0.344204
1009.000000	0.344369
1010.000000	0.344370
1011.000000	0.344495
1012.000000	0.344814
1013.000000	0.344610
1014.000000	0.344503
1015.000000	0.344531
1016.000000	0.344497
1017.000000	0.344613
1018.000000	0.344813
1019.000000	0.345004
1020.000000	0.345383
1021.000000	0.345160
1022.000000	0.344919
1023.000000	0.345040
1024.000000	0.344853
1025.000000	0.344832
1026.000000	0.345123
1027.000000	0.345086
1028.000000	0.345042
1029.000000	0.345366
1030.000000	0.345658
1031.000000	0.345773
1032.000000	0.345921
1033.000000	0.345910
1034.000000	0.346054
1035.000000	0.346354
1036.000000	0.346556
1037.000000	0.346868
1038.000000	0.346902
1039.000000	0.346747
1040.000000	0.346854
1041.000000	0.347132
1042.000000	0.347315
1043.000000	0.347747
1044.000000	0.348151
1045.000000	0.348314
1046.000000	0.348347
1047.000000	0.348560
1048.000000	0.348831
1049.000000	0.348959
1050.000000	0.349117
1051.000000	0.349231
1052.000000	0.349100
1053.000000	0.349071
1054.000000	0.349242
1055.000000	0.349515
1056.000000	0.349870
1057.000000	0.350368
1058.000000	0.350754
1059.000000	0.350909
1060.000000	0.351101
1061.000000	0.351301
1062.000000	0.351567
1063.000000	0.352021
1064.000000	0.352415
1065.000000	0.352877
1066.000000	0.353125
1067.000000	0.353204
1068.000000	0.353353
1069.000000	0.353224
1070.000000	0.353373
1071.000000	0.353874
1072.000000	0.354166
1073.000000	0.354454
1074.000000	0.354881
1075.000000	0.355212
1076.000000	0.355435
1077.000000	0.355608
1078.000000	0.355811
1079.000000	0.356068
1080.000000	0.356345
1081.000000	0.356567
1082.000000	0.356953
1083.000000	0.357258
1084.000000	0.357504
1085.000000	0.357798
1086.000000	0.358149
1087.000000	0.358432
1088.000000	0.358454
1089.000000	0.358660
1090.000000	0.358928
1091.000000	0.359142
1092.000000	0.359524
1093.000000	0.360038
1094.000000	0.360304
1095.000000	0.360346
1096.000000	0.360663
1097.000000	0.361012
1098.000000	0.361299
1099.000000	0.361608
1100.000000	0.361991
1101.000000	0.362282
1102.000000	0.362553
1103.000000	0.362901
1104.000000	0.363236
1105.000000	0.363451
1106.000000	0.363711
1107.000000	0.363981
1108.000000	0.364237
1109.000000	0.364542
1110.000000	0.364789
1111.000000	0.365093
1112.000000	0.365476
1113.000000	0.365774
1114.000000	0.366040
1115.000000	0.366335
1116.000000	0.366631
1117.000000	0.366902
1118.000000	0.367200
1119.000000	0.367369
1120.000000	0.367408
1121.000000	0.367554
1122.000000	0.367787
1123.000000	0.368205
1124.000000	0.368512
1125.000000	0.368837
1126.000000	0.369097
1127.000000	0.369326
1128.000000	0.369533
1129.000000	0.369766
1130.000000	0.369998
1131.000000	0.370259
1132.000000	0.370406
1133.000000	0.370541
1134.000000	0.370747
1135.000000	0.370860
1136.000000	0.370997
1137.000000	0.371254
1138.000000	0.371328
1139.000000	0.371337
1140.000000	0.371495
1141.000000	0.371603
1142.000000	0.371718
1143.000000	0.371839
1144.000000	0.372051
1145.000000	0.372082
1146.000000	0.372003
1147.000000	0.372061
1148.000000	0.372034
1149.000000	0.372111
1150.000000	0.372299
1151.000000	0.372457
1152.000000	0.372567
1153.000000	0.372721
1154.000000	0.372801
1155.000000	0.372967
1156.000000	0.373228
1157.000000	0.373434
1158.000000	0.373596
1159.000000	0.373789
1160.000000	0.373965
1161.000000	0.374107
1162.000000	0.374296
1163.000000	0.374656
1164.000000	0.374850
1165.000000	0.375002
1166.000000	0.375234
1167.000000	0.375470
1168.000000	0.375599
1169.000000	0.375720
1170.000000	0.375910
1171.000000	0.376128
1172.000000	0.376346
1173.000000	0.376572
1174.000000	0.376783
1175.000000	0.376919
1176.000000	0.377036
1177.000000	0.377285
1178.000000	0.377478
1179.000000	0.377621
1180.000000	0.377687
1181.000000	0.377831
1182.000000	0.377877
1183.000000	0.377990
1184.000000	0.378197
1185.000000	0.378383
1186.000000	0.378633
1187.000000	0.378827
1188.000000	0.379001
1189.000000	0.379132
1190.000000	0.379314
1191.000000	0.379446
1192.000000	0.379618
1193.000000	0.379903
1194.000000	0.380074
1195.000000	0.380285
1196.000000	0.380496
1197.000000	0.380687
1198.000000	0.380931
1199.000000	0.381109
1200.000000	0.381212
1201.000000	0.381338
1202.000000	0.381477
1203.000000	0.381583
1204.000000	0.381786
1205.000000	0.382033
1206.000000	0.382158
1207.000000	0.382350
1208.000000	0.382463
1209.000000	0.382549
1210.000000	0.382685
1211.000000	0.382847
1212.000000	0.382971
1213.000000	0.383125
1214.000000	0.383325
1215.000000	0.383520
1216.000000	0.383695
1217.000000	0.383874
1218.000000	0.384008
1219.000000	0.384113
1220.000000	0.384265
1221.000000	0.384426
1222.000000	0.384599
1223.000000	0.384827
1224.000000	0.385046
1225.000000	0.385215
1226.000000	0.385424
1227.000000	0.385538
1228.000000	0.385654
1229.000000	0.385759
1230.000000	0.385836
1231.000000	0.385886
1232.000000	0.386047
1233.000000	0.386318
1234.000000	0.386600
1235.000000	0.386843
1236.000000	0.387046
1237.000000	0.387298
1238.000000	0.387468
1239.000000	0.387679
1240.000000	0.387970
1241.000000	0.388181
1242.000000	0.388343
1243.000000	0.388530
1244.000000	0.388690
1245.000000	0.388956
1246.000000	0.389185
1247.000000	0.389415
1248.000000	0.389646
1249.000000	0.389831
1250.000000	0.390030
1251.000000	0.390220
1252.000000	0.390385
1253.000000	0.390588
1254.000000	0.390712
1255.000000	0.390769
1256.000000	0.390870
1257.000000	0.390969
1258.000000	0.391093
1259.000000	0.391147
1260.000000	0.391320
1261.000000	0.391449
1262.000000	0.391601
1263.000000	0.391876
1264.000000	0.392063
1265.000000	0.392226
1266.000000	0.392423
1267.000000	0.392578
1268.000000	0.392718
1269.000000	0.392830
1270.000000	0.393028
1271.000000	0.393209
1272.000000	0.393425
1273.000000	0.393697
1274.000000	0.393865
1275.000000	0.394012
1276.000000	0.394192
1277.000000	0.394378
1278.000000	0.394398
1279.000000	0.394463
1280.000000	0.394439
1281.000000	0.394460
1282.000000	0.394556
1283.000000	0.394741
1284.000000	0.394939
1285.000000	0.395091
1286.000000	0.395187
1287.000000	0.395335
1288.000000	0.395570
1289.000000	0.395731
1290.000000	0.395880
1291.000000	0.396030
1292.000000	0.396156
1293.000000	0.396290
1294.000000	0.396381
1295.000000	0.396530
1296.000000	0.396649
1297.000000	0.396729
1298.000000	0.396943
1299.000000	0.397127
1300.000000	0.397290
1301.000000	0.397408
1302.000000	0.397474
1303.000000	0.397662
1304.000000	0.397726
1305.000000	0.397825
1306.000000	0.397903
1307.000000	0.397997
1308.000000	0.398090
1309.000000	0.398179
1310.000000	0.398259
1311.000000	0.398377
1312.000000	0.398362
1313.000000	0.398394
1314.000000	0.398405
1315.000000	0.398325
1316.000000	0.398381
1317.000000	0.398449
1318.000000	0.398494
1319.000000	0.398492
1320.000000	0.398465
1321.000000	0.398408
1322.000000	0.398322
1323.000000	0.398353
1324.000000	0.398445
1325.000000	0.398384
1326.000000	0.398313
1327.000000	0.398294
1328.000000	0.398293
1329.000000	0.398242
1330.000000	0.398280
1331.000000	0.398266
1332.000000	0.398244
1333.000000	0.398221
1334.000000	0.398261
1335.000000	0.398340
1336.000000	0.398416
1337.000000	0.398455
1338.000000	0.398451
1339.000000	0.398439
1340.000000	0.398407
1341.000000	0.398375
1342.000000	0.398324
1343.000000	0.398332
1344.000000	0.398334
1345.000000	0.398293
1346.000000	0.398410
1347.000000	0.398378
1348.000000	0.398377
1349.000000	0.398347
1350.000000	0.398261
1351.000000	0.398179
1352.000000	0.398068
1353.000000	0.397993
1354.000000	0.397979
1355.000000	0.397922
1356.000000	0.397916
1357.000000	0.397766
1358.000000	0.397640
1359.000000	0.397584
1360.000000	0.397502
1361.000000	0.397511
1362.000000	0.397415
1363.000000	0.397217
1364.000000	0.397103
1365.000000	0.396916
1366.000000	0.396789
1367.000000	0.396737
1368.000000	0.396622
1369.000000	0.396578
1370.000000	0.396414
1371.000000	0.396148
1372.000000	0.395793
1373.000000	0.395307
1374.000000	0.394853
1375.000000	0.394381
1376.000000	0.393996
1377.000000	0.393651
1378.000000	0.393163
1379.000000	0.392499
1380.000000	0.391810
1381.000000	0.391011
1382.000000	0.390115
1383.000000	0.389245
1384.000000	0.388139
1385.000000	0.386902
1386.000000	0.385713
1387.000000	0.384462
1388.000000	0.383127
1389.000000	0.381683
1390.000000	0.380115
1391.000000	0.378329
1392.000000	0.376479
1393.000000	0.374521
1394.000000	0.372509
1395.000000	0.370387
1396.000000	0.368172
1397.000000	0.365836
1398.000000	0.363271
1399.000000	0.360872
1400.000000	0.358357
1401.000000	0.356004
1402.000000	0.353807
1403.000000	0.351658
1404.000000	0.349643
1405.000000	0.347745
1406.000000	0.345928
1407.000000	0.344301
1408.000000	0.342758
1409.000000	0.341458
1410.000000	0.340417
1411.000000	0.339437
1412.000000	0.338557
1413.000000	0.337862
1414.000000	0.337301
1415.000000	0.336844
1416.000000	0.336497
1417.000000	0.336250
1418.000000	0.335968
1419.000000	0.335815
1420.000000	0.335652
1421.000000	0.335565
1422.000000	0.335531
1423.000000	0.335485
1424.000000	0.335419
1425.000000	0.335419
1426.000000	0.335322
1427.000000	0.335286
1428.000000	0.335292
1429.000000	0.335219
1430.000000	0.335242
1431.000000	0.335308
1432.000000	0.335351
1433.000000	0.335434
1434.000000	0.335544
1435.000000	0.335738
1436.000000	0.335944
1437.000000	0.336137
1438.000000	0.336422
1439.000000	0.336744
1440.000000	0.337242
1441.000000	0.337881
1442.000000	0.338653
1443.000000	0.339495
1444.000000	0.340480
1445.000000	0.341541
1446.000000	0.342678
1447.000000	0.343885
1448.000000	0.345046
1449.000000	0.346216
1450.000000	0.347351
1451.000000	0.348439
1452.000000	0.349455
1453.000000	0.350368
1454.000000	0.351186
1455.000000	0.351933
1456.000000	0.352646
1457.000000	0.353316
1458.000000	0.353905
1459.000000	0.354426
1460.000000	0.354933
1461.000000	0.355385
1462.000000	0.355837
1463.000000	0.356271
1464.000000	0.356726
1465.000000	0.357305
1466.000000	0.357866
1467.000000	0.358449
1468.000000	0.359049
1469.000000	0.359639
1470.000000	0.360166
1471.000000	0.360751
1472.000000	0.361354
1473.000000	0.362045
1474.000000	0.362724
1475.000000	0.363397
1476.000000	0.364068
1477.000000	0.364720
1478.000000	0.365379
1479.000000	0.366024
1480.000000	0.366638
1481.000000	0.367205
1482.000000	0.367769
1483.000000	0.368371
1484.000000	0.368960
1485.000000	0.369533
1486.000000	0.370097
1487.000000	0.370658
1488.000000	0.371237
1489.000000	0.371823
1490.000000	0.372261
1491.000000	0.372783
1492.000000	0.373262
1493.000000	0.373775
1494.000000	0.374312
1495.000000	0.374794
1496.000000	0.375258
1497.000000	0.375693
1498.000000	0.376103
1499.000000	0.376492
1500.000000	0.376971
1501.000000	0.377415
1502.000000	0.377802
1503.000000	0.378245
1504.000000	0.378592
1505.000000	0.378892
1506.000000	0.379290
1507.000000	0.379648
1508.000000	0.380034
1509.000000	0.380417
1510.000000	0.380735
1511.000000	0.381111
1512.000000	0.381436
1513.000000	0.381757
1514.000000	0.382147
1515.000000	0.382421
1516.000000	0.382711
1517.000000	0.382983
1518.000000	0.383159
1519.000000	0.383273
1520.000000	0.383439
1521.000000	0.383559
1522.000000	0.383751
1523.000000	0.384044
1524.000000	0.384239
1525.000000	0.384493
1526.000000	0.384715
1527.000000	0.384892
1528.000000	0.385160
1529.000000	0.385374
1530.000000	0.385505
1531.000000	0.385788
1532.000000	0.386062
1533.000000	0.386257
1534.000000	0.386548
1535.000000	0.386773
1536.000000	0.386852
1537.000000	0.387111
1538.000000	0.387362
1539.000000	0.387492
1540.000000	0.387714
1541.000000	0.387950
1542.000000	0.388123
1543.000000	0.388313
1544.000000	0.388528
1545.000000	0.388771
1546.000000	0.388986
1547.000000	0.389210
1548.000000	0.389428
1549.000000	0.389578
1550.000000	0.389726
1551.000000	0.389846
1552.000000	0.389980
1553.000000	0.390119
1554.000000	0.390250
1555.000000	0.390450
1556.000000	0.390621
1557.000000	0.390731
1558.000000	0.390895
1559.000000	0.390994
1560.000000	0.391096
1561.000000	0.391284
1562.000000	0.391371
1563.000000	0.391440
1564.000000	0.391554
1565.000000	0.391634
1566.000000	0.391667
1567.000000	0.391826
1568.000000	0.391951
1569.000000	0.392141
1570.000000	0.392281
1571.000000	0.392395
1572.000000	0.392501
1573.000000	0.392575
1574.000000	0.392673
1575.000000	0.392834
1576.000000	0.392953
1577.000000	0.393015
1578.000000	0.393082
1579.000000	0.393223
1580.000000	0.393313
1581.000000	0.393466
1582.000000	0.393562
1583.000000	0.393603
1584.000000	0.393609
1585.000000	0.393677
1586.000000	0.393749
1587.000000	0.393793
1588.000000	0.393860
1589.000000	0.393968
1590.000000	0.394044
1591.000000	0.394150
1592.000000	0.394239
1593.000000	0.394356
1594.000000	0.394415
1595.000000	0.394489
1596.000000	0.394560
1597.000000	0.394632
1598.000000	0.394670
1599.000000	0.394760
1600.000000	0.394768
1601.000000	0.394782
1602.000000	0.394841
1603.000000	0.394942
1604.000000	0.395001
1605.000000	0.395135
1606.000000	0.395176
1607.000000	0.395207
1608.000000	0.395226
1609.000000	0.395282
1610.000000	0.395272
1611.000000	0.395231
1612.000000	0.395221
1613.000000	0.395307
1614.000000	0.395347
1615.000000	0.395499
1616.000000	0.395610
1617.000000	0.395616
1618.000000	0.395638
1619.000000	0.395605
1620.000000	0.395644
1621.000000	0.395751
1622.000000	0.395910
1623.000000	0.396086
1624.000000	0.396233
1625.000000	0.396220
1626.000000	0.396239
1627.000000	0.396299
1628.000000	0.396380
1629.000000	0.396463
1630.000000	0.396557
1631.000000	0.396582
1632.000000	0.396559
1633.000000	0.396496
1634.000000	0.396517
1635.000000	0.396596
1636.000000	0.396658
1637.000000	0.396818
1638.000000	0.396868
1639.000000	0.396914
1640.000000	0.396950
1641.000000	0.397029
1642.000000	0.397114
1643.000000	0.397247
1644.000000	0.397337
1645.000000	0.397416
1646.000000	0.397436
1647.000000	0.397464
1648.000000	0.397440
1649.000000	0.397481
1650.000000	0.397526
1651.000000	0.397580
1652.000000	0.397676
1653.000000	0.397751
1654.000000	0.397864
1655.000000	0.397935
1656.000000	0.397920
1657.000000	0.397978
1658.000000	0.397985
1659.000000	0.398065
1660.000000	0.398156
1661.000000	0.398145
1662.000000	0.398166
1663.000000	0.398143
1664.000000	0.398164
1665.000000	0.398193
1666.000000	0.398327
1667.000000	0.398425
1668.000000	0.398532
1669.000000	0.398662
1670.000000	0.398694
1671.000000	0.398811
1672.000000	0.398962
1673.000000	0.399065
1674.000000	0.399193
1675.000000	0.399356
1676.000000	0.399457
1677.000000	0.399451
1678.000000	0.399394
1679.000000	0.399365
1680.000000	0.399285
1681.000000	0.399238
1682.000000	0.399220
1683.000000	0.399200
1684.000000	0.399159
1685.000000	0.399124
1686.000000	0.399112
1687.000000	0.399156
1688.000000	0.399165
1689.000000	0.399210
1690.000000	0.399227
1691.000000	0.399280
1692.000000	0.399271
1693.000000	0.399279
1694.000000	0.399287
1695.000000	0.399304
1696.000000	0.399333
1697.000000	0.399268
1698.000000	0.399211
1699.000000	0.399181
1700.000000	0.399104
1701.000000	0.399148
1702.000000	0.399021
1703.000000	0.398909
1704.000000	0.398957
1705.000000	0.398952
1706.000000	0.398984
1707.000000	0.399017
1708.000000	0.399000
1709.000000	0.398918
1710.000000	0.398936
1711.000000	0.398945
1712.000000	0.398960
1713.000000	0.398933
1714.000000	0.398969
1715.000000	0.398945
1716.000000	0.398843
1717.000000	0.398792
1718.000000	0.398688
1719.000000	0.398613
1720.000000	0.398648
1721.000000	0.398640
1722.000000	0.398638
1723.000000	0.398628
1724.000000	0.398646
1725.000000	0.398660
1726.000000	0.398574
1727.000000	0.398484
1728.000000	0.398294
1729.000000	0.398095
1730.000000	0.398019
1731.000000	0.397939
1732.000000	0.397882
1733.000000	0.397914
1734.000000	0.397810
1735.000000	0.397810
1736.000000	0.397878
1737.000000	0.397850
1738.000000	0.397829
1739.000000	0.397821
1740.000000	0.397747
1741.000000	0.397699
1742.000000	0.397698
1743.000000	0.397760
1744.000000	0.397822
1745.000000	0.397792
1746.000000	0.397784
1747.000000	0.397630
1748.000000	0.397464
1749.000000	0.397357
1750.000000	0.397171
1751.000000	0.397046
1752.000000	0.397064
1753.000000	0.396948
1754.000000	0.396869
1755.000000	0.396868
1756.000000	0.396754
1757.000000	0.396495
1758.000000	0.396394
1759.000000	0.396321
1760.000000	0.396225
1761.000000	0.396187
1762.000000	0.396091
1763.000000	0.395938
1764.000000	0.395808
1765.000000	0.395620
1766.000000	0.395527
1767.000000	0.395399
1768.000000	0.395203
1769.000000	0.395131
1770.000000	0.395098
1771.000000	0.394980
1772.000000	0.394870
1773.000000	0.394751
1774.000000	0.394665
1775.000000	0.394609
1776.000000	0.394581
1777.000000	0.394590
1778.000000	0.394550
1779.000000	0.394473
1780.000000	0.394404
1781.000000	0.394295
1782.000000	0.394188
1783.000000	0.394086
1784.000000	0.394116
1785.000000	0.394070
1786.000000	0.394088
1787.000000	0.394242
1788.000000	0.394310
1789.000000	0.394306
1790.000000	0.394265
1791.000000	0.394210
1792.000000	0.394255
1793.000000	0.394254
1794.000000	0.394256
1795.000000	0.394306
1796.000000	0.394331
1797.000000	0.394360
1798.000000	0.394470
1799.000000	0.394461
1800.000000	0.394376
1801.000000	0.394535
1802.000000	0.394564
1803.000000	0.394209
1804.000000	0.394191
1805.000000	0.394264
1806.000000	0.394263
1807.000000	0.394439
1808.000000	0.394356
1809.000000	0.394059
1810.000000	0.393654
1811.000000	0.393518
1812.000000	0.393333
1813.000000	0.393376
1814.000000	0.393847
1815.000000	0.393978
1816.000000	0.394194
1817.000000	0.394001
1818.000000	0.393373
1819.000000	0.393319
1820.000000	0.393012
1821.000000	0.392443
1822.000000	0.392314
1823.000000	0.392384
1824.000000	0.392265
1825.000000	0.392318
1826.000000	0.392295
1827.000000	0.392220
1828.000000	0.391678
1829.000000	0.391339
1830.000000	0.390916
1831.000000	0.390645
1832.000000	0.390347
1833.000000	0.390275
1834.000000	0.390453
1835.000000	0.390454
1836.000000	0.390496
1837.000000	0.390373
1838.000000	0.390063
1839.000000	0.389527
1840.000000	0.388958
1841.000000	0.388453
1842.000000	0.388136
1843.000000	0.387809
1844.000000	0.387807
1845.000000	0.388206
1846.000000	0.388235
1847.000000	0.388216
1848.000000	0.387827
1849.000000	0.387358
1850.000000	0.386652
1851.000000	0.386142
1852.000000	0.385679
1853.000000	0.385262
1854.000000	0.384634
1855.000000	0.383964
1856.000000	0.383189
1857.000000	0.382352
1858.000000	0.381516
1859.000000	0.380817
1860.000000	0.380420
1861.000000	0.379723
1862.000000	0.378711
1863.000000	0.377597
1864.000000	0.376496
1865.000000	0.375145
1866.000000	0.373733
1867.000000	0.372367
1868.000000	0.370714
1869.000000	0.368752
1870.000000	0.366726
1871.000000	0.364665
1872.000000	0.362549
1873.000000	0.360260
1874.000000	0.357792
1875.000000	0.355244
1876.000000	0.352432
1877.000000	0.349076
1878.000000	0.345779
1879.000000	0.342291
1880.000000	0.338412
1881.000000	0.334566
1882.000000	0.330275
1883.000000	0.325918
1884.000000	0.321424
1885.000000	0.316641
1886.000000	0.311382
1887.000000	0.305899
1888.000000	0.299774
1889.000000	0.293338
1890.000000	0.287140
1891.000000	0.280938
1892.000000	0.274751
1893.000000	0.268429
1894.000000	0.262168
1895.000000	0.256045
1896.000000	0.250094
1897.000000	0.244340
1898.000000	0.238685
1899.000000	0.233493
1900.000000	0.228820
1901.000000	0.224520
1902.000000	0.220842
1903.000000	0.217952
1904.000000	0.215857
1905.000000	0.214268
1906.000000	0.213093
1907.000000	0.212646
1908.000000	0.212548
1909.000000	0.212645
1910.000000	0.213211
1911.000000	0.214080
1912.000000	0.215194
1913.000000	0.216527
1914.000000	0.217970
1915.000000	0.219430
1916.000000	0.221118
1917.000000	0.222784
1918.000000	0.224618
1919.000000	0.226495
1920.000000	0.228344
1921.000000	0.230085
1922.000000	0.231695
1923.000000	0.233115
1924.000000	0.234513
1925.000000	0.235795
1926.000000	0.237024
1927.000000	0.238405
1928.000000	0.239523
1929.000000	0.240530
1930.000000	0.241442
1931.000000	0.242350
1932.000000	0.243139
1933.000000	0.243980
1934.000000	0.244831
1935.000000	0.245644
1936.000000	0.246512
1937.000000	0.247415
1938.000000	0.248104
1939.000000	0.248779
1940.000000	0.249410
1941.000000	0.250156
1942.000000	0.250668
1943.000000	0.251011
1944.000000	0.251379
1945.000000	0.251451
1946.000000	0.251584
1947.000000	0.252149
1948.000000	0.252759
1949.000000	0.253237
1950.000000	0.253658
1951.000000	0.253910
1952.000000	0.254000
1953.000000	0.254029
1954.000000	0.254263
1955.000000	0.254579
1956.000000	0.254905
1957.000000	0.255200
1958.000000	0.255733
1959.000000	0.256468
1960.000000	0.256857
1961.000000	0.257239
1962.000000	0.257658
1963.000000	0.258035
1964.000000	0.258206
1965.000000	0.258642
1966.000000	0.259169
1967.000000	0.259717
1968.000000	0.260327
1969.000000	0.260873
1970.000000	0.261623
1971.000000	0.262183
1972.000000	0.262491
1973.000000	0.262814
1974.000000	0.263137
1975.000000	0.263651
1976.000000	0.264257
1977.000000	0.264902
1978.000000	0.265606
1979.000000	0.266358
1980.000000	0.266963
1981.000000	0.267807
1982.000000	0.268849
1983.000000	0.269847
1984.000000	0.270698
1985.000000	0.271627
1986.000000	0.272226
1987.000000	0.272566
1988.000000	0.273117
1989.000000	0.273712
1990.000000	0.274562
1991.000000	0.275531
1992.000000	0.276460
1993.000000	0.277177
1994.000000	0.278002
1995.000000	0.278861
1996.000000	0.279614
1997.000000	0.280389
1998.000000	0.281180
1999.000000	0.282059
2000.000000	0.282981
2001.000000	0.283850
2002.000000	0.284917
2003.000000	0.286108
2004.000000	0.287183
2005.000000	0.288094
2006.000000	0.289107
2007.000000	0.289976
2008.000000	0.290886
2009.000000	0.291858
2010.000000	0.292797
2011.000000	0.293588
2012.000000	0.294323
2013.000000	0.294974
2014.000000	0.295297
2015.000000	0.295960
2016.000000	0.296663
2017.000000	0.297514
2018.000000	0.298642
2019.000000	0.299651
2020.000000	0.300652
2021.000000	0.301649
2022.000000	0.302681
2023.000000	0.303559
2024.000000	0.304342
2025.000000	0.305227
2026.000000	0.305989
2027.000000	0.306566
2028.000000	0.307260
2029.000000	0.308121
2030.000000	0.308798
2031.000000	0.309335
2032.000000	0.310207
2033.000000	0.310995
2034.000000	0.311711
2035.000000	0.312714
2036.000000	0.313280
2037.000000	0.313679
2038.000000	0.314177
2039.000000	0.314623
2040.000000	0.315016
2041.000000	0.315656
2042.000000	0.316375
2043.000000	0.316717
2044.000000	0.317270
2045.000000	0.317937
2046.000000	0.318143
2047.000000	0.318683
2048.000000	0.319461
2049.000000	0.320278
2050.000000	0.320736
2051.000000	0.321326
2052.000000	0.321984
2053.000000	0.322389
2054.000000	0.322865
2055.000000	0.323576
2056.000000	0.323946
2057.000000	0.324523
2058.000000	0.325079
2059.000000	0.325590
2060.000000	0.326136
2061.000000	0.326830
2062.000000	0.327255
2063.000000	0.327686
2064.000000	0.327816
2065.000000	0.327820
2066.000000	0.327943
2067.000000	0.328299
2068.000000	0.328642
2069.000000	0.329023
2070.000000	0.329647
2071.000000	0.329792
2072.000000	0.330022
2073.000000	0.330519
2074.000000	0.330895
2075.000000	0.331370
2076.000000	0.332084
2077.000000	0.332540
2078.000000	0.332898
2079.000000	0.333179
2080.000000	0.333285
2081.000000	0.333628
2082.000000	0.334097
2083.000000	0.334501
2084.000000	0.334831
2085.000000	0.335053
2086.000000	0.335137
2087.000000	0.335186
2088.000000	0.335340
2089.000000	0.335796
2090.000000	0.336231
2091.000000	0.336868
2092.000000	0.337313
2093.000000	0.337826
2094.000000	0.338208
2095.000000	0.338456
2096.000000	0.338777
2097.000000	0.339062
2098.000000	0.339194
2099.000000	0.339343
2100.000000	0.339738
2101.000000	0.340138
2102.000000	0.340555
2103.000000	0.340800
2104.000000	0.340858
2105.000000	0.341085
2106.000000	0.341176
2107.000000	0.341477
2108.000000	0.342074
2109.000000	0.342467
2110.000000	0.342549
2111.000000	0.342821
2112.000000	0.343036
2113.000000	0.343040
2114.000000	0.343330
2115.000000	0.343714
2116.000000	0.343983
2117.000000	0.344050
2118.000000	0.344304
2119.000000	0.344487
2120.000000	0.344757
2121.000000	0.345232
2122.000000	0.345526
2123.000000	0.345773
2124.000000	0.345886
2125.000000	0.345701
2126.000000	0.345770
2127.000000	0.345847
2128.000000	0.346188
2129.000000	0.346719
2130.000000	0.347347
2131.000000	0.347756
2132.000000	0.347902
2133.000000	0.347987
2134.000000	0.348536
2135.000000	0.348907
2136.000000	0.349237
2137.000000	0.349384
2138.000000	0.349330
2139.000000	0.349263
2140.000000	0.348933
2141.000000	0.348880
2142.000000	0.348980
2143.000000	0.348792
2144.000000	0.348784
2145.000000	0.348921
2146.000000	0.349124
2147.000000	0.349505
2148.000000	0.350025
2149.000000	0.350586
2150.000000	0.350834
2151.000000	0.350946
2152.000000	0.350976
2153.000000	0.350616
2154.000000	0.350501
2155.000000	0.350388
2156.000000	0.350495
2157.000000	0.350905
2158.000000	0.351098
2159.000000	0.351497
2160.000000	0.351711
2161.000000	0.351528
2162.000000	0.351684
2163.000000	0.351893
2164.000000	0.351927
2165.000000	0.351956
2166.000000	0.352167
2167.000000	0.352029
2168.000000	0.351405
2169.000000	0.350927
2170.000000	0.350785
2171.000000	0.350714
2172.000000	0.350926
2173.000000	0.351172
2174.000000	0.351586
2175.000000	0.351707
2176.000000	0.351792
2177.000000	0.351959
2178.000000	0.352232
2179.000000	0.352280
2180.000000	0.352115
2181.000000	0.352409
2182.000000	0.352014
2183.000000	0.351681
2184.000000	0.352149
2185.000000	0.351884
2186.000000	0.350909
2187.000000	0.350384
2188.000000	0.349767
2189.000000	0.348963
2190.000000	0.348840
2191.000000	0.349237
2192.000000	0.349199
2193.000000	0.349176
2194.000000	0.348889
2195.000000	0.348249
2196.000000	0.347991
2197.000000	0.347619
2198.000000	0.347547
2199.000000	0.347997
2200.000000	0.348424
2201.000000	0.348990
2202.000000	0.349580
2203.000000	0.350547
2204.000000	0.350579
2205.000000	0.350354
2206.000000	0.350051
2207.000000	0.348294
2208.000000	0.347271
2209.000000	0.346345
2210.000000	0.345390
2211.000000	0.345471
2212.000000	0.346304
2213.000000	0.346406
2214.000000	0.346830
2215.000000	0.346239
2216.000000	0.344445
2217.000000	0.343786
2218.000000	0.342927
2219.000000	0.342660
2220.000000	0.343665
2221.000000	0.343593
2222.000000	0.342887
2223.000000	0.342686
2224.000000	0.342453
2225.000000	0.342207
2226.000000	0.342022
2227.000000	0.341425
2228.000000	0.339968
2229.000000	0.338726
2230.000000	0.337776
2231.000000	0.336456
2232.000000	0.336251
2233.000000	0.335894
2234.000000	0.334904
2235.000000	0.334696
2236.000000	0.333829
2237.000000	0.332144
2238.000000	0.331255
2239.000000	0.330593
2240.000000	0.330010
2241.000000	0.329510
2242.000000	0.329340
2243.000000	0.329504
2244.000000	0.329277
2245.000000	0.329067
2246.000000	0.329040
2247.000000	0.328710
2248.000000	0.328773
2249.000000	0.329809
2250.000000	0.329981
2251.000000	0.328971
2252.000000	0.328299
2253.000000	0.326688
2254.000000	0.325839
2255.000000	0.325827
2256.000000	0.325404
2257.000000	0.326035
2258.000000	0.326024
2259.000000	0.325939
2260.000000	0.326871
2261.000000	0.326604
2262.000000	0.325747
2263.000000	0.325108
2264.000000	0.323506
2265.000000	0.322961
2266.000000	0.323434
2267.000000	0.322908
2268.000000	0.322701
2269.000000	0.321929
2270.000000	0.320367
2271.000000	0.318481
2272.000000	0.316352
2273.000000	0.314261
2274.000000	0.311185
2275.000000	0.308856
2276.000000	0.307470
2277.000000	0.304766
2278.000000	0.302250
2279.000000	0.299734
2280.000000	0.296377
2281.000000	0.294258
2282.000000	0.291730
2283.000000	0.289152
2284.000000	0.286328
2285.000000	0.282823
2286.000000	0.280398
2287.000000	0.278058
2288.000000	0.276751
2289.000000	0.276009
2290.000000	0.273861
2291.000000	0.272432
2292.000000	0.270599
2293.000000	0.267674
2294.000000	0.266335
2295.000000	0.265925
2296.000000	0.265250
2297.000000	0.265412
2298.000000	0.265468
2299.000000	0.265042
2300.000000	0.265370
2301.000000	0.266383
2302.000000	0.267061
2303.000000	0.267537
2304.000000	0.268659
2305.000000	0.269833
2306.000000	0.271502
2307.000000	0.273788
2308.000000	0.276668
2309.000000	0.278885
2310.000000	0.281279
2311.000000	0.283559
2312.000000	0.285705
2313.000000	0.287204
2314.000000	0.288727
2315.000000	0.290348
2316.000000	0.291510
2317.000000	0.293142
2318.000000	0.295210
2319.000000	0.297185
2320.000000	0.297859
2321.000000	0.298499
2322.000000	0.298713
2323.000000	0.297557
2324.000000	0.297704
2325.000000	0.297940
2326.000000	0.297944
2327.000000	0.299001
2328.000000	0.298883
2329.000000	0.297771
2330.000000	0.296936
2331.000000	0.295891
2332.000000	0.295803
2333.000000	0.296911
2334.000000	0.297442
2335.000000	0.297871
2336.000000	0.297531
2337.000000	0.297649
2338.000000	0.297538
2339.000000	0.297456
2340.000000	0.297736
2341.000000	0.296977
2342.000000	0.295399
2343.000000	0.294620
2344.000000	0.293989
2345.000000	0.293461
2346.000000	0.293593
2347.000000	0.292956
2348.000000	0.292064
2349.000000	0.290244
2350.000000	0.288414
2351.000000	0.287262
2352.000000	0.286719
2353.000000	0.287087
2354.000000	0.286147
2355.000000	0.284500
2356.000000	0.283327
2357.000000	0.282011
2358.000000	0.281583
2359.000000	0.282498
2360.000000	0.282832
2361.000000	0.281588
2362.000000	0.279835
2363.000000	0.277918
2364.000000	0.275745
2365.000000	0.274835
2366.000000	0.273826
2367.000000	0.272645
2368.000000	0.271855
2369.000000	0.269755
2370.000000	0.267767
2371.000000	0.267029
2372.000000	0.266800
2373.000000	0.266530
2374.000000	0.265646
2375.000000	0.265391
2376.000000	0.265177
2377.000000	0.262679
2378.000000	0.260251
2379.000000	0.259153
2380.000000	0.256185
2381.000000	0.254191
2382.000000	0.253513
2383.000000	0.251178
2384.000000	0.250205
2385.000000	0.249146
2386.000000	0.247658
2387.000000	0.245465
2388.000000	0.242608
2389.000000	0.242304
2390.000000	0.240567
2391.000000	0.239799
2392.000000	0.240268
2393.000000	0.236848
2394.000000	0.235626
2395.000000	0.235253
2396.000000	0.232818
2397.000000	0.232575
2398.000000	0.232905
2399.000000	0.233549
2400.000000	0.236540
2401.000000	0.239988
2402.000000	0.241766
2403.000000	0.244933
2404.000000	0.246428
2405.000000	0.243916
2406.000000	0.242719
2407.000000	0.238896
2408.000000	0.235296
2409.000000	0.236218
2410.000000	0.237656
2411.000000	0.239384
2412.000000	0.241737
2413.000000	0.243223
2414.000000	0.241874
2415.000000	0.240651
2416.000000	0.239950
2417.000000	0.238700
2418.000000	0.238529
2419.000000	0.239469
2420.000000	0.241866
2421.000000	0.241243
2422.000000	0.241282
2423.000000	0.243911
2424.000000	0.242959
2425.000000	0.242157
2426.000000	0.241955
2427.000000	0.239730
2428.000000	0.237170
2429.000000	0.235619
2430.000000	0.235180
2431.000000	0.235320
2432.000000	0.236081
2433.000000	0.238718
2434.000000	0.238659
2435.000000	0.236501
2436.000000	0.237405
2437.000000	0.235879
2438.000000	0.237707
2439.000000	0.243322
2440.000000	0.242452
2441.000000	0.241644
2442.000000	0.240746
2443.000000	0.234395
2444.000000	0.230593
2445.000000	0.226317
2446.000000	0.220442
2447.000000	0.220962
2448.000000	0.220669
2449.000000	0.219612
2450.000000	0.220673
2451.000000	0.222021
2452.000000	0.222329
2453.000000	0.224937
2454.000000	0.230864
2455.000000	0.227858
2456.000000	0.226022
2457.000000	0.230199
2458.000000	0.226141
2459.000000	0.224077
2460.000000	0.223798
2461.000000	0.213317
2462.000000	0.208741
2463.000000	0.206710
2464.000000	0.199441
2465.000000	0.200187
2466.000000	0.203833
2467.000000	0.208889
2468.000000	0.213057
2469.000000	0.214022
2470.000000	0.212712
2471.000000	0.198275
2472.000000	0.193127
2473.000000	0.193458
2474.000000	0.186313
2475.000000	0.194002
2476.000000	0.202882
2477.000000	0.209469
2478.000000	0.218070
2479.000000	0.219237
2480.000000	0.215054
2481.000000	0.208840
2482.000000	0.206502
2483.000000	0.203635
2484.000000	0.197301
2485.000000	0.190859
2486.000000	0.184143
2487.000000	0.182939
2488.000000	0.190524
2489.000000	0.196474
2490.000000	0.197748
2491.000000	0.192291
2492.000000	0.180251
2493.000000	0.159925
2494.000000	0.150287
2495.000000	0.138310
2496.000000	0.127855
2497.000000	0.117239
2498.000000	0.121670
2499.000000	0.146375
2500.000000	0.160690
