# Wavelength	NAu-2-50_HEX-40_FV7-10_00002.asd.rts.txt
350.000000	0.118570
351.000000	0.095744
352.000000	0.104278
353.000000	0.117466
354.000000	0.121176
355.000000	0.126922
356.000000	0.122469
357.000000	0.115440
358.000000	0.127585
359.000000	0.123090
360.000000	0.113154
361.000000	0.115879
362.000000	0.119790
363.000000	0.121748
364.000000	0.121587
365.000000	0.125453
366.000000	0.124918
367.000000	0.120302
368.000000	0.119477
369.000000	0.117670
370.000000	0.120350
371.000000	0.131914
372.000000	0.124546
373.000000	0.115963
374.000000	0.118949
375.000000	0.121344
376.000000	0.122277
377.000000	0.122042
378.000000	0.122375
379.000000	0.120035
380.000000	0.117186
381.000000	0.117616
382.000000	0.118859
383.000000	0.119161
384.000000	0.118472
385.000000	0.120738
386.000000	0.121441
387.000000	0.120200
388.000000	0.120880
389.000000	0.120033
390.000000	0.119679
391.000000	0.122929
392.000000	0.124974
393.000000	0.124384
394.000000	0.121755
395.000000	0.121960
396.000000	0.123161
397.000000	0.123849
398.000000	0.122762
399.000000	0.122310
400.000000	0.122582
401.000000	0.122645
402.000000	0.122651
403.000000	0.122328
404.000000	0.121634
405.000000	0.120984
406.000000	0.121998
407.000000	0.124316
408.000000	0.124157
409.000000	0.123894
410.000000	0.124038
411.000000	0.124172
412.000000	0.124392
413.000000	0.124445
414.000000	0.124254
415.000000	0.125133
416.000000	0.126011
417.000000	0.126269
418.000000	0.126535
419.000000	0.126832
420.000000	0.127094
421.000000	0.127135
422.000000	0.127527
423.000000	0.128076
424.000000	0.128428
425.000000	0.128892
426.000000	0.128990
427.000000	0.128596
428.000000	0.128941
429.000000	0.129706
430.000000	0.130475
431.000000	0.130664
432.000000	0.130446
433.000000	0.130290
434.000000	0.130863
435.000000	0.131517
436.000000	0.131912
437.000000	0.131977
438.000000	0.132651
439.000000	0.133140
440.000000	0.133185
441.000000	0.133491
442.000000	0.133780
443.000000	0.134138
444.000000	0.134968
445.000000	0.134948
446.000000	0.134698
447.000000	0.135129
448.000000	0.135597
449.000000	0.136033
450.000000	0.136489
451.000000	0.137185
452.000000	0.137627
453.000000	0.137811
454.000000	0.138449
455.000000	0.138753
456.000000	0.139052
457.000000	0.139937
458.000000	0.140157
459.000000	0.140451
460.000000	0.141445
461.000000	0.141678
462.000000	0.141872
463.000000	0.142273
464.000000	0.142433
465.000000	0.142732
466.000000	0.143173
467.000000	0.143606
468.000000	0.144030
469.000000	0.144366
470.000000	0.144664
471.000000	0.145232
472.000000	0.145595
473.000000	0.145567
474.000000	0.145782
475.000000	0.146241
476.000000	0.146827
477.000000	0.147060
478.000000	0.147295
479.000000	0.147701
480.000000	0.148181
481.000000	0.148687
482.000000	0.149121
483.000000	0.149338
484.000000	0.149715
485.000000	0.149960
486.000000	0.150079
487.000000	0.150319
488.000000	0.150505
489.000000	0.150703
490.000000	0.151116
491.000000	0.151282
492.000000	0.151362
493.000000	0.151550
494.000000	0.151522
495.000000	0.151499
496.000000	0.151621
497.000000	0.151764
498.000000	0.151872
499.000000	0.151973
500.000000	0.152094
501.000000	0.152191
502.000000	0.152284
503.000000	0.152377
504.000000	0.152606
505.000000	0.152869
506.000000	0.153066
507.000000	0.153324
508.000000	0.153580
509.000000	0.153812
510.000000	0.154197
511.000000	0.154610
512.000000	0.155028
513.000000	0.155462
514.000000	0.155829
515.000000	0.156166
516.000000	0.156510
517.000000	0.156907
518.000000	0.157377
519.000000	0.157861
520.000000	0.158261
521.000000	0.158736
522.000000	0.159339
523.000000	0.159951
524.000000	0.160653
525.000000	0.161431
526.000000	0.162249
527.000000	0.163219
528.000000	0.164300
529.000000	0.165461
530.000000	0.166720
531.000000	0.168073
532.000000	0.169466
533.000000	0.170939
534.000000	0.172465
535.000000	0.173992
536.000000	0.175451
537.000000	0.176957
538.000000	0.178450
539.000000	0.179802
540.000000	0.181142
541.000000	0.182408
542.000000	0.183586
543.000000	0.184849
544.000000	0.186091
545.000000	0.187235
546.000000	0.188421
547.000000	0.189635
548.000000	0.190932
549.000000	0.192355
550.000000	0.193707
551.000000	0.195139
552.000000	0.196820
553.000000	0.198519
554.000000	0.200255
555.000000	0.202085
556.000000	0.204083
557.000000	0.206112
558.000000	0.208219
559.000000	0.210414
560.000000	0.212677
561.000000	0.214962
562.000000	0.217091
563.000000	0.219139
564.000000	0.221124
565.000000	0.222987
566.000000	0.224899
567.000000	0.226693
568.000000	0.228266
569.000000	0.229761
570.000000	0.231166
571.000000	0.232447
572.000000	0.233562
573.000000	0.234612
574.000000	0.235540
575.000000	0.236292
576.000000	0.236956
577.000000	0.237532
578.000000	0.238050
579.000000	0.238426
580.000000	0.238760
581.000000	0.239047
582.000000	0.239088
583.000000	0.239121
584.000000	0.239140
585.000000	0.239007
586.000000	0.238847
587.000000	0.238692
588.000000	0.238526
589.000000	0.238182
590.000000	0.237743
591.000000	0.237284
592.000000	0.236811
593.000000	0.236245
594.000000	0.235609
595.000000	0.235048
596.000000	0.234335
597.000000	0.233547
598.000000	0.232787
599.000000	0.231949
600.000000	0.231106
601.000000	0.230285
602.000000	0.229560
603.000000	0.228848
604.000000	0.228089
605.000000	0.227231
606.000000	0.226377
607.000000	0.225569
608.000000	0.224806
609.000000	0.224064
610.000000	0.223335
611.000000	0.222613
612.000000	0.221910
613.000000	0.221180
614.000000	0.220435
615.000000	0.219742
616.000000	0.219058
617.000000	0.218341
618.000000	0.217612
619.000000	0.217026
620.000000	0.216493
621.000000	0.215875
622.000000	0.215228
623.000000	0.214610
624.000000	0.214070
625.000000	0.213632
626.000000	0.213174
627.000000	0.212681
628.000000	0.212305
629.000000	0.211954
630.000000	0.211530
631.000000	0.211131
632.000000	0.210843
633.000000	0.210623
634.000000	0.210392
635.000000	0.210143
636.000000	0.209881
637.000000	0.209628
638.000000	0.209493
639.000000	0.209402
640.000000	0.209351
641.000000	0.209273
642.000000	0.209234
643.000000	0.209242
644.000000	0.209285
645.000000	0.209341
646.000000	0.209393
647.000000	0.209430
648.000000	0.209556
649.000000	0.209729
650.000000	0.209933
651.000000	0.210225
652.000000	0.210492
653.000000	0.210754
654.000000	0.211033
655.000000	0.211401
656.000000	0.211832
657.000000	0.212247
658.000000	0.212655
659.000000	0.213141
660.000000	0.213711
661.000000	0.214257
662.000000	0.214839
663.000000	0.215477
664.000000	0.216096
665.000000	0.216796
666.000000	0.217544
667.000000	0.218275
668.000000	0.219104
669.000000	0.219960
670.000000	0.220816
671.000000	0.221752
672.000000	0.222709
673.000000	0.223678
674.000000	0.224706
675.000000	0.225763
676.000000	0.226844
677.000000	0.227968
678.000000	0.229128
679.000000	0.230373
680.000000	0.231717
681.000000	0.233051
682.000000	0.234448
683.000000	0.235868
684.000000	0.237333
685.000000	0.238849
686.000000	0.240439
687.000000	0.242082
688.000000	0.243788
689.000000	0.245504
690.000000	0.247237
691.000000	0.249082
692.000000	0.250900
693.000000	0.252738
694.000000	0.254718
695.000000	0.256716
696.000000	0.258720
697.000000	0.260764
698.000000	0.262873
699.000000	0.265062
700.000000	0.267322
701.000000	0.269542
702.000000	0.271807
703.000000	0.274137
704.000000	0.276511
705.000000	0.278953
706.000000	0.281448
707.000000	0.284038
708.000000	0.286576
709.000000	0.289123
710.000000	0.291757
711.000000	0.294427
712.000000	0.297090
713.000000	0.299751
714.000000	0.302404
715.000000	0.305155
716.000000	0.307976
717.000000	0.310762
718.000000	0.313614
719.000000	0.316502
720.000000	0.319406
721.000000	0.322327
722.000000	0.325238
723.000000	0.328165
724.000000	0.331033
725.000000	0.333893
726.000000	0.336808
727.000000	0.339680
728.000000	0.342599
729.000000	0.345551
730.000000	0.348458
731.000000	0.351402
732.000000	0.354301
733.000000	0.357170
734.000000	0.360022
735.000000	0.362858
736.000000	0.365721
737.000000	0.368388
738.000000	0.371083
739.000000	0.373882
740.000000	0.376578
741.000000	0.379145
742.000000	0.381757
743.000000	0.384409
744.000000	0.387017
745.000000	0.389525
746.000000	0.391970
747.000000	0.394315
748.000000	0.396678
749.000000	0.399015
750.000000	0.401244
751.000000	0.403404
752.000000	0.405569
753.000000	0.407730
754.000000	0.409772
755.000000	0.411726
756.000000	0.413634
757.000000	0.415492
758.000000	0.417405
759.000000	0.419288
760.000000	0.421007
761.000000	0.422707
762.000000	0.424317
763.000000	0.425846
764.000000	0.427446
765.000000	0.428918
766.000000	0.430270
767.000000	0.431549
768.000000	0.432788
769.000000	0.434016
770.000000	0.435241
771.000000	0.436421
772.000000	0.437604
773.000000	0.438701
774.000000	0.439754
775.000000	0.440717
776.000000	0.441602
777.000000	0.442397
778.000000	0.443096
779.000000	0.443832
780.000000	0.444631
781.000000	0.445393
782.000000	0.445953
783.000000	0.446510
784.000000	0.447085
785.000000	0.447754
786.000000	0.448377
787.000000	0.448876
788.000000	0.449322
789.000000	0.449809
790.000000	0.450288
791.000000	0.450699
792.000000	0.451027
793.000000	0.451327
794.000000	0.451640
795.000000	0.451884
796.000000	0.452103
797.000000	0.452294
798.000000	0.452427
799.000000	0.452598
800.000000	0.452781
801.000000	0.452921
802.000000	0.452984
803.000000	0.453062
804.000000	0.453216
805.000000	0.453243
806.000000	0.453236
807.000000	0.453309
808.000000	0.453362
809.000000	0.453352
810.000000	0.453394
811.000000	0.453500
812.000000	0.453360
813.000000	0.453341
814.000000	0.453428
815.000000	0.453301
816.000000	0.453169
817.000000	0.453084
818.000000	0.452930
819.000000	0.452734
820.000000	0.452598
821.000000	0.452470
822.000000	0.452308
823.000000	0.452107
824.000000	0.451827
825.000000	0.451609
826.000000	0.451515
827.000000	0.451367
828.000000	0.451143
829.000000	0.450985
830.000000	0.450755
831.000000	0.450484
832.000000	0.450064
833.000000	0.449788
834.000000	0.449628
835.000000	0.449533
836.000000	0.449363
837.000000	0.449035
838.000000	0.448642
839.000000	0.448347
840.000000	0.448045
841.000000	0.447783
842.000000	0.447550
843.000000	0.447329
844.000000	0.447058
845.000000	0.446716
846.000000	0.446443
847.000000	0.446145
848.000000	0.445814
849.000000	0.445504
850.000000	0.445153
851.000000	0.444721
852.000000	0.444305
853.000000	0.444036
854.000000	0.443715
855.000000	0.443436
856.000000	0.443088
857.000000	0.442565
858.000000	0.442196
859.000000	0.441957
860.000000	0.441553
861.000000	0.441156
862.000000	0.440823
863.000000	0.440457
864.000000	0.440049
865.000000	0.439709
866.000000	0.439490
867.000000	0.439215
868.000000	0.438975
869.000000	0.438580
870.000000	0.437966
871.000000	0.437530
872.000000	0.437195
873.000000	0.436813
874.000000	0.436514
875.000000	0.436094
876.000000	0.435598
877.000000	0.435074
878.000000	0.434485
879.000000	0.434046
880.000000	0.433680
881.000000	0.433422
882.000000	0.433231
883.000000	0.432986
884.000000	0.432487
885.000000	0.432125
886.000000	0.431693
887.000000	0.431108
888.000000	0.430470
889.000000	0.430079
890.000000	0.429751
891.000000	0.429426
892.000000	0.428961
893.000000	0.428508
894.000000	0.428294
895.000000	0.428077
896.000000	0.427655
897.000000	0.427178
898.000000	0.426855
899.000000	0.426354
900.000000	0.425881
901.000000	0.425470
902.000000	0.425059
903.000000	0.424668
904.000000	0.424402
905.000000	0.424190
906.000000	0.423963
907.000000	0.423702
908.000000	0.423419
909.000000	0.422930
910.000000	0.422563
911.000000	0.422262
912.000000	0.421925
913.000000	0.421521
914.000000	0.421140
915.000000	0.420862
916.000000	0.420522
917.000000	0.420124
918.000000	0.419688
919.000000	0.419245
920.000000	0.418953
921.000000	0.418811
922.000000	0.418651
923.000000	0.418228
924.000000	0.417850
925.000000	0.417475
926.000000	0.417131
927.000000	0.416891
928.000000	0.416576
929.000000	0.416218
930.000000	0.415910
931.000000	0.415591
932.000000	0.415269
933.000000	0.415006
934.000000	0.414770
935.000000	0.414431
936.000000	0.414068
937.000000	0.413646
938.000000	0.413216
939.000000	0.412988
940.000000	0.412809
941.000000	0.412542
942.000000	0.412237
943.000000	0.412093
944.000000	0.411988
945.000000	0.411786
946.000000	0.411309
947.000000	0.410914
948.000000	0.410872
949.000000	0.410617
950.000000	0.410388
951.000000	0.410159
952.000000	0.409809
953.000000	0.409450
954.000000	0.409169
955.000000	0.408882
956.000000	0.408471
957.000000	0.408241
958.000000	0.408015
959.000000	0.407665
960.000000	0.407605
961.000000	0.407558
962.000000	0.407390
963.000000	0.407269
964.000000	0.407038
965.000000	0.406889
966.000000	0.406775
967.000000	0.406425
968.000000	0.406123
969.000000	0.406023
970.000000	0.406267
971.000000	0.406112
972.000000	0.405857
973.000000	0.405632
974.000000	0.405498
975.000000	0.405541
976.000000	0.405378
977.000000	0.404823
978.000000	0.404524
979.000000	0.404738
980.000000	0.404937
981.000000	0.404931
982.000000	0.404710
983.000000	0.404324
984.000000	0.404104
985.000000	0.404389
986.000000	0.404365
987.000000	0.404178
988.000000	0.403934
989.000000	0.403772
990.000000	0.403515
991.000000	0.403549
992.000000	0.404180
993.000000	0.404111
994.000000	0.403919
995.000000	0.403979
996.000000	0.403926
997.000000	0.403906
998.000000	0.403681
999.000000	0.403559
1000.000000	0.404309
1001.000000	0.403990
1002.000000	0.403941
1003.000000	0.403618
1004.000000	0.403350
1005.000000	0.402744
1006.000000	0.402327
1007.000000	0.401928
1008.000000	0.402044
1009.000000	0.402143
1010.000000	0.401494
1011.000000	0.401629
1012.000000	0.402120
1013.000000	0.402125
1014.000000	0.402619
1015.000000	0.402543
1016.000000	0.402017
1017.000000	0.401995
1018.000000	0.402250
1019.000000	0.402424
1020.000000	0.403152
1021.000000	0.403149
1022.000000	0.403123
1023.000000	0.403152
1024.000000	0.402727
1025.000000	0.402684
1026.000000	0.402737
1027.000000	0.402678
1028.000000	0.403910
1029.000000	0.405053
1030.000000	0.405285
1031.000000	0.405374
1032.000000	0.404260
1033.000000	0.403431
1034.000000	0.403451
1035.000000	0.404041
1036.000000	0.404543
1037.000000	0.406238
1038.000000	0.406659
1039.000000	0.406527
1040.000000	0.406605
1041.000000	0.406527
1042.000000	0.406219
1043.000000	0.406156
1044.000000	0.406355
1045.000000	0.406256
1046.000000	0.406018
1047.000000	0.406247
1048.000000	0.406864
1049.000000	0.406847
1050.000000	0.406652
1051.000000	0.406861
1052.000000	0.406717
1053.000000	0.406870
1054.000000	0.407986
1055.000000	0.408530
1056.000000	0.408763
1057.000000	0.409152
1058.000000	0.409238
1059.000000	0.409277
1060.000000	0.409740
1061.000000	0.410411
1062.000000	0.411101
1063.000000	0.411842
1064.000000	0.412229
1065.000000	0.412070
1066.000000	0.412265
1067.000000	0.412466
1068.000000	0.412575
1069.000000	0.412738
1070.000000	0.412714
1071.000000	0.412322
1072.000000	0.412458
1073.000000	0.412987
1074.000000	0.413345
1075.000000	0.413916
1076.000000	0.414114
1077.000000	0.413966
1078.000000	0.414219
1079.000000	0.414601
1080.000000	0.415447
1081.000000	0.415838
1082.000000	0.416302
1083.000000	0.416549
1084.000000	0.416556
1085.000000	0.416775
1086.000000	0.417077
1087.000000	0.417186
1088.000000	0.416841
1089.000000	0.416910
1090.000000	0.416888
1091.000000	0.417215
1092.000000	0.417667
1093.000000	0.418474
1094.000000	0.418804
1095.000000	0.418722
1096.000000	0.418952
1097.000000	0.419213
1098.000000	0.419438
1099.000000	0.419595
1100.000000	0.419920
1101.000000	0.420296
1102.000000	0.420505
1103.000000	0.420658
1104.000000	0.420939
1105.000000	0.421113
1106.000000	0.421349
1107.000000	0.421508
1108.000000	0.421906
1109.000000	0.422681
1110.000000	0.423277
1111.000000	0.423490
1112.000000	0.423670
1113.000000	0.423861
1114.000000	0.423491
1115.000000	0.423710
1116.000000	0.424485
1117.000000	0.424857
1118.000000	0.425083
1119.000000	0.425344
1120.000000	0.425563
1121.000000	0.425785
1122.000000	0.426370
1123.000000	0.426738
1124.000000	0.426358
1125.000000	0.426474
1126.000000	0.426569
1127.000000	0.426629
1128.000000	0.426782
1129.000000	0.427360
1130.000000	0.427560
1131.000000	0.427545
1132.000000	0.427609
1133.000000	0.427698
1134.000000	0.427876
1135.000000	0.428029
1136.000000	0.428137
1137.000000	0.428403
1138.000000	0.428362
1139.000000	0.428025
1140.000000	0.428137
1141.000000	0.428403
1142.000000	0.428480
1143.000000	0.428572
1144.000000	0.428820
1145.000000	0.428815
1146.000000	0.428540
1147.000000	0.428525
1148.000000	0.428580
1149.000000	0.428600
1150.000000	0.428612
1151.000000	0.428673
1152.000000	0.428695
1153.000000	0.428783
1154.000000	0.428854
1155.000000	0.428921
1156.000000	0.429044
1157.000000	0.429136
1158.000000	0.429056
1159.000000	0.429155
1160.000000	0.429395
1161.000000	0.429517
1162.000000	0.429709
1163.000000	0.430091
1164.000000	0.430265
1165.000000	0.430369
1166.000000	0.430521
1167.000000	0.430599
1168.000000	0.430748
1169.000000	0.430972
1170.000000	0.431163
1171.000000	0.431454
1172.000000	0.431723
1173.000000	0.431963
1174.000000	0.432071
1175.000000	0.432046
1176.000000	0.432081
1177.000000	0.432079
1178.000000	0.432178
1179.000000	0.432494
1180.000000	0.432579
1181.000000	0.432729
1182.000000	0.432730
1183.000000	0.432775
1184.000000	0.432854
1185.000000	0.432963
1186.000000	0.433116
1187.000000	0.433291
1188.000000	0.433547
1189.000000	0.433629
1190.000000	0.433680
1191.000000	0.433804
1192.000000	0.433968
1193.000000	0.434308
1194.000000	0.434746
1195.000000	0.434996
1196.000000	0.435021
1197.000000	0.435185
1198.000000	0.435372
1199.000000	0.435559
1200.000000	0.435803
1201.000000	0.436127
1202.000000	0.436208
1203.000000	0.436266
1204.000000	0.436315
1205.000000	0.436304
1206.000000	0.436414
1207.000000	0.436695
1208.000000	0.436913
1209.000000	0.437367
1210.000000	0.437589
1211.000000	0.437617
1212.000000	0.437831
1213.000000	0.438103
1214.000000	0.438359
1215.000000	0.438755
1216.000000	0.439035
1217.000000	0.439136
1218.000000	0.439280
1219.000000	0.439428
1220.000000	0.439701
1221.000000	0.439932
1222.000000	0.440083
1223.000000	0.440265
1224.000000	0.440446
1225.000000	0.440574
1226.000000	0.440804
1227.000000	0.441095
1228.000000	0.441382
1229.000000	0.441587
1230.000000	0.441789
1231.000000	0.441843
1232.000000	0.441824
1233.000000	0.442144
1234.000000	0.442615
1235.000000	0.442819
1236.000000	0.442924
1237.000000	0.443178
1238.000000	0.443165
1239.000000	0.443334
1240.000000	0.443774
1241.000000	0.444168
1242.000000	0.444319
1243.000000	0.444473
1244.000000	0.444675
1245.000000	0.444843
1246.000000	0.445026
1247.000000	0.445341
1248.000000	0.445570
1249.000000	0.445894
1250.000000	0.446258
1251.000000	0.446521
1252.000000	0.446784
1253.000000	0.447157
1254.000000	0.447319
1255.000000	0.447260
1256.000000	0.447419
1257.000000	0.447589
1258.000000	0.447820
1259.000000	0.448118
1260.000000	0.448476
1261.000000	0.448780
1262.000000	0.449048
1263.000000	0.449377
1264.000000	0.449681
1265.000000	0.450034
1266.000000	0.450162
1267.000000	0.450395
1268.000000	0.450634
1269.000000	0.450747
1270.000000	0.451130
1271.000000	0.451392
1272.000000	0.451610
1273.000000	0.451906
1274.000000	0.451971
1275.000000	0.452134
1276.000000	0.452419
1277.000000	0.452794
1278.000000	0.453116
1279.000000	0.453316
1280.000000	0.453372
1281.000000	0.453514
1282.000000	0.453670
1283.000000	0.453922
1284.000000	0.454248
1285.000000	0.454534
1286.000000	0.454795
1287.000000	0.454854
1288.000000	0.455024
1289.000000	0.455114
1290.000000	0.455040
1291.000000	0.455212
1292.000000	0.455510
1293.000000	0.455786
1294.000000	0.455928
1295.000000	0.455960
1296.000000	0.456073
1297.000000	0.456151
1298.000000	0.456349
1299.000000	0.456631
1300.000000	0.456841
1301.000000	0.457026
1302.000000	0.457017
1303.000000	0.456977
1304.000000	0.456933
1305.000000	0.456895
1306.000000	0.456886
1307.000000	0.457043
1308.000000	0.457163
1309.000000	0.457261
1310.000000	0.457336
1311.000000	0.457477
1312.000000	0.457447
1313.000000	0.457361
1314.000000	0.457131
1315.000000	0.456888
1316.000000	0.456856
1317.000000	0.456929
1318.000000	0.457081
1319.000000	0.457117
1320.000000	0.457016
1321.000000	0.456905
1322.000000	0.456759
1323.000000	0.456610
1324.000000	0.456620
1325.000000	0.456598
1326.000000	0.456516
1327.000000	0.456517
1328.000000	0.456586
1329.000000	0.456493
1330.000000	0.456329
1331.000000	0.456226
1332.000000	0.456185
1333.000000	0.456053
1334.000000	0.455989
1335.000000	0.455974
1336.000000	0.455859
1337.000000	0.455734
1338.000000	0.455563
1339.000000	0.455471
1340.000000	0.455373
1341.000000	0.455425
1342.000000	0.455505
1343.000000	0.455405
1344.000000	0.455097
1345.000000	0.454614
1346.000000	0.454348
1347.000000	0.454018
1348.000000	0.453738
1349.000000	0.453631
1350.000000	0.453487
1351.000000	0.453125
1352.000000	0.452869
1353.000000	0.452707
1354.000000	0.452467
1355.000000	0.452228
1356.000000	0.452002
1357.000000	0.451591
1358.000000	0.451158
1359.000000	0.450830
1360.000000	0.450533
1361.000000	0.450430
1362.000000	0.450093
1363.000000	0.449585
1364.000000	0.449250
1365.000000	0.448823
1366.000000	0.448500
1367.000000	0.448329
1368.000000	0.448096
1369.000000	0.447786
1370.000000	0.447348
1371.000000	0.446846
1372.000000	0.446350
1373.000000	0.445953
1374.000000	0.445497
1375.000000	0.444867
1376.000000	0.444407
1377.000000	0.443774
1378.000000	0.442952
1379.000000	0.442087
1380.000000	0.441114
1381.000000	0.439923
1382.000000	0.438597
1383.000000	0.437354
1384.000000	0.435692
1385.000000	0.433841
1386.000000	0.432148
1387.000000	0.430312
1388.000000	0.428431
1389.000000	0.426417
1390.000000	0.424222
1391.000000	0.421851
1392.000000	0.419274
1393.000000	0.416676
1394.000000	0.414168
1395.000000	0.411400
1396.000000	0.408533
1397.000000	0.405472
1398.000000	0.402027
1399.000000	0.398791
1400.000000	0.395448
1401.000000	0.392245
1402.000000	0.389188
1403.000000	0.386146
1404.000000	0.383303
1405.000000	0.380525
1406.000000	0.377864
1407.000000	0.375501
1408.000000	0.373281
1409.000000	0.371164
1410.000000	0.369157
1411.000000	0.367314
1412.000000	0.365518
1413.000000	0.363794
1414.000000	0.362288
1415.000000	0.360950
1416.000000	0.359696
1417.000000	0.358608
1418.000000	0.357470
1419.000000	0.356252
1420.000000	0.354996
1421.000000	0.353781
1422.000000	0.352593
1423.000000	0.351612
1424.000000	0.350620
1425.000000	0.349648
1426.000000	0.348606
1427.000000	0.347561
1428.000000	0.346683
1429.000000	0.345823
1430.000000	0.345001
1431.000000	0.344258
1432.000000	0.343517
1433.000000	0.342780
1434.000000	0.342062
1435.000000	0.341494
1436.000000	0.340910
1437.000000	0.340190
1438.000000	0.339688
1439.000000	0.339354
1440.000000	0.339106
1441.000000	0.338985
1442.000000	0.339059
1443.000000	0.339191
1444.000000	0.339448
1445.000000	0.339934
1446.000000	0.340392
1447.000000	0.340963
1448.000000	0.341567
1449.000000	0.342043
1450.000000	0.342694
1451.000000	0.343294
1452.000000	0.343725
1453.000000	0.344303
1454.000000	0.344653
1455.000000	0.344923
1456.000000	0.345390
1457.000000	0.345697
1458.000000	0.345921
1459.000000	0.346156
1460.000000	0.346357
1461.000000	0.346564
1462.000000	0.346881
1463.000000	0.347160
1464.000000	0.347316
1465.000000	0.347618
1466.000000	0.347923
1467.000000	0.348265
1468.000000	0.348772
1469.000000	0.349151
1470.000000	0.349380
1471.000000	0.349868
1472.000000	0.350381
1473.000000	0.351062
1474.000000	0.351852
1475.000000	0.352586
1476.000000	0.353347
1477.000000	0.354054
1478.000000	0.354835
1479.000000	0.355618
1480.000000	0.356390
1481.000000	0.357137
1482.000000	0.357871
1483.000000	0.358740
1484.000000	0.359715
1485.000000	0.360588
1486.000000	0.361508
1487.000000	0.362380
1488.000000	0.363176
1489.000000	0.363978
1490.000000	0.364650
1491.000000	0.365454
1492.000000	0.366183
1493.000000	0.366983
1494.000000	0.367911
1495.000000	0.368648
1496.000000	0.369241
1497.000000	0.369938
1498.000000	0.370620
1499.000000	0.371321
1500.000000	0.372088
1501.000000	0.372832
1502.000000	0.373567
1503.000000	0.374265
1504.000000	0.374903
1505.000000	0.375598
1506.000000	0.376158
1507.000000	0.376659
1508.000000	0.377374
1509.000000	0.378006
1510.000000	0.378579
1511.000000	0.379194
1512.000000	0.379628
1513.000000	0.380042
1514.000000	0.380602
1515.000000	0.381137
1516.000000	0.381627
1517.000000	0.382072
1518.000000	0.382415
1519.000000	0.382589
1520.000000	0.382910
1521.000000	0.383262
1522.000000	0.383600
1523.000000	0.384079
1524.000000	0.384366
1525.000000	0.384568
1526.000000	0.384944
1527.000000	0.385278
1528.000000	0.385616
1529.000000	0.386048
1530.000000	0.386310
1531.000000	0.386572
1532.000000	0.386870
1533.000000	0.387162
1534.000000	0.387493
1535.000000	0.387747
1536.000000	0.387972
1537.000000	0.388367
1538.000000	0.388698
1539.000000	0.388892
1540.000000	0.389192
1541.000000	0.389483
1542.000000	0.389680
1543.000000	0.390044
1544.000000	0.390413
1545.000000	0.390665
1546.000000	0.390941
1547.000000	0.391163
1548.000000	0.391341
1549.000000	0.391533
1550.000000	0.391708
1551.000000	0.391889
1552.000000	0.392068
1553.000000	0.392192
1554.000000	0.392242
1555.000000	0.392383
1556.000000	0.392549
1557.000000	0.392625
1558.000000	0.392779
1559.000000	0.392959
1560.000000	0.392990
1561.000000	0.393002
1562.000000	0.393031
1563.000000	0.393003
1564.000000	0.393146
1565.000000	0.393405
1566.000000	0.393501
1567.000000	0.393721
1568.000000	0.393866
1569.000000	0.394039
1570.000000	0.394154
1571.000000	0.394216
1572.000000	0.394289
1573.000000	0.394276
1574.000000	0.394375
1575.000000	0.394631
1576.000000	0.394777
1577.000000	0.394911
1578.000000	0.394953
1579.000000	0.394954
1580.000000	0.394975
1581.000000	0.395087
1582.000000	0.395069
1583.000000	0.394904
1584.000000	0.394850
1585.000000	0.394907
1586.000000	0.394997
1587.000000	0.395205
1588.000000	0.395308
1589.000000	0.395324
1590.000000	0.395385
1591.000000	0.395488
1592.000000	0.395639
1593.000000	0.395923
1594.000000	0.396055
1595.000000	0.396124
1596.000000	0.396327
1597.000000	0.396615
1598.000000	0.396745
1599.000000	0.396981
1600.000000	0.397038
1601.000000	0.396898
1602.000000	0.396933
1603.000000	0.397099
1604.000000	0.397165
1605.000000	0.397298
1606.000000	0.397380
1607.000000	0.397371
1608.000000	0.397484
1609.000000	0.397792
1610.000000	0.397926
1611.000000	0.398034
1612.000000	0.398186
1613.000000	0.398375
1614.000000	0.398553
1615.000000	0.398937
1616.000000	0.399195
1617.000000	0.399296
1618.000000	0.399432
1619.000000	0.399456
1620.000000	0.399626
1621.000000	0.399907
1622.000000	0.400209
1623.000000	0.400558
1624.000000	0.400843
1625.000000	0.400944
1626.000000	0.401141
1627.000000	0.401364
1628.000000	0.401645
1629.000000	0.401965
1630.000000	0.402267
1631.000000	0.402541
1632.000000	0.402741
1633.000000	0.402861
1634.000000	0.403156
1635.000000	0.403548
1636.000000	0.403855
1637.000000	0.404278
1638.000000	0.404605
1639.000000	0.404856
1640.000000	0.405177
1641.000000	0.405701
1642.000000	0.406042
1643.000000	0.406361
1644.000000	0.406607
1645.000000	0.406687
1646.000000	0.406865
1647.000000	0.407093
1648.000000	0.407293
1649.000000	0.407673
1650.000000	0.407953
1651.000000	0.408183
1652.000000	0.408540
1653.000000	0.408902
1654.000000	0.409214
1655.000000	0.409481
1656.000000	0.409668
1657.000000	0.409824
1658.000000	0.410060
1659.000000	0.410498
1660.000000	0.410860
1661.000000	0.411107
1662.000000	0.411402
1663.000000	0.411629
1664.000000	0.411925
1665.000000	0.412258
1666.000000	0.412686
1667.000000	0.413078
1668.000000	0.413473
1669.000000	0.413900
1670.000000	0.414212
1671.000000	0.414602
1672.000000	0.414992
1673.000000	0.415328
1674.000000	0.415548
1675.000000	0.415883
1676.000000	0.416143
1677.000000	0.416335
1678.000000	0.416455
1679.000000	0.416549
1680.000000	0.416718
1681.000000	0.416816
1682.000000	0.416929
1683.000000	0.417206
1684.000000	0.417418
1685.000000	0.417640
1686.000000	0.417781
1687.000000	0.417843
1688.000000	0.417871
1689.000000	0.417933
1690.000000	0.418052
1691.000000	0.418295
1692.000000	0.418457
1693.000000	0.418524
1694.000000	0.418703
1695.000000	0.419023
1696.000000	0.418957
1697.000000	0.419057
1698.000000	0.419249
1699.000000	0.419434
1700.000000	0.419869
1701.000000	0.420210
1702.000000	0.420174
1703.000000	0.420164
1704.000000	0.420159
1705.000000	0.420247
1706.000000	0.420496
1707.000000	0.420600
1708.000000	0.420586
1709.000000	0.420655
1710.000000	0.420789
1711.000000	0.420981
1712.000000	0.421476
1713.000000	0.421659
1714.000000	0.421625
1715.000000	0.421777
1716.000000	0.421924
1717.000000	0.422058
1718.000000	0.422210
1719.000000	0.422440
1720.000000	0.422833
1721.000000	0.422987
1722.000000	0.423158
1723.000000	0.423262
1724.000000	0.423007
1725.000000	0.423191
1726.000000	0.423601
1727.000000	0.423808
1728.000000	0.424081
1729.000000	0.424066
1730.000000	0.423950
1731.000000	0.423901
1732.000000	0.423728
1733.000000	0.423840
1734.000000	0.423906
1735.000000	0.424023
1736.000000	0.424278
1737.000000	0.424390
1738.000000	0.424440
1739.000000	0.424581
1740.000000	0.424712
1741.000000	0.424822
1742.000000	0.425001
1743.000000	0.425135
1744.000000	0.425177
1745.000000	0.425274
1746.000000	0.425354
1747.000000	0.425689
1748.000000	0.425760
1749.000000	0.425680
1750.000000	0.425650
1751.000000	0.425619
1752.000000	0.425755
1753.000000	0.425978
1754.000000	0.426046
1755.000000	0.425908
1756.000000	0.425852
1757.000000	0.425754
1758.000000	0.425704
1759.000000	0.425708
1760.000000	0.425708
1761.000000	0.425571
1762.000000	0.425591
1763.000000	0.425839
1764.000000	0.425911
1765.000000	0.425910
1766.000000	0.425970
1767.000000	0.425827
1768.000000	0.425736
1769.000000	0.425898
1770.000000	0.425974
1771.000000	0.425884
1772.000000	0.425917
1773.000000	0.425897
1774.000000	0.426012
1775.000000	0.426374
1776.000000	0.426519
1777.000000	0.426632
1778.000000	0.426641
1779.000000	0.426379
1780.000000	0.426483
1781.000000	0.426681
1782.000000	0.426811
1783.000000	0.427170
1784.000000	0.427369
1785.000000	0.427328
1786.000000	0.427295
1787.000000	0.427507
1788.000000	0.427808
1789.000000	0.428102
1790.000000	0.428387
1791.000000	0.428457
1792.000000	0.428289
1793.000000	0.428241
1794.000000	0.428152
1795.000000	0.428288
1796.000000	0.428646
1797.000000	0.428803
1798.000000	0.428910
1799.000000	0.429106
1800.000000	0.429415
1801.000000	0.428433
1802.000000	0.428807
1803.000000	0.430191
1804.000000	0.430681
1805.000000	0.431414
1806.000000	0.431890
1807.000000	0.431800
1808.000000	0.431890
1809.000000	0.431887
1810.000000	0.432328
1811.000000	0.432579
1812.000000	0.432779
1813.000000	0.432736
1814.000000	0.432563
1815.000000	0.432801
1816.000000	0.433294
1817.000000	0.433138
1818.000000	0.433018
1819.000000	0.433196
1820.000000	0.432551
1821.000000	0.431442
1822.000000	0.430945
1823.000000	0.430339
1824.000000	0.430300
1825.000000	0.430702
1826.000000	0.431072
1827.000000	0.431943
1828.000000	0.432404
1829.000000	0.432378
1830.000000	0.432485
1831.000000	0.431817
1832.000000	0.430062
1833.000000	0.429409
1834.000000	0.428540
1835.000000	0.428230
1836.000000	0.428950
1837.000000	0.429146
1838.000000	0.429639
1839.000000	0.429051
1840.000000	0.427620
1841.000000	0.426689
1842.000000	0.425953
1843.000000	0.424696
1844.000000	0.424185
1845.000000	0.424724
1846.000000	0.424428
1847.000000	0.423680
1848.000000	0.422900
1849.000000	0.421988
1850.000000	0.420887
1851.000000	0.420318
1852.000000	0.420019
1853.000000	0.419511
1854.000000	0.419363
1855.000000	0.418495
1856.000000	0.416888
1857.000000	0.415636
1858.000000	0.414676
1859.000000	0.412292
1860.000000	0.410299
1861.000000	0.408739
1862.000000	0.406608
1863.000000	0.404162
1864.000000	0.401986
1865.000000	0.399752
1866.000000	0.397254
1867.000000	0.394869
1868.000000	0.391963
1869.000000	0.388371
1870.000000	0.385311
1871.000000	0.381347
1872.000000	0.377325
1873.000000	0.373454
1874.000000	0.368949
1875.000000	0.365077
1876.000000	0.361580
1877.000000	0.357735
1878.000000	0.353299
1879.000000	0.349173
1880.000000	0.342777
1881.000000	0.336257
1882.000000	0.330355
1883.000000	0.323537
1884.000000	0.317265
1885.000000	0.311826
1886.000000	0.305302
1887.000000	0.298145
1888.000000	0.290795
1889.000000	0.283484
1890.000000	0.275742
1891.000000	0.268088
1892.000000	0.261397
1893.000000	0.254871
1894.000000	0.247626
1895.000000	0.240500
1896.000000	0.233584
1897.000000	0.226366
1898.000000	0.219246
1899.000000	0.213585
1900.000000	0.208584
1901.000000	0.204071
1902.000000	0.199020
1903.000000	0.194574
1904.000000	0.191506
1905.000000	0.188597
1906.000000	0.186054
1907.000000	0.184688
1908.000000	0.183255
1909.000000	0.181135
1910.000000	0.179246
1911.000000	0.178072
1912.000000	0.177305
1913.000000	0.176693
1914.000000	0.176373
1915.000000	0.175992
1916.000000	0.175734
1917.000000	0.175298
1918.000000	0.174837
1919.000000	0.174487
1920.000000	0.174324
1921.000000	0.174196
1922.000000	0.174255
1923.000000	0.174373
1924.000000	0.174309
1925.000000	0.174456
1926.000000	0.175071
1927.000000	0.175935
1928.000000	0.176655
1929.000000	0.177717
1930.000000	0.178310
1931.000000	0.178546
1932.000000	0.178404
1933.000000	0.178159
1934.000000	0.178978
1935.000000	0.179997
1936.000000	0.180655
1937.000000	0.181458
1938.000000	0.181331
1939.000000	0.181210
1940.000000	0.180573
1941.000000	0.180566
1942.000000	0.180083
1943.000000	0.179565
1944.000000	0.179045
1945.000000	0.178531
1946.000000	0.178919
1947.000000	0.179495
1948.000000	0.179899
1949.000000	0.180175
1950.000000	0.179470
1951.000000	0.178905
1952.000000	0.178042
1953.000000	0.177330
1954.000000	0.176738
1955.000000	0.177211
1956.000000	0.177487
1957.000000	0.177462
1958.000000	0.177518
1959.000000	0.177156
1960.000000	0.176990
1961.000000	0.177115
1962.000000	0.177298
1963.000000	0.177774
1964.000000	0.178133
1965.000000	0.178262
1966.000000	0.178178
1967.000000	0.177904
1968.000000	0.178218
1969.000000	0.178367
1970.000000	0.178542
1971.000000	0.179060
1972.000000	0.179198
1973.000000	0.179463
1974.000000	0.180079
1975.000000	0.180754
1976.000000	0.181538
1977.000000	0.181963
1978.000000	0.182955
1979.000000	0.183246
1980.000000	0.183182
1981.000000	0.183545
1982.000000	0.183801
1983.000000	0.184172
1984.000000	0.184834
1985.000000	0.186026
1986.000000	0.186890
1987.000000	0.187708
1988.000000	0.188968
1989.000000	0.189868
1990.000000	0.190872
1991.000000	0.191719
1992.000000	0.192048
1993.000000	0.192515
1994.000000	0.193004
1995.000000	0.193862
1996.000000	0.194995
1997.000000	0.196199
1998.000000	0.197879
1999.000000	0.199233
2000.000000	0.200565
2001.000000	0.201813
2002.000000	0.203118
2003.000000	0.203622
2004.000000	0.204139
2005.000000	0.204928
2006.000000	0.205091
2007.000000	0.206083
2008.000000	0.207292
2009.000000	0.208613
2010.000000	0.210059
2011.000000	0.212121
2012.000000	0.213720
2013.000000	0.214909
2014.000000	0.216787
2015.000000	0.218466
2016.000000	0.219864
2017.000000	0.221809
2018.000000	0.223516
2019.000000	0.224964
2020.000000	0.226001
2021.000000	0.226997
2022.000000	0.227441
2023.000000	0.228193
2024.000000	0.229005
2025.000000	0.230054
2026.000000	0.231042
2027.000000	0.232090
2028.000000	0.233716
2029.000000	0.235172
2030.000000	0.236642
2031.000000	0.239054
2032.000000	0.240880
2033.000000	0.242244
2034.000000	0.243615
2035.000000	0.244789
2036.000000	0.245600
2037.000000	0.246229
2038.000000	0.247252
2039.000000	0.248170
2040.000000	0.249313
2041.000000	0.250974
2042.000000	0.252361
2043.000000	0.253174
2044.000000	0.253436
2045.000000	0.253826
2046.000000	0.254111
2047.000000	0.254996
2048.000000	0.256553
2049.000000	0.257940
2050.000000	0.259611
2051.000000	0.260599
2052.000000	0.260755
2053.000000	0.261565
2054.000000	0.262623
2055.000000	0.263449
2056.000000	0.264945
2057.000000	0.266609
2058.000000	0.267657
2059.000000	0.268772
2060.000000	0.269552
2061.000000	0.269858
2062.000000	0.270475
2063.000000	0.270814
2064.000000	0.271520
2065.000000	0.273163
2066.000000	0.274174
2067.000000	0.275175
2068.000000	0.276336
2069.000000	0.277551
2070.000000	0.278349
2071.000000	0.279159
2072.000000	0.280131
2073.000000	0.280777
2074.000000	0.281080
2075.000000	0.281963
2076.000000	0.283406
2077.000000	0.284328
2078.000000	0.285245
2079.000000	0.286188
2080.000000	0.286816
2081.000000	0.287744
2082.000000	0.288972
2083.000000	0.290152
2084.000000	0.291146
2085.000000	0.292034
2086.000000	0.293008
2087.000000	0.293911
2088.000000	0.295057
2089.000000	0.296296
2090.000000	0.297549
2091.000000	0.299061
2092.000000	0.300316
2093.000000	0.301440
2094.000000	0.302701
2095.000000	0.304173
2096.000000	0.305268
2097.000000	0.306314
2098.000000	0.306894
2099.000000	0.307802
2100.000000	0.308212
2101.000000	0.308161
2102.000000	0.308837
2103.000000	0.309454
2104.000000	0.309657
2105.000000	0.310059
2106.000000	0.310887
2107.000000	0.311388
2108.000000	0.311104
2109.000000	0.311978
2110.000000	0.313516
2111.000000	0.314993
2112.000000	0.317258
2113.000000	0.318299
2114.000000	0.319946
2115.000000	0.320588
2116.000000	0.320837
2117.000000	0.322043
2118.000000	0.322667
2119.000000	0.322591
2120.000000	0.323001
2121.000000	0.323620
2122.000000	0.323870
2123.000000	0.323834
2124.000000	0.324402
2125.000000	0.325004
2126.000000	0.325544
2127.000000	0.326646
2128.000000	0.327609
2129.000000	0.328436
2130.000000	0.328933
2131.000000	0.329237
2132.000000	0.329778
2133.000000	0.330272
2134.000000	0.330641
2135.000000	0.331192
2136.000000	0.331538
2137.000000	0.331623
2138.000000	0.331258
2139.000000	0.331218
2140.000000	0.331202
2141.000000	0.330935
2142.000000	0.330273
2143.000000	0.329719
2144.000000	0.329105
2145.000000	0.329201
2146.000000	0.329659
2147.000000	0.331083
2148.000000	0.332139
2149.000000	0.332850
2150.000000	0.333741
2151.000000	0.334380
2152.000000	0.334719
2153.000000	0.334799
2154.000000	0.334661
2155.000000	0.333839
2156.000000	0.333375
2157.000000	0.332643
2158.000000	0.332683
2159.000000	0.333255
2160.000000	0.333846
2161.000000	0.335225
2162.000000	0.336168
2163.000000	0.336829
2164.000000	0.337089
2165.000000	0.337052
2166.000000	0.336969
2167.000000	0.336605
2168.000000	0.336414
2169.000000	0.336237
2170.000000	0.336520
2171.000000	0.336436
2172.000000	0.336201
2173.000000	0.336144
2174.000000	0.335851
2175.000000	0.335849
2176.000000	0.336463
2177.000000	0.336526
2178.000000	0.336363
2179.000000	0.336438
2180.000000	0.336291
2181.000000	0.336372
2182.000000	0.335563
2183.000000	0.336328
2184.000000	0.336331
2185.000000	0.334583
2186.000000	0.334549
2187.000000	0.334007
2188.000000	0.333696
2189.000000	0.334550
2190.000000	0.334574
2191.000000	0.335197
2192.000000	0.335032
2193.000000	0.334414
2194.000000	0.334211
2195.000000	0.333379
2196.000000	0.333313
2197.000000	0.333948
2198.000000	0.334138
2199.000000	0.334860
2200.000000	0.335231
2201.000000	0.336089
2202.000000	0.335853
2203.000000	0.334383
2204.000000	0.332537
2205.000000	0.331143
2206.000000	0.329491
2207.000000	0.328649
2208.000000	0.330158
2209.000000	0.331843
2210.000000	0.332341
2211.000000	0.334905
2212.000000	0.336812
2213.000000	0.336900
2214.000000	0.335486
2215.000000	0.334873
2216.000000	0.332581
2217.000000	0.331622
2218.000000	0.331116
2219.000000	0.331271
2220.000000	0.332595
2221.000000	0.333114
2222.000000	0.334692
2223.000000	0.334940
2224.000000	0.334049
2225.000000	0.332612
2226.000000	0.331402
2227.000000	0.329226
2228.000000	0.329035
2229.000000	0.327904
2230.000000	0.326002
2231.000000	0.325384
2232.000000	0.323796
2233.000000	0.323452
2234.000000	0.324689
2235.000000	0.324744
2236.000000	0.324558
2237.000000	0.323443
2238.000000	0.323426
2239.000000	0.324282
2240.000000	0.323751
2241.000000	0.323228
2242.000000	0.322194
2243.000000	0.319563
2244.000000	0.317852
2245.000000	0.314869
2246.000000	0.314993
2247.000000	0.317296
2248.000000	0.318330
2249.000000	0.320922
2250.000000	0.324468
2251.000000	0.323404
2252.000000	0.322876
2253.000000	0.322204
2254.000000	0.320484
2255.000000	0.318908
2256.000000	0.316535
2257.000000	0.316897
2258.000000	0.318597
2259.000000	0.320308
2260.000000	0.321866
2261.000000	0.321629
2262.000000	0.319112
2263.000000	0.317566
2264.000000	0.315437
2265.000000	0.314550
2266.000000	0.314960
2267.000000	0.312823
2268.000000	0.309735
2269.000000	0.307682
2270.000000	0.303392
2271.000000	0.302671
2272.000000	0.305268
2273.000000	0.305362
2274.000000	0.306799
2275.000000	0.305497
2276.000000	0.301193
2277.000000	0.298917
2278.000000	0.294817
2279.000000	0.291172
2280.000000	0.289292
2281.000000	0.285287
2282.000000	0.281430
2283.000000	0.278857
2284.000000	0.275795
2285.000000	0.273528
2286.000000	0.271726
2287.000000	0.269192
2288.000000	0.267078
2289.000000	0.264525
2290.000000	0.263321
2291.000000	0.263044
2292.000000	0.260370
2293.000000	0.258888
2294.000000	0.257518
2295.000000	0.255165
2296.000000	0.253778
2297.000000	0.253404
2298.000000	0.253409
2299.000000	0.253088
2300.000000	0.254201
2301.000000	0.257815
2302.000000	0.258768
2303.000000	0.259354
2304.000000	0.259860
2305.000000	0.258198
2306.000000	0.258203
2307.000000	0.259129
2308.000000	0.260056
2309.000000	0.261098
2310.000000	0.263570
2311.000000	0.265062
2312.000000	0.265450
2313.000000	0.266923
2314.000000	0.267830
2315.000000	0.267822
2316.000000	0.268452
2317.000000	0.267950
2318.000000	0.266509
2319.000000	0.266324
2320.000000	0.267282
2321.000000	0.269164
2322.000000	0.269713
2323.000000	0.269975
2324.000000	0.269142
2325.000000	0.266512
2326.000000	0.265025
2327.000000	0.262020
2328.000000	0.260504
2329.000000	0.261146
2330.000000	0.260929
2331.000000	0.261504
2332.000000	0.259768
2333.000000	0.256373
2334.000000	0.253474
2335.000000	0.252299
2336.000000	0.252804
2337.000000	0.252232
2338.000000	0.252126
2339.000000	0.252308
2340.000000	0.252413
2341.000000	0.251826
2342.000000	0.251752
2343.000000	0.250277
2344.000000	0.246839
2345.000000	0.244400
2346.000000	0.241966
2347.000000	0.241282
2348.000000	0.241800
2349.000000	0.240965
2350.000000	0.240535
2351.000000	0.237364
2352.000000	0.233343
2353.000000	0.230112
2354.000000	0.227485
2355.000000	0.227938
2356.000000	0.227958
2357.000000	0.226065
2358.000000	0.228513
2359.000000	0.229526
2360.000000	0.227450
2361.000000	0.227782
2362.000000	0.223217
2363.000000	0.217574
2364.000000	0.214249
2365.000000	0.210079
2366.000000	0.208971
2367.000000	0.210043
2368.000000	0.213232
2369.000000	0.217949
2370.000000	0.217071
2371.000000	0.212619
2372.000000	0.209040
2373.000000	0.205610
2374.000000	0.203803
2375.000000	0.202548
2376.000000	0.201902
2377.000000	0.200334
2378.000000	0.198333
2379.000000	0.201637
2380.000000	0.198791
2381.000000	0.189436
2382.000000	0.185268
2383.000000	0.178927
2384.000000	0.174412
2385.000000	0.175933
2386.000000	0.179228
2387.000000	0.182308
2388.000000	0.180638
2389.000000	0.179178
2390.000000	0.174545
2391.000000	0.168725
2392.000000	0.170026
2393.000000	0.167590
2394.000000	0.165501
2395.000000	0.168537
2396.000000	0.169213
2397.000000	0.172134
2398.000000	0.173544
2399.000000	0.168735
2400.000000	0.162236
2401.000000	0.164461
2402.000000	0.167266
2403.000000	0.163324
2404.000000	0.164768
2405.000000	0.156643
2406.000000	0.148497
2407.000000	0.151125
2408.000000	0.150882
2409.000000	0.156849
2410.000000	0.158930
2411.000000	0.154326
2412.000000	0.151180
2413.000000	0.150217
2414.000000	0.161491
2415.000000	0.175241
2416.000000	0.189050
2417.000000	0.197389
2418.000000	0.196080
2419.000000	0.188851
2420.000000	0.178121
2421.000000	0.172960
2422.000000	0.168027
2423.000000	0.171659
2424.000000	0.177309
2425.000000	0.179930
2426.000000	0.181840
2427.000000	0.182616
2428.000000	0.191910
2429.000000	0.193444
2430.000000	0.188532
2431.000000	0.182500
2432.000000	0.170137
2433.000000	0.160948
2434.000000	0.162272
2435.000000	0.167675
2436.000000	0.165913
2437.000000	0.159720
2438.000000	0.153905
2439.000000	0.142369
2440.000000	0.134680
2441.000000	0.147341
2442.000000	0.157709
2443.000000	0.168283
2444.000000	0.177041
2445.000000	0.162427
2446.000000	0.153755
2447.000000	0.141465
2448.000000	0.117456
2449.000000	0.116570
2450.000000	0.117866
2451.000000	0.119888
2452.000000	0.130720
2453.000000	0.125737
2454.000000	0.127337
2455.000000	0.127776
2456.000000	0.121482
2457.000000	0.133198
2458.000000	0.130202
2459.000000	0.112641
2460.000000	0.125419
2461.000000	0.141792
2462.000000	0.142313
2463.000000	0.154444
2464.000000	0.146022
2465.000000	0.131670
2466.000000	0.131246
2467.000000	0.136209
2468.000000	0.155916
2469.000000	0.147744
2470.000000	0.135898
2471.000000	0.114156
2472.000000	0.089199
2473.000000	0.104387
2474.000000	0.113548
2475.000000	0.132386
2476.000000	0.160732
2477.000000	0.138415
2478.000000	0.117241
2479.000000	0.104198
2480.000000	0.089559
2481.000000	0.085490
2482.000000	0.079626
2483.000000	0.095547
2484.000000	0.108641
2485.000000	0.128176
2486.000000	0.166689
2487.000000	0.164375
2488.000000	0.147835
2489.000000	0.125652
2490.000000	0.117854
2491.000000	0.088697
2492.000000	0.103766
2493.000000	0.179038
2494.000000	0.205058
2495.000000	0.252408
2496.000000	0.268727
2497.000000	0.196615
2498.000000	0.158330
2499.000000	0.132381
2500.000000	0.113226
