# Wavelength	Nau-2_00000.asd.rts.txt
350.000000	0.038033
351.000000	0.035664
352.000000	0.037705
353.000000	0.038594
354.000000	0.036467
355.000000	0.034296
356.000000	0.033286
357.000000	0.033718
358.000000	0.034892
359.000000	0.033780
360.000000	0.032218
361.000000	0.032679
362.000000	0.034084
363.000000	0.033236
364.000000	0.029695
365.000000	0.030077
366.000000	0.029308
367.000000	0.027138
368.000000	0.027390
369.000000	0.028425
370.000000	0.029247
371.000000	0.029117
372.000000	0.028477
373.000000	0.028574
374.000000	0.029770
375.000000	0.030011
376.000000	0.029023
377.000000	0.027818
378.000000	0.028783
379.000000	0.030835
380.000000	0.032249
381.000000	0.031626
382.000000	0.031893
383.000000	0.032209
384.000000	0.031726
385.000000	0.030449
386.000000	0.030485
387.000000	0.031952
388.000000	0.032991
389.000000	0.032037
390.000000	0.030862
391.000000	0.032087
392.000000	0.032191
393.000000	0.031769
394.000000	0.031701
395.000000	0.031767
396.000000	0.032249
397.000000	0.032908
398.000000	0.032732
399.000000	0.032731
400.000000	0.032876
401.000000	0.032746
402.000000	0.033013
403.000000	0.033183
404.000000	0.032925
405.000000	0.033347
406.000000	0.033655
407.000000	0.033486
408.000000	0.033121
409.000000	0.033383
410.000000	0.034067
411.000000	0.034344
412.000000	0.034273
413.000000	0.034311
414.000000	0.034846
415.000000	0.035212
416.000000	0.035559
417.000000	0.035919
418.000000	0.035807
419.000000	0.036081
420.000000	0.036685
421.000000	0.036788
422.000000	0.036952
423.000000	0.037289
424.000000	0.037752
425.000000	0.037919
426.000000	0.038187
427.000000	0.038749
428.000000	0.038866
429.000000	0.038966
430.000000	0.039262
431.000000	0.039726
432.000000	0.040102
433.000000	0.040391
434.000000	0.040733
435.000000	0.041034
436.000000	0.041286
437.000000	0.041489
438.000000	0.041598
439.000000	0.041771
440.000000	0.042088
441.000000	0.042447
442.000000	0.042721
443.000000	0.042857
444.000000	0.042887
445.000000	0.043142
446.000000	0.043628
447.000000	0.044198
448.000000	0.044662
449.000000	0.045100
450.000000	0.045559
451.000000	0.045893
452.000000	0.046275
453.000000	0.046767
454.000000	0.047370
455.000000	0.047695
456.000000	0.047918
457.000000	0.048398
458.000000	0.048713
459.000000	0.049064
460.000000	0.049632
461.000000	0.050037
462.000000	0.050304
463.000000	0.050536
464.000000	0.051080
465.000000	0.051521
466.000000	0.051822
467.000000	0.052201
468.000000	0.052519
469.000000	0.052821
470.000000	0.053205
471.000000	0.053541
472.000000	0.053814
473.000000	0.054069
474.000000	0.054453
475.000000	0.054784
476.000000	0.055080
477.000000	0.055519
478.000000	0.055801
479.000000	0.056050
480.000000	0.056470
481.000000	0.056791
482.000000	0.057125
483.000000	0.057518
484.000000	0.057674
485.000000	0.057865
486.000000	0.058213
487.000000	0.058407
488.000000	0.058697
489.000000	0.059016
490.000000	0.059086
491.000000	0.059162
492.000000	0.059292
493.000000	0.059426
494.000000	0.059487
495.000000	0.059547
496.000000	0.059634
497.000000	0.059639
498.000000	0.059634
499.000000	0.059679
500.000000	0.059797
501.000000	0.059888
502.000000	0.059963
503.000000	0.060062
504.000000	0.060185
505.000000	0.060330
506.000000	0.060497
507.000000	0.060680
508.000000	0.060936
509.000000	0.061249
510.000000	0.061480
511.000000	0.061742
512.000000	0.062065
513.000000	0.062418
514.000000	0.062791
515.000000	0.063157
516.000000	0.063483
517.000000	0.063833
518.000000	0.064224
519.000000	0.064637
520.000000	0.065032
521.000000	0.065505
522.000000	0.066077
523.000000	0.066645
524.000000	0.067296
525.000000	0.068065
526.000000	0.068973
527.000000	0.069857
528.000000	0.070823
529.000000	0.072010
530.000000	0.073255
531.000000	0.074605
532.000000	0.076057
533.000000	0.077528
534.000000	0.079058
535.000000	0.080642
536.000000	0.082246
537.000000	0.083824
538.000000	0.085374
539.000000	0.086907
540.000000	0.088366
541.000000	0.089753
542.000000	0.091100
543.000000	0.092422
544.000000	0.093756
545.000000	0.095081
546.000000	0.096356
547.000000	0.097645
548.000000	0.099001
549.000000	0.100442
550.000000	0.101985
551.000000	0.103630
552.000000	0.105356
553.000000	0.107213
554.000000	0.109180
555.000000	0.111246
556.000000	0.113451
557.000000	0.115729
558.000000	0.118092
559.000000	0.120511
560.000000	0.122932
561.000000	0.125386
562.000000	0.127880
563.000000	0.130321
564.000000	0.132714
565.000000	0.135022
566.000000	0.137206
567.000000	0.139286
568.000000	0.141248
569.000000	0.143041
570.000000	0.144669
571.000000	0.146154
572.000000	0.147552
573.000000	0.148798
574.000000	0.149878
575.000000	0.150828
576.000000	0.151624
577.000000	0.152287
578.000000	0.152861
579.000000	0.153315
580.000000	0.153613
581.000000	0.153768
582.000000	0.153878
583.000000	0.153890
584.000000	0.153806
585.000000	0.153654
586.000000	0.153412
587.000000	0.153077
588.000000	0.152657
589.000000	0.152183
590.000000	0.151629
591.000000	0.150987
592.000000	0.150306
593.000000	0.149576
594.000000	0.148793
595.000000	0.147958
596.000000	0.147101
597.000000	0.146225
598.000000	0.145273
599.000000	0.144282
600.000000	0.143298
601.000000	0.142315
602.000000	0.141315
603.000000	0.140289
604.000000	0.139249
605.000000	0.138230
606.000000	0.137211
607.000000	0.136198
608.000000	0.135211
609.000000	0.134229
610.000000	0.133271
611.000000	0.132354
612.000000	0.131426
613.000000	0.130495
614.000000	0.129587
615.000000	0.128698
616.000000	0.127840
617.000000	0.126998
618.000000	0.126170
619.000000	0.125355
620.000000	0.124555
621.000000	0.123804
622.000000	0.123094
623.000000	0.122421
624.000000	0.121782
625.000000	0.121181
626.000000	0.120592
627.000000	0.120017
628.000000	0.119503
629.000000	0.119015
630.000000	0.118508
631.000000	0.118040
632.000000	0.117604
633.000000	0.117200
634.000000	0.116818
635.000000	0.116446
636.000000	0.116118
637.000000	0.115839
638.000000	0.115576
639.000000	0.115353
640.000000	0.115192
641.000000	0.115051
642.000000	0.114962
643.000000	0.114899
644.000000	0.114831
645.000000	0.114839
646.000000	0.114879
647.000000	0.114917
648.000000	0.115020
649.000000	0.115178
650.000000	0.115362
651.000000	0.115549
652.000000	0.115756
653.000000	0.116008
654.000000	0.116304
655.000000	0.116653
656.000000	0.117055
657.000000	0.117490
658.000000	0.117972
659.000000	0.118495
660.000000	0.119053
661.000000	0.119660
662.000000	0.120290
663.000000	0.120970
664.000000	0.121717
665.000000	0.122483
666.000000	0.123279
667.000000	0.124116
668.000000	0.124995
669.000000	0.125906
670.000000	0.126853
671.000000	0.127870
672.000000	0.128945
673.000000	0.130070
674.000000	0.131248
675.000000	0.132448
676.000000	0.133696
677.000000	0.135040
678.000000	0.136447
679.000000	0.137891
680.000000	0.139370
681.000000	0.140919
682.000000	0.142555
683.000000	0.144234
684.000000	0.145939
685.000000	0.147734
686.000000	0.149605
687.000000	0.151492
688.000000	0.153432
689.000000	0.155442
690.000000	0.157541
691.000000	0.159676
692.000000	0.161867
693.000000	0.164162
694.000000	0.166540
695.000000	0.168962
696.000000	0.171443
697.000000	0.174012
698.000000	0.176616
699.000000	0.179282
700.000000	0.182038
701.000000	0.184845
702.000000	0.187762
703.000000	0.190773
704.000000	0.193787
705.000000	0.196903
706.000000	0.200102
707.000000	0.203379
708.000000	0.206736
709.000000	0.210152
710.000000	0.213621
711.000000	0.217145
712.000000	0.220731
713.000000	0.224394
714.000000	0.228123
715.000000	0.231906
716.000000	0.235749
717.000000	0.239655
718.000000	0.243611
719.000000	0.247617
720.000000	0.251697
721.000000	0.255876
722.000000	0.260074
723.000000	0.264318
724.000000	0.268628
725.000000	0.272968
726.000000	0.277368
727.000000	0.281750
728.000000	0.286176
729.000000	0.290661
730.000000	0.295161
731.000000	0.299720
732.000000	0.304308
733.000000	0.308933
734.000000	0.313532
735.000000	0.318099
736.000000	0.322736
737.000000	0.327316
738.000000	0.331859
739.000000	0.336453
740.000000	0.340976
741.000000	0.345513
742.000000	0.350035
743.000000	0.354500
744.000000	0.358957
745.000000	0.363368
746.000000	0.367781
747.000000	0.372153
748.000000	0.376523
749.000000	0.380884
750.000000	0.385165
751.000000	0.389302
752.000000	0.393403
753.000000	0.397492
754.000000	0.401490
755.000000	0.405384
756.000000	0.409191
757.000000	0.412887
758.000000	0.416547
759.000000	0.420184
760.000000	0.423709
761.000000	0.427195
762.000000	0.430567
763.000000	0.433801
764.000000	0.437017
765.000000	0.440141
766.000000	0.443174
767.000000	0.446107
768.000000	0.448921
769.000000	0.451595
770.000000	0.454174
771.000000	0.456793
772.000000	0.459337
773.000000	0.461716
774.000000	0.464035
775.000000	0.466167
776.000000	0.468211
777.000000	0.470209
778.000000	0.472096
779.000000	0.473880
780.000000	0.475567
781.000000	0.477136
782.000000	0.478646
783.000000	0.480207
784.000000	0.481651
785.000000	0.483050
786.000000	0.484372
787.000000	0.485593
788.000000	0.486746
789.000000	0.487784
790.000000	0.488685
791.000000	0.489521
792.000000	0.490285
793.000000	0.491012
794.000000	0.491736
795.000000	0.492445
796.000000	0.493086
797.000000	0.493631
798.000000	0.494091
799.000000	0.494545
800.000000	0.494976
801.000000	0.495341
802.000000	0.495629
803.000000	0.495811
804.000000	0.495950
805.000000	0.496082
806.000000	0.496154
807.000000	0.496244
808.000000	0.496246
809.000000	0.496290
810.000000	0.496273
811.000000	0.496102
812.000000	0.495930
813.000000	0.495716
814.000000	0.495473
815.000000	0.495296
816.000000	0.495068
817.000000	0.494856
818.000000	0.494609
819.000000	0.494342
820.000000	0.494042
821.000000	0.493633
822.000000	0.493186
823.000000	0.492747
824.000000	0.492277
825.000000	0.491887
826.000000	0.491474
827.000000	0.491073
828.000000	0.490728
829.000000	0.490215
830.000000	0.489589
831.000000	0.488969
832.000000	0.488263
833.000000	0.487696
834.000000	0.487181
835.000000	0.486645
836.000000	0.485996
837.000000	0.485308
838.000000	0.484674
839.000000	0.484131
840.000000	0.483591
841.000000	0.483031
842.000000	0.482394
843.000000	0.481766
844.000000	0.481156
845.000000	0.480510
846.000000	0.479829
847.000000	0.479138
848.000000	0.478477
849.000000	0.477912
850.000000	0.477297
851.000000	0.476572
852.000000	0.475817
853.000000	0.475121
854.000000	0.474417
855.000000	0.473812
856.000000	0.473140
857.000000	0.472251
858.000000	0.471480
859.000000	0.470831
860.000000	0.470104
861.000000	0.469356
862.000000	0.468723
863.000000	0.468206
864.000000	0.467562
865.000000	0.466841
866.000000	0.466110
867.000000	0.465298
868.000000	0.464504
869.000000	0.463682
870.000000	0.462909
871.000000	0.462201
872.000000	0.461534
873.000000	0.460819
874.000000	0.460165
875.000000	0.459396
876.000000	0.458568
877.000000	0.457731
878.000000	0.456929
879.000000	0.456272
880.000000	0.455596
881.000000	0.454956
882.000000	0.454267
883.000000	0.453562
884.000000	0.452829
885.000000	0.452126
886.000000	0.451445
887.000000	0.450832
888.000000	0.450337
889.000000	0.449806
890.000000	0.449110
891.000000	0.448463
892.000000	0.447721
893.000000	0.446941
894.000000	0.446324
895.000000	0.445706
896.000000	0.445069
897.000000	0.444385
898.000000	0.443658
899.000000	0.443026
900.000000	0.442446
901.000000	0.441850
902.000000	0.441350
903.000000	0.440792
904.000000	0.440256
905.000000	0.439719
906.000000	0.439266
907.000000	0.438739
908.000000	0.438166
909.000000	0.437529
910.000000	0.436990
911.000000	0.436502
912.000000	0.435999
913.000000	0.435431
914.000000	0.434902
915.000000	0.434465
916.000000	0.433905
917.000000	0.433441
918.000000	0.433104
919.000000	0.432799
920.000000	0.432316
921.000000	0.431900
922.000000	0.431504
923.000000	0.430927
924.000000	0.430388
925.000000	0.429916
926.000000	0.429533
927.000000	0.429119
928.000000	0.428759
929.000000	0.428367
930.000000	0.427865
931.000000	0.427501
932.000000	0.427188
933.000000	0.426870
934.000000	0.426406
935.000000	0.426049
936.000000	0.425762
937.000000	0.425348
938.000000	0.424965
939.000000	0.424740
940.000000	0.424512
941.000000	0.424189
942.000000	0.423833
943.000000	0.423544
944.000000	0.423246
945.000000	0.423149
946.000000	0.422874
947.000000	0.422519
948.000000	0.422202
949.000000	0.421838
950.000000	0.421529
951.000000	0.421244
952.000000	0.420985
953.000000	0.420608
954.000000	0.420272
955.000000	0.419993
956.000000	0.419677
957.000000	0.419379
958.000000	0.419099
959.000000	0.418970
960.000000	0.418807
961.000000	0.418592
962.000000	0.418370
963.000000	0.418315
964.000000	0.418336
965.000000	0.418342
966.000000	0.418183
967.000000	0.418269
968.000000	0.418366
969.000000	0.418281
970.000000	0.418086
971.000000	0.418072
972.000000	0.418161
973.000000	0.418177
974.000000	0.418153
975.000000	0.418028
976.000000	0.417927
977.000000	0.417928
978.000000	0.417924
979.000000	0.417911
980.000000	0.417763
981.000000	0.417930
982.000000	0.418009
983.000000	0.418004
984.000000	0.418072
985.000000	0.418261
986.000000	0.418340
987.000000	0.418412
988.000000	0.418444
989.000000	0.418533
990.000000	0.418792
991.000000	0.419155
992.000000	0.419556
993.000000	0.419942
994.000000	0.420050
995.000000	0.420145
996.000000	0.420313
997.000000	0.420670
998.000000	0.420884
999.000000	0.420999
1000.000000	0.421318
1001.000000	0.420982
1002.000000	0.421134
1003.000000	0.421085
1004.000000	0.421214
1005.000000	0.421482
1006.000000	0.421539
1007.000000	0.421607
1008.000000	0.421788
1009.000000	0.421864
1010.000000	0.421789
1011.000000	0.422194
1012.000000	0.422811
1013.000000	0.423008
1014.000000	0.423313
1015.000000	0.423672
1016.000000	0.423810
1017.000000	0.423913
1018.000000	0.424346
1019.000000	0.424832
1020.000000	0.425744
1021.000000	0.425805
1022.000000	0.425831
1023.000000	0.426214
1024.000000	0.426077
1025.000000	0.426425
1026.000000	0.427021
1027.000000	0.427202
1028.000000	0.427723
1029.000000	0.428166
1030.000000	0.428354
1031.000000	0.428814
1032.000000	0.429057
1033.000000	0.429104
1034.000000	0.429394
1035.000000	0.429915
1036.000000	0.430388
1037.000000	0.431026
1038.000000	0.431322
1039.000000	0.431611
1040.000000	0.431980
1041.000000	0.432179
1042.000000	0.432422
1043.000000	0.432923
1044.000000	0.433406
1045.000000	0.433761
1046.000000	0.434076
1047.000000	0.434551
1048.000000	0.435052
1049.000000	0.435409
1050.000000	0.435814
1051.000000	0.436208
1052.000000	0.436311
1053.000000	0.436577
1054.000000	0.437360
1055.000000	0.437913
1056.000000	0.438413
1057.000000	0.438974
1058.000000	0.439319
1059.000000	0.439329
1060.000000	0.439729
1061.000000	0.440366
1062.000000	0.440926
1063.000000	0.441752
1064.000000	0.442345
1065.000000	0.442690
1066.000000	0.443096
1067.000000	0.443452
1068.000000	0.443761
1069.000000	0.443908
1070.000000	0.444196
1071.000000	0.444576
1072.000000	0.444954
1073.000000	0.445374
1074.000000	0.446051
1075.000000	0.446578
1076.000000	0.447047
1077.000000	0.447357
1078.000000	0.447504
1079.000000	0.447828
1080.000000	0.448159
1081.000000	0.448552
1082.000000	0.449199
1083.000000	0.449738
1084.000000	0.450330
1085.000000	0.450879
1086.000000	0.451438
1087.000000	0.451932
1088.000000	0.452118
1089.000000	0.452470
1090.000000	0.452828
1091.000000	0.453169
1092.000000	0.453665
1093.000000	0.454314
1094.000000	0.454740
1095.000000	0.454913
1096.000000	0.455454
1097.000000	0.456189
1098.000000	0.456627
1099.000000	0.457015
1100.000000	0.457503
1101.000000	0.457686
1102.000000	0.458008
1103.000000	0.458518
1104.000000	0.459003
1105.000000	0.459434
1106.000000	0.459847
1107.000000	0.460197
1108.000000	0.460593
1109.000000	0.461089
1110.000000	0.461444
1111.000000	0.461913
1112.000000	0.462504
1113.000000	0.463053
1114.000000	0.463643
1115.000000	0.464103
1116.000000	0.464552
1117.000000	0.464953
1118.000000	0.465181
1119.000000	0.465438
1120.000000	0.465675
1121.000000	0.465991
1122.000000	0.466454
1123.000000	0.467125
1124.000000	0.467637
1125.000000	0.468167
1126.000000	0.468664
1127.000000	0.469025
1128.000000	0.469311
1129.000000	0.469541
1130.000000	0.469909
1131.000000	0.470308
1132.000000	0.470566
1133.000000	0.470949
1134.000000	0.471263
1135.000000	0.471355
1136.000000	0.471497
1137.000000	0.471670
1138.000000	0.471780
1139.000000	0.471931
1140.000000	0.472169
1141.000000	0.472412
1142.000000	0.472609
1143.000000	0.472645
1144.000000	0.472908
1145.000000	0.472997
1146.000000	0.472996
1147.000000	0.473124
1148.000000	0.473147
1149.000000	0.473350
1150.000000	0.473665
1151.000000	0.474021
1152.000000	0.474393
1153.000000	0.474805
1154.000000	0.475197
1155.000000	0.475600
1156.000000	0.476017
1157.000000	0.476507
1158.000000	0.476996
1159.000000	0.477471
1160.000000	0.477933
1161.000000	0.478440
1162.000000	0.479015
1163.000000	0.479772
1164.000000	0.480485
1165.000000	0.481134
1166.000000	0.481769
1167.000000	0.482288
1168.000000	0.482797
1169.000000	0.483306
1170.000000	0.483883
1171.000000	0.484566
1172.000000	0.485170
1173.000000	0.485711
1174.000000	0.486261
1175.000000	0.486729
1176.000000	0.487149
1177.000000	0.487704
1178.000000	0.488199
1179.000000	0.488566
1180.000000	0.488936
1181.000000	0.489452
1182.000000	0.489910
1183.000000	0.490443
1184.000000	0.491075
1185.000000	0.491661
1186.000000	0.492305
1187.000000	0.492809
1188.000000	0.493254
1189.000000	0.493678
1190.000000	0.494074
1191.000000	0.494528
1192.000000	0.495153
1193.000000	0.495850
1194.000000	0.496393
1195.000000	0.497002
1196.000000	0.497630
1197.000000	0.498185
1198.000000	0.498737
1199.000000	0.499304
1200.000000	0.499792
1201.000000	0.500327
1202.000000	0.500904
1203.000000	0.501555
1204.000000	0.502231
1205.000000	0.502911
1206.000000	0.503456
1207.000000	0.504087
1208.000000	0.504617
1209.000000	0.505093
1210.000000	0.505672
1211.000000	0.506330
1212.000000	0.506906
1213.000000	0.507524
1214.000000	0.508177
1215.000000	0.508778
1216.000000	0.509389
1217.000000	0.510023
1218.000000	0.510597
1219.000000	0.511131
1220.000000	0.511775
1221.000000	0.512425
1222.000000	0.513016
1223.000000	0.513697
1224.000000	0.514340
1225.000000	0.514872
1226.000000	0.515504
1227.000000	0.516115
1228.000000	0.516792
1229.000000	0.517359
1230.000000	0.517867
1231.000000	0.518367
1232.000000	0.518965
1233.000000	0.519719
1234.000000	0.520590
1235.000000	0.521325
1236.000000	0.521923
1237.000000	0.522602
1238.000000	0.523148
1239.000000	0.523732
1240.000000	0.524355
1241.000000	0.524963
1242.000000	0.525599
1243.000000	0.526247
1244.000000	0.526897
1245.000000	0.527696
1246.000000	0.528364
1247.000000	0.529109
1248.000000	0.529976
1249.000000	0.530793
1250.000000	0.531571
1251.000000	0.532320
1252.000000	0.533008
1253.000000	0.533649
1254.000000	0.534274
1255.000000	0.534849
1256.000000	0.535477
1257.000000	0.536111
1258.000000	0.536832
1259.000000	0.537519
1260.000000	0.538283
1261.000000	0.539017
1262.000000	0.539714
1263.000000	0.540473
1264.000000	0.541132
1265.000000	0.541773
1266.000000	0.542399
1267.000000	0.543061
1268.000000	0.543743
1269.000000	0.544319
1270.000000	0.545024
1271.000000	0.545639
1272.000000	0.546232
1273.000000	0.547014
1274.000000	0.547728
1275.000000	0.548344
1276.000000	0.548986
1277.000000	0.549696
1278.000000	0.550145
1279.000000	0.550713
1280.000000	0.551300
1281.000000	0.551805
1282.000000	0.552304
1283.000000	0.553027
1284.000000	0.553725
1285.000000	0.554440
1286.000000	0.555226
1287.000000	0.555984
1288.000000	0.556706
1289.000000	0.557340
1290.000000	0.557844
1291.000000	0.558348
1292.000000	0.558905
1293.000000	0.559430
1294.000000	0.560009
1295.000000	0.560679
1296.000000	0.561212
1297.000000	0.561685
1298.000000	0.562217
1299.000000	0.562723
1300.000000	0.563289
1301.000000	0.563823
1302.000000	0.564213
1303.000000	0.564698
1304.000000	0.565074
1305.000000	0.565513
1306.000000	0.565892
1307.000000	0.566338
1308.000000	0.566755
1309.000000	0.567120
1310.000000	0.567453
1311.000000	0.567841
1312.000000	0.568042
1313.000000	0.568229
1314.000000	0.568392
1315.000000	0.568421
1316.000000	0.568629
1317.000000	0.568908
1318.000000	0.569109
1319.000000	0.569236
1320.000000	0.569386
1321.000000	0.569454
1322.000000	0.569518
1323.000000	0.569712
1324.000000	0.570005
1325.000000	0.570264
1326.000000	0.570449
1327.000000	0.570721
1328.000000	0.571132
1329.000000	0.571354
1330.000000	0.571542
1331.000000	0.571821
1332.000000	0.572136
1333.000000	0.572389
1334.000000	0.572839
1335.000000	0.573193
1336.000000	0.573453
1337.000000	0.573672
1338.000000	0.573761
1339.000000	0.573800
1340.000000	0.573940
1341.000000	0.574077
1342.000000	0.574295
1343.000000	0.574556
1344.000000	0.574690
1345.000000	0.574780
1346.000000	0.575027
1347.000000	0.575094
1348.000000	0.575240
1349.000000	0.575324
1350.000000	0.575367
1351.000000	0.575447
1352.000000	0.575478
1353.000000	0.575513
1354.000000	0.575686
1355.000000	0.575786
1356.000000	0.575907
1357.000000	0.575906
1358.000000	0.575872
1359.000000	0.575859
1360.000000	0.575804
1361.000000	0.575860
1362.000000	0.575755
1363.000000	0.575504
1364.000000	0.575285
1365.000000	0.575006
1366.000000	0.574642
1367.000000	0.574258
1368.000000	0.573706
1369.000000	0.573165
1370.000000	0.572340
1371.000000	0.571354
1372.000000	0.570274
1373.000000	0.569084
1374.000000	0.567858
1375.000000	0.566428
1376.000000	0.565002
1377.000000	0.563338
1378.000000	0.561335
1379.000000	0.559165
1380.000000	0.556714
1381.000000	0.553834
1382.000000	0.550700
1383.000000	0.547346
1384.000000	0.543509
1385.000000	0.539385
1386.000000	0.535077
1387.000000	0.530506
1388.000000	0.525572
1389.000000	0.520303
1390.000000	0.514902
1391.000000	0.509110
1392.000000	0.503049
1393.000000	0.496747
1394.000000	0.490213
1395.000000	0.483588
1396.000000	0.476704
1397.000000	0.469814
1398.000000	0.462662
1399.000000	0.455939
1400.000000	0.449105
1401.000000	0.442714
1402.000000	0.436709
1403.000000	0.430917
1404.000000	0.425625
1405.000000	0.420786
1406.000000	0.416371
1407.000000	0.412581
1408.000000	0.409106
1409.000000	0.406122
1410.000000	0.403748
1411.000000	0.401693
1412.000000	0.399970
1413.000000	0.398718
1414.000000	0.397821
1415.000000	0.397218
1416.000000	0.396902
1417.000000	0.396798
1418.000000	0.396701
1419.000000	0.396781
1420.000000	0.396892
1421.000000	0.397098
1422.000000	0.397392
1423.000000	0.397728
1424.000000	0.397984
1425.000000	0.398305
1426.000000	0.398585
1427.000000	0.398918
1428.000000	0.399332
1429.000000	0.399750
1430.000000	0.400286
1431.000000	0.400857
1432.000000	0.401421
1433.000000	0.402057
1434.000000	0.402719
1435.000000	0.403434
1436.000000	0.404311
1437.000000	0.405175
1438.000000	0.406329
1439.000000	0.407636
1440.000000	0.409275
1441.000000	0.411141
1442.000000	0.413459
1443.000000	0.416018
1444.000000	0.419021
1445.000000	0.422307
1446.000000	0.425774
1447.000000	0.429474
1448.000000	0.433070
1449.000000	0.436656
1450.000000	0.440222
1451.000000	0.443551
1452.000000	0.446720
1453.000000	0.449652
1454.000000	0.452316
1455.000000	0.454839
1456.000000	0.457176
1457.000000	0.459409
1458.000000	0.461578
1459.000000	0.463587
1460.000000	0.465548
1461.000000	0.467463
1462.000000	0.469310
1463.000000	0.471099
1464.000000	0.472863
1465.000000	0.474738
1466.000000	0.476634
1467.000000	0.478592
1468.000000	0.480669
1469.000000	0.482794
1470.000000	0.484817
1471.000000	0.486990
1472.000000	0.489138
1473.000000	0.491346
1474.000000	0.493604
1475.000000	0.495865
1476.000000	0.498157
1477.000000	0.500392
1478.000000	0.502593
1479.000000	0.504718
1480.000000	0.506716
1481.000000	0.508642
1482.000000	0.510552
1483.000000	0.512499
1484.000000	0.514396
1485.000000	0.516277
1486.000000	0.518154
1487.000000	0.520002
1488.000000	0.521848
1489.000000	0.523656
1490.000000	0.525259
1491.000000	0.526944
1492.000000	0.528499
1493.000000	0.530163
1494.000000	0.531857
1495.000000	0.533433
1496.000000	0.534976
1497.000000	0.536491
1498.000000	0.537971
1499.000000	0.539400
1500.000000	0.540885
1501.000000	0.542342
1502.000000	0.543659
1503.000000	0.545082
1504.000000	0.546512
1505.000000	0.547798
1506.000000	0.549164
1507.000000	0.550464
1508.000000	0.551757
1509.000000	0.553103
1510.000000	0.554327
1511.000000	0.555619
1512.000000	0.556835
1513.000000	0.557980
1514.000000	0.559245
1515.000000	0.560332
1516.000000	0.561468
1517.000000	0.562626
1518.000000	0.563673
1519.000000	0.564728
1520.000000	0.565868
1521.000000	0.566844
1522.000000	0.567932
1523.000000	0.569144
1524.000000	0.570126
1525.000000	0.571185
1526.000000	0.572213
1527.000000	0.573183
1528.000000	0.574261
1529.000000	0.575241
1530.000000	0.576064
1531.000000	0.577007
1532.000000	0.577960
1533.000000	0.578868
1534.000000	0.579827
1535.000000	0.580761
1536.000000	0.581563
1537.000000	0.582489
1538.000000	0.583421
1539.000000	0.584201
1540.000000	0.585046
1541.000000	0.585999
1542.000000	0.586933
1543.000000	0.587895
1544.000000	0.588856
1545.000000	0.589819
1546.000000	0.590787
1547.000000	0.591674
1548.000000	0.592552
1549.000000	0.593384
1550.000000	0.594075
1551.000000	0.594853
1552.000000	0.595694
1553.000000	0.596400
1554.000000	0.597122
1555.000000	0.597918
1556.000000	0.598702
1557.000000	0.599420
1558.000000	0.600166
1559.000000	0.600840
1560.000000	0.601471
1561.000000	0.602120
1562.000000	0.602733
1563.000000	0.603367
1564.000000	0.604049
1565.000000	0.604754
1566.000000	0.605288
1567.000000	0.605986
1568.000000	0.606592
1569.000000	0.607197
1570.000000	0.607810
1571.000000	0.608388
1572.000000	0.608957
1573.000000	0.609554
1574.000000	0.610089
1575.000000	0.610622
1576.000000	0.611220
1577.000000	0.611779
1578.000000	0.612265
1579.000000	0.612897
1580.000000	0.613417
1581.000000	0.613946
1582.000000	0.614445
1583.000000	0.614905
1584.000000	0.615309
1585.000000	0.615815
1586.000000	0.616306
1587.000000	0.616779
1588.000000	0.617235
1589.000000	0.617699
1590.000000	0.618162
1591.000000	0.618661
1592.000000	0.619166
1593.000000	0.619738
1594.000000	0.620196
1595.000000	0.620736
1596.000000	0.621196
1597.000000	0.621616
1598.000000	0.622020
1599.000000	0.622462
1600.000000	0.622770
1601.000000	0.623154
1602.000000	0.623481
1603.000000	0.623752
1604.000000	0.624074
1605.000000	0.624438
1606.000000	0.624796
1607.000000	0.625320
1608.000000	0.625687
1609.000000	0.626105
1610.000000	0.626417
1611.000000	0.626631
1612.000000	0.626915
1613.000000	0.627414
1614.000000	0.627732
1615.000000	0.628111
1616.000000	0.628509
1617.000000	0.628750
1618.000000	0.628987
1619.000000	0.629191
1620.000000	0.629422
1621.000000	0.629644
1622.000000	0.630051
1623.000000	0.630539
1624.000000	0.630900
1625.000000	0.631016
1626.000000	0.631121
1627.000000	0.631165
1628.000000	0.631387
1629.000000	0.631636
1630.000000	0.631937
1631.000000	0.632216
1632.000000	0.632412
1633.000000	0.632600
1634.000000	0.632856
1635.000000	0.633208
1636.000000	0.633467
1637.000000	0.633781
1638.000000	0.633984
1639.000000	0.634196
1640.000000	0.634357
1641.000000	0.634606
1642.000000	0.634805
1643.000000	0.635011
1644.000000	0.635189
1645.000000	0.635337
1646.000000	0.635431
1647.000000	0.635556
1648.000000	0.635615
1649.000000	0.635789
1650.000000	0.636004
1651.000000	0.636298
1652.000000	0.636588
1653.000000	0.636817
1654.000000	0.637110
1655.000000	0.637317
1656.000000	0.637354
1657.000000	0.637535
1658.000000	0.637577
1659.000000	0.637651
1660.000000	0.637774
1661.000000	0.637696
1662.000000	0.637763
1663.000000	0.637820
1664.000000	0.637885
1665.000000	0.638001
1666.000000	0.638246
1667.000000	0.638379
1668.000000	0.638502
1669.000000	0.638678
1670.000000	0.638638
1671.000000	0.638659
1672.000000	0.638747
1673.000000	0.638727
1674.000000	0.638798
1675.000000	0.638919
1676.000000	0.639002
1677.000000	0.639040
1678.000000	0.638955
1679.000000	0.638855
1680.000000	0.638744
1681.000000	0.638665
1682.000000	0.638615
1683.000000	0.638626
1684.000000	0.638557
1685.000000	0.638476
1686.000000	0.638402
1687.000000	0.638386
1688.000000	0.638339
1689.000000	0.638312
1690.000000	0.638245
1691.000000	0.638312
1692.000000	0.638305
1693.000000	0.638314
1694.000000	0.638344
1695.000000	0.638456
1696.000000	0.638469
1697.000000	0.638375
1698.000000	0.638311
1699.000000	0.638287
1700.000000	0.638217
1701.000000	0.638350
1702.000000	0.638285
1703.000000	0.638111
1704.000000	0.638116
1705.000000	0.638044
1706.000000	0.637940
1707.000000	0.637844
1708.000000	0.637715
1709.000000	0.637421
1710.000000	0.637216
1711.000000	0.637016
1712.000000	0.636800
1713.000000	0.636539
1714.000000	0.636347
1715.000000	0.636125
1716.000000	0.635926
1717.000000	0.635618
1718.000000	0.635180
1719.000000	0.634749
1720.000000	0.634302
1721.000000	0.633919
1722.000000	0.633591
1723.000000	0.633283
1724.000000	0.633064
1725.000000	0.632844
1726.000000	0.632496
1727.000000	0.632164
1728.000000	0.631710
1729.000000	0.631186
1730.000000	0.630859
1731.000000	0.630519
1732.000000	0.630202
1733.000000	0.629950
1734.000000	0.629469
1735.000000	0.629107
1736.000000	0.628724
1737.000000	0.628312
1738.000000	0.627980
1739.000000	0.627581
1740.000000	0.627076
1741.000000	0.626589
1742.000000	0.626117
1743.000000	0.625769
1744.000000	0.625428
1745.000000	0.624963
1746.000000	0.624502
1747.000000	0.624001
1748.000000	0.623409
1749.000000	0.622911
1750.000000	0.622288
1751.000000	0.621738
1752.000000	0.621372
1753.000000	0.620773
1754.000000	0.620251
1755.000000	0.619724
1756.000000	0.619185
1757.000000	0.618670
1758.000000	0.618187
1759.000000	0.617690
1760.000000	0.617193
1761.000000	0.616643
1762.000000	0.616072
1763.000000	0.615515
1764.000000	0.614976
1765.000000	0.614356
1766.000000	0.613805
1767.000000	0.613136
1768.000000	0.612473
1769.000000	0.611996
1770.000000	0.611575
1771.000000	0.611135
1772.000000	0.610651
1773.000000	0.610079
1774.000000	0.609570
1775.000000	0.609142
1776.000000	0.608736
1777.000000	0.608362
1778.000000	0.607864
1779.000000	0.607237
1780.000000	0.606821
1781.000000	0.606371
1782.000000	0.605934
1783.000000	0.605715
1784.000000	0.605396
1785.000000	0.604944
1786.000000	0.604706
1787.000000	0.604654
1788.000000	0.604537
1789.000000	0.604319
1790.000000	0.604071
1791.000000	0.603695
1792.000000	0.603365
1793.000000	0.603025
1794.000000	0.602623
1795.000000	0.602349
1796.000000	0.602121
1797.000000	0.601875
1798.000000	0.601669
1799.000000	0.601429
1800.000000	0.601238
1801.000000	0.601470
1802.000000	0.601441
1803.000000	0.601425
1804.000000	0.601507
1805.000000	0.601877
1806.000000	0.601984
1807.000000	0.602180
1808.000000	0.602049
1809.000000	0.601577
1810.000000	0.601096
1811.000000	0.600824
1812.000000	0.600318
1813.000000	0.600255
1814.000000	0.600886
1815.000000	0.600973
1816.000000	0.601084
1817.000000	0.600750
1818.000000	0.600106
1819.000000	0.599628
1820.000000	0.599197
1821.000000	0.598706
1822.000000	0.598521
1823.000000	0.598624
1824.000000	0.598259
1825.000000	0.597640
1826.000000	0.597416
1827.000000	0.596996
1828.000000	0.596498
1829.000000	0.596438
1830.000000	0.596043
1831.000000	0.595598
1832.000000	0.594816
1833.000000	0.594354
1834.000000	0.594082
1835.000000	0.593713
1836.000000	0.593299
1837.000000	0.592771
1838.000000	0.592062
1839.000000	0.591020
1840.000000	0.589997
1841.000000	0.588978
1842.000000	0.587974
1843.000000	0.586780
1844.000000	0.585944
1845.000000	0.585219
1846.000000	0.584435
1847.000000	0.583749
1848.000000	0.582550
1849.000000	0.581194
1850.000000	0.579310
1851.000000	0.577806
1852.000000	0.576181
1853.000000	0.574668
1854.000000	0.573413
1855.000000	0.571341
1856.000000	0.568760
1857.000000	0.565870
1858.000000	0.562821
1859.000000	0.559325
1860.000000	0.555898
1861.000000	0.552547
1862.000000	0.549079
1863.000000	0.545751
1864.000000	0.542032
1865.000000	0.538369
1866.000000	0.534165
1867.000000	0.529665
1868.000000	0.524401
1869.000000	0.518621
1870.000000	0.512429
1871.000000	0.505570
1872.000000	0.498723
1873.000000	0.491766
1874.000000	0.485017
1875.000000	0.477483
1876.000000	0.469439
1877.000000	0.460417
1878.000000	0.451167
1879.000000	0.441520
1880.000000	0.431782
1881.000000	0.422143
1882.000000	0.412098
1883.000000	0.401570
1884.000000	0.390818
1885.000000	0.379308
1886.000000	0.367720
1887.000000	0.355717
1888.000000	0.343487
1889.000000	0.330886
1890.000000	0.318670
1891.000000	0.306624
1892.000000	0.294437
1893.000000	0.282955
1894.000000	0.271761
1895.000000	0.261008
1896.000000	0.250650
1897.000000	0.241099
1898.000000	0.231792
1899.000000	0.223458
1900.000000	0.216365
1901.000000	0.210034
1902.000000	0.204969
1903.000000	0.201425
1904.000000	0.198529
1905.000000	0.196558
1906.000000	0.195487
1907.000000	0.195557
1908.000000	0.196024
1909.000000	0.197335
1910.000000	0.199324
1911.000000	0.201508
1912.000000	0.204373
1913.000000	0.207745
1914.000000	0.211182
1915.000000	0.214886
1916.000000	0.218732
1917.000000	0.222377
1918.000000	0.226054
1919.000000	0.229668
1920.000000	0.233143
1921.000000	0.236760
1922.000000	0.239966
1923.000000	0.243227
1924.000000	0.246499
1925.000000	0.249014
1926.000000	0.251644
1927.000000	0.254340
1928.000000	0.256774
1929.000000	0.259072
1930.000000	0.261419
1931.000000	0.263439
1932.000000	0.265335
1933.000000	0.267042
1934.000000	0.268571
1935.000000	0.270285
1936.000000	0.271859
1937.000000	0.273164
1938.000000	0.274440
1939.000000	0.275699
1940.000000	0.276803
1941.000000	0.277908
1942.000000	0.279287
1943.000000	0.280592
1944.000000	0.281912
1945.000000	0.283171
1946.000000	0.284225
1947.000000	0.285407
1948.000000	0.286587
1949.000000	0.287684
1950.000000	0.288675
1951.000000	0.289519
1952.000000	0.290258
1953.000000	0.290908
1954.000000	0.291718
1955.000000	0.292773
1956.000000	0.293916
1957.000000	0.295132
1958.000000	0.296208
1959.000000	0.297257
1960.000000	0.298299
1961.000000	0.299019
1962.000000	0.299956
1963.000000	0.300971
1964.000000	0.302239
1965.000000	0.303299
1966.000000	0.304550
1967.000000	0.306068
1968.000000	0.307240
1969.000000	0.308441
1970.000000	0.309976
1971.000000	0.311172
1972.000000	0.312349
1973.000000	0.313449
1974.000000	0.314559
1975.000000	0.315875
1976.000000	0.317280
1977.000000	0.318737
1978.000000	0.320330
1979.000000	0.321893
1980.000000	0.323427
1981.000000	0.325117
1982.000000	0.326978
1983.000000	0.328900
1984.000000	0.330663
1985.000000	0.332537
1986.000000	0.334106
1987.000000	0.335486
1988.000000	0.337003
1989.000000	0.338502
1990.000000	0.340065
1991.000000	0.341608
1992.000000	0.343455
1993.000000	0.345442
1994.000000	0.347418
1995.000000	0.349490
1996.000000	0.351393
1997.000000	0.353333
1998.000000	0.355181
1999.000000	0.357242
2000.000000	0.359597
2001.000000	0.361605
2002.000000	0.363355
2003.000000	0.365312
2004.000000	0.366864
2005.000000	0.368342
2006.000000	0.370291
2007.000000	0.372089
2008.000000	0.373974
2009.000000	0.375923
2010.000000	0.377994
2011.000000	0.380034
2012.000000	0.381947
2013.000000	0.383819
2014.000000	0.385489
2015.000000	0.387192
2016.000000	0.388922
2017.000000	0.390709
2018.000000	0.392490
2019.000000	0.394155
2020.000000	0.395805
2021.000000	0.397540
2022.000000	0.399271
2023.000000	0.400999
2024.000000	0.402951
2025.000000	0.404689
2026.000000	0.406134
2027.000000	0.407478
2028.000000	0.408873
2029.000000	0.410145
2030.000000	0.411688
2031.000000	0.413112
2032.000000	0.414539
2033.000000	0.416463
2034.000000	0.418248
2035.000000	0.420435
2036.000000	0.422023
2037.000000	0.423741
2038.000000	0.425096
2039.000000	0.426046
2040.000000	0.427081
2041.000000	0.428231
2042.000000	0.429487
2043.000000	0.430418
2044.000000	0.431190
2045.000000	0.432077
2046.000000	0.432684
2047.000000	0.433692
2048.000000	0.434959
2049.000000	0.436500
2050.000000	0.437847
2051.000000	0.439083
2052.000000	0.440426
2053.000000	0.441446
2054.000000	0.442447
2055.000000	0.443665
2056.000000	0.444817
2057.000000	0.446026
2058.000000	0.447230
2059.000000	0.448275
2060.000000	0.449180
2061.000000	0.449934
2062.000000	0.450701
2063.000000	0.451418
2064.000000	0.451945
2065.000000	0.452780
2066.000000	0.453425
2067.000000	0.454207
2068.000000	0.455100
2069.000000	0.456331
2070.000000	0.457376
2071.000000	0.457932
2072.000000	0.458835
2073.000000	0.459530
2074.000000	0.460021
2075.000000	0.460906
2076.000000	0.462253
2077.000000	0.463085
2078.000000	0.463933
2079.000000	0.464521
2080.000000	0.464769
2081.000000	0.465284
2082.000000	0.465861
2083.000000	0.466351
2084.000000	0.466948
2085.000000	0.467142
2086.000000	0.467490
2087.000000	0.468128
2088.000000	0.468755
2089.000000	0.469634
2090.000000	0.470315
2091.000000	0.470946
2092.000000	0.471620
2093.000000	0.472429
2094.000000	0.472963
2095.000000	0.473436
2096.000000	0.473975
2097.000000	0.474287
2098.000000	0.474392
2099.000000	0.474949
2100.000000	0.475621
2101.000000	0.476171
2102.000000	0.476928
2103.000000	0.477689
2104.000000	0.478278
2105.000000	0.479049
2106.000000	0.480111
2107.000000	0.480833
2108.000000	0.481491
2109.000000	0.482051
2110.000000	0.481731
2111.000000	0.482072
2112.000000	0.482597
2113.000000	0.482834
2114.000000	0.483528
2115.000000	0.484557
2116.000000	0.484981
2117.000000	0.485239
2118.000000	0.485536
2119.000000	0.485765
2120.000000	0.486379
2121.000000	0.487375
2122.000000	0.488185
2123.000000	0.489220
2124.000000	0.489972
2125.000000	0.490665
2126.000000	0.491103
2127.000000	0.491092
2128.000000	0.491653
2129.000000	0.492166
2130.000000	0.492849
2131.000000	0.493519
2132.000000	0.494070
2133.000000	0.494593
2134.000000	0.495122
2135.000000	0.495383
2136.000000	0.495823
2137.000000	0.496047
2138.000000	0.495732
2139.000000	0.496060
2140.000000	0.496665
2141.000000	0.497269
2142.000000	0.498440
2143.000000	0.498682
2144.000000	0.498733
2145.000000	0.499009
2146.000000	0.499080
2147.000000	0.499659
2148.000000	0.500130
2149.000000	0.500782
2150.000000	0.501080
2151.000000	0.501059
2152.000000	0.501332
2153.000000	0.501355
2154.000000	0.501618
2155.000000	0.502194
2156.000000	0.502522
2157.000000	0.502960
2158.000000	0.503347
2159.000000	0.503730
2160.000000	0.504133
2161.000000	0.504446
2162.000000	0.504754
2163.000000	0.504948
2164.000000	0.504852
2165.000000	0.504373
2166.000000	0.504367
2167.000000	0.504202
2168.000000	0.504216
2169.000000	0.504240
2170.000000	0.504191
2171.000000	0.503879
2172.000000	0.503114
2173.000000	0.502699
2174.000000	0.502203
2175.000000	0.502005
2176.000000	0.502142
2177.000000	0.502177
2178.000000	0.502589
2179.000000	0.502717
2180.000000	0.502572
2181.000000	0.502749
2182.000000	0.502111
2183.000000	0.501351
2184.000000	0.500591
2185.000000	0.499594
2186.000000	0.498439
2187.000000	0.497659
2188.000000	0.496851
2189.000000	0.496056
2190.000000	0.495576
2191.000000	0.495969
2192.000000	0.495918
2193.000000	0.496409
2194.000000	0.495930
2195.000000	0.494486
2196.000000	0.493937
2197.000000	0.493193
2198.000000	0.492618
2199.000000	0.493195
2200.000000	0.493116
2201.000000	0.492340
2202.000000	0.492003
2203.000000	0.491676
2204.000000	0.491029
2205.000000	0.489753
2206.000000	0.488883
2207.000000	0.487570
2208.000000	0.486844
2209.000000	0.486308
2210.000000	0.486431
2211.000000	0.486103
2212.000000	0.485360
2213.000000	0.484215
2214.000000	0.482737
2215.000000	0.480622
2216.000000	0.477377
2217.000000	0.475487
2218.000000	0.473543
2219.000000	0.472195
2220.000000	0.472552
2221.000000	0.471477
2222.000000	0.469717
2223.000000	0.468072
2224.000000	0.465766
2225.000000	0.464073
2226.000000	0.461665
2227.000000	0.459889
2228.000000	0.459026
2229.000000	0.456259
2230.000000	0.454037
2231.000000	0.452271
2232.000000	0.448428
2233.000000	0.445747
2234.000000	0.443672
2235.000000	0.441456
2236.000000	0.439662
2237.000000	0.438638
2238.000000	0.436935
2239.000000	0.435181
2240.000000	0.433434
2241.000000	0.431575
2242.000000	0.429882
2243.000000	0.427762
2244.000000	0.426159
2245.000000	0.424658
2246.000000	0.423633
2247.000000	0.423194
2248.000000	0.422698
2249.000000	0.422599
2250.000000	0.422736
2251.000000	0.421622
2252.000000	0.420322
2253.000000	0.418949
2254.000000	0.417351
2255.000000	0.418315
2256.000000	0.420213
2257.000000	0.422047
2258.000000	0.423470
2259.000000	0.422063
2260.000000	0.420472
2261.000000	0.418746
2262.000000	0.415976
2263.000000	0.414068
2264.000000	0.412618
2265.000000	0.410599
2266.000000	0.408811
2267.000000	0.406064
2268.000000	0.402908
2269.000000	0.399658
2270.000000	0.396096
2271.000000	0.391658
2272.000000	0.386453
2273.000000	0.381215
2274.000000	0.374496
2275.000000	0.369510
2276.000000	0.365648
2277.000000	0.361420
2278.000000	0.357133
2279.000000	0.351280
2280.000000	0.344040
2281.000000	0.337754
2282.000000	0.331855
2283.000000	0.326030
2284.000000	0.320805
2285.000000	0.315505
2286.000000	0.310730
2287.000000	0.306704
2288.000000	0.302586
2289.000000	0.298452
2290.000000	0.294269
2291.000000	0.290598
2292.000000	0.288136
2293.000000	0.285992
2294.000000	0.283653
2295.000000	0.281164
2296.000000	0.279660
2297.000000	0.277876
2298.000000	0.277772
2299.000000	0.279287
2300.000000	0.280793
2301.000000	0.282896
2302.000000	0.285584
2303.000000	0.288746
2304.000000	0.292331
2305.000000	0.296987
2306.000000	0.301125
2307.000000	0.305010
2308.000000	0.309817
2309.000000	0.314313
2310.000000	0.319045
2311.000000	0.324240
2312.000000	0.329120
2313.000000	0.333944
2314.000000	0.338498
2315.000000	0.343095
2316.000000	0.347075
2317.000000	0.349984
2318.000000	0.353179
2319.000000	0.355672
2320.000000	0.356863
2321.000000	0.358008
2322.000000	0.358278
2323.000000	0.358187
2324.000000	0.359198
2325.000000	0.360560
2326.000000	0.361728
2327.000000	0.363021
2328.000000	0.364466
2329.000000	0.365085
2330.000000	0.365094
2331.000000	0.365083
2332.000000	0.364870
2333.000000	0.365047
2334.000000	0.365304
2335.000000	0.365721
2336.000000	0.365420
2337.000000	0.365269
2338.000000	0.365513
2339.000000	0.365353
2340.000000	0.365149
2341.000000	0.364731
2342.000000	0.363720
2343.000000	0.362921
2344.000000	0.362231
2345.000000	0.361081
2346.000000	0.359710
2347.000000	0.357888
2348.000000	0.355454
2349.000000	0.353747
2350.000000	0.351042
2351.000000	0.349324
2352.000000	0.348429
2353.000000	0.346513
2354.000000	0.344587
2355.000000	0.344096
2356.000000	0.342113
2357.000000	0.340202
2358.000000	0.339304
2359.000000	0.337002
2360.000000	0.335281
2361.000000	0.334117
2362.000000	0.332413
2363.000000	0.332141
2364.000000	0.329757
2365.000000	0.326136
2366.000000	0.323866
2367.000000	0.320625
2368.000000	0.318526
2369.000000	0.316405
2370.000000	0.312441
2371.000000	0.309362
2372.000000	0.307211
2373.000000	0.305876
2374.000000	0.304701
2375.000000	0.302603
2376.000000	0.299260
2377.000000	0.296651
2378.000000	0.294060
2379.000000	0.289393
2380.000000	0.285935
2381.000000	0.282797
2382.000000	0.279205
2383.000000	0.277586
2384.000000	0.278326
2385.000000	0.279064
2386.000000	0.277511
2387.000000	0.275577
2388.000000	0.271120
2389.000000	0.265642
2390.000000	0.263486
2391.000000	0.261558
2392.000000	0.260638
2393.000000	0.259909
2394.000000	0.259387
2395.000000	0.260866
2396.000000	0.260016
2397.000000	0.259702
2398.000000	0.260616
2399.000000	0.257868
2400.000000	0.255752
2401.000000	0.254964
2402.000000	0.254449
2403.000000	0.257383
2404.000000	0.259239
2405.000000	0.260602
2406.000000	0.261409
2407.000000	0.257550
2408.000000	0.254539
2409.000000	0.253359
2410.000000	0.254123
2411.000000	0.257262
2412.000000	0.262399
2413.000000	0.267498
2414.000000	0.268433
2415.000000	0.268003
2416.000000	0.266599
2417.000000	0.265937
2418.000000	0.266045
2419.000000	0.263509
2420.000000	0.262013
2421.000000	0.257576
2422.000000	0.254037
2423.000000	0.256095
2424.000000	0.256735
2425.000000	0.260629
2426.000000	0.263951
2427.000000	0.264898
2428.000000	0.269015
2429.000000	0.271647
2430.000000	0.272200
2431.000000	0.271649
2432.000000	0.268386
2433.000000	0.264053
2434.000000	0.262465
2435.000000	0.261247
2436.000000	0.260128
2437.000000	0.261727
2438.000000	0.263223
2439.000000	0.258946
2440.000000	0.256150
2441.000000	0.253619
2442.000000	0.243988
2443.000000	0.241350
2444.000000	0.240550
2445.000000	0.235720
2446.000000	0.233634
2447.000000	0.235110
2448.000000	0.236235
2449.000000	0.234696
2450.000000	0.237907
2451.000000	0.237686
2452.000000	0.233006
2453.000000	0.229674
2454.000000	0.227490
2455.000000	0.224551
2456.000000	0.222440
2457.000000	0.224391
2458.000000	0.218061
2459.000000	0.212305
2460.000000	0.208199
2461.000000	0.200855
2462.000000	0.202896
2463.000000	0.203063
2464.000000	0.202531
2465.000000	0.206463
2466.000000	0.207300
2467.000000	0.206865
2468.000000	0.207121
2469.000000	0.205826
2470.000000	0.208828
2471.000000	0.215920
2472.000000	0.215524
2473.000000	0.215654
2474.000000	0.209665
2475.000000	0.202214
2476.000000	0.202977
2477.000000	0.199421
2478.000000	0.202030
2479.000000	0.201359
2480.000000	0.196981
2481.000000	0.190360
2482.000000	0.180692
2483.000000	0.186238
2484.000000	0.188654
2485.000000	0.196831
2486.000000	0.202795
2487.000000	0.187637
2488.000000	0.179366
2489.000000	0.171083
2490.000000	0.166113
2491.000000	0.178264
2492.000000	0.173830
2493.000000	0.163125
2494.000000	0.162840
2495.000000	0.150514
2496.000000	0.145982
2497.000000	0.168181
2498.000000	0.174705
2499.000000	0.173546
2500.000000	0.179810
