# Wavelength	NAu-1-10_HEX-60_FV7-30_00000.asd.rts.txt
350.000000	0.231930
351.000000	0.218694
352.000000	0.221873
353.000000	0.228385
354.000000	0.230574
355.000000	0.224877
356.000000	0.230271
357.000000	0.241784
358.000000	0.234876
359.000000	0.232662
360.000000	0.231097
361.000000	0.222355
362.000000	0.226599
363.000000	0.231672
364.000000	0.229555
365.000000	0.228539
366.000000	0.229956
367.000000	0.231263
368.000000	0.226797
369.000000	0.227376
370.000000	0.228444
371.000000	0.223119
372.000000	0.225027
373.000000	0.229689
374.000000	0.232605
375.000000	0.232295
376.000000	0.230268
377.000000	0.228771
378.000000	0.231347
379.000000	0.232971
380.000000	0.231336
381.000000	0.227145
382.000000	0.230780
383.000000	0.236293
384.000000	0.238391
385.000000	0.236714
386.000000	0.236009
387.000000	0.237317
388.000000	0.237381
389.000000	0.240273
390.000000	0.243540
391.000000	0.242811
392.000000	0.242550
393.000000	0.243770
394.000000	0.245961
395.000000	0.245493
396.000000	0.245689
397.000000	0.247253
398.000000	0.247528
399.000000	0.247877
400.000000	0.248838
401.000000	0.250476
402.000000	0.251740
403.000000	0.252431
404.000000	0.252674
405.000000	0.251978
406.000000	0.252729
407.000000	0.255124
408.000000	0.255603
409.000000	0.255409
410.000000	0.255505
411.000000	0.256808
412.000000	0.257594
413.000000	0.258272
414.000000	0.259460
415.000000	0.259745
416.000000	0.260007
417.000000	0.260680
418.000000	0.260846
419.000000	0.261179
420.000000	0.261821
421.000000	0.262501
422.000000	0.262653
423.000000	0.262597
424.000000	0.262959
425.000000	0.263194
426.000000	0.263291
427.000000	0.263378
428.000000	0.263958
429.000000	0.264308
430.000000	0.264264
431.000000	0.264300
432.000000	0.264864
433.000000	0.265543
434.000000	0.265623
435.000000	0.265554
436.000000	0.265855
437.000000	0.266646
438.000000	0.266326
439.000000	0.265999
440.000000	0.266261
441.000000	0.266122
442.000000	0.266332
443.000000	0.266679
444.000000	0.266463
445.000000	0.266714
446.000000	0.267009
447.000000	0.266591
448.000000	0.267119
449.000000	0.267928
450.000000	0.268499
451.000000	0.269329
452.000000	0.270299
453.000000	0.271247
454.000000	0.272213
455.000000	0.272915
456.000000	0.273657
457.000000	0.274762
458.000000	0.275897
459.000000	0.276988
460.000000	0.277995
461.000000	0.278451
462.000000	0.279162
463.000000	0.280160
464.000000	0.280624
465.000000	0.281105
466.000000	0.281588
467.000000	0.281886
468.000000	0.282443
469.000000	0.283090
470.000000	0.283664
471.000000	0.283753
472.000000	0.283870
473.000000	0.284353
474.000000	0.284770
475.000000	0.285159
476.000000	0.285665
477.000000	0.286188
478.000000	0.286381
479.000000	0.286624
480.000000	0.287144
481.000000	0.287162
482.000000	0.287407
483.000000	0.288210
484.000000	0.288578
485.000000	0.288792
486.000000	0.289222
487.000000	0.289718
488.000000	0.289965
489.000000	0.290119
490.000000	0.290650
491.000000	0.291082
492.000000	0.291491
493.000000	0.291907
494.000000	0.292231
495.000000	0.292645
496.000000	0.293214
497.000000	0.293866
498.000000	0.294264
499.000000	0.294499
500.000000	0.294981
501.000000	0.295410
502.000000	0.295804
503.000000	0.296199
504.000000	0.296557
505.000000	0.296955
506.000000	0.297448
507.000000	0.297875
508.000000	0.298365
509.000000	0.298890
510.000000	0.299182
511.000000	0.299692
512.000000	0.300400
513.000000	0.300845
514.000000	0.301134
515.000000	0.301512
516.000000	0.302155
517.000000	0.302716
518.000000	0.303215
519.000000	0.303645
520.000000	0.304220
521.000000	0.304737
522.000000	0.305169
523.000000	0.305744
524.000000	0.306310
525.000000	0.306781
526.000000	0.307148
527.000000	0.307656
528.000000	0.308188
529.000000	0.308645
530.000000	0.309164
531.000000	0.309781
532.000000	0.310379
533.000000	0.310903
534.000000	0.311449
535.000000	0.312004
536.000000	0.312487
537.000000	0.312956
538.000000	0.313465
539.000000	0.314043
540.000000	0.314545
541.000000	0.315037
542.000000	0.315624
543.000000	0.316207
544.000000	0.316765
545.000000	0.317254
546.000000	0.317862
547.000000	0.318438
548.000000	0.318981
549.000000	0.319476
550.000000	0.320024
551.000000	0.320615
552.000000	0.321147
553.000000	0.321622
554.000000	0.322103
555.000000	0.322647
556.000000	0.323261
557.000000	0.323742
558.000000	0.324210
559.000000	0.324802
560.000000	0.325302
561.000000	0.325791
562.000000	0.326307
563.000000	0.326821
564.000000	0.327322
565.000000	0.327704
566.000000	0.328166
567.000000	0.328707
568.000000	0.329258
569.000000	0.329708
570.000000	0.330174
571.000000	0.330655
572.000000	0.331085
573.000000	0.331582
574.000000	0.332031
575.000000	0.332338
576.000000	0.332783
577.000000	0.333194
578.000000	0.333517
579.000000	0.333973
580.000000	0.334471
581.000000	0.334909
582.000000	0.335150
583.000000	0.335467
584.000000	0.335851
585.000000	0.336139
586.000000	0.336479
587.000000	0.336817
588.000000	0.337077
589.000000	0.337364
590.000000	0.337607
591.000000	0.337805
592.000000	0.338183
593.000000	0.338501
594.000000	0.338718
595.000000	0.338994
596.000000	0.339226
597.000000	0.339453
598.000000	0.339647
599.000000	0.339785
600.000000	0.339962
601.000000	0.340168
602.000000	0.340427
603.000000	0.340607
604.000000	0.340720
605.000000	0.341021
606.000000	0.341246
607.000000	0.341408
608.000000	0.341687
609.000000	0.341888
610.000000	0.342078
611.000000	0.342352
612.000000	0.342535
613.000000	0.342713
614.000000	0.342956
615.000000	0.343043
616.000000	0.343065
617.000000	0.343109
618.000000	0.343416
619.000000	0.343608
620.000000	0.343657
621.000000	0.343736
622.000000	0.343814
623.000000	0.343935
624.000000	0.344119
625.000000	0.344279
626.000000	0.344412
627.000000	0.344516
628.000000	0.344565
629.000000	0.344712
630.000000	0.344835
631.000000	0.344991
632.000000	0.345146
633.000000	0.345287
634.000000	0.345408
635.000000	0.345682
636.000000	0.345990
637.000000	0.346221
638.000000	0.346387
639.000000	0.346547
640.000000	0.346773
641.000000	0.346956
642.000000	0.347069
643.000000	0.347153
644.000000	0.347283
645.000000	0.347500
646.000000	0.347701
647.000000	0.347801
648.000000	0.347964
649.000000	0.348148
650.000000	0.348313
651.000000	0.348484
652.000000	0.348649
653.000000	0.348836
654.000000	0.348992
655.000000	0.349176
656.000000	0.349403
657.000000	0.349612
658.000000	0.349878
659.000000	0.350083
660.000000	0.350185
661.000000	0.350328
662.000000	0.350508
663.000000	0.350743
664.000000	0.350933
665.000000	0.351084
666.000000	0.351217
667.000000	0.351337
668.000000	0.351587
669.000000	0.351882
670.000000	0.352157
671.000000	0.352395
672.000000	0.352620
673.000000	0.352830
674.000000	0.353028
675.000000	0.353238
676.000000	0.353444
677.000000	0.353646
678.000000	0.353874
679.000000	0.354089
680.000000	0.354277
681.000000	0.354448
682.000000	0.354685
683.000000	0.354907
684.000000	0.355134
685.000000	0.355332
686.000000	0.355566
687.000000	0.355852
688.000000	0.356071
689.000000	0.356272
690.000000	0.356545
691.000000	0.356872
692.000000	0.357160
693.000000	0.357451
694.000000	0.357726
695.000000	0.357979
696.000000	0.358200
697.000000	0.358387
698.000000	0.358628
699.000000	0.358894
700.000000	0.359162
701.000000	0.359434
702.000000	0.359734
703.000000	0.360030
704.000000	0.360280
705.000000	0.360548
706.000000	0.360782
707.000000	0.361000
708.000000	0.361228
709.000000	0.361458
710.000000	0.361696
711.000000	0.361891
712.000000	0.362098
713.000000	0.362355
714.000000	0.362606
715.000000	0.362862
716.000000	0.363131
717.000000	0.363388
718.000000	0.363595
719.000000	0.363771
720.000000	0.363959
721.000000	0.364152
722.000000	0.364337
723.000000	0.364568
724.000000	0.364774
725.000000	0.364947
726.000000	0.365181
727.000000	0.365411
728.000000	0.365604
729.000000	0.365791
730.000000	0.365941
731.000000	0.366085
732.000000	0.366275
733.000000	0.366537
734.000000	0.366715
735.000000	0.366898
736.000000	0.367197
737.000000	0.367426
738.000000	0.367566
739.000000	0.367740
740.000000	0.367852
741.000000	0.368016
742.000000	0.368161
743.000000	0.368265
744.000000	0.368466
745.000000	0.368576
746.000000	0.368705
747.000000	0.368909
748.000000	0.369080
749.000000	0.369212
750.000000	0.369299
751.000000	0.369468
752.000000	0.369593
753.000000	0.369667
754.000000	0.369743
755.000000	0.369786
756.000000	0.369811
757.000000	0.369798
758.000000	0.369829
759.000000	0.369950
760.000000	0.370088
761.000000	0.370273
762.000000	0.370391
763.000000	0.370453
764.000000	0.370637
765.000000	0.370713
766.000000	0.370750
767.000000	0.370833
768.000000	0.370853
769.000000	0.370890
770.000000	0.370963
771.000000	0.370968
772.000000	0.371090
773.000000	0.371192
774.000000	0.371185
775.000000	0.371217
776.000000	0.371296
777.000000	0.371369
778.000000	0.371352
779.000000	0.371346
780.000000	0.371362
781.000000	0.371309
782.000000	0.371373
783.000000	0.371547
784.000000	0.371569
785.000000	0.371578
786.000000	0.371538
787.000000	0.371463
788.000000	0.371518
789.000000	0.371503
790.000000	0.371444
791.000000	0.371528
792.000000	0.371544
793.000000	0.371534
794.000000	0.371562
795.000000	0.371587
796.000000	0.371613
797.000000	0.371603
798.000000	0.371488
799.000000	0.371423
800.000000	0.371413
801.000000	0.371420
802.000000	0.371436
803.000000	0.371441
804.000000	0.371448
805.000000	0.371371
806.000000	0.371239
807.000000	0.371153
808.000000	0.371068
809.000000	0.370988
810.000000	0.370966
811.000000	0.370995
812.000000	0.370945
813.000000	0.370874
814.000000	0.370819
815.000000	0.370831
816.000000	0.370761
817.000000	0.370691
818.000000	0.370620
819.000000	0.370508
820.000000	0.370423
821.000000	0.370336
822.000000	0.370269
823.000000	0.370274
824.000000	0.370224
825.000000	0.370110
826.000000	0.370143
827.000000	0.370115
828.000000	0.369987
829.000000	0.369980
830.000000	0.369930
831.000000	0.369866
832.000000	0.369721
833.000000	0.369596
834.000000	0.369504
835.000000	0.369459
836.000000	0.369347
837.000000	0.369217
838.000000	0.369113
839.000000	0.369028
840.000000	0.368982
841.000000	0.368925
842.000000	0.368773
843.000000	0.368620
844.000000	0.368579
845.000000	0.368586
846.000000	0.368476
847.000000	0.368409
848.000000	0.368330
849.000000	0.368195
850.000000	0.368042
851.000000	0.367901
852.000000	0.367817
853.000000	0.367723
854.000000	0.367571
855.000000	0.367481
856.000000	0.367375
857.000000	0.367133
858.000000	0.367103
859.000000	0.367222
860.000000	0.366994
861.000000	0.366884
862.000000	0.366868
863.000000	0.366681
864.000000	0.366508
865.000000	0.366393
866.000000	0.366344
867.000000	0.366229
868.000000	0.366148
869.000000	0.365974
870.000000	0.365676
871.000000	0.365527
872.000000	0.365383
873.000000	0.365128
874.000000	0.365047
875.000000	0.364901
876.000000	0.364721
877.000000	0.364559
878.000000	0.364350
879.000000	0.364254
880.000000	0.364144
881.000000	0.363887
882.000000	0.363690
883.000000	0.363581
884.000000	0.363440
885.000000	0.363412
886.000000	0.363288
887.000000	0.363007
888.000000	0.362731
889.000000	0.362437
890.000000	0.362142
891.000000	0.362091
892.000000	0.361863
893.000000	0.361685
894.000000	0.361731
895.000000	0.361526
896.000000	0.361321
897.000000	0.361184
898.000000	0.361089
899.000000	0.360823
900.000000	0.360571
901.000000	0.360375
902.000000	0.360196
903.000000	0.360065
904.000000	0.359989
905.000000	0.359849
906.000000	0.359785
907.000000	0.359606
908.000000	0.359346
909.000000	0.359078
910.000000	0.358958
911.000000	0.358879
912.000000	0.358722
913.000000	0.358459
914.000000	0.358226
915.000000	0.358117
916.000000	0.357984
917.000000	0.357780
918.000000	0.357574
919.000000	0.357400
920.000000	0.357276
921.000000	0.357013
922.000000	0.356685
923.000000	0.356454
924.000000	0.356291
925.000000	0.356149
926.000000	0.356045
927.000000	0.355968
928.000000	0.355750
929.000000	0.355458
930.000000	0.355235
931.000000	0.355059
932.000000	0.354821
933.000000	0.354628
934.000000	0.354688
935.000000	0.354506
936.000000	0.354210
937.000000	0.353935
938.000000	0.353914
939.000000	0.353826
940.000000	0.353548
941.000000	0.353295
942.000000	0.353136
943.000000	0.353013
944.000000	0.352736
945.000000	0.352417
946.000000	0.352061
947.000000	0.351826
948.000000	0.351746
949.000000	0.351531
950.000000	0.351349
951.000000	0.351139
952.000000	0.350776
953.000000	0.350677
954.000000	0.350708
955.000000	0.350572
956.000000	0.350155
957.000000	0.349890
958.000000	0.349729
959.000000	0.349565
960.000000	0.349323
961.000000	0.349243
962.000000	0.349263
963.000000	0.349030
964.000000	0.348724
965.000000	0.348438
966.000000	0.348119
967.000000	0.347939
968.000000	0.347766
969.000000	0.347464
970.000000	0.347106
971.000000	0.346961
972.000000	0.346973
973.000000	0.346935
974.000000	0.346735
975.000000	0.346583
976.000000	0.346375
977.000000	0.346080
978.000000	0.346134
979.000000	0.346049
980.000000	0.345717
981.000000	0.345693
982.000000	0.345391
983.000000	0.345123
984.000000	0.345046
985.000000	0.344917
986.000000	0.345030
987.000000	0.344887
988.000000	0.344222
989.000000	0.344098
990.000000	0.343911
991.000000	0.343666
992.000000	0.343624
993.000000	0.343962
994.000000	0.343940
995.000000	0.343702
996.000000	0.343599
997.000000	0.343671
998.000000	0.343598
999.000000	0.343447
1000.000000	0.343603
1001.000000	0.344004
1002.000000	0.343663
1003.000000	0.342981
1004.000000	0.343053
1005.000000	0.344318
1006.000000	0.344375
1007.000000	0.344187
1008.000000	0.344055
1009.000000	0.343407
1010.000000	0.342409
1011.000000	0.342732
1012.000000	0.343521
1013.000000	0.344036
1014.000000	0.343965
1015.000000	0.343509
1016.000000	0.343273
1017.000000	0.342479
1018.000000	0.342369
1019.000000	0.342619
1020.000000	0.343459
1021.000000	0.343194
1022.000000	0.343146
1023.000000	0.343492
1024.000000	0.343186
1025.000000	0.343266
1026.000000	0.344160
1027.000000	0.344269
1028.000000	0.344529
1029.000000	0.344801
1030.000000	0.344616
1031.000000	0.344740
1032.000000	0.344739
1033.000000	0.344872
1034.000000	0.345117
1035.000000	0.345862
1036.000000	0.346140
1037.000000	0.346234
1038.000000	0.346133
1039.000000	0.345640
1040.000000	0.346018
1041.000000	0.346435
1042.000000	0.346551
1043.000000	0.346775
1044.000000	0.346695
1045.000000	0.346345
1046.000000	0.346221
1047.000000	0.346403
1048.000000	0.347013
1049.000000	0.347145
1050.000000	0.347168
1051.000000	0.347485
1052.000000	0.347749
1053.000000	0.347902
1054.000000	0.348476
1055.000000	0.348756
1056.000000	0.348623
1057.000000	0.348969
1058.000000	0.349067
1059.000000	0.349163
1060.000000	0.349349
1061.000000	0.349418
1062.000000	0.349475
1063.000000	0.349635
1064.000000	0.349970
1065.000000	0.350485
1066.000000	0.350603
1067.000000	0.350705
1068.000000	0.350810
1069.000000	0.350341
1070.000000	0.350348
1071.000000	0.350733
1072.000000	0.351090
1073.000000	0.351609
1074.000000	0.352410
1075.000000	0.352560
1076.000000	0.352435
1077.000000	0.352234
1078.000000	0.352296
1079.000000	0.352640
1080.000000	0.353721
1081.000000	0.354110
1082.000000	0.354537
1083.000000	0.354677
1084.000000	0.354333
1085.000000	0.354443
1086.000000	0.354638
1087.000000	0.354765
1088.000000	0.354725
1089.000000	0.355067
1090.000000	0.355652
1091.000000	0.356012
1092.000000	0.356699
1093.000000	0.357199
1094.000000	0.357371
1095.000000	0.356907
1096.000000	0.357081
1097.000000	0.357398
1098.000000	0.357648
1099.000000	0.358007
1100.000000	0.358336
1101.000000	0.358494
1102.000000	0.358741
1103.000000	0.359024
1104.000000	0.359411
1105.000000	0.359981
1106.000000	0.360298
1107.000000	0.360372
1108.000000	0.360650
1109.000000	0.360980
1110.000000	0.361321
1111.000000	0.361390
1112.000000	0.361360
1113.000000	0.361760
1114.000000	0.362169
1115.000000	0.362405
1116.000000	0.363140
1117.000000	0.363367
1118.000000	0.362997
1119.000000	0.362780
1120.000000	0.362373
1121.000000	0.362371
1122.000000	0.362610
1123.000000	0.362954
1124.000000	0.363412
1125.000000	0.363844
1126.000000	0.364278
1127.000000	0.364391
1128.000000	0.364374
1129.000000	0.364233
1130.000000	0.364459
1131.000000	0.364668
1132.000000	0.364736
1133.000000	0.365180
1134.000000	0.365326
1135.000000	0.364945
1136.000000	0.364895
1137.000000	0.364995
1138.000000	0.365079
1139.000000	0.365356
1140.000000	0.365540
1141.000000	0.365610
1142.000000	0.365797
1143.000000	0.365886
1144.000000	0.366109
1145.000000	0.366279
1146.000000	0.366482
1147.000000	0.366494
1148.000000	0.366201
1149.000000	0.366226
1150.000000	0.366310
1151.000000	0.366395
1152.000000	0.366527
1153.000000	0.366689
1154.000000	0.366770
1155.000000	0.366904
1156.000000	0.367262
1157.000000	0.367379
1158.000000	0.367267
1159.000000	0.367251
1160.000000	0.367122
1161.000000	0.367037
1162.000000	0.367114
1163.000000	0.367261
1164.000000	0.367168
1165.000000	0.367205
1166.000000	0.367189
1167.000000	0.367068
1168.000000	0.367001
1169.000000	0.366952
1170.000000	0.367011
1171.000000	0.367162
1172.000000	0.367321
1173.000000	0.367668
1174.000000	0.367709
1175.000000	0.367503
1176.000000	0.367410
1177.000000	0.367160
1178.000000	0.367143
1179.000000	0.367458
1180.000000	0.367491
1181.000000	0.367549
1182.000000	0.367669
1183.000000	0.367467
1184.000000	0.367401
1185.000000	0.367464
1186.000000	0.367652
1187.000000	0.367614
1188.000000	0.367561
1189.000000	0.367546
1190.000000	0.367463
1191.000000	0.367470
1192.000000	0.367759
1193.000000	0.367979
1194.000000	0.367987
1195.000000	0.368017
1196.000000	0.368015
1197.000000	0.368041
1198.000000	0.368032
1199.000000	0.368071
1200.000000	0.368145
1201.000000	0.368257
1202.000000	0.368263
1203.000000	0.368256
1204.000000	0.368276
1205.000000	0.368142
1206.000000	0.368084
1207.000000	0.368148
1208.000000	0.368172
1209.000000	0.368284
1210.000000	0.368335
1211.000000	0.368340
1212.000000	0.368377
1213.000000	0.368447
1214.000000	0.368576
1215.000000	0.368822
1216.000000	0.368914
1217.000000	0.368930
1218.000000	0.368882
1219.000000	0.368751
1220.000000	0.368621
1221.000000	0.368524
1222.000000	0.368441
1223.000000	0.368399
1224.000000	0.368524
1225.000000	0.368568
1226.000000	0.368469
1227.000000	0.368411
1228.000000	0.368356
1229.000000	0.368303
1230.000000	0.368308
1231.000000	0.368225
1232.000000	0.368211
1233.000000	0.368299
1234.000000	0.368355
1235.000000	0.368423
1236.000000	0.368505
1237.000000	0.368552
1238.000000	0.368524
1239.000000	0.368479
1240.000000	0.368408
1241.000000	0.368308
1242.000000	0.368219
1243.000000	0.368182
1244.000000	0.368156
1245.000000	0.368269
1246.000000	0.368369
1247.000000	0.368473
1248.000000	0.368691
1249.000000	0.368901
1250.000000	0.368931
1251.000000	0.368884
1252.000000	0.368843
1253.000000	0.368650
1254.000000	0.368621
1255.000000	0.368735
1256.000000	0.368810
1257.000000	0.369007
1258.000000	0.369077
1259.000000	0.368921
1260.000000	0.368914
1261.000000	0.368822
1262.000000	0.368814
1263.000000	0.368929
1264.000000	0.369058
1265.000000	0.369149
1266.000000	0.369050
1267.000000	0.368966
1268.000000	0.369088
1269.000000	0.369147
1270.000000	0.369234
1271.000000	0.369201
1272.000000	0.369117
1273.000000	0.369217
1274.000000	0.369283
1275.000000	0.369238
1276.000000	0.369296
1277.000000	0.369242
1278.000000	0.368812
1279.000000	0.368654
1280.000000	0.368554
1281.000000	0.368443
1282.000000	0.368414
1283.000000	0.368477
1284.000000	0.368617
1285.000000	0.368599
1286.000000	0.368436
1287.000000	0.368449
1288.000000	0.368502
1289.000000	0.368376
1290.000000	0.368388
1291.000000	0.368343
1292.000000	0.368237
1293.000000	0.368223
1294.000000	0.368117
1295.000000	0.368123
1296.000000	0.368224
1297.000000	0.368133
1298.000000	0.368071
1299.000000	0.368171
1300.000000	0.368232
1301.000000	0.368303
1302.000000	0.368289
1303.000000	0.368500
1304.000000	0.368418
1305.000000	0.368231
1306.000000	0.368016
1307.000000	0.367721
1308.000000	0.367531
1309.000000	0.367226
1310.000000	0.367154
1311.000000	0.367281
1312.000000	0.367403
1313.000000	0.367506
1314.000000	0.367539
1315.000000	0.367466
1316.000000	0.367346
1317.000000	0.367281
1318.000000	0.367239
1319.000000	0.366980
1320.000000	0.366752
1321.000000	0.366638
1322.000000	0.366494
1323.000000	0.366467
1324.000000	0.366595
1325.000000	0.366591
1326.000000	0.366519
1327.000000	0.366413
1328.000000	0.366276
1329.000000	0.366129
1330.000000	0.365921
1331.000000	0.365825
1332.000000	0.365938
1333.000000	0.365862
1334.000000	0.365818
1335.000000	0.365734
1336.000000	0.365518
1337.000000	0.365328
1338.000000	0.365064
1339.000000	0.364818
1340.000000	0.364631
1341.000000	0.364488
1342.000000	0.364351
1343.000000	0.364223
1344.000000	0.364087
1345.000000	0.363760
1346.000000	0.363488
1347.000000	0.363221
1348.000000	0.362957
1349.000000	0.362784
1350.000000	0.362658
1351.000000	0.362366
1352.000000	0.362064
1353.000000	0.361928
1354.000000	0.361928
1355.000000	0.361827
1356.000000	0.361766
1357.000000	0.361664
1358.000000	0.361377
1359.000000	0.361210
1360.000000	0.361026
1361.000000	0.360880
1362.000000	0.360633
1363.000000	0.360335
1364.000000	0.360071
1365.000000	0.359754
1366.000000	0.359516
1367.000000	0.359333
1368.000000	0.359040
1369.000000	0.358848
1370.000000	0.358615
1371.000000	0.358191
1372.000000	0.357805
1373.000000	0.357614
1374.000000	0.357389
1375.000000	0.357130
1376.000000	0.357042
1377.000000	0.356879
1378.000000	0.356419
1379.000000	0.355994
1380.000000	0.355747
1381.000000	0.355352
1382.000000	0.354998
1383.000000	0.354693
1384.000000	0.354141
1385.000000	0.353576
1386.000000	0.353148
1387.000000	0.352637
1388.000000	0.351986
1389.000000	0.351423
1390.000000	0.350859
1391.000000	0.350157
1392.000000	0.349602
1393.000000	0.348969
1394.000000	0.348296
1395.000000	0.347525
1396.000000	0.346769
1397.000000	0.345929
1398.000000	0.344877
1399.000000	0.343965
1400.000000	0.343071
1401.000000	0.342122
1402.000000	0.341219
1403.000000	0.340289
1404.000000	0.339413
1405.000000	0.338388
1406.000000	0.337189
1407.000000	0.335969
1408.000000	0.334615
1409.000000	0.333489
1410.000000	0.332581
1411.000000	0.331579
1412.000000	0.330421
1413.000000	0.329160
1414.000000	0.327789
1415.000000	0.326554
1416.000000	0.325555
1417.000000	0.324491
1418.000000	0.323305
1419.000000	0.322150
1420.000000	0.320950
1421.000000	0.319927
1422.000000	0.318931
1423.000000	0.317936
1424.000000	0.316872
1425.000000	0.315779
1426.000000	0.314754
1427.000000	0.313759
1428.000000	0.312732
1429.000000	0.311720
1430.000000	0.310694
1431.000000	0.309854
1432.000000	0.309056
1433.000000	0.308429
1434.000000	0.307669
1435.000000	0.306980
1436.000000	0.306261
1437.000000	0.305434
1438.000000	0.304767
1439.000000	0.304290
1440.000000	0.303724
1441.000000	0.303154
1442.000000	0.302625
1443.000000	0.302014
1444.000000	0.301485
1445.000000	0.301024
1446.000000	0.300727
1447.000000	0.300406
1448.000000	0.299994
1449.000000	0.299568
1450.000000	0.299137
1451.000000	0.298751
1452.000000	0.298382
1453.000000	0.298089
1454.000000	0.297832
1455.000000	0.297608
1456.000000	0.297428
1457.000000	0.297217
1458.000000	0.297022
1459.000000	0.296796
1460.000000	0.296583
1461.000000	0.296458
1462.000000	0.296300
1463.000000	0.296094
1464.000000	0.295898
1465.000000	0.295747
1466.000000	0.295634
1467.000000	0.295452
1468.000000	0.295324
1469.000000	0.295331
1470.000000	0.295217
1471.000000	0.295250
1472.000000	0.295331
1473.000000	0.295363
1474.000000	0.295416
1475.000000	0.295450
1476.000000	0.295578
1477.000000	0.295764
1478.000000	0.295976
1479.000000	0.296339
1480.000000	0.296652
1481.000000	0.297015
1482.000000	0.297519
1483.000000	0.298005
1484.000000	0.298566
1485.000000	0.299014
1486.000000	0.299364
1487.000000	0.299719
1488.000000	0.300002
1489.000000	0.300418
1490.000000	0.300806
1491.000000	0.301207
1492.000000	0.301629
1493.000000	0.301997
1494.000000	0.302277
1495.000000	0.302639
1496.000000	0.303037
1497.000000	0.303384
1498.000000	0.303775
1499.000000	0.304062
1500.000000	0.304285
1501.000000	0.304610
1502.000000	0.304896
1503.000000	0.305195
1504.000000	0.305650
1505.000000	0.306005
1506.000000	0.306292
1507.000000	0.306598
1508.000000	0.306860
1509.000000	0.307105
1510.000000	0.307409
1511.000000	0.307683
1512.000000	0.307911
1513.000000	0.308119
1514.000000	0.308295
1515.000000	0.308629
1516.000000	0.308993
1517.000000	0.309187
1518.000000	0.309389
1519.000000	0.309471
1520.000000	0.309585
1521.000000	0.309726
1522.000000	0.309859
1523.000000	0.310065
1524.000000	0.310164
1525.000000	0.310243
1526.000000	0.310311
1527.000000	0.310414
1528.000000	0.310582
1529.000000	0.310685
1530.000000	0.310692
1531.000000	0.310615
1532.000000	0.310537
1533.000000	0.310493
1534.000000	0.310451
1535.000000	0.310480
1536.000000	0.310492
1537.000000	0.310595
1538.000000	0.310773
1539.000000	0.310958
1540.000000	0.311181
1541.000000	0.311331
1542.000000	0.311338
1543.000000	0.311357
1544.000000	0.311389
1545.000000	0.311442
1546.000000	0.311632
1547.000000	0.311822
1548.000000	0.311888
1549.000000	0.311872
1550.000000	0.311904
1551.000000	0.311941
1552.000000	0.311947
1553.000000	0.311943
1554.000000	0.311861
1555.000000	0.311808
1556.000000	0.311867
1557.000000	0.311927
1558.000000	0.311949
1559.000000	0.311895
1560.000000	0.311896
1561.000000	0.311943
1562.000000	0.311913
1563.000000	0.311902
1564.000000	0.311969
1565.000000	0.311990
1566.000000	0.311957
1567.000000	0.312139
1568.000000	0.312174
1569.000000	0.312118
1570.000000	0.312132
1571.000000	0.312154
1572.000000	0.312157
1573.000000	0.312206
1574.000000	0.312188
1575.000000	0.312142
1576.000000	0.312079
1577.000000	0.311922
1578.000000	0.311798
1579.000000	0.311740
1580.000000	0.311727
1581.000000	0.311826
1582.000000	0.311850
1583.000000	0.311902
1584.000000	0.311827
1585.000000	0.311654
1586.000000	0.311662
1587.000000	0.311721
1588.000000	0.311768
1589.000000	0.311966
1590.000000	0.312102
1591.000000	0.312203
1592.000000	0.312267
1593.000000	0.312385
1594.000000	0.312366
1595.000000	0.312206
1596.000000	0.312230
1597.000000	0.312383
1598.000000	0.312371
1599.000000	0.312399
1600.000000	0.312408
1601.000000	0.312334
1602.000000	0.312350
1603.000000	0.312553
1604.000000	0.312558
1605.000000	0.312464
1606.000000	0.312420
1607.000000	0.312382
1608.000000	0.312339
1609.000000	0.312366
1610.000000	0.312358
1611.000000	0.312317
1612.000000	0.312333
1613.000000	0.312463
1614.000000	0.312582
1615.000000	0.312839
1616.000000	0.312972
1617.000000	0.313026
1618.000000	0.313077
1619.000000	0.312941
1620.000000	0.313044
1621.000000	0.313373
1622.000000	0.313576
1623.000000	0.313753
1624.000000	0.313970
1625.000000	0.313995
1626.000000	0.314053
1627.000000	0.314239
1628.000000	0.314446
1629.000000	0.314529
1630.000000	0.314803
1631.000000	0.315260
1632.000000	0.315423
1633.000000	0.315542
1634.000000	0.315638
1635.000000	0.315527
1636.000000	0.315595
1637.000000	0.315790
1638.000000	0.315932
1639.000000	0.316186
1640.000000	0.316352
1641.000000	0.316500
1642.000000	0.316754
1643.000000	0.317099
1644.000000	0.317294
1645.000000	0.317497
1646.000000	0.317643
1647.000000	0.317701
1648.000000	0.317788
1649.000000	0.317983
1650.000000	0.318182
1651.000000	0.318374
1652.000000	0.318577
1653.000000	0.318740
1654.000000	0.319042
1655.000000	0.319366
1656.000000	0.319504
1657.000000	0.319808
1658.000000	0.319943
1659.000000	0.319868
1660.000000	0.320066
1661.000000	0.320318
1662.000000	0.320513
1663.000000	0.320768
1664.000000	0.320916
1665.000000	0.320960
1666.000000	0.321150
1667.000000	0.321252
1668.000000	0.321485
1669.000000	0.321812
1670.000000	0.322002
1671.000000	0.322293
1672.000000	0.322577
1673.000000	0.322776
1674.000000	0.322981
1675.000000	0.323356
1676.000000	0.323624
1677.000000	0.323826
1678.000000	0.324094
1679.000000	0.324242
1680.000000	0.324266
1681.000000	0.324405
1682.000000	0.324516
1683.000000	0.324496
1684.000000	0.324437
1685.000000	0.324419
1686.000000	0.324382
1687.000000	0.324465
1688.000000	0.324610
1689.000000	0.324734
1690.000000	0.324806
1691.000000	0.324905
1692.000000	0.325079
1693.000000	0.325274
1694.000000	0.325396
1695.000000	0.325591
1696.000000	0.325762
1697.000000	0.325787
1698.000000	0.325779
1699.000000	0.325869
1700.000000	0.325846
1701.000000	0.325998
1702.000000	0.326195
1703.000000	0.326313
1704.000000	0.326565
1705.000000	0.326697
1706.000000	0.326778
1707.000000	0.326852
1708.000000	0.326806
1709.000000	0.326752
1710.000000	0.326703
1711.000000	0.326837
1712.000000	0.327164
1713.000000	0.327327
1714.000000	0.327633
1715.000000	0.327797
1716.000000	0.327719
1717.000000	0.327770
1718.000000	0.327869
1719.000000	0.327900
1720.000000	0.327896
1721.000000	0.328039
1722.000000	0.328291
1723.000000	0.328411
1724.000000	0.328594
1725.000000	0.328777
1726.000000	0.328745
1727.000000	0.328818
1728.000000	0.328932
1729.000000	0.329004
1730.000000	0.329231
1731.000000	0.329256
1732.000000	0.329228
1733.000000	0.329285
1734.000000	0.329038
1735.000000	0.329045
1736.000000	0.329237
1737.000000	0.329306
1738.000000	0.329392
1739.000000	0.329431
1740.000000	0.329410
1741.000000	0.329419
1742.000000	0.329366
1743.000000	0.329582
1744.000000	0.329936
1745.000000	0.330108
1746.000000	0.330364
1747.000000	0.330447
1748.000000	0.330423
1749.000000	0.330257
1750.000000	0.330248
1751.000000	0.330360
1752.000000	0.330583
1753.000000	0.330979
1754.000000	0.331209
1755.000000	0.331227
1756.000000	0.331326
1757.000000	0.331339
1758.000000	0.331503
1759.000000	0.331817
1760.000000	0.332059
1761.000000	0.332301
1762.000000	0.332525
1763.000000	0.332805
1764.000000	0.332930
1765.000000	0.332942
1766.000000	0.332969
1767.000000	0.332766
1768.000000	0.332630
1769.000000	0.332564
1770.000000	0.332662
1771.000000	0.332797
1772.000000	0.332935
1773.000000	0.333229
1774.000000	0.333327
1775.000000	0.333323
1776.000000	0.333402
1777.000000	0.333409
1778.000000	0.333482
1779.000000	0.333590
1780.000000	0.333734
1781.000000	0.333837
1782.000000	0.334076
1783.000000	0.334503
1784.000000	0.334777
1785.000000	0.334936
1786.000000	0.334962
1787.000000	0.335023
1788.000000	0.335228
1789.000000	0.335337
1790.000000	0.335327
1791.000000	0.335318
1792.000000	0.335261
1793.000000	0.335258
1794.000000	0.335371
1795.000000	0.335470
1796.000000	0.335503
1797.000000	0.335631
1798.000000	0.335834
1799.000000	0.336014
1800.000000	0.336337
1801.000000	0.336346
1802.000000	0.336211
1803.000000	0.335628
1804.000000	0.335399
1805.000000	0.333984
1806.000000	0.333996
1807.000000	0.335539
1808.000000	0.336164
1809.000000	0.336791
1810.000000	0.337383
1811.000000	0.338034
1812.000000	0.338754
1813.000000	0.338723
1814.000000	0.338604
1815.000000	0.338290
1816.000000	0.336425
1817.000000	0.335857
1818.000000	0.335950
1819.000000	0.336683
1820.000000	0.337185
1821.000000	0.337452
1822.000000	0.337674
1823.000000	0.337438
1824.000000	0.337451
1825.000000	0.337725
1826.000000	0.337731
1827.000000	0.337158
1828.000000	0.337132
1829.000000	0.337532
1830.000000	0.337229
1831.000000	0.337099
1832.000000	0.336934
1833.000000	0.337022
1834.000000	0.337314
1835.000000	0.337391
1836.000000	0.337486
1837.000000	0.337606
1838.000000	0.337590
1839.000000	0.336936
1840.000000	0.336975
1841.000000	0.337187
1842.000000	0.336717
1843.000000	0.335472
1844.000000	0.335183
1845.000000	0.334991
1846.000000	0.334658
1847.000000	0.334745
1848.000000	0.334217
1849.000000	0.333716
1850.000000	0.333323
1851.000000	0.332904
1852.000000	0.332490
1853.000000	0.332463
1854.000000	0.332609
1855.000000	0.332105
1856.000000	0.331550
1857.000000	0.331063
1858.000000	0.329684
1859.000000	0.328303
1860.000000	0.327597
1861.000000	0.326676
1862.000000	0.325506
1863.000000	0.324280
1864.000000	0.323174
1865.000000	0.321440
1866.000000	0.320709
1867.000000	0.320867
1868.000000	0.320477
1869.000000	0.319983
1870.000000	0.319172
1871.000000	0.317102
1872.000000	0.313818
1873.000000	0.311813
1874.000000	0.309809
1875.000000	0.308356
1876.000000	0.307614
1877.000000	0.306798
1878.000000	0.304533
1879.000000	0.301601
1880.000000	0.298202
1881.000000	0.294491
1882.000000	0.291527
1883.000000	0.289106
1884.000000	0.286284
1885.000000	0.283315
1886.000000	0.280360
1887.000000	0.277561
1888.000000	0.273543
1889.000000	0.269895
1890.000000	0.266176
1891.000000	0.262810
1892.000000	0.259839
1893.000000	0.256846
1894.000000	0.253893
1895.000000	0.250265
1896.000000	0.246121
1897.000000	0.241902
1898.000000	0.238174
1899.000000	0.234918
1900.000000	0.231559
1901.000000	0.228371
1902.000000	0.224925
1903.000000	0.220636
1904.000000	0.217086
1905.000000	0.213657
1906.000000	0.210278
1907.000000	0.206862
1908.000000	0.204181
1909.000000	0.201456
1910.000000	0.199084
1911.000000	0.197225
1912.000000	0.194686
1913.000000	0.191990
1914.000000	0.189913
1915.000000	0.187325
1916.000000	0.185038
1917.000000	0.182746
1918.000000	0.180794
1919.000000	0.178215
1920.000000	0.175936
1921.000000	0.174359
1922.000000	0.173605
1923.000000	0.173352
1924.000000	0.172992
1925.000000	0.172567
1926.000000	0.172101
1927.000000	0.171193
1928.000000	0.170538
1929.000000	0.170146
1930.000000	0.169702
1931.000000	0.169175
1932.000000	0.169469
1933.000000	0.169713
1934.000000	0.169859
1935.000000	0.169763
1936.000000	0.169483
1937.000000	0.169260
1938.000000	0.168823
1939.000000	0.168745
1940.000000	0.169041
1941.000000	0.169307
1942.000000	0.169153
1943.000000	0.169408
1944.000000	0.169013
1945.000000	0.168010
1946.000000	0.167635
1947.000000	0.167305
1948.000000	0.167221
1949.000000	0.167289
1950.000000	0.167526
1951.000000	0.167477
1952.000000	0.167415
1953.000000	0.166725
1954.000000	0.166253
1955.000000	0.165276
1956.000000	0.163929
1957.000000	0.163465
1958.000000	0.163145
1959.000000	0.163089
1960.000000	0.163402
1961.000000	0.163443
1962.000000	0.163408
1963.000000	0.163236
1964.000000	0.163318
1965.000000	0.163580
1966.000000	0.163566
1967.000000	0.163719
1968.000000	0.163256
1969.000000	0.162240
1970.000000	0.162166
1971.000000	0.161921
1972.000000	0.161847
1973.000000	0.162121
1974.000000	0.162953
1975.000000	0.163167
1976.000000	0.163265
1977.000000	0.164041
1978.000000	0.164071
1979.000000	0.164003
1980.000000	0.164155
1981.000000	0.164115
1982.000000	0.164497
1983.000000	0.164786
1984.000000	0.165249
1985.000000	0.166268
1986.000000	0.166892
1987.000000	0.167238
1988.000000	0.168005
1989.000000	0.168831
1990.000000	0.169379
1991.000000	0.169734
1992.000000	0.170146
1993.000000	0.170906
1994.000000	0.171788
1995.000000	0.172971
1996.000000	0.174331
1997.000000	0.174977
1998.000000	0.175044
1999.000000	0.175312
2000.000000	0.175243
2001.000000	0.174877
2002.000000	0.175721
2003.000000	0.176683
2004.000000	0.177756
2005.000000	0.179441
2006.000000	0.180401
2007.000000	0.181132
2008.000000	0.182282
2009.000000	0.183371
2010.000000	0.184629
2011.000000	0.186836
2012.000000	0.187826
2013.000000	0.188234
2014.000000	0.188264
2015.000000	0.188253
2016.000000	0.188335
2017.000000	0.188783
2018.000000	0.190153
2019.000000	0.191433
2020.000000	0.192781
2021.000000	0.194213
2022.000000	0.195901
2023.000000	0.197238
2024.000000	0.198648
2025.000000	0.199625
2026.000000	0.200149
2027.000000	0.200872
2028.000000	0.201031
2029.000000	0.201609
2030.000000	0.202191
2031.000000	0.202885
2032.000000	0.203931
2033.000000	0.204987
2034.000000	0.206217
2035.000000	0.207995
2036.000000	0.209099
2037.000000	0.210331
2038.000000	0.211112
2039.000000	0.211554
2040.000000	0.211476
2041.000000	0.211502
2042.000000	0.212106
2043.000000	0.212819
2044.000000	0.214119
2045.000000	0.215476
2046.000000	0.216059
2047.000000	0.216741
2048.000000	0.216887
2049.000000	0.217580
2050.000000	0.218244
2051.000000	0.219213
2052.000000	0.220552
2053.000000	0.221451
2054.000000	0.222753
2055.000000	0.223232
2056.000000	0.223407
2057.000000	0.224575
2058.000000	0.225779
2059.000000	0.226721
2060.000000	0.227346
2061.000000	0.227869
2062.000000	0.228176
2063.000000	0.227731
2064.000000	0.228068
2065.000000	0.229003
2066.000000	0.229608
2067.000000	0.230486
2068.000000	0.231653
2069.000000	0.232255
2070.000000	0.233039
2071.000000	0.233744
2072.000000	0.234345
2073.000000	0.235503
2074.000000	0.236439
2075.000000	0.237537
2076.000000	0.239261
2077.000000	0.240005
2078.000000	0.240287
2079.000000	0.240529
2080.000000	0.239780
2081.000000	0.240147
2082.000000	0.240928
2083.000000	0.241903
2084.000000	0.243773
2085.000000	0.245243
2086.000000	0.246085
2087.000000	0.247152
2088.000000	0.247565
2089.000000	0.247945
2090.000000	0.248703
2091.000000	0.249784
2092.000000	0.250695
2093.000000	0.251984
2094.000000	0.252758
2095.000000	0.253293
2096.000000	0.253748
2097.000000	0.253699
2098.000000	0.253886
2099.000000	0.254187
2100.000000	0.255104
2101.000000	0.256766
2102.000000	0.257976
2103.000000	0.258958
2104.000000	0.259833
2105.000000	0.260163
2106.000000	0.259327
2107.000000	0.259694
2108.000000	0.260403
2109.000000	0.260911
2110.000000	0.261766
2111.000000	0.262470
2112.000000	0.263223
2113.000000	0.262861
2114.000000	0.263298
2115.000000	0.263819
2116.000000	0.263850
2117.000000	0.264290
2118.000000	0.264361
2119.000000	0.264373
2120.000000	0.264659
2121.000000	0.264906
2122.000000	0.265487
2123.000000	0.266462
2124.000000	0.267439
2125.000000	0.268722
2126.000000	0.269498
2127.000000	0.270184
2128.000000	0.270841
2129.000000	0.271021
2130.000000	0.271631
2131.000000	0.271821
2132.000000	0.272095
2133.000000	0.271753
2134.000000	0.271253
2135.000000	0.271300
2136.000000	0.271004
2137.000000	0.271126
2138.000000	0.271650
2139.000000	0.272134
2140.000000	0.273009
2141.000000	0.273435
2142.000000	0.273811
2143.000000	0.273670
2144.000000	0.272859
2145.000000	0.272785
2146.000000	0.272782
2147.000000	0.273393
2148.000000	0.274458
2149.000000	0.274606
2150.000000	0.273972
2151.000000	0.273744
2152.000000	0.273327
2153.000000	0.272788
2154.000000	0.272764
2155.000000	0.273600
2156.000000	0.273544
2157.000000	0.273315
2158.000000	0.272944
2159.000000	0.271623
2160.000000	0.271380
2161.000000	0.271727
2162.000000	0.272324
2163.000000	0.273920
2164.000000	0.274653
2165.000000	0.275186
2166.000000	0.275250
2167.000000	0.275085
2168.000000	0.274962
2169.000000	0.275002
2170.000000	0.274849
2171.000000	0.274754
2172.000000	0.274440
2173.000000	0.274603
2174.000000	0.275265
2175.000000	0.275200
2176.000000	0.274831
2177.000000	0.274903
2178.000000	0.274613
2179.000000	0.275078
2180.000000	0.276859
2181.000000	0.277708
2182.000000	0.278104
2183.000000	0.277540
2184.000000	0.276980
2185.000000	0.276585
2186.000000	0.275839
2187.000000	0.275443
2188.000000	0.274600
2189.000000	0.273187
2190.000000	0.273244
2191.000000	0.273976
2192.000000	0.274328
2193.000000	0.276047
2194.000000	0.275662
2195.000000	0.273542
2196.000000	0.272463
2197.000000	0.269873
2198.000000	0.268968
2199.000000	0.270300
2200.000000	0.270273
2201.000000	0.270751
2202.000000	0.270096
2203.000000	0.267359
2204.000000	0.265649
2205.000000	0.264591
2206.000000	0.265288
2207.000000	0.267577
2208.000000	0.269731
2209.000000	0.270652
2210.000000	0.273077
2211.000000	0.276699
2212.000000	0.278583
2213.000000	0.279872
2214.000000	0.280697
2215.000000	0.281022
2216.000000	0.279817
2217.000000	0.279710
2218.000000	0.279626
2219.000000	0.280066
2220.000000	0.281418
2221.000000	0.281608
2222.000000	0.282081
2223.000000	0.281777
2224.000000	0.280093
2225.000000	0.278813
2226.000000	0.278163
2227.000000	0.275775
2228.000000	0.274821
2229.000000	0.274088
2230.000000	0.273325
2231.000000	0.274866
2232.000000	0.276699
2233.000000	0.277251
2234.000000	0.279014
2235.000000	0.279081
2236.000000	0.277765
2237.000000	0.274754
2238.000000	0.273389
2239.000000	0.270674
2240.000000	0.270011
2241.000000	0.270903
2242.000000	0.271214
2243.000000	0.271087
2244.000000	0.272267
2245.000000	0.275722
2246.000000	0.277213
2247.000000	0.278884
2248.000000	0.279564
2249.000000	0.278655
2250.000000	0.277467
2251.000000	0.276082
2252.000000	0.276729
2253.000000	0.276821
2254.000000	0.275373
2255.000000	0.275950
2256.000000	0.276204
2257.000000	0.276103
2258.000000	0.276811
2259.000000	0.277433
2260.000000	0.277665
2261.000000	0.276943
2262.000000	0.275699
2263.000000	0.275260
2264.000000	0.274164
2265.000000	0.273473
2266.000000	0.274342
2267.000000	0.273279
2268.000000	0.270589
2269.000000	0.269045
2270.000000	0.266368
2271.000000	0.265864
2272.000000	0.267804
2273.000000	0.267883
2274.000000	0.267948
2275.000000	0.268281
2276.000000	0.268656
2277.000000	0.267231
2278.000000	0.266298
2279.000000	0.265442
2280.000000	0.262504
2281.000000	0.260146
2282.000000	0.258688
2283.000000	0.258613
2284.000000	0.259970
2285.000000	0.262119
2286.000000	0.264154
2287.000000	0.264395
2288.000000	0.264626
2289.000000	0.263610
2290.000000	0.261744
2291.000000	0.261677
2292.000000	0.260603
2293.000000	0.258893
2294.000000	0.258331
2295.000000	0.258301
2296.000000	0.258155
2297.000000	0.259652
2298.000000	0.258758
2299.000000	0.256398
2300.000000	0.254810
2301.000000	0.251135
2302.000000	0.250292
2303.000000	0.251505
2304.000000	0.251428
2305.000000	0.253319
2306.000000	0.252994
2307.000000	0.250454
2308.000000	0.249018
2309.000000	0.248546
2310.000000	0.247485
2311.000000	0.247440
2312.000000	0.248989
2313.000000	0.248582
2314.000000	0.247120
2315.000000	0.247801
2316.000000	0.247294
2317.000000	0.247085
2318.000000	0.247032
2319.000000	0.244680
2320.000000	0.242701
2321.000000	0.241972
2322.000000	0.240854
2323.000000	0.238643
2324.000000	0.238255
2325.000000	0.237763
2326.000000	0.237097
2327.000000	0.238630
2328.000000	0.236451
2329.000000	0.232665
2330.000000	0.230833
2331.000000	0.227689
2332.000000	0.226270
2333.000000	0.226607
2334.000000	0.225412
2335.000000	0.225230
2336.000000	0.225236
2337.000000	0.225609
2338.000000	0.227077
2339.000000	0.226939
2340.000000	0.225910
2341.000000	0.224976
2342.000000	0.224121
2343.000000	0.222230
2344.000000	0.220191
2345.000000	0.217291
2346.000000	0.209968
2347.000000	0.207316
2348.000000	0.206944
2349.000000	0.207538
2350.000000	0.207025
2351.000000	0.207820
2352.000000	0.207950
2353.000000	0.204924
2354.000000	0.201973
2355.000000	0.203503
2356.000000	0.201519
2357.000000	0.199001
2358.000000	0.199701
2359.000000	0.197751
2360.000000	0.195570
2361.000000	0.195316
2362.000000	0.196652
2363.000000	0.197024
2364.000000	0.198510
2365.000000	0.201382
2366.000000	0.198958
2367.000000	0.196892
2368.000000	0.196706
2369.000000	0.192744
2370.000000	0.192691
2371.000000	0.196299
2372.000000	0.195693
2373.000000	0.194321
2374.000000	0.191228
2375.000000	0.188138
2376.000000	0.187273
2377.000000	0.185626
2378.000000	0.185309
2379.000000	0.185302
2380.000000	0.184021
2381.000000	0.182777
2382.000000	0.182494
2383.000000	0.182542
2384.000000	0.183236
2385.000000	0.185264
2386.000000	0.188113
2387.000000	0.187186
2388.000000	0.183062
2389.000000	0.178391
2390.000000	0.175948
2391.000000	0.176973
2392.000000	0.176505
2393.000000	0.178255
2394.000000	0.177383
2395.000000	0.176196
2396.000000	0.178203
2397.000000	0.177536
2398.000000	0.183610
2399.000000	0.187039
2400.000000	0.184446
2401.000000	0.185421
2402.000000	0.179604
2403.000000	0.170828
2404.000000	0.168469
2405.000000	0.168031
2406.000000	0.169252
2407.000000	0.170308
2408.000000	0.168592
2409.000000	0.165823
2410.000000	0.162945
2411.000000	0.163852
2412.000000	0.165060
2413.000000	0.156928
2414.000000	0.148572
2415.000000	0.146033
2416.000000	0.143740
2417.000000	0.154624
2418.000000	0.167401
2419.000000	0.170253
2420.000000	0.176485
2421.000000	0.174968
2422.000000	0.174966
2423.000000	0.180424
2424.000000	0.181619
2425.000000	0.186949
2426.000000	0.181737
2427.000000	0.175024
2428.000000	0.174815
2429.000000	0.173712
2430.000000	0.178499
2431.000000	0.173220
2432.000000	0.152101
2433.000000	0.134075
2434.000000	0.129215
2435.000000	0.131306
2436.000000	0.143784
2437.000000	0.159628
2438.000000	0.167904
2439.000000	0.164474
2440.000000	0.152745
2441.000000	0.140114
2442.000000	0.130587
2443.000000	0.141096
2444.000000	0.152253
2445.000000	0.158686
2446.000000	0.150708
2447.000000	0.133141
2448.000000	0.125436
2449.000000	0.107201
2450.000000	0.111116
2451.000000	0.122189
2452.000000	0.117054
2453.000000	0.122497
2454.000000	0.122100
2455.000000	0.112917
2456.000000	0.110266
2457.000000	0.117970
2458.000000	0.118957
2459.000000	0.119718
2460.000000	0.133750
2461.000000	0.135939
2462.000000	0.145870
2463.000000	0.156183
2464.000000	0.144922
2465.000000	0.139258
2466.000000	0.129193
2467.000000	0.119609
2468.000000	0.118608
2469.000000	0.106418
2470.000000	0.106666
2471.000000	0.113410
2472.000000	0.109611
2473.000000	0.122734
2474.000000	0.121767
2475.000000	0.116966
2476.000000	0.120515
2477.000000	0.107821
2478.000000	0.132644
2479.000000	0.161069
2480.000000	0.148356
2481.000000	0.157775
2482.000000	0.157257
2483.000000	0.126806
2484.000000	0.126293
2485.000000	0.130984
2486.000000	0.116228
2487.000000	0.122147
2488.000000	0.130231
2489.000000	0.108844
2490.000000	0.093670
2491.000000	0.075196
2492.000000	0.075395
2493.000000	0.135513
2494.000000	0.154082
2495.000000	0.145144
2496.000000	0.134200
2497.000000	0.057691
2498.000000	0.055974
2499.000000	0.126383
2500.000000	0.147427
