# Wavelength	Nau-1_60_FV7_40_00000.asd.rts.txt
350.000000	0.110727
351.000000	0.126599
352.000000	0.110379
353.000000	0.108511
354.000000	0.133030
355.000000	0.122499
356.000000	0.119662
357.000000	0.128196
358.000000	0.123202
359.000000	0.116248
360.000000	0.113072
361.000000	0.117239
362.000000	0.129060
363.000000	0.126156
364.000000	0.104645
365.000000	0.108882
366.000000	0.116347
367.000000	0.118624
368.000000	0.118799
369.000000	0.122528
370.000000	0.125829
371.000000	0.123292
372.000000	0.123379
373.000000	0.123657
374.000000	0.122809
375.000000	0.124797
376.000000	0.125792
377.000000	0.126486
378.000000	0.132483
379.000000	0.132233
380.000000	0.127911
381.000000	0.126317
382.000000	0.129021
383.000000	0.130736
384.000000	0.129268
385.000000	0.132010
386.000000	0.135286
387.000000	0.137092
388.000000	0.136182
389.000000	0.138665
390.000000	0.141786
391.000000	0.140332
392.000000	0.141689
393.000000	0.143925
394.000000	0.144961
395.000000	0.146883
396.000000	0.147528
397.000000	0.147057
398.000000	0.148794
399.000000	0.151641
400.000000	0.154135
401.000000	0.154612
402.000000	0.156378
403.000000	0.158286
404.000000	0.159168
405.000000	0.160568
406.000000	0.161846
407.000000	0.162956
408.000000	0.165021
409.000000	0.166642
410.000000	0.167550
411.000000	0.168071
412.000000	0.168714
413.000000	0.169754
414.000000	0.171213
415.000000	0.172182
416.000000	0.172854
417.000000	0.173411
418.000000	0.173825
419.000000	0.173965
420.000000	0.173912
421.000000	0.173925
422.000000	0.173907
423.000000	0.174162
424.000000	0.175000
425.000000	0.175095
426.000000	0.175011
427.000000	0.175238
428.000000	0.175340
429.000000	0.175325
430.000000	0.175319
431.000000	0.175663
432.000000	0.175499
433.000000	0.175080
434.000000	0.175223
435.000000	0.175370
436.000000	0.175247
437.000000	0.174793
438.000000	0.174804
439.000000	0.174250
440.000000	0.173116
441.000000	0.173375
442.000000	0.173303
443.000000	0.172743
444.000000	0.172674
445.000000	0.172386
446.000000	0.172420
447.000000	0.173256
448.000000	0.173339
449.000000	0.173997
450.000000	0.175959
451.000000	0.177599
452.000000	0.179043
453.000000	0.180581
454.000000	0.182942
455.000000	0.185424
456.000000	0.187813
457.000000	0.189986
458.000000	0.192550
459.000000	0.195324
460.000000	0.197960
461.000000	0.199826
462.000000	0.201396
463.000000	0.202857
464.000000	0.204284
465.000000	0.205414
466.000000	0.206265
467.000000	0.207161
468.000000	0.208220
469.000000	0.209185
470.000000	0.209922
471.000000	0.210858
472.000000	0.211642
473.000000	0.212147
474.000000	0.212944
475.000000	0.213450
476.000000	0.213762
477.000000	0.214437
478.000000	0.214961
479.000000	0.215556
480.000000	0.216384
481.000000	0.216929
482.000000	0.217393
483.000000	0.217856
484.000000	0.218385
485.000000	0.218847
486.000000	0.219313
487.000000	0.219700
488.000000	0.220270
489.000000	0.220990
490.000000	0.221603
491.000000	0.222038
492.000000	0.222578
493.000000	0.223394
494.000000	0.224038
495.000000	0.224645
496.000000	0.225302
497.000000	0.225958
498.000000	0.226419
499.000000	0.226869
500.000000	0.227847
501.000000	0.228615
502.000000	0.229164
503.000000	0.229730
504.000000	0.230358
505.000000	0.231075
506.000000	0.231855
507.000000	0.232448
508.000000	0.233125
509.000000	0.233957
510.000000	0.234695
511.000000	0.235497
512.000000	0.236324
513.000000	0.236916
514.000000	0.237731
515.000000	0.238715
516.000000	0.239602
517.000000	0.240403
518.000000	0.241216
519.000000	0.242061
520.000000	0.243025
521.000000	0.243968
522.000000	0.244827
523.000000	0.245610
524.000000	0.246504
525.000000	0.247478
526.000000	0.248426
527.000000	0.249422
528.000000	0.250400
529.000000	0.251332
530.000000	0.252256
531.000000	0.253241
532.000000	0.254246
533.000000	0.255288
534.000000	0.256423
535.000000	0.257583
536.000000	0.258593
537.000000	0.259656
538.000000	0.260784
539.000000	0.261902
540.000000	0.262958
541.000000	0.264018
542.000000	0.265156
543.000000	0.266190
544.000000	0.267219
545.000000	0.268247
546.000000	0.269345
547.000000	0.270396
548.000000	0.271450
549.000000	0.272584
550.000000	0.273704
551.000000	0.274835
552.000000	0.275964
553.000000	0.276993
554.000000	0.278001
555.000000	0.279059
556.000000	0.280152
557.000000	0.281113
558.000000	0.282028
559.000000	0.282935
560.000000	0.283864
561.000000	0.284816
562.000000	0.285627
563.000000	0.286476
564.000000	0.287400
565.000000	0.288274
566.000000	0.289030
567.000000	0.289799
568.000000	0.290605
569.000000	0.291287
570.000000	0.291987
571.000000	0.292707
572.000000	0.293367
573.000000	0.294013
574.000000	0.294624
575.000000	0.295213
576.000000	0.295740
577.000000	0.296231
578.000000	0.296771
579.000000	0.297288
580.000000	0.297758
581.000000	0.298174
582.000000	0.298543
583.000000	0.298932
584.000000	0.299356
585.000000	0.299806
586.000000	0.300153
587.000000	0.300440
588.000000	0.300752
589.000000	0.301111
590.000000	0.301432
591.000000	0.301660
592.000000	0.301806
593.000000	0.302018
594.000000	0.302301
595.000000	0.302522
596.000000	0.302649
597.000000	0.302778
598.000000	0.302942
599.000000	0.303017
600.000000	0.303124
601.000000	0.303265
602.000000	0.303260
603.000000	0.303257
604.000000	0.303320
605.000000	0.303306
606.000000	0.303368
607.000000	0.303461
608.000000	0.303421
609.000000	0.303510
610.000000	0.303634
611.000000	0.303635
612.000000	0.303622
613.000000	0.303666
614.000000	0.303810
615.000000	0.303897
616.000000	0.303926
617.000000	0.303943
618.000000	0.304175
619.000000	0.304220
620.000000	0.304140
621.000000	0.304220
622.000000	0.304249
623.000000	0.304294
624.000000	0.304410
625.000000	0.304438
626.000000	0.304480
627.000000	0.304579
628.000000	0.304672
629.000000	0.304847
630.000000	0.304969
631.000000	0.305082
632.000000	0.305163
633.000000	0.305248
634.000000	0.305345
635.000000	0.305364
636.000000	0.305421
637.000000	0.305547
638.000000	0.305619
639.000000	0.305685
640.000000	0.305821
641.000000	0.305972
642.000000	0.306083
643.000000	0.306168
644.000000	0.306265
645.000000	0.306363
646.000000	0.306504
647.000000	0.306675
648.000000	0.306794
649.000000	0.306966
650.000000	0.307178
651.000000	0.307335
652.000000	0.307524
653.000000	0.307737
654.000000	0.307841
655.000000	0.307968
656.000000	0.308162
657.000000	0.308378
658.000000	0.308629
659.000000	0.308890
660.000000	0.309125
661.000000	0.309320
662.000000	0.309558
663.000000	0.309851
664.000000	0.310057
665.000000	0.310316
666.000000	0.310606
667.000000	0.310841
668.000000	0.311037
669.000000	0.311298
670.000000	0.311650
671.000000	0.311893
672.000000	0.312185
673.000000	0.312544
674.000000	0.312904
675.000000	0.313159
676.000000	0.313376
677.000000	0.313683
678.000000	0.314060
679.000000	0.314384
680.000000	0.314608
681.000000	0.314866
682.000000	0.315225
683.000000	0.315614
684.000000	0.316057
685.000000	0.316437
686.000000	0.316803
687.000000	0.317199
688.000000	0.317536
689.000000	0.317879
690.000000	0.318300
691.000000	0.318652
692.000000	0.319001
693.000000	0.319418
694.000000	0.319790
695.000000	0.320170
696.000000	0.320595
697.000000	0.321092
698.000000	0.321570
699.000000	0.322038
700.000000	0.322521
701.000000	0.322986
702.000000	0.323465
703.000000	0.323935
704.000000	0.324338
705.000000	0.324810
706.000000	0.325271
707.000000	0.325661
708.000000	0.326074
709.000000	0.326523
710.000000	0.327013
711.000000	0.327491
712.000000	0.327959
713.000000	0.328436
714.000000	0.328911
715.000000	0.329322
716.000000	0.329720
717.000000	0.330173
718.000000	0.330591
719.000000	0.331034
720.000000	0.331555
721.000000	0.332009
722.000000	0.332453
723.000000	0.332960
724.000000	0.333435
725.000000	0.333776
726.000000	0.334096
727.000000	0.334423
728.000000	0.334743
729.000000	0.335088
730.000000	0.335415
731.000000	0.335685
732.000000	0.336006
733.000000	0.336434
734.000000	0.336835
735.000000	0.337144
736.000000	0.337503
737.000000	0.337847
738.000000	0.338117
739.000000	0.338423
740.000000	0.338678
741.000000	0.338994
742.000000	0.339335
743.000000	0.339640
744.000000	0.339912
745.000000	0.340178
746.000000	0.340431
747.000000	0.340566
748.000000	0.340828
749.000000	0.341103
750.000000	0.341275
751.000000	0.341479
752.000000	0.341715
753.000000	0.341936
754.000000	0.342016
755.000000	0.342122
756.000000	0.342305
757.000000	0.342510
758.000000	0.342701
759.000000	0.342884
760.000000	0.343001
761.000000	0.343152
762.000000	0.343284
763.000000	0.343339
764.000000	0.343348
765.000000	0.343381
766.000000	0.343409
767.000000	0.343393
768.000000	0.343397
769.000000	0.343398
770.000000	0.343368
771.000000	0.343233
772.000000	0.343219
773.000000	0.343239
774.000000	0.343223
775.000000	0.343199
776.000000	0.343200
777.000000	0.343207
778.000000	0.343152
779.000000	0.343040
780.000000	0.342888
781.000000	0.342708
782.000000	0.342603
783.000000	0.342626
784.000000	0.342592
785.000000	0.342483
786.000000	0.342370
787.000000	0.342269
788.000000	0.342110
789.000000	0.341952
790.000000	0.341783
791.000000	0.341606
792.000000	0.341396
793.000000	0.341210
794.000000	0.341090
795.000000	0.340960
796.000000	0.340748
797.000000	0.340468
798.000000	0.340236
799.000000	0.340014
800.000000	0.339788
801.000000	0.339550
802.000000	0.339272
803.000000	0.339000
804.000000	0.338794
805.000000	0.338594
806.000000	0.338307
807.000000	0.338037
808.000000	0.337807
809.000000	0.337545
810.000000	0.337227
811.000000	0.336857
812.000000	0.336556
813.000000	0.336236
814.000000	0.335885
815.000000	0.335581
816.000000	0.335302
817.000000	0.335036
818.000000	0.334707
819.000000	0.334502
820.000000	0.334351
821.000000	0.334148
822.000000	0.333917
823.000000	0.333645
824.000000	0.333334
825.000000	0.333112
826.000000	0.332876
827.000000	0.332596
828.000000	0.332310
829.000000	0.332009
830.000000	0.331659
831.000000	0.331322
832.000000	0.330940
833.000000	0.330599
834.000000	0.330326
835.000000	0.330132
836.000000	0.329867
837.000000	0.329569
838.000000	0.329290
839.000000	0.329042
840.000000	0.328768
841.000000	0.328487
842.000000	0.328176
843.000000	0.327820
844.000000	0.327481
845.000000	0.327159
846.000000	0.326865
847.000000	0.326671
848.000000	0.326477
849.000000	0.326195
850.000000	0.325820
851.000000	0.325442
852.000000	0.325139
853.000000	0.324859
854.000000	0.324420
855.000000	0.324041
856.000000	0.323822
857.000000	0.323598
858.000000	0.323324
859.000000	0.322973
860.000000	0.322801
861.000000	0.322555
862.000000	0.322253
863.000000	0.321931
864.000000	0.321667
865.000000	0.321479
866.000000	0.321339
867.000000	0.321056
868.000000	0.320746
869.000000	0.320380
870.000000	0.320008
871.000000	0.319703
872.000000	0.319466
873.000000	0.319223
874.000000	0.319007
875.000000	0.318837
876.000000	0.318623
877.000000	0.318195
878.000000	0.317836
879.000000	0.317513
880.000000	0.317123
881.000000	0.317060
882.000000	0.316779
883.000000	0.316405
884.000000	0.316223
885.000000	0.315968
886.000000	0.315700
887.000000	0.315481
888.000000	0.315232
889.000000	0.315089
890.000000	0.314872
891.000000	0.314551
892.000000	0.314221
893.000000	0.313912
894.000000	0.313718
895.000000	0.313443
896.000000	0.313155
897.000000	0.312917
898.000000	0.312792
899.000000	0.312803
900.000000	0.312753
901.000000	0.312540
902.000000	0.312343
903.000000	0.312139
904.000000	0.311980
905.000000	0.311819
906.000000	0.311765
907.000000	0.311664
908.000000	0.311477
909.000000	0.311118
910.000000	0.310811
911.000000	0.310611
912.000000	0.310516
913.000000	0.310423
914.000000	0.310271
915.000000	0.310102
916.000000	0.309870
917.000000	0.309653
918.000000	0.309474
919.000000	0.309317
920.000000	0.309185
921.000000	0.309107
922.000000	0.309014
923.000000	0.308786
924.000000	0.308620
925.000000	0.308563
926.000000	0.308575
927.000000	0.308368
928.000000	0.308073
929.000000	0.307765
930.000000	0.307523
931.000000	0.307472
932.000000	0.307417
933.000000	0.307339
934.000000	0.307318
935.000000	0.307125
936.000000	0.306929
937.000000	0.306787
938.000000	0.306569
939.000000	0.306457
940.000000	0.306399
941.000000	0.306360
942.000000	0.306209
943.000000	0.306060
944.000000	0.305887
945.000000	0.305795
946.000000	0.305557
947.000000	0.305440
948.000000	0.305610
949.000000	0.305298
950.000000	0.304939
951.000000	0.304730
952.000000	0.304707
953.000000	0.304704
954.000000	0.304624
955.000000	0.304449
956.000000	0.304610
957.000000	0.304687
958.000000	0.304620
959.000000	0.304603
960.000000	0.304451
961.000000	0.304289
962.000000	0.304135
963.000000	0.303932
964.000000	0.303836
965.000000	0.303783
966.000000	0.303655
967.000000	0.303886
968.000000	0.303941
969.000000	0.303672
970.000000	0.303366
971.000000	0.303708
972.000000	0.303984
973.000000	0.303833
974.000000	0.303679
975.000000	0.303633
976.000000	0.303544
977.000000	0.303356
978.000000	0.303536
979.000000	0.303624
980.000000	0.303405
981.000000	0.303296
982.000000	0.303288
983.000000	0.303257
984.000000	0.303239
985.000000	0.303280
986.000000	0.303203
987.000000	0.303318
988.000000	0.303530
989.000000	0.303027
990.000000	0.302724
991.000000	0.302967
992.000000	0.303675
993.000000	0.303722
994.000000	0.303668
995.000000	0.303749
996.000000	0.303586
997.000000	0.304029
998.000000	0.304259
999.000000	0.304115
1000.000000	0.304431
1001.000000	0.304131
1002.000000	0.304092
1003.000000	0.304581
1004.000000	0.304861
1005.000000	0.304572
1006.000000	0.304692
1007.000000	0.305552
1008.000000	0.305313
1009.000000	0.304668
1010.000000	0.304734
1011.000000	0.305036
1012.000000	0.305200
1013.000000	0.305089
1014.000000	0.305060
1015.000000	0.304143
1016.000000	0.304018
1017.000000	0.304756
1018.000000	0.304874
1019.000000	0.305299
1020.000000	0.306294
1021.000000	0.306421
1022.000000	0.306597
1023.000000	0.306812
1024.000000	0.306596
1025.000000	0.306199
1026.000000	0.306344
1027.000000	0.306408
1028.000000	0.306491
1029.000000	0.307044
1030.000000	0.307644
1031.000000	0.308117
1032.000000	0.308629
1033.000000	0.308892
1034.000000	0.309204
1035.000000	0.309319
1036.000000	0.309371
1037.000000	0.309548
1038.000000	0.309586
1039.000000	0.309407
1040.000000	0.309335
1041.000000	0.309662
1042.000000	0.310094
1043.000000	0.311028
1044.000000	0.311791
1045.000000	0.311883
1046.000000	0.311845
1047.000000	0.312504
1048.000000	0.313392
1049.000000	0.313797
1050.000000	0.314770
1051.000000	0.315201
1052.000000	0.314535
1053.000000	0.314392
1054.000000	0.314734
1055.000000	0.315010
1056.000000	0.315065
1057.000000	0.315651
1058.000000	0.316494
1059.000000	0.316893
1060.000000	0.316988
1061.000000	0.317345
1062.000000	0.317596
1063.000000	0.317762
1064.000000	0.318324
1065.000000	0.319440
1066.000000	0.319956
1067.000000	0.320369
1068.000000	0.320739
1069.000000	0.320687
1070.000000	0.320803
1071.000000	0.321093
1072.000000	0.321341
1073.000000	0.321470
1074.000000	0.321950
1075.000000	0.322278
1076.000000	0.322449
1077.000000	0.323106
1078.000000	0.323859
1079.000000	0.324406
1080.000000	0.325294
1081.000000	0.325713
1082.000000	0.325641
1083.000000	0.325961
1084.000000	0.326439
1085.000000	0.326861
1086.000000	0.327233
1087.000000	0.327789
1088.000000	0.328529
1089.000000	0.328912
1090.000000	0.329087
1091.000000	0.329410
1092.000000	0.329708
1093.000000	0.330224
1094.000000	0.330610
1095.000000	0.331215
1096.000000	0.331650
1097.000000	0.331819
1098.000000	0.332115
1099.000000	0.332319
1100.000000	0.332934
1101.000000	0.333812
1102.000000	0.334358
1103.000000	0.335084
1104.000000	0.335643
1105.000000	0.335710
1106.000000	0.336014
1107.000000	0.336337
1108.000000	0.336797
1109.000000	0.337494
1110.000000	0.338131
1111.000000	0.338510
1112.000000	0.338884
1113.000000	0.339232
1114.000000	0.339134
1115.000000	0.339633
1116.000000	0.340753
1117.000000	0.341188
1118.000000	0.341393
1119.000000	0.341725
1120.000000	0.341743
1121.000000	0.341943
1122.000000	0.342511
1123.000000	0.343138
1124.000000	0.343474
1125.000000	0.343890
1126.000000	0.344377
1127.000000	0.344772
1128.000000	0.345112
1129.000000	0.345360
1130.000000	0.345768
1131.000000	0.346321
1132.000000	0.346580
1133.000000	0.346828
1134.000000	0.347095
1135.000000	0.346981
1136.000000	0.347271
1137.000000	0.347908
1138.000000	0.348257
1139.000000	0.348675
1140.000000	0.349168
1141.000000	0.349456
1142.000000	0.349888
1143.000000	0.350578
1144.000000	0.351104
1145.000000	0.351469
1146.000000	0.351512
1147.000000	0.351658
1148.000000	0.351474
1149.000000	0.351627
1150.000000	0.351919
1151.000000	0.352231
1152.000000	0.352594
1153.000000	0.352962
1154.000000	0.353367
1155.000000	0.353650
1156.000000	0.353872
1157.000000	0.354148
1158.000000	0.354322
1159.000000	0.354538
1160.000000	0.354776
1161.000000	0.355036
1162.000000	0.355311
1163.000000	0.355831
1164.000000	0.356185
1165.000000	0.356381
1166.000000	0.356636
1167.000000	0.356709
1168.000000	0.356892
1169.000000	0.357125
1170.000000	0.357508
1171.000000	0.358120
1172.000000	0.358482
1173.000000	0.358810
1174.000000	0.359084
1175.000000	0.359077
1176.000000	0.359210
1177.000000	0.359584
1178.000000	0.359832
1179.000000	0.360045
1180.000000	0.360137
1181.000000	0.360182
1182.000000	0.360223
1183.000000	0.360585
1184.000000	0.360977
1185.000000	0.361219
1186.000000	0.361626
1187.000000	0.361791
1188.000000	0.361605
1189.000000	0.361698
1190.000000	0.361945
1191.000000	0.362142
1192.000000	0.362544
1193.000000	0.362884
1194.000000	0.363037
1195.000000	0.363258
1196.000000	0.363335
1197.000000	0.363532
1198.000000	0.363879
1199.000000	0.364154
1200.000000	0.364419
1201.000000	0.364778
1202.000000	0.364865
1203.000000	0.364993
1204.000000	0.365040
1205.000000	0.365022
1206.000000	0.365187
1207.000000	0.365660
1208.000000	0.365749
1209.000000	0.365831
1210.000000	0.366003
1211.000000	0.365979
1212.000000	0.366080
1213.000000	0.366483
1214.000000	0.366662
1215.000000	0.366690
1216.000000	0.366733
1217.000000	0.366659
1218.000000	0.366693
1219.000000	0.366780
1220.000000	0.366861
1221.000000	0.367056
1222.000000	0.367124
1223.000000	0.367068
1224.000000	0.367106
1225.000000	0.367253
1226.000000	0.367369
1227.000000	0.367486
1228.000000	0.367796
1229.000000	0.367923
1230.000000	0.367910
1231.000000	0.367961
1232.000000	0.368121
1233.000000	0.368299
1234.000000	0.368558
1235.000000	0.368695
1236.000000	0.368656
1237.000000	0.368709
1238.000000	0.368634
1239.000000	0.368612
1240.000000	0.368557
1241.000000	0.368706
1242.000000	0.368858
1243.000000	0.368907
1244.000000	0.369106
1245.000000	0.369374
1246.000000	0.369456
1247.000000	0.369592
1248.000000	0.369689
1249.000000	0.369589
1250.000000	0.369478
1251.000000	0.369577
1252.000000	0.369715
1253.000000	0.370007
1254.000000	0.370144
1255.000000	0.370363
1256.000000	0.370418
1257.000000	0.370310
1258.000000	0.370311
1259.000000	0.370151
1260.000000	0.370229
1261.000000	0.370357
1262.000000	0.370445
1263.000000	0.370674
1264.000000	0.370839
1265.000000	0.370981
1266.000000	0.371127
1267.000000	0.371179
1268.000000	0.371327
1269.000000	0.371282
1270.000000	0.371167
1271.000000	0.371129
1272.000000	0.371119
1273.000000	0.371151
1274.000000	0.371137
1275.000000	0.371207
1276.000000	0.371379
1277.000000	0.371593
1278.000000	0.371847
1279.000000	0.371944
1280.000000	0.371857
1281.000000	0.371816
1282.000000	0.371751
1283.000000	0.371823
1284.000000	0.371983
1285.000000	0.372043
1286.000000	0.372060
1287.000000	0.371960
1288.000000	0.371986
1289.000000	0.372023
1290.000000	0.371913
1291.000000	0.371904
1292.000000	0.371918
1293.000000	0.371806
1294.000000	0.371850
1295.000000	0.371954
1296.000000	0.371851
1297.000000	0.371704
1298.000000	0.371639
1299.000000	0.371529
1300.000000	0.371534
1301.000000	0.371648
1302.000000	0.371528
1303.000000	0.371379
1304.000000	0.371248
1305.000000	0.371057
1306.000000	0.370967
1307.000000	0.371064
1308.000000	0.371120
1309.000000	0.371266
1310.000000	0.371290
1311.000000	0.371282
1312.000000	0.371201
1313.000000	0.371145
1314.000000	0.370908
1315.000000	0.370756
1316.000000	0.370831
1317.000000	0.370804
1318.000000	0.370809
1319.000000	0.370779
1320.000000	0.370651
1321.000000	0.370589
1322.000000	0.370553
1323.000000	0.370522
1324.000000	0.370411
1325.000000	0.370207
1326.000000	0.370095
1327.000000	0.370021
1328.000000	0.370153
1329.000000	0.370129
1330.000000	0.370099
1331.000000	0.370047
1332.000000	0.369992
1333.000000	0.369908
1334.000000	0.369837
1335.000000	0.369896
1336.000000	0.369999
1337.000000	0.370026
1338.000000	0.370044
1339.000000	0.370086
1340.000000	0.370008
1341.000000	0.369984
1342.000000	0.369951
1343.000000	0.369888
1344.000000	0.369771
1345.000000	0.369657
1346.000000	0.369740
1347.000000	0.369612
1348.000000	0.369481
1349.000000	0.369426
1350.000000	0.369296
1351.000000	0.369199
1352.000000	0.369142
1353.000000	0.368920
1354.000000	0.368818
1355.000000	0.368786
1356.000000	0.368784
1357.000000	0.368742
1358.000000	0.368566
1359.000000	0.368303
1360.000000	0.368134
1361.000000	0.368080
1362.000000	0.367948
1363.000000	0.367751
1364.000000	0.367667
1365.000000	0.367536
1366.000000	0.367403
1367.000000	0.367332
1368.000000	0.367281
1369.000000	0.367248
1370.000000	0.367199
1371.000000	0.367059
1372.000000	0.366851
1373.000000	0.366499
1374.000000	0.366089
1375.000000	0.365778
1376.000000	0.365594
1377.000000	0.365328
1378.000000	0.364804
1379.000000	0.364224
1380.000000	0.363674
1381.000000	0.363062
1382.000000	0.362712
1383.000000	0.362415
1384.000000	0.361814
1385.000000	0.361191
1386.000000	0.360590
1387.000000	0.359865
1388.000000	0.358993
1389.000000	0.358128
1390.000000	0.357245
1391.000000	0.356205
1392.000000	0.355365
1393.000000	0.354472
1394.000000	0.353664
1395.000000	0.352737
1396.000000	0.351754
1397.000000	0.350764
1398.000000	0.349668
1399.000000	0.348687
1400.000000	0.347760
1401.000000	0.346732
1402.000000	0.345731
1403.000000	0.344700
1404.000000	0.343727
1405.000000	0.342778
1406.000000	0.341772
1407.000000	0.340950
1408.000000	0.340102
1409.000000	0.339249
1410.000000	0.338651
1411.000000	0.337958
1412.000000	0.337272
1413.000000	0.336830
1414.000000	0.336300
1415.000000	0.335902
1416.000000	0.335622
1417.000000	0.335334
1418.000000	0.335164
1419.000000	0.335201
1420.000000	0.335272
1421.000000	0.335397
1422.000000	0.335501
1423.000000	0.335521
1424.000000	0.335330
1425.000000	0.335084
1426.000000	0.334860
1427.000000	0.334694
1428.000000	0.334490
1429.000000	0.334276
1430.000000	0.334145
1431.000000	0.334003
1432.000000	0.333934
1433.000000	0.333962
1434.000000	0.334154
1435.000000	0.334475
1436.000000	0.334934
1437.000000	0.335551
1438.000000	0.336276
1439.000000	0.337186
1440.000000	0.338159
1441.000000	0.339370
1442.000000	0.340465
1443.000000	0.341462
1444.000000	0.342576
1445.000000	0.343671
1446.000000	0.344727
1447.000000	0.345915
1448.000000	0.346904
1449.000000	0.347715
1450.000000	0.348583
1451.000000	0.349264
1452.000000	0.349838
1453.000000	0.350310
1454.000000	0.350506
1455.000000	0.350725
1456.000000	0.350912
1457.000000	0.351143
1458.000000	0.351441
1459.000000	0.351506
1460.000000	0.351608
1461.000000	0.351684
1462.000000	0.351670
1463.000000	0.351859
1464.000000	0.352079
1465.000000	0.352213
1466.000000	0.352390
1467.000000	0.352624
1468.000000	0.352839
1469.000000	0.353144
1470.000000	0.353430
1471.000000	0.353742
1472.000000	0.354027
1473.000000	0.354390
1474.000000	0.354758
1475.000000	0.355072
1476.000000	0.355425
1477.000000	0.355802
1478.000000	0.356146
1479.000000	0.356441
1480.000000	0.356652
1481.000000	0.356856
1482.000000	0.357095
1483.000000	0.357283
1484.000000	0.357408
1485.000000	0.357557
1486.000000	0.357592
1487.000000	0.357734
1488.000000	0.358009
1489.000000	0.358315
1490.000000	0.358563
1491.000000	0.358797
1492.000000	0.358981
1493.000000	0.359152
1494.000000	0.359153
1495.000000	0.359333
1496.000000	0.359661
1497.000000	0.359934
1498.000000	0.360295
1499.000000	0.360583
1500.000000	0.360857
1501.000000	0.360931
1502.000000	0.360910
1503.000000	0.361100
1504.000000	0.361200
1505.000000	0.361273
1506.000000	0.361572
1507.000000	0.361667
1508.000000	0.361732
1509.000000	0.361939
1510.000000	0.362014
1511.000000	0.362227
1512.000000	0.362383
1513.000000	0.362359
1514.000000	0.362500
1515.000000	0.362597
1516.000000	0.362756
1517.000000	0.363006
1518.000000	0.363118
1519.000000	0.363112
1520.000000	0.363156
1521.000000	0.363218
1522.000000	0.363442
1523.000000	0.363704
1524.000000	0.363814
1525.000000	0.363995
1526.000000	0.364174
1527.000000	0.364293
1528.000000	0.364499
1529.000000	0.364617
1530.000000	0.364572
1531.000000	0.364620
1532.000000	0.364665
1533.000000	0.364776
1534.000000	0.364908
1535.000000	0.364958
1536.000000	0.365059
1537.000000	0.365278
1538.000000	0.365363
1539.000000	0.365337
1540.000000	0.365378
1541.000000	0.365394
1542.000000	0.365479
1543.000000	0.365651
1544.000000	0.365765
1545.000000	0.365842
1546.000000	0.365940
1547.000000	0.366111
1548.000000	0.366392
1549.000000	0.366664
1550.000000	0.366709
1551.000000	0.366747
1552.000000	0.366833
1553.000000	0.366782
1554.000000	0.366903
1555.000000	0.367119
1556.000000	0.367143
1557.000000	0.367225
1558.000000	0.367330
1559.000000	0.367334
1560.000000	0.367410
1561.000000	0.367617
1562.000000	0.367681
1563.000000	0.367761
1564.000000	0.367859
1565.000000	0.367906
1566.000000	0.367875
1567.000000	0.367975
1568.000000	0.367936
1569.000000	0.367829
1570.000000	0.367846
1571.000000	0.367847
1572.000000	0.367831
1573.000000	0.367931
1574.000000	0.367886
1575.000000	0.367730
1576.000000	0.367747
1577.000000	0.367752
1578.000000	0.367739
1579.000000	0.367919
1580.000000	0.367910
1581.000000	0.367832
1582.000000	0.367865
1583.000000	0.367873
1584.000000	0.367882
1585.000000	0.368086
1586.000000	0.368155
1587.000000	0.368119
1588.000000	0.368109
1589.000000	0.368004
1590.000000	0.368111
1591.000000	0.368442
1592.000000	0.368582
1593.000000	0.368803
1594.000000	0.368938
1595.000000	0.368947
1596.000000	0.369004
1597.000000	0.369168
1598.000000	0.369183
1599.000000	0.369107
1600.000000	0.369084
1601.000000	0.369139
1602.000000	0.369166
1603.000000	0.369269
1604.000000	0.369209
1605.000000	0.369122
1606.000000	0.369020
1607.000000	0.368807
1608.000000	0.368744
1609.000000	0.368831
1610.000000	0.368757
1611.000000	0.368762
1612.000000	0.368670
1613.000000	0.368528
1614.000000	0.368407
1615.000000	0.368366
1616.000000	0.368314
1617.000000	0.368178
1618.000000	0.368080
1619.000000	0.367966
1620.000000	0.367849
1621.000000	0.367730
1622.000000	0.367796
1623.000000	0.367939
1624.000000	0.368013
1625.000000	0.368001
1626.000000	0.367967
1627.000000	0.367915
1628.000000	0.367866
1629.000000	0.367820
1630.000000	0.367829
1631.000000	0.367702
1632.000000	0.367637
1633.000000	0.367745
1634.000000	0.367690
1635.000000	0.367540
1636.000000	0.367480
1637.000000	0.367416
1638.000000	0.367374
1639.000000	0.367526
1640.000000	0.367495
1641.000000	0.367397
1642.000000	0.367357
1643.000000	0.367354
1644.000000	0.367302
1645.000000	0.367267
1646.000000	0.367149
1647.000000	0.366933
1648.000000	0.366826
1649.000000	0.366879
1650.000000	0.366941
1651.000000	0.367074
1652.000000	0.367207
1653.000000	0.367349
1654.000000	0.367413
1655.000000	0.367318
1656.000000	0.367334
1657.000000	0.367459
1658.000000	0.367504
1659.000000	0.367808
1660.000000	0.367922
1661.000000	0.367738
1662.000000	0.367689
1663.000000	0.367614
1664.000000	0.367542
1665.000000	0.367490
1666.000000	0.367494
1667.000000	0.367394
1668.000000	0.367333
1669.000000	0.367312
1670.000000	0.367137
1671.000000	0.366941
1672.000000	0.367056
1673.000000	0.367259
1674.000000	0.367394
1675.000000	0.367533
1676.000000	0.367407
1677.000000	0.367196
1678.000000	0.367286
1679.000000	0.367513
1680.000000	0.367714
1681.000000	0.367773
1682.000000	0.367688
1683.000000	0.367744
1684.000000	0.367748
1685.000000	0.367816
1686.000000	0.367934
1687.000000	0.367959
1688.000000	0.367980
1689.000000	0.368006
1690.000000	0.368003
1691.000000	0.368031
1692.000000	0.367900
1693.000000	0.367827
1694.000000	0.367799
1695.000000	0.367709
1696.000000	0.367803
1697.000000	0.367763
1698.000000	0.367738
1699.000000	0.367735
1700.000000	0.367668
1701.000000	0.367682
1702.000000	0.367503
1703.000000	0.367381
1704.000000	0.367431
1705.000000	0.367392
1706.000000	0.367380
1707.000000	0.367386
1708.000000	0.367248
1709.000000	0.367189
1710.000000	0.367474
1711.000000	0.367485
1712.000000	0.367332
1713.000000	0.367296
1714.000000	0.367214
1715.000000	0.367149
1716.000000	0.367239
1717.000000	0.367246
1718.000000	0.367086
1719.000000	0.367006
1720.000000	0.367061
1721.000000	0.367041
1722.000000	0.367030
1723.000000	0.366965
1724.000000	0.366867
1725.000000	0.366829
1726.000000	0.366684
1727.000000	0.366558
1728.000000	0.366391
1729.000000	0.366200
1730.000000	0.366112
1731.000000	0.366023
1732.000000	0.366026
1733.000000	0.365947
1734.000000	0.365641
1735.000000	0.365469
1736.000000	0.365182
1737.000000	0.365153
1738.000000	0.365383
1739.000000	0.365349
1740.000000	0.365278
1741.000000	0.365296
1742.000000	0.365222
1743.000000	0.365277
1744.000000	0.365531
1745.000000	0.365520
1746.000000	0.365344
1747.000000	0.365245
1748.000000	0.365101
1749.000000	0.364904
1750.000000	0.364762
1751.000000	0.364815
1752.000000	0.364917
1753.000000	0.365043
1754.000000	0.364993
1755.000000	0.364709
1756.000000	0.364507
1757.000000	0.364120
1758.000000	0.363982
1759.000000	0.364073
1760.000000	0.364073
1761.000000	0.364074
1762.000000	0.364109
1763.000000	0.364278
1764.000000	0.364198
1765.000000	0.363934
1766.000000	0.363824
1767.000000	0.363458
1768.000000	0.363229
1769.000000	0.363344
1770.000000	0.363346
1771.000000	0.363215
1772.000000	0.363150
1773.000000	0.363062
1774.000000	0.363034
1775.000000	0.363096
1776.000000	0.363131
1777.000000	0.363151
1778.000000	0.363215
1779.000000	0.363248
1780.000000	0.363375
1781.000000	0.363645
1782.000000	0.363607
1783.000000	0.363481
1784.000000	0.363432
1785.000000	0.363236
1786.000000	0.363159
1787.000000	0.363334
1788.000000	0.363485
1789.000000	0.363571
1790.000000	0.363684
1791.000000	0.363653
1792.000000	0.363439
1793.000000	0.363348
1794.000000	0.363384
1795.000000	0.363362
1796.000000	0.363366
1797.000000	0.363283
1798.000000	0.363034
1799.000000	0.362878
1800.000000	0.362732
1801.000000	0.363029
1802.000000	0.362967
1803.000000	0.362648
1804.000000	0.362896
1805.000000	0.364583
1806.000000	0.364760
1807.000000	0.363884
1808.000000	0.363882
1809.000000	0.363938
1810.000000	0.363485
1811.000000	0.363512
1812.000000	0.364268
1813.000000	0.364604
1814.000000	0.364964
1815.000000	0.364904
1816.000000	0.364707
1817.000000	0.364468
1818.000000	0.363938
1819.000000	0.363296
1820.000000	0.363532
1821.000000	0.362994
1822.000000	0.362546
1823.000000	0.361609
1824.000000	0.361325
1825.000000	0.360851
1826.000000	0.361010
1827.000000	0.361980
1828.000000	0.362415
1829.000000	0.362391
1830.000000	0.363025
1831.000000	0.363121
1832.000000	0.362875
1833.000000	0.362442
1834.000000	0.361626
1835.000000	0.361229
1836.000000	0.360581
1837.000000	0.360057
1838.000000	0.359232
1839.000000	0.359502
1840.000000	0.359969
1841.000000	0.359894
1842.000000	0.359936
1843.000000	0.360247
1844.000000	0.360518
1845.000000	0.360221
1846.000000	0.360487
1847.000000	0.361427
1848.000000	0.361829
1849.000000	0.361399
1850.000000	0.361286
1851.000000	0.361217
1852.000000	0.360844
1853.000000	0.360692
1854.000000	0.360669
1855.000000	0.360423
1856.000000	0.360068
1857.000000	0.359149
1858.000000	0.358842
1859.000000	0.359219
1860.000000	0.358647
1861.000000	0.358062
1862.000000	0.357496
1863.000000	0.356402
1864.000000	0.355731
1865.000000	0.355389
1866.000000	0.355251
1867.000000	0.355550
1868.000000	0.355132
1869.000000	0.354503
1870.000000	0.354383
1871.000000	0.353886
1872.000000	0.352965
1873.000000	0.351867
1874.000000	0.350513
1875.000000	0.349276
1876.000000	0.347484
1877.000000	0.345540
1878.000000	0.344158
1879.000000	0.342581
1880.000000	0.340607
1881.000000	0.338521
1882.000000	0.336120
1883.000000	0.334017
1884.000000	0.332024
1885.000000	0.329944
1886.000000	0.327807
1887.000000	0.326044
1888.000000	0.323450
1889.000000	0.320792
1890.000000	0.317788
1891.000000	0.314453
1892.000000	0.310555
1893.000000	0.305562
1894.000000	0.301350
1895.000000	0.297527
1896.000000	0.293979
1897.000000	0.290840
1898.000000	0.288523
1899.000000	0.285547
1900.000000	0.282135
1901.000000	0.279120
1902.000000	0.276434
1903.000000	0.274656
1904.000000	0.273740
1905.000000	0.272825
1906.000000	0.271504
1907.000000	0.270120
1908.000000	0.268573
1909.000000	0.267415
1910.000000	0.266447
1911.000000	0.266499
1912.000000	0.267383
1913.000000	0.267775
1914.000000	0.268852
1915.000000	0.270008
1916.000000	0.271225
1917.000000	0.272413
1918.000000	0.274167
1919.000000	0.275182
1920.000000	0.275562
1921.000000	0.276014
1922.000000	0.276609
1923.000000	0.277460
1924.000000	0.278568
1925.000000	0.279447
1926.000000	0.280291
1927.000000	0.281321
1928.000000	0.282013
1929.000000	0.282779
1930.000000	0.283489
1931.000000	0.283841
1932.000000	0.284191
1933.000000	0.285130
1934.000000	0.285800
1935.000000	0.286679
1936.000000	0.287750
1937.000000	0.288123
1938.000000	0.288911
1939.000000	0.289578
1940.000000	0.290208
1941.000000	0.290308
1942.000000	0.290936
1943.000000	0.291490
1944.000000	0.291943
1945.000000	0.292586
1946.000000	0.293419
1947.000000	0.294034
1948.000000	0.294121
1949.000000	0.294701
1950.000000	0.295129
1951.000000	0.295356
1952.000000	0.295583
1953.000000	0.296006
1954.000000	0.295829
1955.000000	0.296185
1956.000000	0.296887
1957.000000	0.298079
1958.000000	0.299476
1959.000000	0.300254
1960.000000	0.300674
1961.000000	0.300781
1962.000000	0.301008
1963.000000	0.301267
1964.000000	0.301476
1965.000000	0.301793
1966.000000	0.302246
1967.000000	0.302545
1968.000000	0.303342
1969.000000	0.303981
1970.000000	0.304641
1971.000000	0.305039
1972.000000	0.304801
1973.000000	0.304899
1974.000000	0.305088
1975.000000	0.305200
1976.000000	0.305081
1977.000000	0.306165
1978.000000	0.307095
1979.000000	0.307649
1980.000000	0.309144
1981.000000	0.310157
1982.000000	0.310514
1983.000000	0.311430
1984.000000	0.311863
1985.000000	0.311949
1986.000000	0.312141
1987.000000	0.312229
1988.000000	0.312391
1989.000000	0.312903
1990.000000	0.312898
1991.000000	0.313263
1992.000000	0.313668
1993.000000	0.314212
1994.000000	0.315470
1995.000000	0.316578
1996.000000	0.317326
1997.000000	0.317917
1998.000000	0.318220
1999.000000	0.318560
2000.000000	0.318652
2001.000000	0.319110
2002.000000	0.319310
2003.000000	0.319676
2004.000000	0.320019
2005.000000	0.319918
2006.000000	0.320427
2007.000000	0.320497
2008.000000	0.320792
2009.000000	0.321141
2010.000000	0.321844
2011.000000	0.322697
2012.000000	0.323456
2013.000000	0.324361
2014.000000	0.325076
2015.000000	0.326013
2016.000000	0.326070
2017.000000	0.326007
2018.000000	0.326244
2019.000000	0.325718
2020.000000	0.325660
2021.000000	0.325870
2022.000000	0.326226
2023.000000	0.326677
2024.000000	0.327744
2025.000000	0.328391
2026.000000	0.328752
2027.000000	0.329236
2028.000000	0.329781
2029.000000	0.329898
2030.000000	0.330350
2031.000000	0.331253
2032.000000	0.331671
2033.000000	0.332068
2034.000000	0.332424
2035.000000	0.332700
2036.000000	0.332838
2037.000000	0.333216
2038.000000	0.333359
2039.000000	0.333337
2040.000000	0.333362
2041.000000	0.333576
2042.000000	0.334146
2043.000000	0.334486
2044.000000	0.335019
2045.000000	0.335520
2046.000000	0.335510
2047.000000	0.335838
2048.000000	0.336404
2049.000000	0.336912
2050.000000	0.337026
2051.000000	0.337191
2052.000000	0.337248
2053.000000	0.337188
2054.000000	0.337263
2055.000000	0.337431
2056.000000	0.337472
2057.000000	0.337701
2058.000000	0.337845
2059.000000	0.338052
2060.000000	0.338081
2061.000000	0.338032
2062.000000	0.337975
2063.000000	0.337981
2064.000000	0.337525
2065.000000	0.337024
2066.000000	0.336693
2067.000000	0.336398
2068.000000	0.336166
2069.000000	0.336648
2070.000000	0.337190
2071.000000	0.337286
2072.000000	0.337500
2073.000000	0.337720
2074.000000	0.337404
2075.000000	0.337737
2076.000000	0.338656
2077.000000	0.339046
2078.000000	0.339427
2079.000000	0.339830
2080.000000	0.340260
2081.000000	0.340304
2082.000000	0.340139
2083.000000	0.340182
2084.000000	0.339880
2085.000000	0.339432
2086.000000	0.340231
2087.000000	0.340836
2088.000000	0.341193
2089.000000	0.341785
2090.000000	0.341765
2091.000000	0.340940
2092.000000	0.340819
2093.000000	0.340809
2094.000000	0.340694
2095.000000	0.341027
2096.000000	0.341004
2097.000000	0.340474
2098.000000	0.340041
2099.000000	0.340173
2100.000000	0.340489
2101.000000	0.341337
2102.000000	0.342305
2103.000000	0.342310
2104.000000	0.341824
2105.000000	0.341518
2106.000000	0.340433
2107.000000	0.340355
2108.000000	0.340825
2109.000000	0.341266
2110.000000	0.342374
2111.000000	0.342605
2112.000000	0.342290
2113.000000	0.341808
2114.000000	0.341409
2115.000000	0.340929
2116.000000	0.340975
2117.000000	0.341111
2118.000000	0.341213
2119.000000	0.341363
2120.000000	0.341712
2121.000000	0.342407
2122.000000	0.342777
2123.000000	0.343363
2124.000000	0.343523
2125.000000	0.342724
2126.000000	0.342917
2127.000000	0.343588
2128.000000	0.343941
2129.000000	0.344465
2130.000000	0.345699
2131.000000	0.344750
2132.000000	0.344340
2133.000000	0.344519
2134.000000	0.343790
2135.000000	0.343239
2136.000000	0.343225
2137.000000	0.343098
2138.000000	0.342553
2139.000000	0.342636
2140.000000	0.343669
2141.000000	0.343596
2142.000000	0.342882
2143.000000	0.342249
2144.000000	0.341217
2145.000000	0.341012
2146.000000	0.341019
2147.000000	0.342288
2148.000000	0.343737
2149.000000	0.343873
2150.000000	0.343662
2151.000000	0.342913
2152.000000	0.341611
2153.000000	0.340262
2154.000000	0.339055
2155.000000	0.337751
2156.000000	0.336871
2157.000000	0.335951
2158.000000	0.335807
2159.000000	0.336623
2160.000000	0.336977
2161.000000	0.337769
2162.000000	0.338107
2163.000000	0.337747
2164.000000	0.337918
2165.000000	0.338442
2166.000000	0.338685
2167.000000	0.338509
2168.000000	0.337822
2169.000000	0.337160
2170.000000	0.336583
2171.000000	0.336325
2172.000000	0.336926
2173.000000	0.336717
2174.000000	0.335697
2175.000000	0.335738
2176.000000	0.336235
2177.000000	0.336452
2178.000000	0.337441
2179.000000	0.338136
2180.000000	0.338482
2181.000000	0.338991
2182.000000	0.339362
2183.000000	0.338787
2184.000000	0.338016
2185.000000	0.337141
2186.000000	0.336403
2187.000000	0.335704
2188.000000	0.335426
2189.000000	0.334188
2190.000000	0.333421
2191.000000	0.334708
2192.000000	0.335016
2193.000000	0.335808
2194.000000	0.335919
2195.000000	0.335086
2196.000000	0.335251
2197.000000	0.336329
2198.000000	0.336537
2199.000000	0.337389
2200.000000	0.336831
2201.000000	0.334088
2202.000000	0.332281
2203.000000	0.329176
2204.000000	0.328062
2205.000000	0.327316
2206.000000	0.326385
2207.000000	0.328373
2208.000000	0.328682
2209.000000	0.327748
2210.000000	0.327972
2211.000000	0.327164
2212.000000	0.327379
2213.000000	0.327805
2214.000000	0.329637
2215.000000	0.330375
2216.000000	0.330241
2217.000000	0.331405
2218.000000	0.333241
2219.000000	0.334542
2220.000000	0.336744
2221.000000	0.337710
2222.000000	0.338534
2223.000000	0.338490
2224.000000	0.337483
2225.000000	0.336432
2226.000000	0.334588
2227.000000	0.329493
2228.000000	0.326273
2229.000000	0.324284
2230.000000	0.324219
2231.000000	0.326696
2232.000000	0.330091
2233.000000	0.332202
2234.000000	0.332767
2235.000000	0.332700
2236.000000	0.332515
2237.000000	0.331744
2238.000000	0.331106
2239.000000	0.329184
2240.000000	0.329538
2241.000000	0.331088
2242.000000	0.331363
2243.000000	0.333416
2244.000000	0.333604
2245.000000	0.331568
2246.000000	0.330809
2247.000000	0.329443
2248.000000	0.328964
2249.000000	0.330008
2250.000000	0.329160
2251.000000	0.328555
2252.000000	0.328839
2253.000000	0.327154
2254.000000	0.325172
2255.000000	0.324700
2256.000000	0.324376
2257.000000	0.325875
2258.000000	0.327594
2259.000000	0.328481
2260.000000	0.328913
2261.000000	0.327353
2262.000000	0.323641
2263.000000	0.322046
2264.000000	0.319460
2265.000000	0.317921
2266.000000	0.317963
2267.000000	0.317259
2268.000000	0.316881
2269.000000	0.315085
2270.000000	0.312689
2271.000000	0.310757
2272.000000	0.307187
2273.000000	0.305690
2274.000000	0.306523
2275.000000	0.305787
2276.000000	0.305710
2277.000000	0.303165
2278.000000	0.300877
2279.000000	0.295793
2280.000000	0.290936
2281.000000	0.288136
2282.000000	0.285397
2283.000000	0.287446
2284.000000	0.289544
2285.000000	0.290621
2286.000000	0.291975
2287.000000	0.290552
2288.000000	0.289550
2289.000000	0.290593
2290.000000	0.291466
2291.000000	0.293470
2292.000000	0.295538
2293.000000	0.295499
2294.000000	0.296005
2295.000000	0.295800
2296.000000	0.296698
2297.000000	0.297826
2298.000000	0.299805
2299.000000	0.303248
2300.000000	0.305059
2301.000000	0.306075
2302.000000	0.307943
2303.000000	0.309520
2304.000000	0.311475
2305.000000	0.316752
2306.000000	0.317650
2307.000000	0.315533
2308.000000	0.313867
2309.000000	0.311305
2310.000000	0.306680
2311.000000	0.307729
2312.000000	0.307566
2313.000000	0.308026
2314.000000	0.311054
2315.000000	0.310125
2316.000000	0.310889
2317.000000	0.310896
2318.000000	0.307521
2319.000000	0.307320
2320.000000	0.307099
2321.000000	0.308485
2322.000000	0.312285
2323.000000	0.314668
2324.000000	0.318954
2325.000000	0.321645
2326.000000	0.321356
2327.000000	0.321048
2328.000000	0.318824
2329.000000	0.317747
2330.000000	0.316402
2331.000000	0.314199
2332.000000	0.313639
2333.000000	0.310683
2334.000000	0.309080
2335.000000	0.307761
2336.000000	0.305396
2337.000000	0.304988
2338.000000	0.306281
2339.000000	0.305919
2340.000000	0.307357
2341.000000	0.306095
2342.000000	0.300258
2343.000000	0.299669
2344.000000	0.299900
2345.000000	0.301716
2346.000000	0.309912
2347.000000	0.311993
2348.000000	0.311267
2349.000000	0.312661
2350.000000	0.309169
2351.000000	0.306700
2352.000000	0.306726
2353.000000	0.303232
2354.000000	0.301242
2355.000000	0.301935
2356.000000	0.303296
2357.000000	0.302844
2358.000000	0.300938
2359.000000	0.299306
2360.000000	0.296176
2361.000000	0.296014
2362.000000	0.297249
2363.000000	0.296347
2364.000000	0.297126
2365.000000	0.300466
2366.000000	0.303963
2367.000000	0.306920
2368.000000	0.307881
2369.000000	0.304396
2370.000000	0.300609
2371.000000	0.297323
2372.000000	0.295314
2373.000000	0.294337
2374.000000	0.293848
2375.000000	0.294462
2376.000000	0.293856
2377.000000	0.295591
2378.000000	0.293662
2379.000000	0.289826
2380.000000	0.288339
2381.000000	0.284747
2382.000000	0.280787
2383.000000	0.280569
2384.000000	0.281818
2385.000000	0.279486
2386.000000	0.279270
2387.000000	0.276024
2388.000000	0.267908
2389.000000	0.264232
2390.000000	0.262827
2391.000000	0.263149
2392.000000	0.267197
2393.000000	0.272071
2394.000000	0.278673
2395.000000	0.287346
2396.000000	0.289926
2397.000000	0.290176
2398.000000	0.289377
2399.000000	0.280570
2400.000000	0.278294
2401.000000	0.275529
2402.000000	0.268647
2403.000000	0.268465
2404.000000	0.263548
2405.000000	0.265424
2406.000000	0.269000
2407.000000	0.264131
2408.000000	0.266043
2409.000000	0.264590
2410.000000	0.256094
2411.000000	0.254087
2412.000000	0.250288
2413.000000	0.241363
2414.000000	0.241262
2415.000000	0.243893
2416.000000	0.244207
2417.000000	0.246745
2418.000000	0.246375
2419.000000	0.248877
2420.000000	0.258758
2421.000000	0.257592
2422.000000	0.253534
2423.000000	0.256120
2424.000000	0.247396
2425.000000	0.243631
2426.000000	0.247610
2427.000000	0.243705
2428.000000	0.244739
2429.000000	0.258363
2430.000000	0.269250
2431.000000	0.278389
2432.000000	0.286871
2433.000000	0.277024
2434.000000	0.268098
2435.000000	0.273495
2436.000000	0.272496
2437.000000	0.273744
2438.000000	0.283264
2439.000000	0.270815
2440.000000	0.259295
2441.000000	0.259987
2442.000000	0.256484
2443.000000	0.256911
2444.000000	0.255030
2445.000000	0.251526
2446.000000	0.239074
2447.000000	0.228340
2448.000000	0.220525
2449.000000	0.212593
2450.000000	0.221862
2451.000000	0.234353
2452.000000	0.250550
2453.000000	0.256153
2454.000000	0.254334
2455.000000	0.270731
2456.000000	0.271633
2457.000000	0.280477
2458.000000	0.298025
2459.000000	0.274934
2460.000000	0.263164
2461.000000	0.257831
2462.000000	0.242485
2463.000000	0.236241
2464.000000	0.224312
2465.000000	0.234226
2466.000000	0.246494
2467.000000	0.249776
2468.000000	0.265196
2469.000000	0.265710
2470.000000	0.256944
2471.000000	0.247559
2472.000000	0.242683
2473.000000	0.219517
2474.000000	0.180930
2475.000000	0.171576
2476.000000	0.152610
2477.000000	0.146999
2478.000000	0.164471
2479.000000	0.159764
2480.000000	0.181483
2481.000000	0.217594
2482.000000	0.227846
2483.000000	0.225235
2484.000000	0.208035
2485.000000	0.214029
2486.000000	0.211985
2487.000000	0.213522
2488.000000	0.272883
2489.000000	0.283246
2490.000000	0.249759
2491.000000	0.275945
2492.000000	0.271544
2493.000000	0.267511
2494.000000	0.254094
2495.000000	0.188340
2496.000000	0.151206
2497.000000	0.116873
2498.000000	0.091961
2499.000000	0.084219
2500.000000	0.112330
