# Wavelength	NAu-2-50_HEX-40_FV7-10_00000.asd.rts.txt
350.000000	0.131928
351.000000	0.108752
352.000000	0.118586
353.000000	0.135691
354.000000	0.141867
355.000000	0.131611
356.000000	0.114869
357.000000	0.106468
358.000000	0.125594
359.000000	0.129419
360.000000	0.122954
361.000000	0.120539
362.000000	0.116877
363.000000	0.115193
364.000000	0.117187
365.000000	0.121765
366.000000	0.124758
367.000000	0.124170
368.000000	0.119841
369.000000	0.118378
370.000000	0.120711
371.000000	0.124887
372.000000	0.122806
373.000000	0.117907
374.000000	0.114660
375.000000	0.116130
376.000000	0.118692
377.000000	0.119426
378.000000	0.115752
379.000000	0.112598
380.000000	0.110916
381.000000	0.110845
382.000000	0.114183
383.000000	0.117329
384.000000	0.118250
385.000000	0.120309
386.000000	0.118737
387.000000	0.114783
388.000000	0.116396
389.000000	0.115943
390.000000	0.114604
391.000000	0.115952
392.000000	0.116904
393.000000	0.116617
394.000000	0.115359
395.000000	0.115507
396.000000	0.117404
397.000000	0.119548
398.000000	0.117588
399.000000	0.116632
400.000000	0.116716
401.000000	0.115893
402.000000	0.116136
403.000000	0.116811
404.000000	0.117032
405.000000	0.116127
406.000000	0.116541
407.000000	0.118275
408.000000	0.116892
409.000000	0.115941
410.000000	0.116399
411.000000	0.117902
412.000000	0.118007
413.000000	0.117745
414.000000	0.118567
415.000000	0.119207
416.000000	0.119108
417.000000	0.118470
418.000000	0.119022
419.000000	0.119596
420.000000	0.119908
421.000000	0.120358
422.000000	0.120428
423.000000	0.120481
424.000000	0.121130
425.000000	0.122164
426.000000	0.122832
427.000000	0.122771
428.000000	0.122863
429.000000	0.123323
430.000000	0.123974
431.000000	0.124083
432.000000	0.124220
433.000000	0.124395
434.000000	0.124463
435.000000	0.124824
436.000000	0.125102
437.000000	0.125026
438.000000	0.125584
439.000000	0.126086
440.000000	0.126245
441.000000	0.126477
442.000000	0.126710
443.000000	0.126974
444.000000	0.127436
445.000000	0.127564
446.000000	0.127830
447.000000	0.128690
448.000000	0.129018
449.000000	0.129089
450.000000	0.129345
451.000000	0.130340
452.000000	0.131158
453.000000	0.131476
454.000000	0.131686
455.000000	0.131950
456.000000	0.132464
457.000000	0.133253
458.000000	0.133417
459.000000	0.133605
460.000000	0.134372
461.000000	0.134581
462.000000	0.134720
463.000000	0.135006
464.000000	0.135411
465.000000	0.135632
466.000000	0.135819
467.000000	0.136501
468.000000	0.136993
469.000000	0.137367
470.000000	0.137903
471.000000	0.138107
472.000000	0.138265
473.000000	0.138585
474.000000	0.138836
475.000000	0.139144
476.000000	0.139568
477.000000	0.139910
478.000000	0.140279
479.000000	0.140724
480.000000	0.141080
481.000000	0.141281
482.000000	0.141560
483.000000	0.141987
484.000000	0.142493
485.000000	0.142706
486.000000	0.142703
487.000000	0.143085
488.000000	0.143356
489.000000	0.143466
490.000000	0.143617
491.000000	0.143703
492.000000	0.143826
493.000000	0.144033
494.000000	0.144222
495.000000	0.144305
496.000000	0.144265
497.000000	0.144348
498.000000	0.144499
499.000000	0.144691
500.000000	0.144823
501.000000	0.144933
502.000000	0.145042
503.000000	0.145125
504.000000	0.145258
505.000000	0.145454
506.000000	0.145698
507.000000	0.145900
508.000000	0.146177
509.000000	0.146560
510.000000	0.146973
511.000000	0.147395
512.000000	0.147766
513.000000	0.147957
514.000000	0.148252
515.000000	0.148694
516.000000	0.149199
517.000000	0.149716
518.000000	0.150129
519.000000	0.150382
520.000000	0.150828
521.000000	0.151362
522.000000	0.151941
523.000000	0.152620
524.000000	0.153196
525.000000	0.153800
526.000000	0.154767
527.000000	0.155778
528.000000	0.156830
529.000000	0.158010
530.000000	0.159229
531.000000	0.160560
532.000000	0.161978
533.000000	0.163401
534.000000	0.164821
535.000000	0.166275
536.000000	0.167895
537.000000	0.169425
538.000000	0.170844
539.000000	0.172214
540.000000	0.173561
541.000000	0.174849
542.000000	0.176064
543.000000	0.177197
544.000000	0.178373
545.000000	0.179589
546.000000	0.180750
547.000000	0.181971
548.000000	0.183288
549.000000	0.184623
550.000000	0.186057
551.000000	0.187613
552.000000	0.189249
553.000000	0.190911
554.000000	0.192674
555.000000	0.194590
556.000000	0.196597
557.000000	0.198597
558.000000	0.200670
559.000000	0.202880
560.000000	0.205075
561.000000	0.207250
562.000000	0.209357
563.000000	0.211403
564.000000	0.213392
565.000000	0.215261
566.000000	0.217166
567.000000	0.218937
568.000000	0.220486
569.000000	0.222021
570.000000	0.223423
571.000000	0.224669
572.000000	0.225838
573.000000	0.226847
574.000000	0.227737
575.000000	0.228610
576.000000	0.229239
577.000000	0.229764
578.000000	0.230335
579.000000	0.230711
580.000000	0.230972
581.000000	0.231172
582.000000	0.231325
583.000000	0.231406
584.000000	0.231408
585.000000	0.231332
586.000000	0.231137
587.000000	0.230911
588.000000	0.230724
589.000000	0.230331
590.000000	0.229867
591.000000	0.229428
592.000000	0.228947
593.000000	0.228359
594.000000	0.227692
595.000000	0.227091
596.000000	0.226371
597.000000	0.225622
598.000000	0.224939
599.000000	0.224122
600.000000	0.223273
601.000000	0.222452
602.000000	0.221702
603.000000	0.220879
604.000000	0.219977
605.000000	0.219221
606.000000	0.218400
607.000000	0.217536
608.000000	0.216786
609.000000	0.216014
610.000000	0.215210
611.000000	0.214410
612.000000	0.213738
613.000000	0.213030
614.000000	0.212242
615.000000	0.211587
616.000000	0.210922
617.000000	0.210204
618.000000	0.209548
619.000000	0.208957
620.000000	0.208378
621.000000	0.207783
622.000000	0.207174
623.000000	0.206603
624.000000	0.206097
625.000000	0.205575
626.000000	0.205024
627.000000	0.204485
628.000000	0.204078
629.000000	0.203723
630.000000	0.203346
631.000000	0.203058
632.000000	0.202757
633.000000	0.202464
634.000000	0.202203
635.000000	0.201937
636.000000	0.201718
637.000000	0.201540
638.000000	0.201303
639.000000	0.201162
640.000000	0.201154
641.000000	0.201103
642.000000	0.201044
643.000000	0.200991
644.000000	0.200960
645.000000	0.200931
646.000000	0.200959
647.000000	0.201054
648.000000	0.201145
649.000000	0.201318
650.000000	0.201575
651.000000	0.201867
652.000000	0.202101
653.000000	0.202332
654.000000	0.202634
655.000000	0.203021
656.000000	0.203439
657.000000	0.203814
658.000000	0.204247
659.000000	0.204756
660.000000	0.205312
661.000000	0.205842
662.000000	0.206397
663.000000	0.207025
664.000000	0.207709
665.000000	0.208440
666.000000	0.209169
667.000000	0.209851
668.000000	0.210664
669.000000	0.211536
670.000000	0.212423
671.000000	0.213372
672.000000	0.214337
673.000000	0.215307
674.000000	0.216311
675.000000	0.217389
676.000000	0.218514
677.000000	0.219657
678.000000	0.220832
679.000000	0.222075
680.000000	0.223405
681.000000	0.224783
682.000000	0.226180
683.000000	0.227543
684.000000	0.228961
685.000000	0.230444
686.000000	0.231999
687.000000	0.233586
688.000000	0.235208
689.000000	0.236890
690.000000	0.238670
691.000000	0.240486
692.000000	0.242333
693.000000	0.244253
694.000000	0.246198
695.000000	0.248157
696.000000	0.250170
697.000000	0.252288
698.000000	0.254380
699.000000	0.256511
700.000000	0.258739
701.000000	0.260968
702.000000	0.263215
703.000000	0.265492
704.000000	0.267858
705.000000	0.270259
706.000000	0.272694
707.000000	0.275255
708.000000	0.277792
709.000000	0.280323
710.000000	0.282900
711.000000	0.285524
712.000000	0.288208
713.000000	0.290954
714.000000	0.293688
715.000000	0.296443
716.000000	0.299241
717.000000	0.302083
718.000000	0.304934
719.000000	0.307811
720.000000	0.310738
721.000000	0.313653
722.000000	0.316516
723.000000	0.319390
724.000000	0.322313
725.000000	0.325189
726.000000	0.328060
727.000000	0.330861
728.000000	0.333694
729.000000	0.336600
730.000000	0.339520
731.000000	0.342400
732.000000	0.345267
733.000000	0.348170
734.000000	0.351062
735.000000	0.353904
736.000000	0.356801
737.000000	0.359614
738.000000	0.362312
739.000000	0.365033
740.000000	0.367675
741.000000	0.370274
742.000000	0.372921
743.000000	0.375557
744.000000	0.378065
745.000000	0.380514
746.000000	0.382959
747.000000	0.385330
748.000000	0.387653
749.000000	0.389931
750.000000	0.392122
751.000000	0.394241
752.000000	0.396304
753.000000	0.398348
754.000000	0.400400
755.000000	0.402392
756.000000	0.404325
757.000000	0.406162
758.000000	0.407988
759.000000	0.409771
760.000000	0.411416
761.000000	0.413075
762.000000	0.414678
763.000000	0.416211
764.000000	0.417792
765.000000	0.419282
766.000000	0.420673
767.000000	0.421982
768.000000	0.423236
769.000000	0.424449
770.000000	0.425637
771.000000	0.426807
772.000000	0.427984
773.000000	0.429027
774.000000	0.429931
775.000000	0.430842
776.000000	0.431755
777.000000	0.432618
778.000000	0.433414
779.000000	0.434178
780.000000	0.434902
781.000000	0.435509
782.000000	0.436092
783.000000	0.436741
784.000000	0.437300
785.000000	0.437947
786.000000	0.438564
787.000000	0.439068
788.000000	0.439489
789.000000	0.439878
790.000000	0.440233
791.000000	0.440585
792.000000	0.440835
793.000000	0.441086
794.000000	0.441432
795.000000	0.441796
796.000000	0.442103
797.000000	0.442318
798.000000	0.442467
799.000000	0.442612
800.000000	0.442725
801.000000	0.442788
802.000000	0.442956
803.000000	0.443105
804.000000	0.443217
805.000000	0.443319
806.000000	0.443369
807.000000	0.443468
808.000000	0.443555
809.000000	0.443554
810.000000	0.443539
811.000000	0.443529
812.000000	0.443396
813.000000	0.443256
814.000000	0.443148
815.000000	0.443077
816.000000	0.442963
817.000000	0.442828
818.000000	0.442614
819.000000	0.442518
820.000000	0.442374
821.000000	0.442086
822.000000	0.441885
823.000000	0.441775
824.000000	0.441649
825.000000	0.441532
826.000000	0.441362
827.000000	0.441130
828.000000	0.440912
829.000000	0.440723
830.000000	0.440515
831.000000	0.440343
832.000000	0.440080
833.000000	0.439802
834.000000	0.439507
835.000000	0.439232
836.000000	0.438947
837.000000	0.438669
838.000000	0.438396
839.000000	0.438048
840.000000	0.437709
841.000000	0.437404
842.000000	0.437114
843.000000	0.437025
844.000000	0.436923
845.000000	0.436678
846.000000	0.436364
847.000000	0.435996
848.000000	0.435576
849.000000	0.435176
850.000000	0.434922
851.000000	0.434553
852.000000	0.434093
853.000000	0.433824
854.000000	0.433512
855.000000	0.433240
856.000000	0.432903
857.000000	0.432478
858.000000	0.432137
859.000000	0.431839
860.000000	0.431522
861.000000	0.431216
862.000000	0.430925
863.000000	0.430540
864.000000	0.430112
865.000000	0.429699
866.000000	0.429362
867.000000	0.429070
868.000000	0.428737
869.000000	0.428279
870.000000	0.427807
871.000000	0.427452
872.000000	0.427157
873.000000	0.426766
874.000000	0.426259
875.000000	0.425836
876.000000	0.425457
877.000000	0.424902
878.000000	0.424307
879.000000	0.423901
880.000000	0.423587
881.000000	0.423355
882.000000	0.423072
883.000000	0.422676
884.000000	0.422106
885.000000	0.421846
886.000000	0.421589
887.000000	0.421162
888.000000	0.420637
889.000000	0.420251
890.000000	0.419819
891.000000	0.419324
892.000000	0.418788
893.000000	0.418291
894.000000	0.418004
895.000000	0.417701
896.000000	0.417295
897.000000	0.416846
898.000000	0.416446
899.000000	0.415996
900.000000	0.415588
901.000000	0.415216
902.000000	0.414913
903.000000	0.414534
904.000000	0.414235
905.000000	0.414025
906.000000	0.413704
907.000000	0.413294
908.000000	0.412922
909.000000	0.412578
910.000000	0.412272
911.000000	0.411972
912.000000	0.411661
913.000000	0.411291
914.000000	0.410914
915.000000	0.410636
916.000000	0.410367
917.000000	0.410086
918.000000	0.409802
919.000000	0.409467
920.000000	0.408951
921.000000	0.408712
922.000000	0.408600
923.000000	0.408163
924.000000	0.407796
925.000000	0.407436
926.000000	0.407116
927.000000	0.406976
928.000000	0.406720
929.000000	0.406388
930.000000	0.406077
931.000000	0.405451
932.000000	0.404999
933.000000	0.404877
934.000000	0.404688
935.000000	0.404367
936.000000	0.404050
937.000000	0.403710
938.000000	0.403211
939.000000	0.402931
940.000000	0.402741
941.000000	0.402436
942.000000	0.402015
943.000000	0.401775
944.000000	0.401653
945.000000	0.401452
946.000000	0.401108
947.000000	0.400813
948.000000	0.400674
949.000000	0.400462
950.000000	0.400196
951.000000	0.399846
952.000000	0.399495
953.000000	0.399089
954.000000	0.398773
955.000000	0.398518
956.000000	0.398110
957.000000	0.397922
958.000000	0.397853
959.000000	0.397768
960.000000	0.397520
961.000000	0.397376
962.000000	0.397294
963.000000	0.396938
964.000000	0.396759
965.000000	0.396653
966.000000	0.396331
967.000000	0.396004
968.000000	0.395958
969.000000	0.395959
970.000000	0.395755
971.000000	0.395666
972.000000	0.395589
973.000000	0.395393
974.000000	0.395220
975.000000	0.394978
976.000000	0.394769
977.000000	0.394647
978.000000	0.394463
979.000000	0.394442
980.000000	0.394345
981.000000	0.394358
982.000000	0.394257
983.000000	0.393834
984.000000	0.393418
985.000000	0.393620
986.000000	0.393568
987.000000	0.393423
988.000000	0.393279
989.000000	0.393173
990.000000	0.393208
991.000000	0.393501
992.000000	0.394038
993.000000	0.393985
994.000000	0.393636
995.000000	0.393435
996.000000	0.393359
997.000000	0.393605
998.000000	0.393762
999.000000	0.393657
1000.000000	0.393256
1001.000000	0.394143
1002.000000	0.393648
1003.000000	0.392884
1004.000000	0.392533
1005.000000	0.392491
1006.000000	0.392404
1007.000000	0.392577
1008.000000	0.392763
1009.000000	0.392351
1010.000000	0.392298
1011.000000	0.392156
1012.000000	0.391482
1013.000000	0.391618
1014.000000	0.392428
1015.000000	0.392872
1016.000000	0.393118
1017.000000	0.393442
1018.000000	0.393483
1019.000000	0.393458
1020.000000	0.393635
1021.000000	0.393638
1022.000000	0.393636
1023.000000	0.393602
1024.000000	0.393472
1025.000000	0.393490
1026.000000	0.392735
1027.000000	0.392569
1028.000000	0.393189
1029.000000	0.393918
1030.000000	0.395068
1031.000000	0.395662
1032.000000	0.394799
1033.000000	0.393896
1034.000000	0.394144
1035.000000	0.394891
1036.000000	0.395376
1037.000000	0.397024
1038.000000	0.397729
1039.000000	0.397913
1040.000000	0.397625
1041.000000	0.397964
1042.000000	0.398159
1043.000000	0.397915
1044.000000	0.398100
1045.000000	0.397913
1046.000000	0.397651
1047.000000	0.397672
1048.000000	0.397665
1049.000000	0.397630
1050.000000	0.397706
1051.000000	0.397932
1052.000000	0.398027
1053.000000	0.398315
1054.000000	0.399393
1055.000000	0.399891
1056.000000	0.400282
1057.000000	0.400547
1058.000000	0.400260
1059.000000	0.399804
1060.000000	0.399853
1061.000000	0.400209
1062.000000	0.400186
1063.000000	0.400648
1064.000000	0.401340
1065.000000	0.402194
1066.000000	0.402638
1067.000000	0.403445
1068.000000	0.403788
1069.000000	0.403282
1070.000000	0.403249
1071.000000	0.403566
1072.000000	0.403661
1073.000000	0.403513
1074.000000	0.403890
1075.000000	0.404144
1076.000000	0.404318
1077.000000	0.404811
1078.000000	0.405071
1079.000000	0.405314
1080.000000	0.405537
1081.000000	0.405773
1082.000000	0.406001
1083.000000	0.406342
1084.000000	0.406989
1085.000000	0.407278
1086.000000	0.407255
1087.000000	0.407523
1088.000000	0.407610
1089.000000	0.407755
1090.000000	0.408072
1091.000000	0.408471
1092.000000	0.408258
1093.000000	0.408542
1094.000000	0.408910
1095.000000	0.409223
1096.000000	0.409769
1097.000000	0.410890
1098.000000	0.411281
1099.000000	0.411386
1100.000000	0.411554
1101.000000	0.411318
1102.000000	0.411217
1103.000000	0.410981
1104.000000	0.411072
1105.000000	0.411274
1106.000000	0.411473
1107.000000	0.411729
1108.000000	0.412174
1109.000000	0.412789
1110.000000	0.413467
1111.000000	0.413861
1112.000000	0.414386
1113.000000	0.414691
1114.000000	0.414612
1115.000000	0.414756
1116.000000	0.414959
1117.000000	0.415242
1118.000000	0.415495
1119.000000	0.415733
1120.000000	0.416282
1121.000000	0.416456
1122.000000	0.416305
1123.000000	0.416695
1124.000000	0.416960
1125.000000	0.417180
1126.000000	0.417530
1127.000000	0.417776
1128.000000	0.417926
1129.000000	0.417894
1130.000000	0.418005
1131.000000	0.418182
1132.000000	0.418313
1133.000000	0.418433
1134.000000	0.418685
1135.000000	0.419062
1136.000000	0.419193
1137.000000	0.419301
1138.000000	0.419273
1139.000000	0.419005
1140.000000	0.419089
1141.000000	0.419337
1142.000000	0.419433
1143.000000	0.419450
1144.000000	0.419672
1145.000000	0.419759
1146.000000	0.419601
1147.000000	0.419558
1148.000000	0.419446
1149.000000	0.419504
1150.000000	0.419570
1151.000000	0.419693
1152.000000	0.419922
1153.000000	0.420096
1154.000000	0.420122
1155.000000	0.420269
1156.000000	0.420670
1157.000000	0.420760
1158.000000	0.420540
1159.000000	0.420553
1160.000000	0.420407
1161.000000	0.420424
1162.000000	0.420747
1163.000000	0.421257
1164.000000	0.421421
1165.000000	0.421609
1166.000000	0.421856
1167.000000	0.421981
1168.000000	0.422133
1169.000000	0.422457
1170.000000	0.422657
1171.000000	0.422770
1172.000000	0.423029
1173.000000	0.423344
1174.000000	0.423512
1175.000000	0.423651
1176.000000	0.423706
1177.000000	0.423659
1178.000000	0.423727
1179.000000	0.423839
1180.000000	0.423878
1181.000000	0.424022
1182.000000	0.424199
1183.000000	0.424342
1184.000000	0.424477
1185.000000	0.424622
1186.000000	0.424762
1187.000000	0.424877
1188.000000	0.424983
1189.000000	0.425082
1190.000000	0.425190
1191.000000	0.425390
1192.000000	0.425821
1193.000000	0.426224
1194.000000	0.426569
1195.000000	0.426797
1196.000000	0.426751
1197.000000	0.426897
1198.000000	0.427114
1199.000000	0.427332
1200.000000	0.427722
1201.000000	0.427941
1202.000000	0.427939
1203.000000	0.428052
1204.000000	0.428123
1205.000000	0.428320
1206.000000	0.428444
1207.000000	0.428735
1208.000000	0.428922
1209.000000	0.429118
1210.000000	0.429350
1211.000000	0.429680
1212.000000	0.429881
1213.000000	0.430057
1214.000000	0.430256
1215.000000	0.430375
1216.000000	0.430546
1217.000000	0.430709
1218.000000	0.430852
1219.000000	0.431012
1220.000000	0.431238
1221.000000	0.431422
1222.000000	0.431725
1223.000000	0.432028
1224.000000	0.432218
1225.000000	0.432424
1226.000000	0.432692
1227.000000	0.432947
1228.000000	0.433302
1229.000000	0.433490
1230.000000	0.433563
1231.000000	0.433642
1232.000000	0.433798
1233.000000	0.434035
1234.000000	0.434323
1235.000000	0.434535
1236.000000	0.434527
1237.000000	0.434730
1238.000000	0.434989
1239.000000	0.435155
1240.000000	0.435281
1241.000000	0.435605
1242.000000	0.435772
1243.000000	0.435950
1244.000000	0.436332
1245.000000	0.436472
1246.000000	0.436477
1247.000000	0.436761
1248.000000	0.437034
1249.000000	0.437364
1250.000000	0.437791
1251.000000	0.438114
1252.000000	0.438360
1253.000000	0.438519
1254.000000	0.438717
1255.000000	0.438900
1256.000000	0.439047
1257.000000	0.439167
1258.000000	0.439372
1259.000000	0.439530
1260.000000	0.439698
1261.000000	0.439774
1262.000000	0.439954
1263.000000	0.440142
1264.000000	0.440386
1265.000000	0.440900
1266.000000	0.441201
1267.000000	0.441397
1268.000000	0.441680
1269.000000	0.441794
1270.000000	0.442019
1271.000000	0.442333
1272.000000	0.442494
1273.000000	0.442641
1274.000000	0.442889
1275.000000	0.443155
1276.000000	0.443518
1277.000000	0.443970
1278.000000	0.444432
1279.000000	0.444698
1280.000000	0.444853
1281.000000	0.445010
1282.000000	0.445078
1283.000000	0.445287
1284.000000	0.445481
1285.000000	0.445649
1286.000000	0.445735
1287.000000	0.445951
1288.000000	0.446140
1289.000000	0.446275
1290.000000	0.446384
1291.000000	0.446493
1292.000000	0.446656
1293.000000	0.446807
1294.000000	0.446835
1295.000000	0.446896
1296.000000	0.447098
1297.000000	0.447327
1298.000000	0.447614
1299.000000	0.447899
1300.000000	0.448090
1301.000000	0.448194
1302.000000	0.448241
1303.000000	0.448420
1304.000000	0.448473
1305.000000	0.448626
1306.000000	0.448620
1307.000000	0.448526
1308.000000	0.448513
1309.000000	0.448364
1310.000000	0.448372
1311.000000	0.448592
1312.000000	0.448685
1313.000000	0.448575
1314.000000	0.448549
1315.000000	0.448404
1316.000000	0.448416
1317.000000	0.448703
1318.000000	0.448781
1319.000000	0.448676
1320.000000	0.448580
1321.000000	0.448396
1322.000000	0.448255
1323.000000	0.448103
1324.000000	0.448016
1325.000000	0.448082
1326.000000	0.448042
1327.000000	0.448031
1328.000000	0.448243
1329.000000	0.448145
1330.000000	0.447817
1331.000000	0.447655
1332.000000	0.447490
1333.000000	0.447359
1334.000000	0.447411
1335.000000	0.447450
1336.000000	0.447461
1337.000000	0.447410
1338.000000	0.447245
1339.000000	0.447250
1340.000000	0.447068
1341.000000	0.446940
1342.000000	0.447013
1343.000000	0.446762
1344.000000	0.446469
1345.000000	0.446354
1346.000000	0.446304
1347.000000	0.446109
1348.000000	0.445803
1349.000000	0.445435
1350.000000	0.445064
1351.000000	0.444689
1352.000000	0.444592
1353.000000	0.444494
1354.000000	0.444281
1355.000000	0.444063
1356.000000	0.443891
1357.000000	0.443701
1358.000000	0.443472
1359.000000	0.443241
1360.000000	0.443016
1361.000000	0.442802
1362.000000	0.442582
1363.000000	0.442379
1364.000000	0.442170
1365.000000	0.441925
1366.000000	0.441669
1367.000000	0.441402
1368.000000	0.441089
1369.000000	0.440826
1370.000000	0.440418
1371.000000	0.440038
1372.000000	0.439543
1373.000000	0.438967
1374.000000	0.438462
1375.000000	0.437910
1376.000000	0.437434
1377.000000	0.436892
1378.000000	0.436264
1379.000000	0.435325
1380.000000	0.434311
1381.000000	0.433282
1382.000000	0.432061
1383.000000	0.430971
1384.000000	0.429646
1385.000000	0.427951
1386.000000	0.426178
1387.000000	0.424437
1388.000000	0.422582
1389.000000	0.420526
1390.000000	0.418401
1391.000000	0.416034
1392.000000	0.413583
1393.000000	0.411017
1394.000000	0.408517
1395.000000	0.405810
1396.000000	0.402837
1397.000000	0.399855
1398.000000	0.396816
1399.000000	0.393760
1400.000000	0.390512
1401.000000	0.387439
1402.000000	0.384458
1403.000000	0.381456
1404.000000	0.378646
1405.000000	0.376048
1406.000000	0.373522
1407.000000	0.371052
1408.000000	0.368745
1409.000000	0.366804
1410.000000	0.365089
1411.000000	0.363433
1412.000000	0.361840
1413.000000	0.360283
1414.000000	0.358748
1415.000000	0.357465
1416.000000	0.356434
1417.000000	0.355450
1418.000000	0.354453
1419.000000	0.353451
1420.000000	0.352286
1421.000000	0.351271
1422.000000	0.350282
1423.000000	0.349446
1424.000000	0.348602
1425.000000	0.347644
1426.000000	0.346839
1427.000000	0.346081
1428.000000	0.345263
1429.000000	0.344631
1430.000000	0.344042
1431.000000	0.343323
1432.000000	0.342610
1433.000000	0.341893
1434.000000	0.341294
1435.000000	0.340776
1436.000000	0.340351
1437.000000	0.340074
1438.000000	0.339748
1439.000000	0.339384
1440.000000	0.339252
1441.000000	0.339232
1442.000000	0.339413
1443.000000	0.339747
1444.000000	0.340132
1445.000000	0.340596
1446.000000	0.341050
1447.000000	0.341526
1448.000000	0.342151
1449.000000	0.342839
1450.000000	0.343618
1451.000000	0.344484
1452.000000	0.345115
1453.000000	0.345548
1454.000000	0.345861
1455.000000	0.346107
1456.000000	0.346442
1457.000000	0.346827
1458.000000	0.347245
1459.000000	0.347630
1460.000000	0.347919
1461.000000	0.348199
1462.000000	0.348454
1463.000000	0.348627
1464.000000	0.348884
1465.000000	0.349299
1466.000000	0.349685
1467.000000	0.350099
1468.000000	0.350522
1469.000000	0.350883
1470.000000	0.351253
1471.000000	0.351816
1472.000000	0.352456
1473.000000	0.353200
1474.000000	0.353912
1475.000000	0.354565
1476.000000	0.355237
1477.000000	0.355947
1478.000000	0.356694
1479.000000	0.357460
1480.000000	0.358243
1481.000000	0.359003
1482.000000	0.359820
1483.000000	0.360664
1484.000000	0.361482
1485.000000	0.362322
1486.000000	0.363194
1487.000000	0.364087
1488.000000	0.365072
1489.000000	0.365979
1490.000000	0.366703
1491.000000	0.367478
1492.000000	0.368138
1493.000000	0.368927
1494.000000	0.369811
1495.000000	0.370583
1496.000000	0.371301
1497.000000	0.372051
1498.000000	0.372821
1499.000000	0.373492
1500.000000	0.374104
1501.000000	0.374736
1502.000000	0.375238
1503.000000	0.375791
1504.000000	0.376591
1505.000000	0.377298
1506.000000	0.377950
1507.000000	0.378614
1508.000000	0.379198
1509.000000	0.379747
1510.000000	0.380171
1511.000000	0.380598
1512.000000	0.381062
1513.000000	0.381556
1514.000000	0.382197
1515.000000	0.382727
1516.000000	0.383132
1517.000000	0.383370
1518.000000	0.383494
1519.000000	0.383809
1520.000000	0.384255
1521.000000	0.384543
1522.000000	0.384930
1523.000000	0.385311
1524.000000	0.385524
1525.000000	0.385939
1526.000000	0.386401
1527.000000	0.386731
1528.000000	0.387082
1529.000000	0.387377
1530.000000	0.387575
1531.000000	0.387889
1532.000000	0.388162
1533.000000	0.388367
1534.000000	0.388579
1535.000000	0.388830
1536.000000	0.389135
1537.000000	0.389562
1538.000000	0.389993
1539.000000	0.390288
1540.000000	0.390456
1541.000000	0.390596
1542.000000	0.390863
1543.000000	0.391091
1544.000000	0.391208
1545.000000	0.391444
1546.000000	0.391618
1547.000000	0.391773
1548.000000	0.392080
1549.000000	0.392285
1550.000000	0.392353
1551.000000	0.392419
1552.000000	0.392583
1553.000000	0.392787
1554.000000	0.392908
1555.000000	0.393133
1556.000000	0.393306
1557.000000	0.393229
1558.000000	0.393329
1559.000000	0.393474
1560.000000	0.393529
1561.000000	0.393652
1562.000000	0.393671
1563.000000	0.393644
1564.000000	0.393672
1565.000000	0.393611
1566.000000	0.393582
1567.000000	0.393719
1568.000000	0.393833
1569.000000	0.394072
1570.000000	0.394292
1571.000000	0.394521
1572.000000	0.394643
1573.000000	0.394734
1574.000000	0.394827
1575.000000	0.394889
1576.000000	0.395033
1577.000000	0.395177
1578.000000	0.395247
1579.000000	0.395442
1580.000000	0.395507
1581.000000	0.395494
1582.000000	0.395604
1583.000000	0.395752
1584.000000	0.395775
1585.000000	0.395914
1586.000000	0.396031
1587.000000	0.395997
1588.000000	0.396086
1589.000000	0.396318
1590.000000	0.396442
1591.000000	0.396584
1592.000000	0.396717
1593.000000	0.396836
1594.000000	0.396919
1595.000000	0.397074
1596.000000	0.397195
1597.000000	0.397301
1598.000000	0.397359
1599.000000	0.397434
1600.000000	0.397415
1601.000000	0.397407
1602.000000	0.397422
1603.000000	0.397439
1604.000000	0.397486
1605.000000	0.397594
1606.000000	0.397659
1607.000000	0.397789
1608.000000	0.397876
1609.000000	0.397975
1610.000000	0.398078
1611.000000	0.398194
1612.000000	0.398328
1613.000000	0.398599
1614.000000	0.398837
1615.000000	0.399224
1616.000000	0.399492
1617.000000	0.399602
1618.000000	0.399802
1619.000000	0.399899
1620.000000	0.400102
1621.000000	0.400538
1622.000000	0.400856
1623.000000	0.401045
1624.000000	0.401320
1625.000000	0.401402
1626.000000	0.401537
1627.000000	0.401757
1628.000000	0.402086
1629.000000	0.402480
1630.000000	0.402802
1631.000000	0.403132
1632.000000	0.403300
1633.000000	0.403292
1634.000000	0.403436
1635.000000	0.403634
1636.000000	0.403833
1637.000000	0.404100
1638.000000	0.404360
1639.000000	0.404676
1640.000000	0.404982
1641.000000	0.405461
1642.000000	0.405755
1643.000000	0.406006
1644.000000	0.406216
1645.000000	0.406264
1646.000000	0.406445
1647.000000	0.406781
1648.000000	0.406957
1649.000000	0.407223
1650.000000	0.407430
1651.000000	0.407525
1652.000000	0.407825
1653.000000	0.408185
1654.000000	0.408532
1655.000000	0.408885
1656.000000	0.409087
1657.000000	0.409295
1658.000000	0.409521
1659.000000	0.409868
1660.000000	0.410162
1661.000000	0.410290
1662.000000	0.410581
1663.000000	0.410881
1664.000000	0.411174
1665.000000	0.411582
1666.000000	0.411956
1667.000000	0.412121
1668.000000	0.412450
1669.000000	0.412835
1670.000000	0.413166
1671.000000	0.413677
1672.000000	0.414143
1673.000000	0.414562
1674.000000	0.414898
1675.000000	0.415187
1676.000000	0.415385
1677.000000	0.415736
1678.000000	0.415993
1679.000000	0.416232
1680.000000	0.416332
1681.000000	0.416256
1682.000000	0.416212
1683.000000	0.416258
1684.000000	0.416449
1685.000000	0.416676
1686.000000	0.416857
1687.000000	0.417021
1688.000000	0.416990
1689.000000	0.416941
1690.000000	0.416864
1691.000000	0.416851
1692.000000	0.416887
1693.000000	0.417010
1694.000000	0.417085
1695.000000	0.417221
1696.000000	0.417333
1697.000000	0.417356
1698.000000	0.417444
1699.000000	0.417567
1700.000000	0.417568
1701.000000	0.417819
1702.000000	0.418120
1703.000000	0.418227
1704.000000	0.418418
1705.000000	0.418596
1706.000000	0.418663
1707.000000	0.418804
1708.000000	0.419003
1709.000000	0.419130
1710.000000	0.419364
1711.000000	0.419546
1712.000000	0.419810
1713.000000	0.419920
1714.000000	0.419894
1715.000000	0.420006
1716.000000	0.420172
1717.000000	0.420204
1718.000000	0.420106
1719.000000	0.420210
1720.000000	0.420471
1721.000000	0.420547
1722.000000	0.420763
1723.000000	0.420815
1724.000000	0.420437
1725.000000	0.420592
1726.000000	0.421030
1727.000000	0.421182
1728.000000	0.421354
1729.000000	0.421392
1730.000000	0.421315
1731.000000	0.421367
1732.000000	0.421551
1733.000000	0.421724
1734.000000	0.421703
1735.000000	0.421764
1736.000000	0.421854
1737.000000	0.421871
1738.000000	0.421817
1739.000000	0.421917
1740.000000	0.422080
1741.000000	0.422089
1742.000000	0.422130
1743.000000	0.422229
1744.000000	0.422210
1745.000000	0.422202
1746.000000	0.422260
1747.000000	0.422290
1748.000000	0.422312
1749.000000	0.422608
1750.000000	0.422669
1751.000000	0.422708
1752.000000	0.422849
1753.000000	0.422719
1754.000000	0.422661
1755.000000	0.422526
1756.000000	0.422511
1757.000000	0.422696
1758.000000	0.422689
1759.000000	0.422539
1760.000000	0.422559
1761.000000	0.422420
1762.000000	0.422428
1763.000000	0.422818
1764.000000	0.422951
1765.000000	0.422877
1766.000000	0.422915
1767.000000	0.422803
1768.000000	0.422734
1769.000000	0.422855
1770.000000	0.422977
1771.000000	0.423028
1772.000000	0.423123
1773.000000	0.423235
1774.000000	0.423277
1775.000000	0.423396
1776.000000	0.423406
1777.000000	0.423253
1778.000000	0.423214
1779.000000	0.423129
1780.000000	0.423148
1781.000000	0.423196
1782.000000	0.423266
1783.000000	0.423442
1784.000000	0.423748
1785.000000	0.423842
1786.000000	0.423842
1787.000000	0.423934
1788.000000	0.424162
1789.000000	0.424435
1790.000000	0.424830
1791.000000	0.424972
1792.000000	0.424822
1793.000000	0.424851
1794.000000	0.424954
1795.000000	0.425079
1796.000000	0.425382
1797.000000	0.425462
1798.000000	0.425312
1799.000000	0.425322
1800.000000	0.425384
1801.000000	0.425057
1802.000000	0.425414
1803.000000	0.425546
1804.000000	0.426276
1805.000000	0.427427
1806.000000	0.428000
1807.000000	0.428898
1808.000000	0.429406
1809.000000	0.429142
1810.000000	0.429283
1811.000000	0.428950
1812.000000	0.428415
1813.000000	0.428157
1814.000000	0.427582
1815.000000	0.427330
1816.000000	0.427832
1817.000000	0.427513
1818.000000	0.426436
1819.000000	0.426284
1820.000000	0.426251
1821.000000	0.425546
1822.000000	0.425833
1823.000000	0.427110
1824.000000	0.427313
1825.000000	0.427486
1826.000000	0.427626
1827.000000	0.427099
1828.000000	0.426676
1829.000000	0.426659
1830.000000	0.426033
1831.000000	0.425931
1832.000000	0.425964
1833.000000	0.425787
1834.000000	0.426010
1835.000000	0.425933
1836.000000	0.425231
1837.000000	0.424891
1838.000000	0.424803
1839.000000	0.424008
1840.000000	0.423286
1841.000000	0.422784
1842.000000	0.422398
1843.000000	0.422043
1844.000000	0.421693
1845.000000	0.421236
1846.000000	0.421185
1847.000000	0.421366
1848.000000	0.420914
1849.000000	0.420753
1850.000000	0.420275
1851.000000	0.419788
1852.000000	0.418940
1853.000000	0.418200
1854.000000	0.417665
1855.000000	0.416484
1856.000000	0.414797
1857.000000	0.412599
1858.000000	0.411116
1859.000000	0.409017
1860.000000	0.406674
1861.000000	0.404437
1862.000000	0.402478
1863.000000	0.400625
1864.000000	0.398657
1865.000000	0.397287
1866.000000	0.395391
1867.000000	0.393282
1868.000000	0.390246
1869.000000	0.387416
1870.000000	0.384009
1871.000000	0.379831
1872.000000	0.376074
1873.000000	0.372652
1874.000000	0.369845
1875.000000	0.366230
1876.000000	0.362743
1877.000000	0.357919
1878.000000	0.352233
1879.000000	0.346448
1880.000000	0.340716
1881.000000	0.335085
1882.000000	0.330075
1883.000000	0.324788
1884.000000	0.319047
1885.000000	0.312942
1886.000000	0.306627
1887.000000	0.299853
1888.000000	0.292594
1889.000000	0.285477
1890.000000	0.278483
1891.000000	0.271315
1892.000000	0.264151
1893.000000	0.256803
1894.000000	0.249593
1895.000000	0.242586
1896.000000	0.235858
1897.000000	0.229074
1898.000000	0.222676
1899.000000	0.216666
1900.000000	0.211097
1901.000000	0.206213
1902.000000	0.201565
1903.000000	0.197563
1904.000000	0.193639
1905.000000	0.190019
1906.000000	0.187118
1907.000000	0.184837
1908.000000	0.182985
1909.000000	0.182167
1910.000000	0.181292
1911.000000	0.180350
1912.000000	0.179994
1913.000000	0.179502
1914.000000	0.178927
1915.000000	0.178780
1916.000000	0.178849
1917.000000	0.178834
1918.000000	0.178824
1919.000000	0.179164
1920.000000	0.179719
1921.000000	0.180051
1922.000000	0.179912
1923.000000	0.180213
1924.000000	0.180182
1925.000000	0.179813
1926.000000	0.180376
1927.000000	0.180987
1928.000000	0.181543
1929.000000	0.182278
1930.000000	0.183363
1931.000000	0.183897
1932.000000	0.184013
1933.000000	0.184504
1934.000000	0.184924
1935.000000	0.185440
1936.000000	0.186417
1937.000000	0.186793
1938.000000	0.187101
1939.000000	0.187334
1940.000000	0.187375
1941.000000	0.187231
1942.000000	0.187375
1943.000000	0.187087
1944.000000	0.186970
1945.000000	0.187063
1946.000000	0.187013
1947.000000	0.187056
1948.000000	0.186842
1949.000000	0.186064
1950.000000	0.185518
1951.000000	0.185260
1952.000000	0.185357
1953.000000	0.185090
1954.000000	0.185110
1955.000000	0.185245
1956.000000	0.185047
1957.000000	0.185146
1958.000000	0.185632
1959.000000	0.186220
1960.000000	0.186128
1961.000000	0.186015
1962.000000	0.185753
1963.000000	0.185256
1964.000000	0.184416
1965.000000	0.184164
1966.000000	0.183936
1967.000000	0.184174
1968.000000	0.185063
1969.000000	0.185775
1970.000000	0.186258
1971.000000	0.186548
1972.000000	0.186462
1973.000000	0.186530
1974.000000	0.186528
1975.000000	0.187044
1976.000000	0.187826
1977.000000	0.188724
1978.000000	0.190001
1979.000000	0.190898
1980.000000	0.191398
1981.000000	0.191614
1982.000000	0.192134
1983.000000	0.192989
1984.000000	0.193620
1985.000000	0.194632
1986.000000	0.195307
1987.000000	0.195758
1988.000000	0.196061
1989.000000	0.196410
1990.000000	0.197205
1991.000000	0.197924
1992.000000	0.198459
1993.000000	0.199713
1994.000000	0.200941
1995.000000	0.202046
1996.000000	0.203536
1997.000000	0.204825
1998.000000	0.205906
1999.000000	0.207241
2000.000000	0.208833
2001.000000	0.210085
2002.000000	0.211438
2003.000000	0.212537
2004.000000	0.213514
2005.000000	0.214754
2006.000000	0.215855
2007.000000	0.217110
2008.000000	0.218518
2009.000000	0.219935
2010.000000	0.221371
2011.000000	0.223156
2012.000000	0.224475
2013.000000	0.225320
2014.000000	0.226698
2015.000000	0.227716
2016.000000	0.228776
2017.000000	0.230389
2018.000000	0.231767
2019.000000	0.233278
2020.000000	0.234660
2021.000000	0.236021
2022.000000	0.237379
2023.000000	0.238354
2024.000000	0.239145
2025.000000	0.240137
2026.000000	0.240760
2027.000000	0.241459
2028.000000	0.242537
2029.000000	0.243525
2030.000000	0.244624
2031.000000	0.245956
2032.000000	0.247674
2033.000000	0.249220
2034.000000	0.250608
2035.000000	0.251859
2036.000000	0.253225
2037.000000	0.254806
2038.000000	0.256284
2039.000000	0.257882
2040.000000	0.259495
2041.000000	0.260588
2042.000000	0.261189
2043.000000	0.261734
2044.000000	0.261551
2045.000000	0.261949
2046.000000	0.262588
2047.000000	0.263190
2048.000000	0.263862
2049.000000	0.265142
2050.000000	0.266417
2051.000000	0.267476
2052.000000	0.269177
2053.000000	0.270112
2054.000000	0.270661
2055.000000	0.271024
2056.000000	0.271743
2057.000000	0.272071
2058.000000	0.273044
2059.000000	0.274854
2060.000000	0.275902
2061.000000	0.276837
2062.000000	0.277977
2063.000000	0.279108
2064.000000	0.279550
2065.000000	0.280315
2066.000000	0.280793
2067.000000	0.280582
2068.000000	0.280670
2069.000000	0.282075
2070.000000	0.282651
2071.000000	0.283694
2072.000000	0.285108
2073.000000	0.285920
2074.000000	0.287461
2075.000000	0.288732
2076.000000	0.290048
2077.000000	0.291100
2078.000000	0.292081
2079.000000	0.292848
2080.000000	0.293369
2081.000000	0.293823
2082.000000	0.293839
2083.000000	0.294587
2084.000000	0.295263
2085.000000	0.296667
2086.000000	0.298660
2087.000000	0.299911
2088.000000	0.300735
2089.000000	0.301683
2090.000000	0.302683
2091.000000	0.303759
2092.000000	0.304566
2093.000000	0.305196
2094.000000	0.306052
2095.000000	0.307098
2096.000000	0.307755
2097.000000	0.308047
2098.000000	0.308871
2099.000000	0.309377
2100.000000	0.310453
2101.000000	0.312944
2102.000000	0.315020
2103.000000	0.316473
2104.000000	0.317223
2105.000000	0.317940
2106.000000	0.317682
2107.000000	0.318297
2108.000000	0.319139
2109.000000	0.320199
2110.000000	0.321927
2111.000000	0.322681
2112.000000	0.323072
2113.000000	0.323087
2114.000000	0.322488
2115.000000	0.322128
2116.000000	0.322719
2117.000000	0.322689
2118.000000	0.323568
2119.000000	0.324065
2120.000000	0.324628
2121.000000	0.325355
2122.000000	0.326213
2123.000000	0.326879
2124.000000	0.327937
2125.000000	0.329705
2126.000000	0.330434
2127.000000	0.330882
2128.000000	0.331402
2129.000000	0.331333
2130.000000	0.331032
2131.000000	0.331468
2132.000000	0.331746
2133.000000	0.332058
2134.000000	0.332992
2135.000000	0.333456
2136.000000	0.334345
2137.000000	0.334593
2138.000000	0.334308
2139.000000	0.334389
2140.000000	0.334099
2141.000000	0.334065
2142.000000	0.334484
2143.000000	0.334424
2144.000000	0.334324
2145.000000	0.334617
2146.000000	0.335374
2147.000000	0.335658
2148.000000	0.335819
2149.000000	0.335953
2150.000000	0.335886
2151.000000	0.336090
2152.000000	0.336314
2153.000000	0.336346
2154.000000	0.336515
2155.000000	0.336456
2156.000000	0.336647
2157.000000	0.337352
2158.000000	0.337641
2159.000000	0.337691
2160.000000	0.338110
2161.000000	0.338432
2162.000000	0.339028
2163.000000	0.339944
2164.000000	0.340455
2165.000000	0.340910
2166.000000	0.341525
2167.000000	0.341339
2168.000000	0.341307
2169.000000	0.341082
2170.000000	0.340116
2171.000000	0.339479
2172.000000	0.339062
2173.000000	0.338403
2174.000000	0.337552
2175.000000	0.336784
2176.000000	0.335451
2177.000000	0.334624
2178.000000	0.333893
2179.000000	0.333929
2180.000000	0.335001
2181.000000	0.336023
2182.000000	0.336870
2183.000000	0.337911
2184.000000	0.338181
2185.000000	0.337400
2186.000000	0.337410
2187.000000	0.336998
2188.000000	0.337279
2189.000000	0.337326
2190.000000	0.336709
2191.000000	0.337315
2192.000000	0.337680
2193.000000	0.338694
2194.000000	0.338499
2195.000000	0.337668
2196.000000	0.336758
2197.000000	0.334142
2198.000000	0.333289
2199.000000	0.333984
2200.000000	0.334635
2201.000000	0.336300
2202.000000	0.337341
2203.000000	0.338439
2204.000000	0.338100
2205.000000	0.339628
2206.000000	0.339735
2207.000000	0.338390
2208.000000	0.340450
2209.000000	0.338712
2210.000000	0.335914
2211.000000	0.334997
2212.000000	0.331259
2213.000000	0.329523
2214.000000	0.328794
2215.000000	0.329041
2216.000000	0.331148
2217.000000	0.331322
2218.000000	0.331117
2219.000000	0.330346
2220.000000	0.326515
2221.000000	0.326246
2222.000000	0.329010
2223.000000	0.330456
2224.000000	0.332988
2225.000000	0.334991
2226.000000	0.335541
2227.000000	0.334579
2228.000000	0.332218
2229.000000	0.330162
2230.000000	0.328532
2231.000000	0.326225
2232.000000	0.326615
2233.000000	0.328101
2234.000000	0.327026
2235.000000	0.327002
2236.000000	0.326197
2237.000000	0.323059
2238.000000	0.322894
2239.000000	0.324294
2240.000000	0.325251
2241.000000	0.328065
2242.000000	0.329037
2243.000000	0.329830
2244.000000	0.329213
2245.000000	0.325547
2246.000000	0.324426
2247.000000	0.324040
2248.000000	0.322894
2249.000000	0.322186
2250.000000	0.323211
2251.000000	0.321160
2252.000000	0.319861
2253.000000	0.319510
2254.000000	0.318980
2255.000000	0.319790
2256.000000	0.319523
2257.000000	0.320443
2258.000000	0.320660
2259.000000	0.319890
2260.000000	0.320804
2261.000000	0.321089
2262.000000	0.321740
2263.000000	0.321425
2264.000000	0.321097
2265.000000	0.319902
2266.000000	0.317307
2267.000000	0.315016
2268.000000	0.312163
2269.000000	0.309881
2270.000000	0.307607
2271.000000	0.305697
2272.000000	0.304909
2273.000000	0.303189
2274.000000	0.301107
2275.000000	0.298763
2276.000000	0.295924
2277.000000	0.292755
2278.000000	0.288748
2279.000000	0.286379
2280.000000	0.285082
2281.000000	0.282398
2282.000000	0.282200
2283.000000	0.280980
2284.000000	0.276697
2285.000000	0.273965
2286.000000	0.271262
2287.000000	0.267732
2288.000000	0.267448
2289.000000	0.266807
2290.000000	0.264017
2291.000000	0.261429
2292.000000	0.257457
2293.000000	0.254533
2294.000000	0.252669
2295.000000	0.252465
2296.000000	0.251535
2297.000000	0.250274
2298.000000	0.249671
2299.000000	0.248775
2300.000000	0.249125
2301.000000	0.251444
2302.000000	0.253397
2303.000000	0.255234
2304.000000	0.257257
2305.000000	0.260784
2306.000000	0.261714
2307.000000	0.261048
2308.000000	0.261668
2309.000000	0.260931
2310.000000	0.260976
2311.000000	0.261798
2312.000000	0.263244
2313.000000	0.264911
2314.000000	0.264934
2315.000000	0.267605
2316.000000	0.270514
2317.000000	0.272390
2318.000000	0.275283
2319.000000	0.275823
2320.000000	0.276414
2321.000000	0.276439
2322.000000	0.274705
2323.000000	0.273293
2324.000000	0.270734
2325.000000	0.269257
2326.000000	0.267678
2327.000000	0.266029
2328.000000	0.267630
2329.000000	0.267588
2330.000000	0.265903
2331.000000	0.265117
2332.000000	0.262556
2333.000000	0.261043
2334.000000	0.259990
2335.000000	0.258611
2336.000000	0.256848
2337.000000	0.255871
2338.000000	0.254178
2339.000000	0.253866
2340.000000	0.255377
2341.000000	0.255502
2342.000000	0.255507
2343.000000	0.255484
2344.000000	0.256280
2345.000000	0.255659
2346.000000	0.254403
2347.000000	0.252234
2348.000000	0.249482
2349.000000	0.243372
2350.000000	0.237669
2351.000000	0.233660
2352.000000	0.230491
2353.000000	0.227361
2354.000000	0.227392
2355.000000	0.227954
2356.000000	0.227645
2357.000000	0.231266
2358.000000	0.232986
2359.000000	0.232083
2360.000000	0.230917
2361.000000	0.225244
2362.000000	0.220225
2363.000000	0.218076
2364.000000	0.215795
2365.000000	0.216730
2366.000000	0.215877
2367.000000	0.213256
2368.000000	0.213247
2369.000000	0.212854
2370.000000	0.213529
2371.000000	0.217961
2372.000000	0.223226
2373.000000	0.225425
2374.000000	0.226999
2375.000000	0.221805
2376.000000	0.210858
2377.000000	0.205344
2378.000000	0.198799
2379.000000	0.193128
2380.000000	0.193088
2381.000000	0.190638
2382.000000	0.188312
2383.000000	0.187751
2384.000000	0.184978
2385.000000	0.183250
2386.000000	0.181293
2387.000000	0.181315
2388.000000	0.180954
2389.000000	0.177834
2390.000000	0.173568
2391.000000	0.165644
2392.000000	0.163820
2393.000000	0.164102
2394.000000	0.169279
2395.000000	0.179439
2396.000000	0.181792
2397.000000	0.181636
2398.000000	0.179733
2399.000000	0.175702
2400.000000	0.175918
2401.000000	0.179141
2402.000000	0.177345
2403.000000	0.175769
2404.000000	0.174759
2405.000000	0.172986
2406.000000	0.171335
2407.000000	0.169799
2408.000000	0.170108
2409.000000	0.169388
2410.000000	0.175411
2411.000000	0.177611
2412.000000	0.174051
2413.000000	0.174329
2414.000000	0.171125
2415.000000	0.166419
2416.000000	0.166840
2417.000000	0.169233
2418.000000	0.169469
2419.000000	0.177633
2420.000000	0.180371
2421.000000	0.171395
2422.000000	0.167930
2423.000000	0.164345
2424.000000	0.156274
2425.000000	0.155947
2426.000000	0.160787
2427.000000	0.152227
2428.000000	0.151381
2429.000000	0.162706
2430.000000	0.161445
2431.000000	0.163466
2432.000000	0.164602
2433.000000	0.152146
2434.000000	0.141644
2435.000000	0.134356
2436.000000	0.124192
2437.000000	0.121430
2438.000000	0.127936
2439.000000	0.141233
2440.000000	0.154311
2441.000000	0.157621
2442.000000	0.163815
2443.000000	0.161154
2444.000000	0.143741
2445.000000	0.146178
2446.000000	0.150431
2447.000000	0.148954
2448.000000	0.174133
2449.000000	0.195058
2450.000000	0.191983
2451.000000	0.192233
2452.000000	0.183588
2453.000000	0.148856
2454.000000	0.140534
2455.000000	0.144559
2456.000000	0.131192
2457.000000	0.144615
2458.000000	0.146441
2459.000000	0.126660
2460.000000	0.133799
2461.000000	0.144575
2462.000000	0.162022
2463.000000	0.179221
2464.000000	0.178070
2465.000000	0.168908
2466.000000	0.146502
2467.000000	0.131906
2468.000000	0.121105
2469.000000	0.128720
2470.000000	0.154044
2471.000000	0.156358
2472.000000	0.174228
2473.000000	0.165571
2474.000000	0.108030
2475.000000	0.101117
2476.000000	0.083272
2477.000000	0.083358
2478.000000	0.141879
2479.000000	0.149008
2480.000000	0.149375
2481.000000	0.138289
2482.000000	0.111370
2483.000000	0.112332
2484.000000	0.092196
2485.000000	0.109340
2486.000000	0.118680
2487.000000	0.116742
2488.000000	0.158933
2489.000000	0.101926
2490.000000	0.068168
2491.000000	0.028571
2492.000000	0.014201
2493.000000	0.050954
2494.000000	0.064463
2495.000000	0.081926
2496.000000	0.074203
2497.000000	0.050849
2498.000000	0.042285
2499.000000	0.009573
2500.000000	0.007881
