# Wavelength	NAu-1-40_HEX-30_FV7-30_00001.asd.rts.txt
350.000000	0.137901
351.000000	0.138659
352.000000	0.148343
353.000000	0.146999
354.000000	0.133554
355.000000	0.135967
356.000000	0.142060
357.000000	0.147389
358.000000	0.149395
359.000000	0.147383
360.000000	0.143239
361.000000	0.139903
362.000000	0.143501
363.000000	0.149871
364.000000	0.153312
365.000000	0.145983
366.000000	0.142690
367.000000	0.146413
368.000000	0.150960
369.000000	0.150410
370.000000	0.148839
371.000000	0.152230
372.000000	0.152767
373.000000	0.152049
374.000000	0.151772
375.000000	0.149498
376.000000	0.148761
377.000000	0.150878
378.000000	0.155729
379.000000	0.158161
380.000000	0.156417
381.000000	0.151817
382.000000	0.155191
383.000000	0.157019
384.000000	0.152745
385.000000	0.156943
386.000000	0.160576
387.000000	0.161261
388.000000	0.162965
389.000000	0.165206
390.000000	0.167222
391.000000	0.168109
392.000000	0.170898
393.000000	0.172540
394.000000	0.171381
395.000000	0.172639
396.000000	0.174755
397.000000	0.176317
398.000000	0.175943
399.000000	0.176491
400.000000	0.178381
401.000000	0.180840
402.000000	0.183166
403.000000	0.184588
404.000000	0.185019
405.000000	0.186390
406.000000	0.187182
407.000000	0.187437
408.000000	0.190216
409.000000	0.191714
410.000000	0.191861
411.000000	0.192623
412.000000	0.193886
413.000000	0.195185
414.000000	0.196173
415.000000	0.198041
416.000000	0.198986
417.000000	0.198484
418.000000	0.199113
419.000000	0.199918
420.000000	0.200440
421.000000	0.200491
422.000000	0.201068
423.000000	0.201716
424.000000	0.201692
425.000000	0.201680
426.000000	0.201479
427.000000	0.201031
428.000000	0.201076
429.000000	0.201482
430.000000	0.201935
431.000000	0.201799
432.000000	0.201617
433.000000	0.201606
434.000000	0.201924
435.000000	0.202119
436.000000	0.201878
437.000000	0.201215
438.000000	0.201520
439.000000	0.201846
440.000000	0.201625
441.000000	0.200743
442.000000	0.200331
443.000000	0.200368
444.000000	0.200134
445.000000	0.200125
446.000000	0.200194
447.000000	0.200050
448.000000	0.200840
449.000000	0.201745
450.000000	0.202339
451.000000	0.203764
452.000000	0.205571
453.000000	0.207503
454.000000	0.209696
455.000000	0.211692
456.000000	0.213811
457.000000	0.216484
458.000000	0.218926
459.000000	0.221036
460.000000	0.222902
461.000000	0.224514
462.000000	0.226167
463.000000	0.227774
464.000000	0.229034
465.000000	0.230090
466.000000	0.231099
467.000000	0.232377
468.000000	0.233295
469.000000	0.233932
470.000000	0.234692
471.000000	0.235563
472.000000	0.236291
473.000000	0.236822
474.000000	0.237592
475.000000	0.238153
476.000000	0.238584
477.000000	0.239213
478.000000	0.239691
479.000000	0.240153
480.000000	0.240599
481.000000	0.241172
482.000000	0.241873
483.000000	0.242450
484.000000	0.242879
485.000000	0.243386
486.000000	0.244135
487.000000	0.244622
488.000000	0.245061
489.000000	0.245540
490.000000	0.246066
491.000000	0.246618
492.000000	0.247206
493.000000	0.247738
494.000000	0.248417
495.000000	0.249110
496.000000	0.249698
497.000000	0.250378
498.000000	0.250980
499.000000	0.251536
500.000000	0.252132
501.000000	0.252781
502.000000	0.253468
503.000000	0.254079
504.000000	0.254837
505.000000	0.255599
506.000000	0.256226
507.000000	0.256883
508.000000	0.257648
509.000000	0.258461
510.000000	0.259126
511.000000	0.259777
512.000000	0.260487
513.000000	0.261239
514.000000	0.261978
515.000000	0.262791
516.000000	0.263710
517.000000	0.264428
518.000000	0.265204
519.000000	0.266140
520.000000	0.267014
521.000000	0.267818
522.000000	0.268594
523.000000	0.269444
524.000000	0.270280
525.000000	0.271132
526.000000	0.272136
527.000000	0.273140
528.000000	0.274053
529.000000	0.274896
530.000000	0.275855
531.000000	0.276894
532.000000	0.277878
533.000000	0.278833
534.000000	0.279797
535.000000	0.280774
536.000000	0.281780
537.000000	0.282794
538.000000	0.283824
539.000000	0.284868
540.000000	0.285829
541.000000	0.286752
542.000000	0.287726
543.000000	0.288689
544.000000	0.289684
545.000000	0.290662
546.000000	0.291648
547.000000	0.292699
548.000000	0.293777
549.000000	0.294679
550.000000	0.295636
551.000000	0.296678
552.000000	0.297711
553.000000	0.298628
554.000000	0.299550
555.000000	0.300560
556.000000	0.301558
557.000000	0.302436
558.000000	0.303303
559.000000	0.304144
560.000000	0.304959
561.000000	0.305818
562.000000	0.306652
563.000000	0.307386
564.000000	0.308161
565.000000	0.308996
566.000000	0.309826
567.000000	0.310568
568.000000	0.311205
569.000000	0.311941
570.000000	0.312654
571.000000	0.313297
572.000000	0.313910
573.000000	0.314499
574.000000	0.315073
575.000000	0.315701
576.000000	0.316310
577.000000	0.316846
578.000000	0.317363
579.000000	0.317938
580.000000	0.318489
581.000000	0.318965
582.000000	0.319380
583.000000	0.319696
584.000000	0.319985
585.000000	0.320392
586.000000	0.320754
587.000000	0.321045
588.000000	0.321294
589.000000	0.321658
590.000000	0.322016
591.000000	0.322294
592.000000	0.322595
593.000000	0.322838
594.000000	0.323027
595.000000	0.323273
596.000000	0.323474
597.000000	0.323650
598.000000	0.323756
599.000000	0.323889
600.000000	0.324053
601.000000	0.324153
602.000000	0.324264
603.000000	0.324391
604.000000	0.324533
605.000000	0.324636
606.000000	0.324708
607.000000	0.324781
608.000000	0.324908
609.000000	0.325012
610.000000	0.325135
611.000000	0.325312
612.000000	0.325356
613.000000	0.325395
614.000000	0.325541
615.000000	0.325652
616.000000	0.325717
617.000000	0.325739
618.000000	0.325863
619.000000	0.325942
620.000000	0.325949
621.000000	0.325968
622.000000	0.325955
623.000000	0.325930
624.000000	0.325931
625.000000	0.326044
626.000000	0.326135
627.000000	0.326175
628.000000	0.326322
629.000000	0.326468
630.000000	0.326521
631.000000	0.326699
632.000000	0.326842
633.000000	0.326965
634.000000	0.327098
635.000000	0.327262
636.000000	0.327440
637.000000	0.327602
638.000000	0.327768
639.000000	0.327910
640.000000	0.328074
641.000000	0.328181
642.000000	0.328344
643.000000	0.328525
644.000000	0.328652
645.000000	0.328799
646.000000	0.328952
647.000000	0.329066
648.000000	0.329162
649.000000	0.329294
650.000000	0.329470
651.000000	0.329716
652.000000	0.329876
653.000000	0.330017
654.000000	0.330209
655.000000	0.330412
656.000000	0.330673
657.000000	0.330958
658.000000	0.331194
659.000000	0.331450
660.000000	0.331714
661.000000	0.331878
662.000000	0.332053
663.000000	0.332295
664.000000	0.332515
665.000000	0.332812
666.000000	0.333121
667.000000	0.333340
668.000000	0.333638
669.000000	0.333946
670.000000	0.334224
671.000000	0.334506
672.000000	0.334798
673.000000	0.335091
674.000000	0.335385
675.000000	0.335668
676.000000	0.335952
677.000000	0.336274
678.000000	0.336640
679.000000	0.336959
680.000000	0.337205
681.000000	0.337499
682.000000	0.337847
683.000000	0.338170
684.000000	0.338556
685.000000	0.338875
686.000000	0.339217
687.000000	0.339665
688.000000	0.340059
689.000000	0.340418
690.000000	0.340816
691.000000	0.341242
692.000000	0.341596
693.000000	0.341936
694.000000	0.342306
695.000000	0.342722
696.000000	0.343148
697.000000	0.343529
698.000000	0.343933
699.000000	0.344348
700.000000	0.344768
701.000000	0.345192
702.000000	0.345614
703.000000	0.345999
704.000000	0.346328
705.000000	0.346717
706.000000	0.347101
707.000000	0.347458
708.000000	0.347877
709.000000	0.348309
710.000000	0.348726
711.000000	0.349136
712.000000	0.349556
713.000000	0.350007
714.000000	0.350446
715.000000	0.350901
716.000000	0.351354
717.000000	0.351748
718.000000	0.352186
719.000000	0.352599
720.000000	0.352949
721.000000	0.353338
722.000000	0.353718
723.000000	0.354121
724.000000	0.354473
725.000000	0.354816
726.000000	0.355217
727.000000	0.355563
728.000000	0.355949
729.000000	0.356337
730.000000	0.356636
731.000000	0.356953
732.000000	0.357273
733.000000	0.357638
734.000000	0.358038
735.000000	0.358340
736.000000	0.358673
737.000000	0.358976
738.000000	0.359333
739.000000	0.359734
740.000000	0.359975
741.000000	0.360248
742.000000	0.360480
743.000000	0.360663
744.000000	0.360967
745.000000	0.361140
746.000000	0.361296
747.000000	0.361537
748.000000	0.361830
749.000000	0.362142
750.000000	0.362401
751.000000	0.362593
752.000000	0.362777
753.000000	0.362995
754.000000	0.363239
755.000000	0.363431
756.000000	0.363630
757.000000	0.363852
758.000000	0.363995
759.000000	0.364115
760.000000	0.364174
761.000000	0.364257
762.000000	0.364275
763.000000	0.364283
764.000000	0.364500
765.000000	0.364530
766.000000	0.364470
767.000000	0.364471
768.000000	0.364452
769.000000	0.364483
770.000000	0.364574
771.000000	0.364619
772.000000	0.364716
773.000000	0.364772
774.000000	0.364781
775.000000	0.364694
776.000000	0.364662
777.000000	0.364736
778.000000	0.364702
779.000000	0.364636
780.000000	0.364581
781.000000	0.364532
782.000000	0.364335
783.000000	0.364181
784.000000	0.364088
785.000000	0.363926
786.000000	0.363787
787.000000	0.363711
788.000000	0.363624
789.000000	0.363553
790.000000	0.363468
791.000000	0.363370
792.000000	0.363292
793.000000	0.363191
794.000000	0.363036
795.000000	0.362839
796.000000	0.362649
797.000000	0.362465
798.000000	0.362243
799.000000	0.362056
800.000000	0.361884
801.000000	0.361695
802.000000	0.361555
803.000000	0.361367
804.000000	0.361129
805.000000	0.360896
806.000000	0.360606
807.000000	0.360347
808.000000	0.360096
809.000000	0.359902
810.000000	0.359780
811.000000	0.359675
812.000000	0.359412
813.000000	0.359140
814.000000	0.358912
815.000000	0.358723
816.000000	0.358538
817.000000	0.358350
818.000000	0.358079
819.000000	0.357886
820.000000	0.357721
821.000000	0.357493
822.000000	0.357235
823.000000	0.356993
824.000000	0.356679
825.000000	0.356318
826.000000	0.356018
827.000000	0.355803
828.000000	0.355668
829.000000	0.355370
830.000000	0.355076
831.000000	0.354859
832.000000	0.354559
833.000000	0.354338
834.000000	0.354124
835.000000	0.353880
836.000000	0.353613
837.000000	0.353390
838.000000	0.353196
839.000000	0.352900
840.000000	0.352614
841.000000	0.352373
842.000000	0.352132
843.000000	0.351886
844.000000	0.351565
845.000000	0.351166
846.000000	0.350845
847.000000	0.350570
848.000000	0.350371
849.000000	0.350292
850.000000	0.350143
851.000000	0.349851
852.000000	0.349514
853.000000	0.349334
854.000000	0.349024
855.000000	0.348764
856.000000	0.348617
857.000000	0.348394
858.000000	0.348254
859.000000	0.348145
860.000000	0.347910
861.000000	0.347612
862.000000	0.347351
863.000000	0.347128
864.000000	0.346827
865.000000	0.346550
866.000000	0.346340
867.000000	0.345988
868.000000	0.345739
869.000000	0.345528
870.000000	0.345295
871.000000	0.344981
872.000000	0.344772
873.000000	0.344656
874.000000	0.344439
875.000000	0.344135
876.000000	0.343848
877.000000	0.343632
878.000000	0.343344
879.000000	0.343121
880.000000	0.342902
881.000000	0.342756
882.000000	0.342690
883.000000	0.342581
884.000000	0.342222
885.000000	0.341922
886.000000	0.341606
887.000000	0.341302
888.000000	0.341216
889.000000	0.341089
890.000000	0.340794
891.000000	0.340530
892.000000	0.340309
893.000000	0.340130
894.000000	0.340051
895.000000	0.339776
896.000000	0.339559
897.000000	0.339327
898.000000	0.338971
899.000000	0.338869
900.000000	0.338762
901.000000	0.338542
902.000000	0.338515
903.000000	0.338235
904.000000	0.337948
905.000000	0.337867
906.000000	0.337741
907.000000	0.337567
908.000000	0.337425
909.000000	0.337288
910.000000	0.337001
911.000000	0.336683
912.000000	0.336475
913.000000	0.336221
914.000000	0.336208
915.000000	0.336347
916.000000	0.336100
917.000000	0.335819
918.000000	0.335544
919.000000	0.335269
920.000000	0.335092
921.000000	0.334952
922.000000	0.334883
923.000000	0.334900
924.000000	0.334765
925.000000	0.334581
926.000000	0.334429
927.000000	0.334150
928.000000	0.333879
929.000000	0.333676
930.000000	0.333535
931.000000	0.333205
932.000000	0.333020
933.000000	0.333040
934.000000	0.332884
935.000000	0.332666
936.000000	0.332598
937.000000	0.332635
938.000000	0.332335
939.000000	0.332214
940.000000	0.332187
941.000000	0.331998
942.000000	0.331692
943.000000	0.331546
944.000000	0.331500
945.000000	0.331310
946.000000	0.331092
947.000000	0.330991
948.000000	0.330990
949.000000	0.330681
950.000000	0.330534
951.000000	0.330607
952.000000	0.330651
953.000000	0.330650
954.000000	0.330494
955.000000	0.330120
956.000000	0.329904
957.000000	0.329857
958.000000	0.329804
959.000000	0.329675
960.000000	0.329658
961.000000	0.329718
962.000000	0.329709
963.000000	0.329459
964.000000	0.329327
965.000000	0.329381
966.000000	0.329431
967.000000	0.329358
968.000000	0.329134
969.000000	0.328923
970.000000	0.329023
971.000000	0.328804
972.000000	0.328610
973.000000	0.328541
974.000000	0.328509
975.000000	0.328572
976.000000	0.328643
977.000000	0.328620
978.000000	0.328443
979.000000	0.328460
980.000000	0.328453
981.000000	0.328479
982.000000	0.328376
983.000000	0.328086
984.000000	0.327879
985.000000	0.328127
986.000000	0.328258
987.000000	0.328221
988.000000	0.328009
989.000000	0.327933
990.000000	0.327945
991.000000	0.327945
992.000000	0.327914
993.000000	0.328058
994.000000	0.327973
995.000000	0.327962
996.000000	0.328318
997.000000	0.328306
998.000000	0.328207
999.000000	0.328328
1000.000000	0.328526
1001.000000	0.328131
1002.000000	0.328548
1003.000000	0.328382
1004.000000	0.328732
1005.000000	0.329395
1006.000000	0.329277
1007.000000	0.329004
1008.000000	0.329231
1009.000000	0.329093
1010.000000	0.328321
1011.000000	0.328654
1012.000000	0.329020
1013.000000	0.328513
1014.000000	0.328452
1015.000000	0.328778
1016.000000	0.329563
1017.000000	0.329972
1018.000000	0.329912
1019.000000	0.330012
1020.000000	0.329575
1021.000000	0.329419
1022.000000	0.330133
1023.000000	0.330572
1024.000000	0.330700
1025.000000	0.331274
1026.000000	0.331300
1027.000000	0.330463
1028.000000	0.330773
1029.000000	0.331390
1030.000000	0.331664
1031.000000	0.332377
1032.000000	0.332807
1033.000000	0.332925
1034.000000	0.333074
1035.000000	0.333265
1036.000000	0.333542
1037.000000	0.333751
1038.000000	0.333953
1039.000000	0.334480
1040.000000	0.334859
1041.000000	0.334894
1042.000000	0.334759
1043.000000	0.334858
1044.000000	0.335062
1045.000000	0.335224
1046.000000	0.335912
1047.000000	0.336303
1048.000000	0.336461
1049.000000	0.336682
1050.000000	0.336833
1051.000000	0.336986
1052.000000	0.337086
1053.000000	0.337239
1054.000000	0.337800
1055.000000	0.338196
1056.000000	0.338475
1057.000000	0.338790
1058.000000	0.339021
1059.000000	0.338943
1060.000000	0.339191
1061.000000	0.339619
1062.000000	0.340491
1063.000000	0.341449
1064.000000	0.342018
1065.000000	0.342537
1066.000000	0.342841
1067.000000	0.342400
1068.000000	0.342626
1069.000000	0.343167
1070.000000	0.343543
1071.000000	0.344378
1072.000000	0.344803
1073.000000	0.345123
1074.000000	0.345008
1075.000000	0.344895
1076.000000	0.345191
1077.000000	0.345472
1078.000000	0.345673
1079.000000	0.346261
1080.000000	0.347262
1081.000000	0.347829
1082.000000	0.348647
1083.000000	0.349249
1084.000000	0.349475
1085.000000	0.349920
1086.000000	0.350626
1087.000000	0.350963
1088.000000	0.350662
1089.000000	0.350973
1090.000000	0.351552
1091.000000	0.351880
1092.000000	0.352372
1093.000000	0.353189
1094.000000	0.353531
1095.000000	0.353245
1096.000000	0.353565
1097.000000	0.354128
1098.000000	0.354517
1099.000000	0.354919
1100.000000	0.355360
1101.000000	0.355624
1102.000000	0.356032
1103.000000	0.356574
1104.000000	0.357085
1105.000000	0.357773
1106.000000	0.358183
1107.000000	0.358315
1108.000000	0.358529
1109.000000	0.358631
1110.000000	0.358730
1111.000000	0.359117
1112.000000	0.359739
1113.000000	0.360266
1114.000000	0.360981
1115.000000	0.361491
1116.000000	0.362018
1117.000000	0.362313
1118.000000	0.362295
1119.000000	0.362494
1120.000000	0.362597
1121.000000	0.362827
1122.000000	0.363389
1123.000000	0.364010
1124.000000	0.364417
1125.000000	0.364850
1126.000000	0.365235
1127.000000	0.365578
1128.000000	0.365883
1129.000000	0.366133
1130.000000	0.366520
1131.000000	0.367020
1132.000000	0.367321
1133.000000	0.367595
1134.000000	0.368010
1135.000000	0.368360
1136.000000	0.368670
1137.000000	0.369177
1138.000000	0.369401
1139.000000	0.369323
1140.000000	0.369619
1141.000000	0.370054
1142.000000	0.370351
1143.000000	0.370657
1144.000000	0.371074
1145.000000	0.371263
1146.000000	0.371286
1147.000000	0.371464
1148.000000	0.371654
1149.000000	0.371802
1150.000000	0.371840
1151.000000	0.372167
1152.000000	0.372636
1153.000000	0.372920
1154.000000	0.373238
1155.000000	0.373502
1156.000000	0.373572
1157.000000	0.373769
1158.000000	0.374030
1159.000000	0.374250
1160.000000	0.374491
1161.000000	0.374641
1162.000000	0.374782
1163.000000	0.375091
1164.000000	0.375273
1165.000000	0.375291
1166.000000	0.375409
1167.000000	0.375462
1168.000000	0.375564
1169.000000	0.375708
1170.000000	0.375900
1171.000000	0.376204
1172.000000	0.376506
1173.000000	0.376759
1174.000000	0.377058
1175.000000	0.377413
1176.000000	0.377645
1177.000000	0.377966
1178.000000	0.378215
1179.000000	0.378329
1180.000000	0.378423
1181.000000	0.378627
1182.000000	0.378749
1183.000000	0.378774
1184.000000	0.379054
1185.000000	0.379207
1186.000000	0.379303
1187.000000	0.379443
1188.000000	0.379623
1189.000000	0.379710
1190.000000	0.379854
1191.000000	0.379961
1192.000000	0.380031
1193.000000	0.380319
1194.000000	0.380597
1195.000000	0.380857
1196.000000	0.381237
1197.000000	0.381440
1198.000000	0.381448
1199.000000	0.381584
1200.000000	0.381625
1201.000000	0.381832
1202.000000	0.382193
1203.000000	0.382423
1204.000000	0.382443
1205.000000	0.382480
1206.000000	0.382538
1207.000000	0.382614
1208.000000	0.382728
1209.000000	0.383030
1210.000000	0.383188
1211.000000	0.383306
1212.000000	0.383345
1213.000000	0.383348
1214.000000	0.383423
1215.000000	0.383413
1216.000000	0.383482
1217.000000	0.383640
1218.000000	0.383686
1219.000000	0.383728
1220.000000	0.383779
1221.000000	0.383791
1222.000000	0.383834
1223.000000	0.383835
1224.000000	0.383854
1225.000000	0.383935
1226.000000	0.383982
1227.000000	0.384043
1228.000000	0.384275
1229.000000	0.384342
1230.000000	0.384350
1231.000000	0.384225
1232.000000	0.384020
1233.000000	0.384118
1234.000000	0.384266
1235.000000	0.384380
1236.000000	0.384586
1237.000000	0.384786
1238.000000	0.384846
1239.000000	0.384912
1240.000000	0.385028
1241.000000	0.385135
1242.000000	0.385237
1243.000000	0.385313
1244.000000	0.385412
1245.000000	0.385581
1246.000000	0.385661
1247.000000	0.385818
1248.000000	0.385794
1249.000000	0.385842
1250.000000	0.385957
1251.000000	0.385855
1252.000000	0.385876
1253.000000	0.386130
1254.000000	0.386132
1255.000000	0.385940
1256.000000	0.385948
1257.000000	0.385971
1258.000000	0.386083
1259.000000	0.386314
1260.000000	0.386431
1261.000000	0.386424
1262.000000	0.386440
1263.000000	0.386418
1264.000000	0.386430
1265.000000	0.386488
1266.000000	0.386425
1267.000000	0.386514
1268.000000	0.386624
1269.000000	0.386442
1270.000000	0.386505
1271.000000	0.386549
1272.000000	0.386401
1273.000000	0.386536
1274.000000	0.386663
1275.000000	0.386711
1276.000000	0.386725
1277.000000	0.386838
1278.000000	0.386841
1279.000000	0.386933
1280.000000	0.387044
1281.000000	0.387022
1282.000000	0.387067
1283.000000	0.387104
1284.000000	0.386884
1285.000000	0.386849
1286.000000	0.386883
1287.000000	0.386911
1288.000000	0.386965
1289.000000	0.387099
1290.000000	0.387175
1291.000000	0.387136
1292.000000	0.387087
1293.000000	0.387025
1294.000000	0.386881
1295.000000	0.386841
1296.000000	0.386847
1297.000000	0.386815
1298.000000	0.386926
1299.000000	0.387036
1300.000000	0.387043
1301.000000	0.387010
1302.000000	0.386950
1303.000000	0.386936
1304.000000	0.386856
1305.000000	0.386941
1306.000000	0.386868
1307.000000	0.386693
1308.000000	0.386638
1309.000000	0.386576
1310.000000	0.386521
1311.000000	0.386565
1312.000000	0.386500
1313.000000	0.386500
1314.000000	0.386467
1315.000000	0.386395
1316.000000	0.386464
1317.000000	0.386394
1318.000000	0.386319
1319.000000	0.386243
1320.000000	0.386076
1321.000000	0.385934
1322.000000	0.385756
1323.000000	0.385648
1324.000000	0.385504
1325.000000	0.385164
1326.000000	0.385049
1327.000000	0.384930
1328.000000	0.384775
1329.000000	0.384672
1330.000000	0.384736
1331.000000	0.384591
1332.000000	0.384404
1333.000000	0.384358
1334.000000	0.384454
1335.000000	0.384395
1336.000000	0.384223
1337.000000	0.384135
1338.000000	0.383952
1339.000000	0.383749
1340.000000	0.383579
1341.000000	0.383521
1342.000000	0.383385
1343.000000	0.383128
1344.000000	0.382958
1345.000000	0.383081
1346.000000	0.383181
1347.000000	0.383011
1348.000000	0.382847
1349.000000	0.382455
1350.000000	0.382235
1351.000000	0.382119
1352.000000	0.381962
1353.000000	0.381994
1354.000000	0.381865
1355.000000	0.381589
1356.000000	0.381474
1357.000000	0.381124
1358.000000	0.380855
1359.000000	0.380766
1360.000000	0.380676
1361.000000	0.380834
1362.000000	0.380775
1363.000000	0.380503
1364.000000	0.380477
1365.000000	0.380530
1366.000000	0.380425
1367.000000	0.380424
1368.000000	0.380240
1369.000000	0.379845
1370.000000	0.379432
1371.000000	0.379076
1372.000000	0.378710
1373.000000	0.378377
1374.000000	0.378090
1375.000000	0.377710
1376.000000	0.377373
1377.000000	0.377093
1378.000000	0.376602
1379.000000	0.375996
1380.000000	0.375562
1381.000000	0.374865
1382.000000	0.374173
1383.000000	0.373762
1384.000000	0.372958
1385.000000	0.372162
1386.000000	0.371485
1387.000000	0.370558
1388.000000	0.369645
1389.000000	0.368735
1390.000000	0.367762
1391.000000	0.366722
1392.000000	0.365796
1393.000000	0.364833
1394.000000	0.363968
1395.000000	0.362970
1396.000000	0.361888
1397.000000	0.360819
1398.000000	0.359665
1399.000000	0.358604
1400.000000	0.357578
1401.000000	0.356445
1402.000000	0.355355
1403.000000	0.354156
1404.000000	0.353011
1405.000000	0.351956
1406.000000	0.350705
1407.000000	0.349490
1408.000000	0.348262
1409.000000	0.346896
1410.000000	0.345727
1411.000000	0.344674
1412.000000	0.343487
1413.000000	0.342449
1414.000000	0.341529
1415.000000	0.340675
1416.000000	0.339984
1417.000000	0.339450
1418.000000	0.338877
1419.000000	0.338344
1420.000000	0.337872
1421.000000	0.337429
1422.000000	0.336908
1423.000000	0.336430
1424.000000	0.335830
1425.000000	0.335218
1426.000000	0.334649
1427.000000	0.334072
1428.000000	0.333389
1429.000000	0.332611
1430.000000	0.331914
1431.000000	0.331440
1432.000000	0.331065
1433.000000	0.330915
1434.000000	0.330696
1435.000000	0.330624
1436.000000	0.330590
1437.000000	0.330504
1438.000000	0.330624
1439.000000	0.330944
1440.000000	0.331281
1441.000000	0.331739
1442.000000	0.332292
1443.000000	0.332889
1444.000000	0.333516
1445.000000	0.334072
1446.000000	0.334665
1447.000000	0.335154
1448.000000	0.335524
1449.000000	0.336026
1450.000000	0.336367
1451.000000	0.336541
1452.000000	0.336689
1453.000000	0.336812
1454.000000	0.336865
1455.000000	0.336888
1456.000000	0.337056
1457.000000	0.337196
1458.000000	0.337188
1459.000000	0.337208
1460.000000	0.337222
1461.000000	0.337134
1462.000000	0.337021
1463.000000	0.336919
1464.000000	0.336908
1465.000000	0.336886
1466.000000	0.336882
1467.000000	0.337022
1468.000000	0.337137
1469.000000	0.337358
1470.000000	0.337521
1471.000000	0.337699
1472.000000	0.337947
1473.000000	0.338262
1474.000000	0.338599
1475.000000	0.338847
1476.000000	0.339069
1477.000000	0.339277
1478.000000	0.339527
1479.000000	0.340017
1480.000000	0.340463
1481.000000	0.340819
1482.000000	0.341252
1483.000000	0.341618
1484.000000	0.341824
1485.000000	0.342184
1486.000000	0.342564
1487.000000	0.342982
1488.000000	0.343496
1489.000000	0.343932
1490.000000	0.344239
1491.000000	0.344656
1492.000000	0.345076
1493.000000	0.345453
1494.000000	0.345840
1495.000000	0.346103
1496.000000	0.346108
1497.000000	0.346374
1498.000000	0.346784
1499.000000	0.347147
1500.000000	0.347403
1501.000000	0.347714
1502.000000	0.347969
1503.000000	0.348180
1504.000000	0.348519
1505.000000	0.348920
1506.000000	0.349322
1507.000000	0.349625
1508.000000	0.349905
1509.000000	0.350217
1510.000000	0.350368
1511.000000	0.350480
1512.000000	0.350650
1513.000000	0.350882
1514.000000	0.351151
1515.000000	0.351292
1516.000000	0.351503
1517.000000	0.351792
1518.000000	0.351955
1519.000000	0.352018
1520.000000	0.352185
1521.000000	0.352207
1522.000000	0.352251
1523.000000	0.352486
1524.000000	0.352605
1525.000000	0.352798
1526.000000	0.352940
1527.000000	0.352932
1528.000000	0.353028
1529.000000	0.353106
1530.000000	0.353118
1531.000000	0.353312
1532.000000	0.353503
1533.000000	0.353612
1534.000000	0.353836
1535.000000	0.354061
1536.000000	0.354203
1537.000000	0.354461
1538.000000	0.354684
1539.000000	0.354709
1540.000000	0.354701
1541.000000	0.354881
1542.000000	0.355043
1543.000000	0.355184
1544.000000	0.355373
1545.000000	0.355418
1546.000000	0.355458
1547.000000	0.355559
1548.000000	0.355627
1549.000000	0.355675
1550.000000	0.355659
1551.000000	0.355606
1552.000000	0.355564
1553.000000	0.355561
1554.000000	0.355595
1555.000000	0.355542
1556.000000	0.355493
1557.000000	0.355510
1558.000000	0.355495
1559.000000	0.355324
1560.000000	0.355299
1561.000000	0.355394
1562.000000	0.355460
1563.000000	0.355637
1564.000000	0.355768
1565.000000	0.355864
1566.000000	0.355897
1567.000000	0.356013
1568.000000	0.356136
1569.000000	0.356365
1570.000000	0.356461
1571.000000	0.356471
1572.000000	0.356472
1573.000000	0.356414
1574.000000	0.356389
1575.000000	0.356408
1576.000000	0.356445
1577.000000	0.356455
1578.000000	0.356425
1579.000000	0.356470
1580.000000	0.356454
1581.000000	0.356437
1582.000000	0.356440
1583.000000	0.356461
1584.000000	0.356429
1585.000000	0.356437
1586.000000	0.356514
1587.000000	0.356625
1588.000000	0.356664
1589.000000	0.356787
1590.000000	0.356799
1591.000000	0.356676
1592.000000	0.356629
1593.000000	0.356571
1594.000000	0.356582
1595.000000	0.356699
1596.000000	0.356849
1597.000000	0.357184
1598.000000	0.357292
1599.000000	0.357335
1600.000000	0.357348
1601.000000	0.357304
1602.000000	0.357309
1603.000000	0.357403
1604.000000	0.357415
1605.000000	0.357370
1606.000000	0.357398
1607.000000	0.357593
1608.000000	0.357588
1609.000000	0.357559
1610.000000	0.357502
1611.000000	0.357256
1612.000000	0.357168
1613.000000	0.357375
1614.000000	0.357391
1615.000000	0.357409
1616.000000	0.357475
1617.000000	0.357425
1618.000000	0.357400
1619.000000	0.357363
1620.000000	0.357413
1621.000000	0.357547
1622.000000	0.357695
1623.000000	0.357857
1624.000000	0.358049
1625.000000	0.358080
1626.000000	0.358170
1627.000000	0.358445
1628.000000	0.358555
1629.000000	0.358521
1630.000000	0.358564
1631.000000	0.358424
1632.000000	0.358476
1633.000000	0.358729
1634.000000	0.358880
1635.000000	0.359125
1636.000000	0.359263
1637.000000	0.359289
1638.000000	0.359374
1639.000000	0.359568
1640.000000	0.359648
1641.000000	0.359789
1642.000000	0.359849
1643.000000	0.359805
1644.000000	0.359862
1645.000000	0.359931
1646.000000	0.359989
1647.000000	0.360155
1648.000000	0.360196
1649.000000	0.360318
1650.000000	0.360336
1651.000000	0.360277
1652.000000	0.360296
1653.000000	0.360158
1654.000000	0.360265
1655.000000	0.360533
1656.000000	0.360567
1657.000000	0.360660
1658.000000	0.360773
1659.000000	0.360876
1660.000000	0.360996
1661.000000	0.361114
1662.000000	0.361315
1663.000000	0.361458
1664.000000	0.361645
1665.000000	0.362004
1666.000000	0.362208
1667.000000	0.362186
1668.000000	0.362289
1669.000000	0.362415
1670.000000	0.362383
1671.000000	0.362406
1672.000000	0.362447
1673.000000	0.362337
1674.000000	0.362315
1675.000000	0.362501
1676.000000	0.362711
1677.000000	0.362814
1678.000000	0.362868
1679.000000	0.362992
1680.000000	0.363047
1681.000000	0.363084
1682.000000	0.363179
1683.000000	0.363253
1684.000000	0.363316
1685.000000	0.363497
1686.000000	0.363620
1687.000000	0.363652
1688.000000	0.363591
1689.000000	0.363481
1690.000000	0.363324
1691.000000	0.363319
1692.000000	0.363232
1693.000000	0.363132
1694.000000	0.363197
1695.000000	0.363335
1696.000000	0.363539
1697.000000	0.363590
1698.000000	0.363518
1699.000000	0.363640
1700.000000	0.363852
1701.000000	0.364097
1702.000000	0.364331
1703.000000	0.364449
1704.000000	0.364519
1705.000000	0.364608
1706.000000	0.364755
1707.000000	0.364832
1708.000000	0.364860
1709.000000	0.364786
1710.000000	0.364708
1711.000000	0.364686
1712.000000	0.364659
1713.000000	0.364611
1714.000000	0.364633
1715.000000	0.364634
1716.000000	0.364669
1717.000000	0.364611
1718.000000	0.364472
1719.000000	0.364351
1720.000000	0.364152
1721.000000	0.364093
1722.000000	0.364149
1723.000000	0.364180
1724.000000	0.364283
1725.000000	0.364416
1726.000000	0.364512
1727.000000	0.364546
1728.000000	0.364475
1729.000000	0.364455
1730.000000	0.364527
1731.000000	0.364629
1732.000000	0.364883
1733.000000	0.365053
1734.000000	0.365048
1735.000000	0.365028
1736.000000	0.364891
1737.000000	0.364878
1738.000000	0.364866
1739.000000	0.364938
1740.000000	0.365132
1741.000000	0.365165
1742.000000	0.365163
1743.000000	0.365232
1744.000000	0.365253
1745.000000	0.365259
1746.000000	0.365281
1747.000000	0.365360
1748.000000	0.365290
1749.000000	0.365158
1750.000000	0.365051
1751.000000	0.364974
1752.000000	0.365026
1753.000000	0.365117
1754.000000	0.365105
1755.000000	0.364917
1756.000000	0.364840
1757.000000	0.364782
1758.000000	0.364737
1759.000000	0.364823
1760.000000	0.364764
1761.000000	0.364428
1762.000000	0.364352
1763.000000	0.364342
1764.000000	0.364440
1765.000000	0.364886
1766.000000	0.364967
1767.000000	0.364725
1768.000000	0.364652
1769.000000	0.364526
1770.000000	0.364618
1771.000000	0.365055
1772.000000	0.365046
1773.000000	0.364641
1774.000000	0.364693
1775.000000	0.364832
1776.000000	0.364978
1777.000000	0.365497
1778.000000	0.365568
1779.000000	0.365271
1780.000000	0.365202
1781.000000	0.365081
1782.000000	0.365021
1783.000000	0.365061
1784.000000	0.365018
1785.000000	0.365047
1786.000000	0.365137
1787.000000	0.365112
1788.000000	0.365155
1789.000000	0.365091
1790.000000	0.364950
1791.000000	0.364938
1792.000000	0.365265
1793.000000	0.365335
1794.000000	0.365290
1795.000000	0.365395
1796.000000	0.365401
1797.000000	0.365407
1798.000000	0.365612
1799.000000	0.365700
1800.000000	0.365678
1801.000000	0.366022
1802.000000	0.365752
1803.000000	0.365216
1804.000000	0.364960
1805.000000	0.365149
1806.000000	0.365107
1807.000000	0.364782
1808.000000	0.364785
1809.000000	0.365197
1810.000000	0.365148
1811.000000	0.365341
1812.000000	0.365644
1813.000000	0.365945
1814.000000	0.366343
1815.000000	0.366823
1816.000000	0.367802
1817.000000	0.367814
1818.000000	0.367654
1819.000000	0.367046
1820.000000	0.366206
1821.000000	0.365894
1822.000000	0.365330
1823.000000	0.364866
1824.000000	0.364401
1825.000000	0.363081
1826.000000	0.362900
1827.000000	0.363219
1828.000000	0.363986
1829.000000	0.364548
1830.000000	0.365560
1831.000000	0.365280
1832.000000	0.363391
1833.000000	0.363187
1834.000000	0.363121
1835.000000	0.363252
1836.000000	0.364736
1837.000000	0.365251
1838.000000	0.365203
1839.000000	0.364572
1840.000000	0.364120
1841.000000	0.364347
1842.000000	0.364066
1843.000000	0.363393
1844.000000	0.363221
1845.000000	0.362941
1846.000000	0.362785
1847.000000	0.362757
1848.000000	0.363242
1849.000000	0.362642
1850.000000	0.362082
1851.000000	0.361484
1852.000000	0.360316
1853.000000	0.359682
1854.000000	0.359060
1855.000000	0.358318
1856.000000	0.357346
1857.000000	0.356946
1858.000000	0.356194
1859.000000	0.356033
1860.000000	0.356807
1861.000000	0.357095
1862.000000	0.356759
1863.000000	0.356671
1864.000000	0.355794
1865.000000	0.353460
1866.000000	0.352009
1867.000000	0.350749
1868.000000	0.349208
1869.000000	0.347414
1870.000000	0.346392
1871.000000	0.345552
1872.000000	0.344230
1873.000000	0.343004
1874.000000	0.342194
1875.000000	0.340814
1876.000000	0.338681
1877.000000	0.336701
1878.000000	0.334322
1879.000000	0.331864
1880.000000	0.329654
1881.000000	0.326671
1882.000000	0.323885
1883.000000	0.320986
1884.000000	0.317967
1885.000000	0.314333
1886.000000	0.311172
1887.000000	0.308241
1888.000000	0.304783
1889.000000	0.301568
1890.000000	0.298424
1891.000000	0.294467
1892.000000	0.290349
1893.000000	0.286266
1894.000000	0.281628
1895.000000	0.277361
1896.000000	0.273319
1897.000000	0.269875
1898.000000	0.266306
1899.000000	0.262706
1900.000000	0.258985
1901.000000	0.255115
1902.000000	0.250905
1903.000000	0.247237
1904.000000	0.244369
1905.000000	0.241712
1906.000000	0.239234
1907.000000	0.237267
1908.000000	0.235387
1909.000000	0.233454
1910.000000	0.231618
1911.000000	0.229936
1912.000000	0.228500
1913.000000	0.227197
1914.000000	0.226081
1915.000000	0.224970
1916.000000	0.224399
1917.000000	0.224002
1918.000000	0.224053
1919.000000	0.224189
1920.000000	0.224439
1921.000000	0.224255
1922.000000	0.223878
1923.000000	0.223411
1924.000000	0.223162
1925.000000	0.223292
1926.000000	0.223023
1927.000000	0.223271
1928.000000	0.223659
1929.000000	0.224279
1930.000000	0.224467
1931.000000	0.225308
1932.000000	0.225977
1933.000000	0.226052
1934.000000	0.226301
1935.000000	0.226200
1936.000000	0.226118
1937.000000	0.226526
1938.000000	0.226955
1939.000000	0.227334
1940.000000	0.228020
1941.000000	0.228459
1942.000000	0.228289
1943.000000	0.228403
1944.000000	0.228756
1945.000000	0.229025
1946.000000	0.229551
1947.000000	0.229578
1948.000000	0.229149
1949.000000	0.228785
1950.000000	0.228515
1951.000000	0.228527
1952.000000	0.228894
1953.000000	0.229463
1954.000000	0.229777
1955.000000	0.230032
1956.000000	0.230320
1957.000000	0.229983
1958.000000	0.229619
1959.000000	0.229201
1960.000000	0.228580
1961.000000	0.228404
1962.000000	0.228311
1963.000000	0.228616
1964.000000	0.228946
1965.000000	0.228917
1966.000000	0.228825
1967.000000	0.228539
1968.000000	0.228396
1969.000000	0.229004
1970.000000	0.229660
1971.000000	0.229974
1972.000000	0.230408
1973.000000	0.230593
1974.000000	0.230167
1975.000000	0.230337
1976.000000	0.230747
1977.000000	0.231321
1978.000000	0.232149
1979.000000	0.233021
1980.000000	0.234144
1981.000000	0.235302
1982.000000	0.235963
1983.000000	0.236517
1984.000000	0.236827
1985.000000	0.236394
1986.000000	0.236628
1987.000000	0.237099
1988.000000	0.237728
1989.000000	0.238305
1990.000000	0.239087
1991.000000	0.239363
1992.000000	0.239593
1993.000000	0.240659
1994.000000	0.241636
1995.000000	0.242538
1996.000000	0.243592
1997.000000	0.244402
1998.000000	0.244921
1999.000000	0.245404
2000.000000	0.245766
2001.000000	0.246183
2002.000000	0.246698
2003.000000	0.247644
2004.000000	0.249184
2005.000000	0.250448
2006.000000	0.251265
2007.000000	0.252044
2008.000000	0.252885
2009.000000	0.253490
2010.000000	0.254411
2011.000000	0.255239
2012.000000	0.256214
2013.000000	0.257373
2014.000000	0.258284
2015.000000	0.259148
2016.000000	0.260831
2017.000000	0.261786
2018.000000	0.262006
2019.000000	0.262452
2020.000000	0.262718
2021.000000	0.263298
2022.000000	0.264327
2023.000000	0.264898
2024.000000	0.265137
2025.000000	0.265808
2026.000000	0.266462
2027.000000	0.266772
2028.000000	0.267469
2029.000000	0.268509
2030.000000	0.268456
2031.000000	0.268754
2032.000000	0.269861
2033.000000	0.271143
2034.000000	0.272275
2035.000000	0.274348
2036.000000	0.275115
2037.000000	0.274891
2038.000000	0.275273
2039.000000	0.275528
2040.000000	0.275805
2041.000000	0.276584
2042.000000	0.277757
2043.000000	0.278498
2044.000000	0.279302
2045.000000	0.279863
2046.000000	0.280099
2047.000000	0.280545
2048.000000	0.280679
2049.000000	0.281333
2050.000000	0.282167
2051.000000	0.282647
2052.000000	0.283252
2053.000000	0.283539
2054.000000	0.283524
2055.000000	0.283764
2056.000000	0.284056
2057.000000	0.284403
2058.000000	0.285151
2059.000000	0.286039
2060.000000	0.286992
2061.000000	0.288271
2062.000000	0.289337
2063.000000	0.290762
2064.000000	0.291316
2065.000000	0.291426
2066.000000	0.291744
2067.000000	0.292025
2068.000000	0.292208
2069.000000	0.292448
2070.000000	0.293449
2071.000000	0.294005
2072.000000	0.294856
2073.000000	0.295922
2074.000000	0.295936
2075.000000	0.296210
2076.000000	0.295890
2077.000000	0.296135
2078.000000	0.296612
2079.000000	0.297414
2080.000000	0.298969
2081.000000	0.299725
2082.000000	0.300419
2083.000000	0.300805
2084.000000	0.300561
2085.000000	0.300739
2086.000000	0.301313
2087.000000	0.301836
2088.000000	0.302838
2089.000000	0.303472
2090.000000	0.303910
2091.000000	0.304231
2092.000000	0.304592
2093.000000	0.304577
2094.000000	0.305004
2095.000000	0.305756
2096.000000	0.306493
2097.000000	0.307379
2098.000000	0.308103
2099.000000	0.308702
2100.000000	0.308922
2101.000000	0.309443
2102.000000	0.309790
2103.000000	0.310080
2104.000000	0.311265
2105.000000	0.311448
2106.000000	0.310816
2107.000000	0.310956
2108.000000	0.310602
2109.000000	0.310986
2110.000000	0.312393
2111.000000	0.313021
2112.000000	0.313400
2113.000000	0.313874
2114.000000	0.313475
2115.000000	0.313641
2116.000000	0.314428
2117.000000	0.314604
2118.000000	0.315583
2119.000000	0.316251
2120.000000	0.316512
2121.000000	0.316275
2122.000000	0.316433
2123.000000	0.316534
2124.000000	0.316585
2125.000000	0.316854
2126.000000	0.316875
2127.000000	0.316542
2128.000000	0.316286
2129.000000	0.315698
2130.000000	0.315561
2131.000000	0.315808
2132.000000	0.316097
2133.000000	0.316939
2134.000000	0.317335
2135.000000	0.317267
2136.000000	0.317735
2137.000000	0.317630
2138.000000	0.317233
2139.000000	0.317233
2140.000000	0.316975
2141.000000	0.316748
2142.000000	0.316960
2143.000000	0.316599
2144.000000	0.315884
2145.000000	0.315585
2146.000000	0.315374
2147.000000	0.315531
2148.000000	0.315592
2149.000000	0.316376
2150.000000	0.316978
2151.000000	0.317815
2152.000000	0.317872
2153.000000	0.316702
2154.000000	0.316353
2155.000000	0.315364
2156.000000	0.315010
2157.000000	0.315868
2158.000000	0.316122
2159.000000	0.316517
2160.000000	0.316427
2161.000000	0.315395
2162.000000	0.315370
2163.000000	0.315353
2164.000000	0.315318
2165.000000	0.316561
2166.000000	0.316501
2167.000000	0.315655
2168.000000	0.315021
2169.000000	0.314448
2170.000000	0.315062
2171.000000	0.315080
2172.000000	0.315209
2173.000000	0.315820
2174.000000	0.316530
2175.000000	0.317038
2176.000000	0.318066
2177.000000	0.318653
2178.000000	0.318981
2179.000000	0.319061
2180.000000	0.318897
2181.000000	0.319153
2182.000000	0.318730
2183.000000	0.318217
2184.000000	0.317421
2185.000000	0.317212
2186.000000	0.316741
2187.000000	0.315762
2188.000000	0.316045
2189.000000	0.315993
2190.000000	0.316135
2191.000000	0.317479
2192.000000	0.317495
2193.000000	0.316672
2194.000000	0.316523
2195.000000	0.316065
2196.000000	0.315604
2197.000000	0.315971
2198.000000	0.315909
2199.000000	0.314965
2200.000000	0.314560
2201.000000	0.314267
2202.000000	0.314086
2203.000000	0.314197
2204.000000	0.314023
2205.000000	0.312894
2206.000000	0.312619
2207.000000	0.311873
2208.000000	0.311434
2209.000000	0.311400
2210.000000	0.310895
2211.000000	0.310396
2212.000000	0.310460
2213.000000	0.310780
2214.000000	0.312191
2215.000000	0.313057
2216.000000	0.313815
2217.000000	0.314637
2218.000000	0.314907
2219.000000	0.315616
2220.000000	0.316607
2221.000000	0.317440
2222.000000	0.318963
2223.000000	0.320147
2224.000000	0.320916
2225.000000	0.322181
2226.000000	0.321591
2227.000000	0.321275
2228.000000	0.323066
2229.000000	0.321157
2230.000000	0.319298
2231.000000	0.317826
2232.000000	0.314610
2233.000000	0.314021
2234.000000	0.314152
2235.000000	0.314646
2236.000000	0.314688
2237.000000	0.314137
2238.000000	0.313803
2239.000000	0.313813
2240.000000	0.313546
2241.000000	0.312816
2242.000000	0.312637
2243.000000	0.312368
2244.000000	0.312162
2245.000000	0.312058
2246.000000	0.312694
2247.000000	0.313605
2248.000000	0.314830
2249.000000	0.316978
2250.000000	0.319554
2251.000000	0.319533
2252.000000	0.319013
2253.000000	0.319208
2254.000000	0.314960
2255.000000	0.309882
2256.000000	0.309481
2257.000000	0.308448
2258.000000	0.307983
2259.000000	0.310506
2260.000000	0.311627
2261.000000	0.310522
2262.000000	0.307444
2263.000000	0.305122
2264.000000	0.300397
2265.000000	0.298755
2266.000000	0.299267
2267.000000	0.299081
2268.000000	0.300144
2269.000000	0.299548
2270.000000	0.297089
2271.000000	0.296620
2272.000000	0.298116
2273.000000	0.297316
2274.000000	0.295503
2275.000000	0.294535
2276.000000	0.292925
2277.000000	0.289929
2278.000000	0.288721
2279.000000	0.288606
2280.000000	0.286563
2281.000000	0.284452
2282.000000	0.283637
2283.000000	0.282721
2284.000000	0.281145
2285.000000	0.280168
2286.000000	0.278800
2287.000000	0.276812
2288.000000	0.276460
2289.000000	0.275090
2290.000000	0.276139
2291.000000	0.279751
2292.000000	0.279520
2293.000000	0.280062
2294.000000	0.280979
2295.000000	0.279545
2296.000000	0.280399
2297.000000	0.283548
2298.000000	0.286342
2299.000000	0.290632
2300.000000	0.292153
2301.000000	0.293535
2302.000000	0.293165
2303.000000	0.288899
2304.000000	0.287981
2305.000000	0.287530
2306.000000	0.287785
2307.000000	0.290070
2308.000000	0.291429
2309.000000	0.290065
2310.000000	0.290618
2311.000000	0.292261
2312.000000	0.289350
2313.000000	0.289121
2314.000000	0.288589
2315.000000	0.285412
2316.000000	0.284289
2317.000000	0.282728
2318.000000	0.283403
2319.000000	0.283720
2320.000000	0.283549
2321.000000	0.284768
2322.000000	0.283826
2323.000000	0.282823
2324.000000	0.283700
2325.000000	0.283595
2326.000000	0.281706
2327.000000	0.280009
2328.000000	0.278175
2329.000000	0.276297
2330.000000	0.274108
2331.000000	0.274614
2332.000000	0.277244
2333.000000	0.279167
2334.000000	0.281561
2335.000000	0.282036
2336.000000	0.278910
2337.000000	0.277635
2338.000000	0.276439
2339.000000	0.275788
2340.000000	0.276934
2341.000000	0.276530
2342.000000	0.274138
2343.000000	0.271782
2344.000000	0.268733
2345.000000	0.266186
2346.000000	0.263831
2347.000000	0.263372
2348.000000	0.264517
2349.000000	0.264302
2350.000000	0.263549
2351.000000	0.260063
2352.000000	0.253965
2353.000000	0.250322
2354.000000	0.247264
2355.000000	0.246830
2356.000000	0.247734
2357.000000	0.249542
2358.000000	0.252595
2359.000000	0.252942
2360.000000	0.255638
2361.000000	0.257112
2362.000000	0.258720
2363.000000	0.260318
2364.000000	0.258503
2365.000000	0.259574
2366.000000	0.256510
2367.000000	0.254731
2368.000000	0.254581
2369.000000	0.246296
2370.000000	0.241967
2371.000000	0.238621
2372.000000	0.235188
2373.000000	0.238897
2374.000000	0.238375
2375.000000	0.240874
2376.000000	0.244878
2377.000000	0.242544
2378.000000	0.244435
2379.000000	0.243389
2380.000000	0.239640
2381.000000	0.237716
2382.000000	0.232794
2383.000000	0.229076
2384.000000	0.225552
2385.000000	0.224208
2386.000000	0.229745
2387.000000	0.231254
2388.000000	0.231912
2389.000000	0.234581
2390.000000	0.229735
2391.000000	0.224203
2392.000000	0.220250
2393.000000	0.217909
2394.000000	0.218004
2395.000000	0.221023
2396.000000	0.230876
2397.000000	0.237813
2398.000000	0.240789
2399.000000	0.239421
2400.000000	0.229354
2401.000000	0.221249
2402.000000	0.214357
2403.000000	0.212704
2404.000000	0.214111
2405.000000	0.209637
2406.000000	0.208845
2407.000000	0.208148
2408.000000	0.203835
2409.000000	0.205356
2410.000000	0.209647
2411.000000	0.210602
2412.000000	0.212515
2413.000000	0.214509
2414.000000	0.215893
2415.000000	0.218462
2416.000000	0.224402
2417.000000	0.232361
2418.000000	0.239368
2419.000000	0.236354
2420.000000	0.231845
2421.000000	0.231297
2422.000000	0.216280
2423.000000	0.216470
2424.000000	0.228384
2425.000000	0.222836
2426.000000	0.229911
2427.000000	0.236910
2428.000000	0.229424
2429.000000	0.226210
2430.000000	0.228037
2431.000000	0.221939
2432.000000	0.208902
2433.000000	0.208925
2434.000000	0.200025
2435.000000	0.197047
2436.000000	0.215155
2437.000000	0.217926
2438.000000	0.223341
2439.000000	0.229870
2440.000000	0.217653
2441.000000	0.207517
2442.000000	0.204070
2443.000000	0.202612
2444.000000	0.201324
2445.000000	0.214173
2446.000000	0.225286
2447.000000	0.217306
2448.000000	0.215424
2449.000000	0.210561
2450.000000	0.197523
2451.000000	0.192372
2452.000000	0.199242
2453.000000	0.197066
2454.000000	0.202219
2455.000000	0.211745
2456.000000	0.206952
2457.000000	0.211017
2458.000000	0.200801
2459.000000	0.190269
2460.000000	0.179551
2461.000000	0.177420
2462.000000	0.192018
2463.000000	0.188532
2464.000000	0.202730
2465.000000	0.197098
2466.000000	0.175383
2467.000000	0.177464
2468.000000	0.167957
2469.000000	0.150577
2470.000000	0.152096
2471.000000	0.154734
2472.000000	0.149294
2473.000000	0.179378
2474.000000	0.196953
2475.000000	0.192468
2476.000000	0.189084
2477.000000	0.170504
2478.000000	0.183235
2479.000000	0.211102
2480.000000	0.248231
2481.000000	0.272666
2482.000000	0.247399
2483.000000	0.199667
2484.000000	0.156870
2485.000000	0.168898
2486.000000	0.196871
2487.000000	0.245947
2488.000000	0.278413
2489.000000	0.246627
2490.000000	0.218448
2491.000000	0.153063
2492.000000	0.138292
2493.000000	0.171366
2494.000000	0.174874
2495.000000	0.190553
2496.000000	0.194348
2497.000000	0.158452
2498.000000	0.151019
2499.000000	0.173441
2500.000000	0.203756
