# Wavelength	Nau-2_60_FV7_40_00001.asd.rts.txt
350.000000	0.092403
351.000000	0.105607
352.000000	0.098033
353.000000	0.094899
354.000000	0.106091
355.000000	0.107777
356.000000	0.105196
357.000000	0.100300
358.000000	0.091280
359.000000	0.096637
360.000000	0.105039
361.000000	0.101711
362.000000	0.102263
363.000000	0.102392
364.000000	0.098898
365.000000	0.095695
366.000000	0.095391
367.000000	0.097239
368.000000	0.097773
369.000000	0.098111
370.000000	0.099104
371.000000	0.101330
372.000000	0.102809
373.000000	0.104156
374.000000	0.105879
375.000000	0.106583
376.000000	0.105809
377.000000	0.103451
378.000000	0.099455
379.000000	0.100985
380.000000	0.104714
381.000000	0.104854
382.000000	0.104455
383.000000	0.103222
384.000000	0.101730
385.000000	0.103596
386.000000	0.106550
387.000000	0.108666
388.000000	0.107883
389.000000	0.107567
390.000000	0.107654
391.000000	0.106993
392.000000	0.108191
393.000000	0.109391
394.000000	0.108996
395.000000	0.107870
396.000000	0.107015
397.000000	0.107065
398.000000	0.108766
399.000000	0.108063
400.000000	0.106695
401.000000	0.108616
402.000000	0.110248
403.000000	0.110694
404.000000	0.110009
405.000000	0.109237
406.000000	0.109580
407.000000	0.110781
408.000000	0.110031
409.000000	0.109711
410.000000	0.110388
411.000000	0.111656
412.000000	0.111780
413.000000	0.111758
414.000000	0.112788
415.000000	0.113224
416.000000	0.112901
417.000000	0.112387
418.000000	0.113788
419.000000	0.114928
420.000000	0.115024
421.000000	0.114273
422.000000	0.114247
423.000000	0.114873
424.000000	0.115500
425.000000	0.115475
426.000000	0.115477
427.000000	0.115978
428.000000	0.116371
429.000000	0.116487
430.000000	0.116445
431.000000	0.116755
432.000000	0.117110
433.000000	0.117476
434.000000	0.117957
435.000000	0.118195
436.000000	0.118367
437.000000	0.118644
438.000000	0.118674
439.000000	0.118788
440.000000	0.119170
441.000000	0.119530
442.000000	0.119945
443.000000	0.120305
444.000000	0.120447
445.000000	0.120353
446.000000	0.120612
447.000000	0.121623
448.000000	0.121856
449.000000	0.121956
450.000000	0.122473
451.000000	0.123068
452.000000	0.123660
453.000000	0.124199
454.000000	0.124813
455.000000	0.124916
456.000000	0.124907
457.000000	0.125449
458.000000	0.125783
459.000000	0.125965
460.000000	0.126195
461.000000	0.126499
462.000000	0.126928
463.000000	0.127423
464.000000	0.128081
465.000000	0.128226
466.000000	0.128076
467.000000	0.128519
468.000000	0.128907
469.000000	0.129105
470.000000	0.129246
471.000000	0.129696
472.000000	0.130136
473.000000	0.130377
474.000000	0.130670
475.000000	0.130946
476.000000	0.131243
477.000000	0.131537
478.000000	0.131609
479.000000	0.131741
480.000000	0.132207
481.000000	0.132536
482.000000	0.132966
483.000000	0.133571
484.000000	0.133892
485.000000	0.133970
486.000000	0.134063
487.000000	0.134553
488.000000	0.134844
489.000000	0.134929
490.000000	0.135170
491.000000	0.135417
492.000000	0.135580
493.000000	0.135559
494.000000	0.135709
495.000000	0.135817
496.000000	0.135767
497.000000	0.135972
498.000000	0.136169
499.000000	0.136297
500.000000	0.136435
501.000000	0.136542
502.000000	0.136621
503.000000	0.136666
504.000000	0.136952
505.000000	0.137224
506.000000	0.137252
507.000000	0.137402
508.000000	0.137711
509.000000	0.138111
510.000000	0.138453
511.000000	0.138691
512.000000	0.138914
513.000000	0.139307
514.000000	0.139775
515.000000	0.140242
516.000000	0.140603
517.000000	0.140908
518.000000	0.141276
519.000000	0.141728
520.000000	0.142193
521.000000	0.142541
522.000000	0.142837
523.000000	0.143451
524.000000	0.144113
525.000000	0.144772
526.000000	0.145504
527.000000	0.146271
528.000000	0.147105
529.000000	0.148069
530.000000	0.149093
531.000000	0.150110
532.000000	0.151096
533.000000	0.152345
534.000000	0.153570
535.000000	0.154679
536.000000	0.155768
537.000000	0.156977
538.000000	0.158265
539.000000	0.159493
540.000000	0.160502
541.000000	0.161428
542.000000	0.162433
543.000000	0.163469
544.000000	0.164379
545.000000	0.165141
546.000000	0.166143
547.000000	0.167181
548.000000	0.168206
549.000000	0.169203
550.000000	0.170264
551.000000	0.171452
552.000000	0.172756
553.000000	0.174030
554.000000	0.175369
555.000000	0.176852
556.000000	0.178422
557.000000	0.180012
558.000000	0.181646
559.000000	0.183222
560.000000	0.184819
561.000000	0.186482
562.000000	0.188135
563.000000	0.189623
564.000000	0.191078
565.000000	0.192574
566.000000	0.194000
567.000000	0.195317
568.000000	0.196500
569.000000	0.197565
570.000000	0.198601
571.000000	0.199589
572.000000	0.200433
573.000000	0.201160
574.000000	0.201818
575.000000	0.202498
576.000000	0.203143
577.000000	0.203607
578.000000	0.203878
579.000000	0.204234
580.000000	0.204558
581.000000	0.204780
582.000000	0.204906
583.000000	0.204938
584.000000	0.204959
585.000000	0.205103
586.000000	0.205083
587.000000	0.204941
588.000000	0.204785
589.000000	0.204561
590.000000	0.204327
591.000000	0.204111
592.000000	0.203874
593.000000	0.203546
594.000000	0.203141
595.000000	0.202765
596.000000	0.202300
597.000000	0.201802
598.000000	0.201316
599.000000	0.200789
600.000000	0.200272
601.000000	0.199752
602.000000	0.199183
603.000000	0.198594
604.000000	0.198026
605.000000	0.197529
606.000000	0.197043
607.000000	0.196528
608.000000	0.195952
609.000000	0.195449
610.000000	0.194980
611.000000	0.194477
612.000000	0.194011
613.000000	0.193516
614.000000	0.192997
615.000000	0.192579
616.000000	0.192132
617.000000	0.191618
618.000000	0.191160
619.000000	0.190747
620.000000	0.190354
621.000000	0.189986
622.000000	0.189636
623.000000	0.189246
624.000000	0.188805
625.000000	0.188503
626.000000	0.188195
627.000000	0.187843
628.000000	0.187585
629.000000	0.187409
630.000000	0.187210
631.000000	0.187003
632.000000	0.186784
633.000000	0.186539
634.000000	0.186276
635.000000	0.186159
636.000000	0.186073
637.000000	0.185932
638.000000	0.185773
639.000000	0.185650
640.000000	0.185615
641.000000	0.185626
642.000000	0.185619
643.000000	0.185622
644.000000	0.185685
645.000000	0.185719
646.000000	0.185777
647.000000	0.185882
648.000000	0.186011
649.000000	0.186205
650.000000	0.186428
651.000000	0.186575
652.000000	0.186707
653.000000	0.186909
654.000000	0.187215
655.000000	0.187528
656.000000	0.187874
657.000000	0.188252
658.000000	0.188641
659.000000	0.188995
660.000000	0.189324
661.000000	0.189778
662.000000	0.190257
663.000000	0.190754
664.000000	0.191244
665.000000	0.191719
666.000000	0.192248
667.000000	0.192867
668.000000	0.193480
669.000000	0.194068
670.000000	0.194669
671.000000	0.195448
672.000000	0.196179
673.000000	0.196854
674.000000	0.197656
675.000000	0.198489
676.000000	0.199336
677.000000	0.200212
678.000000	0.201113
679.000000	0.202066
680.000000	0.203077
681.000000	0.204054
682.000000	0.205112
683.000000	0.206202
684.000000	0.207254
685.000000	0.208386
686.000000	0.209576
687.000000	0.210723
688.000000	0.211879
689.000000	0.213074
690.000000	0.214342
691.000000	0.215620
692.000000	0.216973
693.000000	0.218404
694.000000	0.219699
695.000000	0.221047
696.000000	0.222475
697.000000	0.223944
698.000000	0.225348
699.000000	0.226796
700.000000	0.228369
701.000000	0.229900
702.000000	0.231507
703.000000	0.233200
704.000000	0.234885
705.000000	0.236566
706.000000	0.238240
707.000000	0.239978
708.000000	0.241701
709.000000	0.243426
710.000000	0.245188
711.000000	0.246970
712.000000	0.248783
713.000000	0.250623
714.000000	0.252402
715.000000	0.254195
716.000000	0.256013
717.000000	0.257822
718.000000	0.259617
719.000000	0.261408
720.000000	0.263229
721.000000	0.265153
722.000000	0.267041
723.000000	0.268893
724.000000	0.270741
725.000000	0.272578
726.000000	0.274440
727.000000	0.276230
728.000000	0.278020
729.000000	0.279816
730.000000	0.281571
731.000000	0.283333
732.000000	0.285076
733.000000	0.286824
734.000000	0.288557
735.000000	0.290236
736.000000	0.291954
737.000000	0.293612
738.000000	0.295194
739.000000	0.296804
740.000000	0.298344
741.000000	0.299840
742.000000	0.301341
743.000000	0.302813
744.000000	0.304225
745.000000	0.305571
746.000000	0.306904
747.000000	0.308201
748.000000	0.309491
749.000000	0.310749
750.000000	0.311939
751.000000	0.313154
752.000000	0.314303
753.000000	0.315409
754.000000	0.316563
755.000000	0.317728
756.000000	0.318848
757.000000	0.319839
758.000000	0.320835
759.000000	0.321820
760.000000	0.322718
761.000000	0.323627
762.000000	0.324520
763.000000	0.325373
764.000000	0.326239
765.000000	0.327013
766.000000	0.327757
767.000000	0.328525
768.000000	0.329198
769.000000	0.329843
770.000000	0.330481
771.000000	0.331045
772.000000	0.331568
773.000000	0.332046
774.000000	0.332598
775.000000	0.333124
776.000000	0.333597
777.000000	0.333997
778.000000	0.334351
779.000000	0.334767
780.000000	0.335228
781.000000	0.335582
782.000000	0.335897
783.000000	0.336246
784.000000	0.336504
785.000000	0.336755
786.000000	0.336949
787.000000	0.337101
788.000000	0.337388
789.000000	0.337683
790.000000	0.337945
791.000000	0.338217
792.000000	0.338428
793.000000	0.338591
794.000000	0.338732
795.000000	0.338852
796.000000	0.338910
797.000000	0.338913
798.000000	0.338939
799.000000	0.338998
800.000000	0.339070
801.000000	0.339130
802.000000	0.339190
803.000000	0.339229
804.000000	0.339276
805.000000	0.339306
806.000000	0.339296
807.000000	0.339316
808.000000	0.339322
809.000000	0.339366
810.000000	0.339436
811.000000	0.339481
812.000000	0.339425
813.000000	0.339381
814.000000	0.339363
815.000000	0.339326
816.000000	0.339238
817.000000	0.339139
818.000000	0.339005
819.000000	0.339012
820.000000	0.338988
821.000000	0.338843
822.000000	0.338786
823.000000	0.338621
824.000000	0.338391
825.000000	0.338339
826.000000	0.338291
827.000000	0.338217
828.000000	0.338166
829.000000	0.338165
830.000000	0.337996
831.000000	0.337757
832.000000	0.337533
833.000000	0.337309
834.000000	0.337129
835.000000	0.337039
836.000000	0.336924
837.000000	0.336826
838.000000	0.336739
839.000000	0.336572
840.000000	0.336307
841.000000	0.336027
842.000000	0.335787
843.000000	0.335676
844.000000	0.335510
845.000000	0.335238
846.000000	0.335044
847.000000	0.334806
848.000000	0.334550
849.000000	0.334366
850.000000	0.334241
851.000000	0.334072
852.000000	0.333877
853.000000	0.333720
854.000000	0.333565
855.000000	0.333429
856.000000	0.333163
857.000000	0.332944
858.000000	0.332796
859.000000	0.332607
860.000000	0.332319
861.000000	0.331988
862.000000	0.331745
863.000000	0.331627
864.000000	0.331492
865.000000	0.331280
866.000000	0.331022
867.000000	0.330806
868.000000	0.330580
869.000000	0.330303
870.000000	0.330055
871.000000	0.329738
872.000000	0.329470
873.000000	0.329210
874.000000	0.328789
875.000000	0.328462
876.000000	0.328247
877.000000	0.327986
878.000000	0.327699
879.000000	0.327388
880.000000	0.326962
881.000000	0.326691
882.000000	0.326398
883.000000	0.326068
884.000000	0.325698
885.000000	0.325464
886.000000	0.325218
887.000000	0.324921
888.000000	0.324694
889.000000	0.324490
890.000000	0.324170
891.000000	0.323817
892.000000	0.323402
893.000000	0.323003
894.000000	0.322785
895.000000	0.322624
896.000000	0.322338
897.000000	0.322040
898.000000	0.321875
899.000000	0.321413
900.000000	0.320994
901.000000	0.320755
902.000000	0.320631
903.000000	0.320443
904.000000	0.320260
905.000000	0.320067
906.000000	0.319748
907.000000	0.319412
908.000000	0.319139
909.000000	0.318786
910.000000	0.318440
911.000000	0.318111
912.000000	0.317819
913.000000	0.317598
914.000000	0.317367
915.000000	0.317106
916.000000	0.316698
917.000000	0.316533
918.000000	0.316331
919.000000	0.315897
920.000000	0.315681
921.000000	0.315422
922.000000	0.315107
923.000000	0.314806
924.000000	0.314484
925.000000	0.314257
926.000000	0.314139
927.000000	0.313804
928.000000	0.313595
929.000000	0.313391
930.000000	0.312986
931.000000	0.312585
932.000000	0.312281
933.000000	0.312064
934.000000	0.311718
935.000000	0.311379
936.000000	0.311096
937.000000	0.310763
938.000000	0.310315
939.000000	0.310014
940.000000	0.309810
941.000000	0.309631
942.000000	0.309477
943.000000	0.309259
944.000000	0.308920
945.000000	0.308934
946.000000	0.308778
947.000000	0.308427
948.000000	0.307984
949.000000	0.307670
950.000000	0.307498
951.000000	0.307369
952.000000	0.307208
953.000000	0.306965
954.000000	0.306704
955.000000	0.306422
956.000000	0.306168
957.000000	0.305954
958.000000	0.305687
959.000000	0.305395
960.000000	0.305203
961.000000	0.305079
962.000000	0.304900
963.000000	0.304538
964.000000	0.304159
965.000000	0.303969
966.000000	0.303883
967.000000	0.303501
968.000000	0.303107
969.000000	0.302822
970.000000	0.302785
971.000000	0.302766
972.000000	0.302809
973.000000	0.302761
974.000000	0.302421
975.000000	0.302035
976.000000	0.301801
977.000000	0.301766
978.000000	0.301643
979.000000	0.301507
980.000000	0.301174
981.000000	0.300891
982.000000	0.300817
983.000000	0.300618
984.000000	0.300348
985.000000	0.300308
986.000000	0.300017
987.000000	0.299739
988.000000	0.299598
989.000000	0.299506
990.000000	0.299448
991.000000	0.299448
992.000000	0.299520
993.000000	0.299315
994.000000	0.298843
995.000000	0.298572
996.000000	0.298794
997.000000	0.298941
998.000000	0.299166
999.000000	0.299507
1000.000000	0.299449
1001.000000	0.299412
1002.000000	0.299248
1003.000000	0.299462
1004.000000	0.299632
1005.000000	0.299915
1006.000000	0.299849
1007.000000	0.299907
1008.000000	0.299254
1009.000000	0.299267
1010.000000	0.299201
1011.000000	0.298861
1012.000000	0.299010
1013.000000	0.298608
1014.000000	0.298052
1015.000000	0.298154
1016.000000	0.298554
1017.000000	0.299111
1018.000000	0.298833
1019.000000	0.298632
1020.000000	0.298295
1021.000000	0.298160
1022.000000	0.298268
1023.000000	0.298460
1024.000000	0.298855
1025.000000	0.298880
1026.000000	0.298619
1027.000000	0.298082
1028.000000	0.297707
1029.000000	0.297824
1030.000000	0.297853
1031.000000	0.297716
1032.000000	0.297854
1033.000000	0.297903
1034.000000	0.298089
1035.000000	0.298612
1036.000000	0.298939
1037.000000	0.299221
1038.000000	0.299234
1039.000000	0.299004
1040.000000	0.299263
1041.000000	0.299290
1042.000000	0.299544
1043.000000	0.300573
1044.000000	0.301127
1045.000000	0.301485
1046.000000	0.302082
1047.000000	0.302142
1048.000000	0.301587
1049.000000	0.301378
1050.000000	0.300710
1051.000000	0.300863
1052.000000	0.301872
1053.000000	0.301953
1054.000000	0.302337
1055.000000	0.302398
1056.000000	0.301716
1057.000000	0.300990
1058.000000	0.301645
1059.000000	0.301879
1060.000000	0.302439
1061.000000	0.303696
1062.000000	0.303518
1063.000000	0.303288
1064.000000	0.303500
1065.000000	0.303654
1066.000000	0.303677
1067.000000	0.303956
1068.000000	0.304270
1069.000000	0.304179
1070.000000	0.304305
1071.000000	0.305100
1072.000000	0.305452
1073.000000	0.305379
1074.000000	0.305689
1075.000000	0.306274
1076.000000	0.306285
1077.000000	0.306378
1078.000000	0.306883
1079.000000	0.307085
1080.000000	0.307162
1081.000000	0.307200
1082.000000	0.307216
1083.000000	0.307339
1084.000000	0.307298
1085.000000	0.307654
1086.000000	0.308521
1087.000000	0.308929
1088.000000	0.309103
1089.000000	0.309468
1090.000000	0.309798
1091.000000	0.309798
1092.000000	0.310227
1093.000000	0.311002
1094.000000	0.311307
1095.000000	0.311300
1096.000000	0.311570
1097.000000	0.311790
1098.000000	0.312037
1099.000000	0.312377
1100.000000	0.312700
1101.000000	0.312845
1102.000000	0.313135
1103.000000	0.313655
1104.000000	0.313911
1105.000000	0.314100
1106.000000	0.314231
1107.000000	0.313896
1108.000000	0.313955
1109.000000	0.314299
1110.000000	0.314654
1111.000000	0.314884
1112.000000	0.315286
1113.000000	0.315497
1114.000000	0.315435
1115.000000	0.315590
1116.000000	0.315869
1117.000000	0.316082
1118.000000	0.316234
1119.000000	0.316437
1120.000000	0.316731
1121.000000	0.316909
1122.000000	0.317240
1123.000000	0.317544
1124.000000	0.317448
1125.000000	0.317516
1126.000000	0.317425
1127.000000	0.317469
1128.000000	0.317591
1129.000000	0.317842
1130.000000	0.318122
1131.000000	0.318619
1132.000000	0.318762
1133.000000	0.318768
1134.000000	0.318986
1135.000000	0.319250
1136.000000	0.319200
1137.000000	0.318996
1138.000000	0.318988
1139.000000	0.318762
1140.000000	0.318871
1141.000000	0.319514
1142.000000	0.319808
1143.000000	0.319767
1144.000000	0.320031
1145.000000	0.320320
1146.000000	0.320355
1147.000000	0.320344
1148.000000	0.320255
1149.000000	0.320242
1150.000000	0.319969
1151.000000	0.320086
1152.000000	0.320518
1153.000000	0.320709
1154.000000	0.320852
1155.000000	0.321034
1156.000000	0.321160
1157.000000	0.321284
1158.000000	0.321394
1159.000000	0.321531
1160.000000	0.321612
1161.000000	0.321726
1162.000000	0.321946
1163.000000	0.322326
1164.000000	0.322506
1165.000000	0.322468
1166.000000	0.322542
1167.000000	0.322471
1168.000000	0.322520
1169.000000	0.322662
1170.000000	0.322841
1171.000000	0.323124
1172.000000	0.323339
1173.000000	0.323540
1174.000000	0.323720
1175.000000	0.323853
1176.000000	0.323945
1177.000000	0.324108
1178.000000	0.324217
1179.000000	0.324229
1180.000000	0.324232
1181.000000	0.324292
1182.000000	0.324368
1183.000000	0.324471
1184.000000	0.324561
1185.000000	0.324742
1186.000000	0.325010
1187.000000	0.325143
1188.000000	0.325315
1189.000000	0.325378
1190.000000	0.325344
1191.000000	0.325371
1192.000000	0.325505
1193.000000	0.325667
1194.000000	0.325665
1195.000000	0.325771
1196.000000	0.325902
1197.000000	0.325992
1198.000000	0.326161
1199.000000	0.326294
1200.000000	0.326336
1201.000000	0.326437
1202.000000	0.326566
1203.000000	0.326597
1204.000000	0.326647
1205.000000	0.326726
1206.000000	0.326672
1207.000000	0.326590
1208.000000	0.326583
1209.000000	0.326623
1210.000000	0.326636
1211.000000	0.326737
1212.000000	0.326749
1213.000000	0.326641
1214.000000	0.326712
1215.000000	0.326880
1216.000000	0.326959
1217.000000	0.327062
1218.000000	0.327116
1219.000000	0.327061
1220.000000	0.327156
1221.000000	0.327312
1222.000000	0.327448
1223.000000	0.327558
1224.000000	0.327725
1225.000000	0.328003
1226.000000	0.328294
1227.000000	0.328461
1228.000000	0.328608
1229.000000	0.328714
1230.000000	0.328615
1231.000000	0.328664
1232.000000	0.329011
1233.000000	0.329212
1234.000000	0.329334
1235.000000	0.329436
1236.000000	0.329333
1237.000000	0.329350
1238.000000	0.329396
1239.000000	0.329384
1240.000000	0.329290
1241.000000	0.329375
1242.000000	0.329325
1243.000000	0.329378
1244.000000	0.329670
1245.000000	0.329879
1246.000000	0.329959
1247.000000	0.330124
1248.000000	0.330209
1249.000000	0.330240
1250.000000	0.330377
1251.000000	0.330429
1252.000000	0.330462
1253.000000	0.330401
1254.000000	0.330508
1255.000000	0.330719
1256.000000	0.330839
1257.000000	0.331053
1258.000000	0.331161
1259.000000	0.331010
1260.000000	0.331097
1261.000000	0.331193
1262.000000	0.331297
1263.000000	0.331495
1264.000000	0.331753
1265.000000	0.331895
1266.000000	0.331916
1267.000000	0.331913
1268.000000	0.331909
1269.000000	0.331884
1270.000000	0.332023
1271.000000	0.332143
1272.000000	0.332186
1273.000000	0.332250
1274.000000	0.332251
1275.000000	0.332304
1276.000000	0.332413
1277.000000	0.332582
1278.000000	0.332732
1279.000000	0.332832
1280.000000	0.332824
1281.000000	0.332842
1282.000000	0.333018
1283.000000	0.333051
1284.000000	0.332840
1285.000000	0.332834
1286.000000	0.332808
1287.000000	0.332719
1288.000000	0.332918
1289.000000	0.333197
1290.000000	0.333275
1291.000000	0.333299
1292.000000	0.333441
1293.000000	0.333519
1294.000000	0.333487
1295.000000	0.333542
1296.000000	0.333568
1297.000000	0.333622
1298.000000	0.333750
1299.000000	0.333730
1300.000000	0.333676
1301.000000	0.333664
1302.000000	0.333672
1303.000000	0.333988
1304.000000	0.334058
1305.000000	0.334085
1306.000000	0.334102
1307.000000	0.334039
1308.000000	0.334006
1309.000000	0.334004
1310.000000	0.334067
1311.000000	0.334100
1312.000000	0.334339
1313.000000	0.334554
1314.000000	0.334531
1315.000000	0.334535
1316.000000	0.334511
1317.000000	0.334457
1318.000000	0.334563
1319.000000	0.334713
1320.000000	0.334748
1321.000000	0.334643
1322.000000	0.334688
1323.000000	0.334714
1324.000000	0.334601
1325.000000	0.334620
1326.000000	0.334569
1327.000000	0.334513
1328.000000	0.334643
1329.000000	0.334629
1330.000000	0.334627
1331.000000	0.334653
1332.000000	0.334652
1333.000000	0.334639
1334.000000	0.334777
1335.000000	0.334808
1336.000000	0.334775
1337.000000	0.334751
1338.000000	0.334633
1339.000000	0.334454
1340.000000	0.334514
1341.000000	0.334482
1342.000000	0.334400
1343.000000	0.334462
1344.000000	0.334449
1345.000000	0.334377
1346.000000	0.334519
1347.000000	0.334586
1348.000000	0.334558
1349.000000	0.334530
1350.000000	0.334606
1351.000000	0.334506
1352.000000	0.334407
1353.000000	0.334478
1354.000000	0.334435
1355.000000	0.334414
1356.000000	0.334522
1357.000000	0.334365
1358.000000	0.334268
1359.000000	0.334303
1360.000000	0.334253
1361.000000	0.334237
1362.000000	0.334211
1363.000000	0.334122
1364.000000	0.334049
1365.000000	0.333967
1366.000000	0.333913
1367.000000	0.333874
1368.000000	0.333696
1369.000000	0.333796
1370.000000	0.333792
1371.000000	0.333625
1372.000000	0.333556
1373.000000	0.333301
1374.000000	0.332997
1375.000000	0.332809
1376.000000	0.332768
1377.000000	0.332717
1378.000000	0.332599
1379.000000	0.332490
1380.000000	0.332196
1381.000000	0.331808
1382.000000	0.331381
1383.000000	0.330788
1384.000000	0.330259
1385.000000	0.329692
1386.000000	0.328987
1387.000000	0.328249
1388.000000	0.327332
1389.000000	0.326446
1390.000000	0.325675
1391.000000	0.324677
1392.000000	0.323650
1393.000000	0.322600
1394.000000	0.321428
1395.000000	0.320295
1396.000000	0.319287
1397.000000	0.318059
1398.000000	0.316621
1399.000000	0.315363
1400.000000	0.314032
1401.000000	0.312755
1402.000000	0.311579
1403.000000	0.310498
1404.000000	0.309397
1405.000000	0.308344
1406.000000	0.307430
1407.000000	0.306536
1408.000000	0.305862
1409.000000	0.305424
1410.000000	0.305027
1411.000000	0.304704
1412.000000	0.304212
1413.000000	0.303751
1414.000000	0.303659
1415.000000	0.303523
1416.000000	0.303356
1417.000000	0.303478
1418.000000	0.303490
1419.000000	0.303539
1420.000000	0.303631
1421.000000	0.303687
1422.000000	0.303771
1423.000000	0.303898
1424.000000	0.303986
1425.000000	0.304211
1426.000000	0.304322
1427.000000	0.304279
1428.000000	0.304416
1429.000000	0.304495
1430.000000	0.304507
1431.000000	0.304687
1432.000000	0.304787
1433.000000	0.304841
1434.000000	0.304986
1435.000000	0.305243
1436.000000	0.305498
1437.000000	0.305779
1438.000000	0.306041
1439.000000	0.306353
1440.000000	0.306705
1441.000000	0.307062
1442.000000	0.307569
1443.000000	0.308113
1444.000000	0.308662
1445.000000	0.309334
1446.000000	0.310183
1447.000000	0.311025
1448.000000	0.311761
1449.000000	0.312548
1450.000000	0.313286
1451.000000	0.314032
1452.000000	0.314738
1453.000000	0.315273
1454.000000	0.315730
1455.000000	0.316131
1456.000000	0.316557
1457.000000	0.317003
1458.000000	0.317473
1459.000000	0.317903
1460.000000	0.318210
1461.000000	0.318492
1462.000000	0.318700
1463.000000	0.318900
1464.000000	0.319178
1465.000000	0.319506
1466.000000	0.319910
1467.000000	0.320250
1468.000000	0.320604
1469.000000	0.321118
1470.000000	0.321453
1471.000000	0.321722
1472.000000	0.321983
1473.000000	0.322325
1474.000000	0.322637
1475.000000	0.323018
1476.000000	0.323534
1477.000000	0.323836
1478.000000	0.324105
1479.000000	0.324398
1480.000000	0.324620
1481.000000	0.324897
1482.000000	0.325323
1483.000000	0.325640
1484.000000	0.325953
1485.000000	0.326188
1486.000000	0.326258
1487.000000	0.326497
1488.000000	0.326831
1489.000000	0.327157
1490.000000	0.327407
1491.000000	0.327691
1492.000000	0.327962
1493.000000	0.328167
1494.000000	0.328348
1495.000000	0.328538
1496.000000	0.328611
1497.000000	0.328725
1498.000000	0.328898
1499.000000	0.329003
1500.000000	0.329185
1501.000000	0.329418
1502.000000	0.329659
1503.000000	0.329924
1504.000000	0.330022
1505.000000	0.330170
1506.000000	0.330393
1507.000000	0.330619
1508.000000	0.331039
1509.000000	0.331371
1510.000000	0.331383
1511.000000	0.331419
1512.000000	0.331424
1513.000000	0.331416
1514.000000	0.331668
1515.000000	0.331860
1516.000000	0.331994
1517.000000	0.332086
1518.000000	0.332173
1519.000000	0.332239
1520.000000	0.332246
1521.000000	0.332343
1522.000000	0.332526
1523.000000	0.332684
1524.000000	0.332813
1525.000000	0.332926
1526.000000	0.332871
1527.000000	0.332841
1528.000000	0.333007
1529.000000	0.333136
1530.000000	0.333150
1531.000000	0.333155
1532.000000	0.333140
1533.000000	0.333079
1534.000000	0.333115
1535.000000	0.333332
1536.000000	0.333470
1537.000000	0.333668
1538.000000	0.333860
1539.000000	0.333899
1540.000000	0.333875
1541.000000	0.333887
1542.000000	0.333903
1543.000000	0.333904
1544.000000	0.334045
1545.000000	0.334174
1546.000000	0.334333
1547.000000	0.334582
1548.000000	0.334791
1549.000000	0.334985
1550.000000	0.335033
1551.000000	0.334963
1552.000000	0.334918
1553.000000	0.334961
1554.000000	0.335097
1555.000000	0.335314
1556.000000	0.335454
1557.000000	0.335466
1558.000000	0.335569
1559.000000	0.335620
1560.000000	0.335620
1561.000000	0.335683
1562.000000	0.335722
1563.000000	0.335728
1564.000000	0.335777
1565.000000	0.335864
1566.000000	0.335843
1567.000000	0.335874
1568.000000	0.335860
1569.000000	0.335874
1570.000000	0.335947
1571.000000	0.336017
1572.000000	0.336052
1573.000000	0.336126
1574.000000	0.336167
1575.000000	0.336149
1576.000000	0.336192
1577.000000	0.336329
1578.000000	0.336349
1579.000000	0.336290
1580.000000	0.336374
1581.000000	0.336584
1582.000000	0.336689
1583.000000	0.336900
1584.000000	0.336913
1585.000000	0.336824
1586.000000	0.336798
1587.000000	0.336688
1588.000000	0.336703
1589.000000	0.336789
1590.000000	0.336869
1591.000000	0.337038
1592.000000	0.337131
1593.000000	0.337286
1594.000000	0.337326
1595.000000	0.337300
1596.000000	0.337345
1597.000000	0.337407
1598.000000	0.337420
1599.000000	0.337512
1600.000000	0.337512
1601.000000	0.337424
1602.000000	0.337486
1603.000000	0.337705
1604.000000	0.337713
1605.000000	0.337788
1606.000000	0.337734
1607.000000	0.337462
1608.000000	0.337379
1609.000000	0.337426
1610.000000	0.337371
1611.000000	0.337355
1612.000000	0.337331
1613.000000	0.337351
1614.000000	0.337395
1615.000000	0.337547
1616.000000	0.337650
1617.000000	0.337681
1618.000000	0.337762
1619.000000	0.337837
1620.000000	0.337915
1621.000000	0.338040
1622.000000	0.338225
1623.000000	0.338415
1624.000000	0.338522
1625.000000	0.338537
1626.000000	0.338475
1627.000000	0.338281
1628.000000	0.338207
1629.000000	0.338122
1630.000000	0.338096
1631.000000	0.338045
1632.000000	0.337998
1633.000000	0.338015
1634.000000	0.338020
1635.000000	0.338098
1636.000000	0.338070
1637.000000	0.338010
1638.000000	0.337954
1639.000000	0.337897
1640.000000	0.337810
1641.000000	0.337746
1642.000000	0.337770
1643.000000	0.337862
1644.000000	0.337884
1645.000000	0.338023
1646.000000	0.337992
1647.000000	0.337779
1648.000000	0.337711
1649.000000	0.337791
1650.000000	0.337810
1651.000000	0.337931
1652.000000	0.337947
1653.000000	0.337811
1654.000000	0.337766
1655.000000	0.337618
1656.000000	0.337510
1657.000000	0.337538
1658.000000	0.337503
1659.000000	0.337585
1660.000000	0.337642
1661.000000	0.337579
1662.000000	0.337596
1663.000000	0.337598
1664.000000	0.337638
1665.000000	0.337750
1666.000000	0.337811
1667.000000	0.337792
1668.000000	0.337769
1669.000000	0.337631
1670.000000	0.337542
1671.000000	0.337585
1672.000000	0.337654
1673.000000	0.337755
1674.000000	0.337807
1675.000000	0.337763
1676.000000	0.337849
1677.000000	0.337903
1678.000000	0.337754
1679.000000	0.337727
1680.000000	0.337525
1681.000000	0.337285
1682.000000	0.337368
1683.000000	0.337431
1684.000000	0.337560
1685.000000	0.337663
1686.000000	0.337619
1687.000000	0.337693
1688.000000	0.337597
1689.000000	0.337482
1690.000000	0.337361
1691.000000	0.337260
1692.000000	0.337184
1693.000000	0.337113
1694.000000	0.337058
1695.000000	0.337086
1696.000000	0.337106
1697.000000	0.337057
1698.000000	0.337085
1699.000000	0.337119
1700.000000	0.337059
1701.000000	0.337194
1702.000000	0.337315
1703.000000	0.337321
1704.000000	0.337411
1705.000000	0.337482
1706.000000	0.337549
1707.000000	0.337564
1708.000000	0.337548
1709.000000	0.337473
1710.000000	0.337380
1711.000000	0.337330
1712.000000	0.337378
1713.000000	0.337318
1714.000000	0.337214
1715.000000	0.337178
1716.000000	0.337101
1717.000000	0.337083
1718.000000	0.337186
1719.000000	0.337147
1720.000000	0.337072
1721.000000	0.337055
1722.000000	0.337060
1723.000000	0.336959
1724.000000	0.336873
1725.000000	0.336799
1726.000000	0.336506
1727.000000	0.336350
1728.000000	0.336260
1729.000000	0.336040
1730.000000	0.335839
1731.000000	0.335784
1732.000000	0.335776
1733.000000	0.335876
1734.000000	0.336038
1735.000000	0.336068
1736.000000	0.336042
1737.000000	0.335964
1738.000000	0.335775
1739.000000	0.335758
1740.000000	0.335787
1741.000000	0.335735
1742.000000	0.335779
1743.000000	0.335726
1744.000000	0.335566
1745.000000	0.335301
1746.000000	0.334948
1747.000000	0.334565
1748.000000	0.334332
1749.000000	0.334418
1750.000000	0.334378
1751.000000	0.334554
1752.000000	0.334673
1753.000000	0.334510
1754.000000	0.334438
1755.000000	0.334250
1756.000000	0.334174
1757.000000	0.334229
1758.000000	0.334255
1759.000000	0.334293
1760.000000	0.334344
1761.000000	0.334362
1762.000000	0.334371
1763.000000	0.334427
1764.000000	0.334454
1765.000000	0.334455
1766.000000	0.334383
1767.000000	0.334146
1768.000000	0.333991
1769.000000	0.333938
1770.000000	0.333820
1771.000000	0.333663
1772.000000	0.333529
1773.000000	0.333243
1774.000000	0.333098
1775.000000	0.333148
1776.000000	0.333098
1777.000000	0.332998
1778.000000	0.332883
1779.000000	0.332735
1780.000000	0.332642
1781.000000	0.332496
1782.000000	0.332423
1783.000000	0.332464
1784.000000	0.332485
1785.000000	0.332403
1786.000000	0.332374
1787.000000	0.332377
1788.000000	0.332464
1789.000000	0.332561
1790.000000	0.332489
1791.000000	0.332430
1792.000000	0.332392
1793.000000	0.332330
1794.000000	0.332300
1795.000000	0.332374
1796.000000	0.332415
1797.000000	0.332467
1798.000000	0.332675
1799.000000	0.332749
1800.000000	0.332830
1801.000000	0.332939
1802.000000	0.332720
1803.000000	0.332595
1804.000000	0.332519
1805.000000	0.332193
1806.000000	0.332144
1807.000000	0.332141
1808.000000	0.332469
1809.000000	0.332659
1810.000000	0.333786
1811.000000	0.334378
1812.000000	0.335505
1813.000000	0.335746
1814.000000	0.335508
1815.000000	0.335127
1816.000000	0.333949
1817.000000	0.333360
1818.000000	0.332642
1819.000000	0.332808
1820.000000	0.332811
1821.000000	0.332884
1822.000000	0.332670
1823.000000	0.332117
1824.000000	0.331570
1825.000000	0.330360
1826.000000	0.330182
1827.000000	0.330137
1828.000000	0.330554
1829.000000	0.331344
1830.000000	0.332076
1831.000000	0.332534
1832.000000	0.332862
1833.000000	0.332790
1834.000000	0.332375
1835.000000	0.332248
1836.000000	0.331454
1837.000000	0.331268
1838.000000	0.331533
1839.000000	0.331804
1840.000000	0.331571
1841.000000	0.331971
1842.000000	0.331991
1843.000000	0.331722
1844.000000	0.331401
1845.000000	0.330587
1846.000000	0.330334
1847.000000	0.330091
1848.000000	0.330049
1849.000000	0.329809
1850.000000	0.330060
1851.000000	0.329794
1852.000000	0.328568
1853.000000	0.328618
1854.000000	0.329393
1855.000000	0.329305
1856.000000	0.329178
1857.000000	0.329130
1858.000000	0.328324
1859.000000	0.327146
1860.000000	0.326660
1861.000000	0.326121
1862.000000	0.325669
1863.000000	0.325426
1864.000000	0.325250
1865.000000	0.325447
1866.000000	0.325129
1867.000000	0.324579
1868.000000	0.323956
1869.000000	0.323347
1870.000000	0.322538
1871.000000	0.321740
1872.000000	0.320881
1873.000000	0.319847
1874.000000	0.318341
1875.000000	0.316845
1876.000000	0.315154
1877.000000	0.313379
1878.000000	0.310780
1879.000000	0.308347
1880.000000	0.306075
1881.000000	0.303641
1882.000000	0.301335
1883.000000	0.299332
1884.000000	0.296862
1885.000000	0.293862
1886.000000	0.290762
1887.000000	0.287424
1888.000000	0.283691
1889.000000	0.280023
1890.000000	0.276985
1891.000000	0.273950
1892.000000	0.270259
1893.000000	0.266433
1894.000000	0.262731
1895.000000	0.258717
1896.000000	0.254217
1897.000000	0.250616
1898.000000	0.247348
1899.000000	0.243348
1900.000000	0.240081
1901.000000	0.237226
1902.000000	0.234819
1903.000000	0.233824
1904.000000	0.233105
1905.000000	0.232673
1906.000000	0.232608
1907.000000	0.232922
1908.000000	0.233312
1909.000000	0.234154
1910.000000	0.234913
1911.000000	0.235714
1912.000000	0.236436
1913.000000	0.237440
1914.000000	0.239328
1915.000000	0.241073
1916.000000	0.243135
1917.000000	0.245228
1918.000000	0.247723
1919.000000	0.249916
1920.000000	0.251957
1921.000000	0.253253
1922.000000	0.253784
1923.000000	0.254339
1924.000000	0.254630
1925.000000	0.255226
1926.000000	0.256337
1927.000000	0.256894
1928.000000	0.257746
1929.000000	0.258826
1930.000000	0.260008
1931.000000	0.261085
1932.000000	0.262500
1933.000000	0.263380
1934.000000	0.264016
1935.000000	0.264425
1936.000000	0.264918
1937.000000	0.265809
1938.000000	0.266545
1939.000000	0.267157
1940.000000	0.267806
1941.000000	0.268460
1942.000000	0.268412
1943.000000	0.268406
1944.000000	0.269283
1945.000000	0.269601
1946.000000	0.269984
1947.000000	0.270459
1948.000000	0.270367
1949.000000	0.270413
1950.000000	0.270422
1951.000000	0.270432
1952.000000	0.270643
1953.000000	0.270433
1954.000000	0.270661
1955.000000	0.271403
1956.000000	0.271770
1957.000000	0.272350
1958.000000	0.272215
1959.000000	0.271984
1960.000000	0.272300
1961.000000	0.272652
1962.000000	0.272904
1963.000000	0.273401
1964.000000	0.273858
1965.000000	0.274073
1966.000000	0.274046
1967.000000	0.274500
1968.000000	0.274905
1969.000000	0.274983
1970.000000	0.275161
1971.000000	0.275109
1972.000000	0.275464
1973.000000	0.275839
1974.000000	0.276435
1975.000000	0.277281
1976.000000	0.278741
1977.000000	0.279465
1978.000000	0.279786
1979.000000	0.280069
1980.000000	0.280072
1981.000000	0.280533
1982.000000	0.281197
1983.000000	0.281672
1984.000000	0.281934
1985.000000	0.281552
1986.000000	0.281560
1987.000000	0.281536
1988.000000	0.282396
1989.000000	0.282606
1990.000000	0.283838
1991.000000	0.284792
1992.000000	0.284606
1993.000000	0.285663
1994.000000	0.286094
1995.000000	0.285988
1996.000000	0.286537
1997.000000	0.286737
1998.000000	0.286220
1999.000000	0.286768
2000.000000	0.287831
2001.000000	0.288762
2002.000000	0.290613
2003.000000	0.291687
2004.000000	0.292168
2005.000000	0.292677
2006.000000	0.292916
2007.000000	0.293246
2008.000000	0.293537
2009.000000	0.293777
2010.000000	0.294249
2011.000000	0.294517
2012.000000	0.294919
2013.000000	0.295565
2014.000000	0.296232
2015.000000	0.296157
2016.000000	0.296659
2017.000000	0.297142
2018.000000	0.296970
2019.000000	0.297470
2020.000000	0.297839
2021.000000	0.298094
2022.000000	0.298152
2023.000000	0.298502
2024.000000	0.298870
2025.000000	0.299369
2026.000000	0.299896
2027.000000	0.300480
2028.000000	0.301244
2029.000000	0.301633
2030.000000	0.301445
2031.000000	0.301184
2032.000000	0.300622
2033.000000	0.300666
2034.000000	0.300976
2035.000000	0.301932
2036.000000	0.302494
2037.000000	0.303400
2038.000000	0.304032
2039.000000	0.304397
2040.000000	0.305318
2041.000000	0.305839
2042.000000	0.306612
2043.000000	0.307348
2044.000000	0.307225
2045.000000	0.307102
2046.000000	0.306495
2047.000000	0.306198
2048.000000	0.305612
2049.000000	0.305586
2050.000000	0.305818
2051.000000	0.305722
2052.000000	0.305050
2053.000000	0.304930
2054.000000	0.305154
2055.000000	0.305713
2056.000000	0.306127
2057.000000	0.307138
2058.000000	0.308519
2059.000000	0.309002
2060.000000	0.309353
2061.000000	0.309977
2062.000000	0.310109
2063.000000	0.309214
2064.000000	0.308914
2065.000000	0.309128
2066.000000	0.309005
2067.000000	0.308896
2068.000000	0.309385
2069.000000	0.309410
2070.000000	0.309398
2071.000000	0.309861
2072.000000	0.309613
2073.000000	0.309188
2074.000000	0.308853
2075.000000	0.308790
2076.000000	0.308591
2077.000000	0.308835
2078.000000	0.309727
2079.000000	0.310246
2080.000000	0.310738
2081.000000	0.311006
2082.000000	0.311268
2083.000000	0.311438
2084.000000	0.311331
2085.000000	0.311349
2086.000000	0.311114
2087.000000	0.310939
2088.000000	0.310454
2089.000000	0.310031
2090.000000	0.309907
2091.000000	0.309925
2092.000000	0.309944
2093.000000	0.310281
2094.000000	0.310558
2095.000000	0.311233
2096.000000	0.311658
2097.000000	0.312228
2098.000000	0.311793
2099.000000	0.311674
2100.000000	0.310966
2101.000000	0.310341
2102.000000	0.310774
2103.000000	0.311100
2104.000000	0.311175
2105.000000	0.311420
2106.000000	0.311736
2107.000000	0.311968
2108.000000	0.312161
2109.000000	0.312387
2110.000000	0.312604
2111.000000	0.312609
2112.000000	0.312217
2113.000000	0.312126
2114.000000	0.312173
2115.000000	0.312057
2116.000000	0.312103
2117.000000	0.312158
2118.000000	0.312328
2119.000000	0.312299
2120.000000	0.312313
2121.000000	0.312539
2122.000000	0.312604
2123.000000	0.312336
2124.000000	0.312264
2125.000000	0.312291
2126.000000	0.312413
2127.000000	0.312643
2128.000000	0.313097
2129.000000	0.313612
2130.000000	0.314407
2131.000000	0.314810
2132.000000	0.314624
2133.000000	0.315257
2134.000000	0.314689
2135.000000	0.313978
2136.000000	0.314438
2137.000000	0.314784
2138.000000	0.315396
2139.000000	0.315639
2140.000000	0.316220
2141.000000	0.316292
2142.000000	0.315692
2143.000000	0.315103
2144.000000	0.314494
2145.000000	0.314088
2146.000000	0.313758
2147.000000	0.313271
2148.000000	0.313514
2149.000000	0.314580
2150.000000	0.314521
2151.000000	0.315123
2152.000000	0.315381
2153.000000	0.315100
2154.000000	0.315013
2155.000000	0.315222
2156.000000	0.314865
2157.000000	0.313967
2158.000000	0.313455
2159.000000	0.312926
2160.000000	0.312775
2161.000000	0.313017
2162.000000	0.313072
2163.000000	0.313003
2164.000000	0.312912
2165.000000	0.312649
2166.000000	0.312861
2167.000000	0.312089
2168.000000	0.311714
2169.000000	0.312373
2170.000000	0.312588
2171.000000	0.312938
2172.000000	0.314207
2173.000000	0.314670
2174.000000	0.314467
2175.000000	0.314302
2176.000000	0.314630
2177.000000	0.314227
2178.000000	0.312540
2179.000000	0.311952
2180.000000	0.311073
2181.000000	0.311165
2182.000000	0.311493
2183.000000	0.312660
2184.000000	0.313790
2185.000000	0.314374
2186.000000	0.314087
2187.000000	0.313313
2188.000000	0.312617
2189.000000	0.312274
2190.000000	0.312342
2191.000000	0.313513
2192.000000	0.313531
2193.000000	0.313045
2194.000000	0.312406
2195.000000	0.310693
2196.000000	0.310391
2197.000000	0.310896
2198.000000	0.310826
2199.000000	0.311500
2200.000000	0.312012
2201.000000	0.312840
2202.000000	0.312504
2203.000000	0.311782
2204.000000	0.309213
2205.000000	0.308037
2206.000000	0.307286
2207.000000	0.309288
2208.000000	0.312305
2209.000000	0.312979
2210.000000	0.313056
2211.000000	0.310307
2212.000000	0.308523
2213.000000	0.307035
2214.000000	0.304885
2215.000000	0.303119
2216.000000	0.301408
2217.000000	0.301473
2218.000000	0.302266
2219.000000	0.303311
2220.000000	0.307972
2221.000000	0.309057
2222.000000	0.307676
2223.000000	0.306677
2224.000000	0.305389
2225.000000	0.301783
2226.000000	0.298958
2227.000000	0.298185
2228.000000	0.296980
2229.000000	0.295928
2230.000000	0.297835
2231.000000	0.299345
2232.000000	0.300973
2233.000000	0.304851
2234.000000	0.306670
2235.000000	0.306898
2236.000000	0.306842
2237.000000	0.305756
2238.000000	0.304834
2239.000000	0.303064
2240.000000	0.302079
2241.000000	0.301058
2242.000000	0.299625
2243.000000	0.298418
2244.000000	0.297192
2245.000000	0.296606
2246.000000	0.295338
2247.000000	0.291982
2248.000000	0.291089
2249.000000	0.291787
2250.000000	0.290317
2251.000000	0.291670
2252.000000	0.293416
2253.000000	0.292980
2254.000000	0.292289
2255.000000	0.290960
2256.000000	0.291743
2257.000000	0.293497
2258.000000	0.295558
2259.000000	0.297664
2260.000000	0.297856
2261.000000	0.297340
2262.000000	0.294351
2263.000000	0.293497
2264.000000	0.293504
2265.000000	0.292828
2266.000000	0.293194
2267.000000	0.292324
2268.000000	0.290662
2269.000000	0.288100
2270.000000	0.283168
2271.000000	0.281211
2272.000000	0.278492
2273.000000	0.278264
2274.000000	0.282817
2275.000000	0.284383
2276.000000	0.285329
2277.000000	0.287462
2278.000000	0.285877
2279.000000	0.283927
2280.000000	0.282104
2281.000000	0.278172
2282.000000	0.275962
2283.000000	0.274125
2284.000000	0.272772
2285.000000	0.271901
2286.000000	0.270833
2287.000000	0.271048
2288.000000	0.269398
2289.000000	0.267518
2290.000000	0.265285
2291.000000	0.263123
2292.000000	0.261928
2293.000000	0.259654
2294.000000	0.258865
2295.000000	0.258692
2296.000000	0.258137
2297.000000	0.258657
2298.000000	0.258754
2299.000000	0.258321
2300.000000	0.258102
2301.000000	0.258161
2302.000000	0.258847
2303.000000	0.258861
2304.000000	0.259931
2305.000000	0.261431
2306.000000	0.263176
2307.000000	0.265017
2308.000000	0.269848
2309.000000	0.272465
2310.000000	0.274996
2311.000000	0.274662
2312.000000	0.273851
2313.000000	0.275890
2314.000000	0.276252
2315.000000	0.278269
2316.000000	0.278434
2317.000000	0.274739
2318.000000	0.275775
2319.000000	0.277430
2320.000000	0.280192
2321.000000	0.283796
2322.000000	0.281890
2323.000000	0.283016
2324.000000	0.284182
2325.000000	0.282320
2326.000000	0.284521
2327.000000	0.282575
2328.000000	0.277401
2329.000000	0.276802
2330.000000	0.276404
2331.000000	0.275790
2332.000000	0.277990
2333.000000	0.280714
2334.000000	0.282221
2335.000000	0.283531
2336.000000	0.284830
2337.000000	0.283995
2338.000000	0.280156
2339.000000	0.279125
2340.000000	0.279152
2341.000000	0.279234
2342.000000	0.280757
2343.000000	0.281589
2344.000000	0.282644
2345.000000	0.281860
2346.000000	0.279151
2347.000000	0.277561
2348.000000	0.276601
2349.000000	0.271025
2350.000000	0.268447
2351.000000	0.271202
2352.000000	0.270355
2353.000000	0.272504
2354.000000	0.276363
2355.000000	0.279878
2356.000000	0.286640
2357.000000	0.289789
2358.000000	0.290381
2359.000000	0.289808
2360.000000	0.286105
2361.000000	0.287476
2362.000000	0.287606
2363.000000	0.286113
2364.000000	0.283166
2365.000000	0.275474
2366.000000	0.270706
2367.000000	0.267733
2368.000000	0.264799
2369.000000	0.263941
2370.000000	0.265396
2371.000000	0.265948
2372.000000	0.266303
2373.000000	0.266004
2374.000000	0.261700
2375.000000	0.257471
2376.000000	0.255865
2377.000000	0.255708
2378.000000	0.256417
2379.000000	0.258239
2380.000000	0.262012
2381.000000	0.263712
2382.000000	0.264655
2383.000000	0.265687
2384.000000	0.259521
2385.000000	0.250284
2386.000000	0.245259
2387.000000	0.244825
2388.000000	0.246736
2389.000000	0.251882
2390.000000	0.256330
2391.000000	0.254924
2392.000000	0.251963
2393.000000	0.247760
2394.000000	0.244871
2395.000000	0.243777
2396.000000	0.240260
2397.000000	0.238440
2398.000000	0.237711
2399.000000	0.236202
2400.000000	0.238063
2401.000000	0.242005
2402.000000	0.246349
2403.000000	0.251166
2404.000000	0.249257
2405.000000	0.242049
2406.000000	0.241284
2407.000000	0.241732
2408.000000	0.242814
2409.000000	0.250646
2410.000000	0.253760
2411.000000	0.252705
2412.000000	0.249337
2413.000000	0.241687
2414.000000	0.234777
2415.000000	0.226533
2416.000000	0.226815
2417.000000	0.239761
2418.000000	0.246489
2419.000000	0.251771
2420.000000	0.255843
2421.000000	0.241815
2422.000000	0.232663
2423.000000	0.225089
2424.000000	0.212178
2425.000000	0.210325
2426.000000	0.205565
2427.000000	0.202496
2428.000000	0.210175
2429.000000	0.220335
2430.000000	0.227702
2431.000000	0.229436
2432.000000	0.230179
2433.000000	0.231964
2434.000000	0.229708
2435.000000	0.234092
2436.000000	0.240010
2437.000000	0.234487
2438.000000	0.235522
2439.000000	0.236821
2440.000000	0.233889
2441.000000	0.241599
2442.000000	0.250935
2443.000000	0.248557
2444.000000	0.241562
2445.000000	0.236501
2446.000000	0.221708
2447.000000	0.212917
2448.000000	0.220182
2449.000000	0.226843
2450.000000	0.231540
2451.000000	0.226868
2452.000000	0.223322
2453.000000	0.222595
2454.000000	0.213378
2455.000000	0.215018
2456.000000	0.225615
2457.000000	0.238792
2458.000000	0.252225
2459.000000	0.261776
2460.000000	0.255793
2461.000000	0.242481
2462.000000	0.232123
2463.000000	0.197666
2464.000000	0.170511
2465.000000	0.151103
2466.000000	0.137812
2467.000000	0.148249
2468.000000	0.159643
2469.000000	0.182712
2470.000000	0.186522
2471.000000	0.184366
2472.000000	0.220650
2473.000000	0.236183
2474.000000	0.227818
2475.000000	0.239086
2476.000000	0.226268
2477.000000	0.197114
2478.000000	0.204013
2479.000000	0.208541
2480.000000	0.183943
2481.000000	0.192380
2482.000000	0.195500
2483.000000	0.151910
2484.000000	0.166391
2485.000000	0.158623
2486.000000	0.128496
2487.000000	0.158526
2488.000000	0.175125
2489.000000	0.205103
2490.000000	0.218844
2491.000000	0.190588
2492.000000	0.171471
2493.000000	0.111564
2494.000000	0.087400
2495.000000	0.103302
2496.000000	0.113609
2497.000000	0.124662
2498.000000	0.155892
2499.000000	0.242517
2500.000000	0.251723
