# Wavelength	NAu-1-20_HEX-70_FV7-10_00001.asd.rts.txt
350.000000	0.240616
351.000000	0.216652
352.000000	0.224645
353.000000	0.231800
354.000000	0.223719
355.000000	0.212007
356.000000	0.208065
357.000000	0.215703
358.000000	0.229535
359.000000	0.228307
360.000000	0.218941
361.000000	0.213813
362.000000	0.212948
363.000000	0.216519
364.000000	0.221618
365.000000	0.218853
366.000000	0.220331
367.000000	0.224636
368.000000	0.219364
369.000000	0.218805
370.000000	0.221732
371.000000	0.222315
372.000000	0.217893
373.000000	0.215037
374.000000	0.217416
375.000000	0.216796
376.000000	0.218242
377.000000	0.221724
378.000000	0.222719
379.000000	0.226016
380.000000	0.228953
381.000000	0.228343
382.000000	0.229599
383.000000	0.231624
384.000000	0.232989
385.000000	0.232301
386.000000	0.234257
387.000000	0.238094
388.000000	0.236631
389.000000	0.235518
390.000000	0.236494
391.000000	0.239408
392.000000	0.240688
393.000000	0.241010
394.000000	0.241764
395.000000	0.244707
396.000000	0.247084
397.000000	0.248038
398.000000	0.249065
399.000000	0.249991
400.000000	0.251679
401.000000	0.255018
402.000000	0.256882
403.000000	0.257921
404.000000	0.259131
405.000000	0.258715
406.000000	0.260116
407.000000	0.263710
408.000000	0.264434
409.000000	0.265207
410.000000	0.266589
411.000000	0.267943
412.000000	0.269140
413.000000	0.270271
414.000000	0.271458
415.000000	0.272381
416.000000	0.273254
417.000000	0.274051
418.000000	0.273984
419.000000	0.274164
420.000000	0.274738
421.000000	0.275047
422.000000	0.275695
423.000000	0.276196
424.000000	0.276008
425.000000	0.276443
426.000000	0.276776
427.000000	0.276456
428.000000	0.276245
429.000000	0.276500
430.000000	0.277036
431.000000	0.276910
432.000000	0.276531
433.000000	0.276412
434.000000	0.277208
435.000000	0.277543
436.000000	0.277262
437.000000	0.276659
438.000000	0.277008
439.000000	0.277046
440.000000	0.276379
441.000000	0.276037
442.000000	0.275995
443.000000	0.275837
444.000000	0.274976
445.000000	0.274543
446.000000	0.274780
447.000000	0.275426
448.000000	0.276336
449.000000	0.277451
450.000000	0.278767
451.000000	0.280288
452.000000	0.282273
453.000000	0.284568
454.000000	0.286788
455.000000	0.289196
456.000000	0.291906
457.000000	0.294741
458.000000	0.297116
459.000000	0.299355
460.000000	0.301802
461.000000	0.303823
462.000000	0.305703
463.000000	0.307445
464.000000	0.309163
465.000000	0.310611
466.000000	0.311637
467.000000	0.312302
468.000000	0.313246
469.000000	0.314135
470.000000	0.314751
471.000000	0.315999
472.000000	0.317122
473.000000	0.317717
474.000000	0.318570
475.000000	0.319237
476.000000	0.319824
477.000000	0.320609
478.000000	0.321012
479.000000	0.321471
480.000000	0.322329
481.000000	0.322881
482.000000	0.323594
483.000000	0.324577
484.000000	0.325196
485.000000	0.325615
486.000000	0.326152
487.000000	0.326605
488.000000	0.327083
489.000000	0.327679
490.000000	0.328451
491.000000	0.329148
492.000000	0.329869
493.000000	0.330592
494.000000	0.331094
495.000000	0.331712
496.000000	0.332555
497.000000	0.333177
498.000000	0.333893
499.000000	0.334821
500.000000	0.335607
501.000000	0.336297
502.000000	0.337084
503.000000	0.338103
504.000000	0.338842
505.000000	0.339471
506.000000	0.340230
507.000000	0.340961
508.000000	0.341778
509.000000	0.342646
510.000000	0.343386
511.000000	0.344088
512.000000	0.344863
513.000000	0.345781
514.000000	0.346755
515.000000	0.347713
516.000000	0.348534
517.000000	0.349462
518.000000	0.350436
519.000000	0.351289
520.000000	0.352162
521.000000	0.353130
522.000000	0.354193
523.000000	0.355233
524.000000	0.356180
525.000000	0.357134
526.000000	0.358354
527.000000	0.359430
528.000000	0.360436
529.000000	0.361569
530.000000	0.362532
531.000000	0.363574
532.000000	0.364723
533.000000	0.365864
534.000000	0.367025
535.000000	0.368181
536.000000	0.369309
537.000000	0.370383
538.000000	0.371488
539.000000	0.372723
540.000000	0.373943
541.000000	0.375068
542.000000	0.376129
543.000000	0.377280
544.000000	0.378443
545.000000	0.379537
546.000000	0.380858
547.000000	0.382075
548.000000	0.383203
549.000000	0.384361
550.000000	0.385427
551.000000	0.386489
552.000000	0.387604
553.000000	0.388758
554.000000	0.389857
555.000000	0.390863
556.000000	0.391912
557.000000	0.392928
558.000000	0.394013
559.000000	0.394967
560.000000	0.395933
561.000000	0.396976
562.000000	0.397914
563.000000	0.398810
564.000000	0.399716
565.000000	0.400541
566.000000	0.401471
567.000000	0.402413
568.000000	0.403268
569.000000	0.404057
570.000000	0.404856
571.000000	0.405648
572.000000	0.406365
573.000000	0.407034
574.000000	0.407632
575.000000	0.408211
576.000000	0.408860
577.000000	0.409414
578.000000	0.409869
579.000000	0.410472
580.000000	0.411062
581.000000	0.411560
582.000000	0.412032
583.000000	0.412497
584.000000	0.412936
585.000000	0.413312
586.000000	0.413646
587.000000	0.413965
588.000000	0.414291
589.000000	0.414587
590.000000	0.414939
591.000000	0.415342
592.000000	0.415519
593.000000	0.415751
594.000000	0.416064
595.000000	0.416235
596.000000	0.416449
597.000000	0.416740
598.000000	0.416936
599.000000	0.417003
600.000000	0.417095
601.000000	0.417246
602.000000	0.417493
603.000000	0.417719
604.000000	0.417871
605.000000	0.417947
606.000000	0.418009
607.000000	0.418069
608.000000	0.418100
609.000000	0.418226
610.000000	0.418349
611.000000	0.418354
612.000000	0.418424
613.000000	0.418545
614.000000	0.418708
615.000000	0.418735
616.000000	0.418783
617.000000	0.418863
618.000000	0.418997
619.000000	0.419113
620.000000	0.419192
621.000000	0.419309
622.000000	0.419311
623.000000	0.419310
624.000000	0.419408
625.000000	0.419529
626.000000	0.419625
627.000000	0.419710
628.000000	0.419907
629.000000	0.420134
630.000000	0.420209
631.000000	0.420292
632.000000	0.420501
633.000000	0.420689
634.000000	0.420690
635.000000	0.420730
636.000000	0.420833
637.000000	0.420980
638.000000	0.421209
639.000000	0.421398
640.000000	0.421593
641.000000	0.421758
642.000000	0.421913
643.000000	0.422065
644.000000	0.422215
645.000000	0.422272
646.000000	0.422390
647.000000	0.422638
648.000000	0.422925
649.000000	0.423169
650.000000	0.423329
651.000000	0.423491
652.000000	0.423641
653.000000	0.423867
654.000000	0.424170
655.000000	0.424469
656.000000	0.424769
657.000000	0.425016
658.000000	0.425285
659.000000	0.425543
660.000000	0.425770
661.000000	0.426060
662.000000	0.426318
663.000000	0.426596
664.000000	0.426881
665.000000	0.427155
666.000000	0.427410
667.000000	0.427613
668.000000	0.427906
669.000000	0.428205
670.000000	0.428478
671.000000	0.428804
672.000000	0.429158
673.000000	0.429504
674.000000	0.429827
675.000000	0.430106
676.000000	0.430401
677.000000	0.430793
678.000000	0.431115
679.000000	0.431482
680.000000	0.431947
681.000000	0.432275
682.000000	0.432635
683.000000	0.432994
684.000000	0.433449
685.000000	0.433878
686.000000	0.434317
687.000000	0.434772
688.000000	0.435244
689.000000	0.435663
690.000000	0.436049
691.000000	0.436501
692.000000	0.436893
693.000000	0.437283
694.000000	0.437688
695.000000	0.438089
696.000000	0.438516
697.000000	0.439009
698.000000	0.439452
699.000000	0.439917
700.000000	0.440466
701.000000	0.440957
702.000000	0.441409
703.000000	0.441833
704.000000	0.442314
705.000000	0.442820
706.000000	0.443284
707.000000	0.443757
708.000000	0.444226
709.000000	0.444716
710.000000	0.445268
711.000000	0.445827
712.000000	0.446355
713.000000	0.446869
714.000000	0.447381
715.000000	0.447856
716.000000	0.448297
717.000000	0.448699
718.000000	0.449160
719.000000	0.449613
720.000000	0.450024
721.000000	0.450519
722.000000	0.450977
723.000000	0.451435
724.000000	0.451873
725.000000	0.452282
726.000000	0.452749
727.000000	0.453163
728.000000	0.453665
729.000000	0.454171
730.000000	0.454536
731.000000	0.454938
732.000000	0.455294
733.000000	0.455643
734.000000	0.456002
735.000000	0.456367
736.000000	0.456826
737.000000	0.457132
738.000000	0.457428
739.000000	0.457794
740.000000	0.458039
741.000000	0.458358
742.000000	0.458639
743.000000	0.458871
744.000000	0.459278
745.000000	0.459620
746.000000	0.459903
747.000000	0.460075
748.000000	0.460294
749.000000	0.460573
750.000000	0.460844
751.000000	0.461095
752.000000	0.461300
753.000000	0.461481
754.000000	0.461668
755.000000	0.461939
756.000000	0.462222
757.000000	0.462363
758.000000	0.462504
759.000000	0.462693
760.000000	0.462834
761.000000	0.462962
762.000000	0.463057
763.000000	0.463148
764.000000	0.463402
765.000000	0.463510
766.000000	0.463598
767.000000	0.463790
768.000000	0.463861
769.000000	0.463888
770.000000	0.463922
771.000000	0.463954
772.000000	0.463989
773.000000	0.463942
774.000000	0.463898
775.000000	0.463862
776.000000	0.463839
777.000000	0.463809
778.000000	0.463809
779.000000	0.463801
780.000000	0.463751
781.000000	0.463589
782.000000	0.463455
783.000000	0.463449
784.000000	0.463375
785.000000	0.463307
786.000000	0.463217
787.000000	0.463095
788.000000	0.463004
789.000000	0.462887
790.000000	0.462702
791.000000	0.462496
792.000000	0.462373
793.000000	0.462306
794.000000	0.462236
795.000000	0.462057
796.000000	0.461831
797.000000	0.461577
798.000000	0.461290
799.000000	0.461130
800.000000	0.461025
801.000000	0.460850
802.000000	0.460597
803.000000	0.460403
804.000000	0.460325
805.000000	0.460031
806.000000	0.459719
807.000000	0.459531
808.000000	0.459343
809.000000	0.459081
810.000000	0.458800
811.000000	0.458526
812.000000	0.458208
813.000000	0.457876
814.000000	0.457579
815.000000	0.457415
816.000000	0.457259
817.000000	0.457066
818.000000	0.456724
819.000000	0.456508
820.000000	0.456288
821.000000	0.455964
822.000000	0.455735
823.000000	0.455440
824.000000	0.455076
825.000000	0.454866
826.000000	0.454669
827.000000	0.454443
828.000000	0.454225
829.000000	0.453951
830.000000	0.453726
831.000000	0.453513
832.000000	0.452990
833.000000	0.452665
834.000000	0.452417
835.000000	0.452155
836.000000	0.452002
837.000000	0.451764
838.000000	0.451428
839.000000	0.451067
840.000000	0.450852
841.000000	0.450680
842.000000	0.450381
843.000000	0.450121
844.000000	0.449913
845.000000	0.449676
846.000000	0.449344
847.000000	0.448975
848.000000	0.448589
849.000000	0.448249
850.000000	0.447959
851.000000	0.447752
852.000000	0.447639
853.000000	0.447432
854.000000	0.447176
855.000000	0.447027
856.000000	0.446859
857.000000	0.446509
858.000000	0.446282
859.000000	0.446136
860.000000	0.445754
861.000000	0.445494
862.000000	0.445344
863.000000	0.445050
864.000000	0.444658
865.000000	0.444319
866.000000	0.444111
867.000000	0.443831
868.000000	0.443674
869.000000	0.443495
870.000000	0.443218
871.000000	0.443059
872.000000	0.442866
873.000000	0.442525
874.000000	0.442393
875.000000	0.442138
876.000000	0.441809
877.000000	0.441504
878.000000	0.441212
879.000000	0.441058
880.000000	0.440877
881.000000	0.440636
882.000000	0.440482
883.000000	0.440325
884.000000	0.439928
885.000000	0.439669
886.000000	0.439419
887.000000	0.439153
888.000000	0.439025
889.000000	0.438857
890.000000	0.438522
891.000000	0.438267
892.000000	0.438243
893.000000	0.438085
894.000000	0.437831
895.000000	0.437682
896.000000	0.437416
897.000000	0.437115
898.000000	0.436923
899.000000	0.436685
900.000000	0.436506
901.000000	0.436400
902.000000	0.436438
903.000000	0.436167
904.000000	0.435855
905.000000	0.435726
906.000000	0.435629
907.000000	0.435477
908.000000	0.435314
909.000000	0.435074
910.000000	0.434986
911.000000	0.434914
912.000000	0.434740
913.000000	0.434639
914.000000	0.434600
915.000000	0.434608
916.000000	0.434414
917.000000	0.434114
918.000000	0.433929
919.000000	0.433925
920.000000	0.433826
921.000000	0.433801
922.000000	0.433805
923.000000	0.433668
924.000000	0.433566
925.000000	0.433444
926.000000	0.433284
927.000000	0.433001
928.000000	0.432741
929.000000	0.432571
930.000000	0.432507
931.000000	0.432467
932.000000	0.432336
933.000000	0.432206
934.000000	0.432227
935.000000	0.432017
936.000000	0.431846
937.000000	0.431813
938.000000	0.431648
939.000000	0.431607
940.000000	0.431596
941.000000	0.431562
942.000000	0.431562
943.000000	0.431620
944.000000	0.431497
945.000000	0.431078
946.000000	0.430914
947.000000	0.430888
948.000000	0.430645
949.000000	0.430550
950.000000	0.430419
951.000000	0.430196
952.000000	0.430141
953.000000	0.430084
954.000000	0.430039
955.000000	0.429938
956.000000	0.429809
957.000000	0.429850
958.000000	0.429841
959.000000	0.429639
960.000000	0.429523
961.000000	0.429448
962.000000	0.429394
963.000000	0.429474
964.000000	0.429328
965.000000	0.429118
966.000000	0.428921
967.000000	0.428967
968.000000	0.428854
969.000000	0.428688
970.000000	0.428912
971.000000	0.428911
972.000000	0.429071
973.000000	0.429332
974.000000	0.429283
975.000000	0.429080
976.000000	0.428934
977.000000	0.428888
978.000000	0.428483
979.000000	0.428575
980.000000	0.428677
981.000000	0.428529
982.000000	0.428543
983.000000	0.428750
984.000000	0.428993
985.000000	0.428790
986.000000	0.429033
987.000000	0.429095
988.000000	0.428632
989.000000	0.429256
990.000000	0.429342
991.000000	0.429135
992.000000	0.429417
993.000000	0.429774
994.000000	0.429875
995.000000	0.429936
996.000000	0.429987
997.000000	0.430090
998.000000	0.430273
999.000000	0.430494
1000.000000	0.430270
1001.000000	0.430733
1002.000000	0.430453
1003.000000	0.429850
1004.000000	0.429606
1005.000000	0.429722
1006.000000	0.429646
1007.000000	0.429617
1008.000000	0.429476
1009.000000	0.429550
1010.000000	0.429979
1011.000000	0.430284
1012.000000	0.430290
1013.000000	0.430587
1014.000000	0.430783
1015.000000	0.430765
1016.000000	0.431568
1017.000000	0.432085
1018.000000	0.432104
1019.000000	0.432290
1020.000000	0.432462
1021.000000	0.432388
1022.000000	0.432858
1023.000000	0.433202
1024.000000	0.432811
1025.000000	0.433781
1026.000000	0.434738
1027.000000	0.434209
1028.000000	0.434155
1029.000000	0.434118
1030.000000	0.433995
1031.000000	0.434399
1032.000000	0.435079
1033.000000	0.435504
1034.000000	0.435823
1035.000000	0.435832
1036.000000	0.435974
1037.000000	0.435988
1038.000000	0.436318
1039.000000	0.437141
1040.000000	0.437533
1041.000000	0.437682
1042.000000	0.438014
1043.000000	0.437974
1044.000000	0.438287
1045.000000	0.439077
1046.000000	0.439309
1047.000000	0.439794
1048.000000	0.440195
1049.000000	0.440617
1050.000000	0.441418
1051.000000	0.441645
1052.000000	0.441120
1053.000000	0.441291
1054.000000	0.441761
1055.000000	0.442268
1056.000000	0.443239
1057.000000	0.444338
1058.000000	0.444749
1059.000000	0.444703
1060.000000	0.445023
1061.000000	0.445272
1062.000000	0.445662
1063.000000	0.446432
1064.000000	0.446782
1065.000000	0.446821
1066.000000	0.447101
1067.000000	0.447097
1068.000000	0.447522
1069.000000	0.448419
1070.000000	0.448898
1071.000000	0.449553
1072.000000	0.449873
1073.000000	0.449627
1074.000000	0.449940
1075.000000	0.450437
1076.000000	0.450802
1077.000000	0.451233
1078.000000	0.451696
1079.000000	0.452166
1080.000000	0.452421
1081.000000	0.453082
1082.000000	0.454438
1083.000000	0.455048
1084.000000	0.455593
1085.000000	0.456028
1086.000000	0.455886
1087.000000	0.456057
1088.000000	0.456194
1089.000000	0.456416
1090.000000	0.456658
1091.000000	0.456767
1092.000000	0.457505
1093.000000	0.458257
1094.000000	0.458601
1095.000000	0.458756
1096.000000	0.459146
1097.000000	0.459129
1098.000000	0.459687
1099.000000	0.460741
1100.000000	0.461542
1101.000000	0.462631
1102.000000	0.463052
1103.000000	0.462925
1104.000000	0.463141
1105.000000	0.462925
1106.000000	0.463072
1107.000000	0.463499
1108.000000	0.463936
1109.000000	0.464477
1110.000000	0.465215
1111.000000	0.465769
1112.000000	0.466504
1113.000000	0.466914
1114.000000	0.467003
1115.000000	0.467377
1116.000000	0.467714
1117.000000	0.468161
1118.000000	0.468876
1119.000000	0.469243
1120.000000	0.469340
1121.000000	0.469713
1122.000000	0.470215
1123.000000	0.470934
1124.000000	0.471846
1125.000000	0.472359
1126.000000	0.472496
1127.000000	0.472593
1128.000000	0.472550
1129.000000	0.472148
1130.000000	0.472324
1131.000000	0.472654
1132.000000	0.473035
1133.000000	0.473891
1134.000000	0.474363
1135.000000	0.474592
1136.000000	0.474921
1137.000000	0.475193
1138.000000	0.475396
1139.000000	0.475814
1140.000000	0.476132
1141.000000	0.476159
1142.000000	0.476353
1143.000000	0.476586
1144.000000	0.476829
1145.000000	0.476884
1146.000000	0.476797
1147.000000	0.476775
1148.000000	0.476452
1149.000000	0.476441
1150.000000	0.476629
1151.000000	0.476735
1152.000000	0.476774
1153.000000	0.476907
1154.000000	0.477015
1155.000000	0.477126
1156.000000	0.477330
1157.000000	0.477457
1158.000000	0.477425
1159.000000	0.477495
1160.000000	0.477551
1161.000000	0.477660
1162.000000	0.477983
1163.000000	0.478390
1164.000000	0.478490
1165.000000	0.478354
1166.000000	0.478455
1167.000000	0.478385
1168.000000	0.478415
1169.000000	0.478682
1170.000000	0.478833
1171.000000	0.478915
1172.000000	0.479109
1173.000000	0.479337
1174.000000	0.479557
1175.000000	0.479811
1176.000000	0.479900
1177.000000	0.479993
1178.000000	0.480133
1179.000000	0.480219
1180.000000	0.480238
1181.000000	0.480473
1182.000000	0.480537
1183.000000	0.480546
1184.000000	0.480644
1185.000000	0.480695
1186.000000	0.480693
1187.000000	0.480784
1188.000000	0.480891
1189.000000	0.480979
1190.000000	0.481265
1191.000000	0.481357
1192.000000	0.481441
1193.000000	0.481730
1194.000000	0.481835
1195.000000	0.481974
1196.000000	0.482175
1197.000000	0.482347
1198.000000	0.482482
1199.000000	0.482636
1200.000000	0.482862
1201.000000	0.482942
1202.000000	0.483029
1203.000000	0.483156
1204.000000	0.483184
1205.000000	0.483371
1206.000000	0.483436
1207.000000	0.483610
1208.000000	0.483607
1209.000000	0.483588
1210.000000	0.483603
1211.000000	0.483536
1212.000000	0.483548
1213.000000	0.483679
1214.000000	0.483878
1215.000000	0.484163
1216.000000	0.484265
1217.000000	0.484296
1218.000000	0.484320
1219.000000	0.484152
1220.000000	0.484263
1221.000000	0.484517
1222.000000	0.484644
1223.000000	0.484719
1224.000000	0.484753
1225.000000	0.484784
1226.000000	0.484941
1227.000000	0.484990
1228.000000	0.485076
1229.000000	0.485107
1230.000000	0.484931
1231.000000	0.484932
1232.000000	0.485294
1233.000000	0.485528
1234.000000	0.485803
1235.000000	0.485916
1236.000000	0.485635
1237.000000	0.485695
1238.000000	0.485829
1239.000000	0.485853
1240.000000	0.485876
1241.000000	0.486069
1242.000000	0.486181
1243.000000	0.486165
1244.000000	0.486365
1245.000000	0.486551
1246.000000	0.486509
1247.000000	0.486694
1248.000000	0.486778
1249.000000	0.486860
1250.000000	0.487165
1251.000000	0.487274
1252.000000	0.487347
1253.000000	0.487490
1254.000000	0.487576
1255.000000	0.487548
1256.000000	0.487530
1257.000000	0.487519
1258.000000	0.487580
1259.000000	0.487466
1260.000000	0.487554
1261.000000	0.487783
1262.000000	0.487870
1263.000000	0.487930
1264.000000	0.488048
1265.000000	0.488089
1266.000000	0.488067
1267.000000	0.488260
1268.000000	0.488332
1269.000000	0.488430
1270.000000	0.488849
1271.000000	0.489007
1272.000000	0.489059
1273.000000	0.489191
1274.000000	0.489168
1275.000000	0.489149
1276.000000	0.489201
1277.000000	0.489319
1278.000000	0.489205
1279.000000	0.489215
1280.000000	0.489309
1281.000000	0.489235
1282.000000	0.489164
1283.000000	0.489224
1284.000000	0.489079
1285.000000	0.489106
1286.000000	0.489247
1287.000000	0.489375
1288.000000	0.489545
1289.000000	0.489682
1290.000000	0.489544
1291.000000	0.489402
1292.000000	0.489338
1293.000000	0.489244
1294.000000	0.489208
1295.000000	0.489184
1296.000000	0.489133
1297.000000	0.488921
1298.000000	0.488795
1299.000000	0.488901
1300.000000	0.488920
1301.000000	0.488934
1302.000000	0.488892
1303.000000	0.489060
1304.000000	0.488923
1305.000000	0.488746
1306.000000	0.488600
1307.000000	0.488368
1308.000000	0.488254
1309.000000	0.488292
1310.000000	0.488210
1311.000000	0.488142
1312.000000	0.487957
1313.000000	0.487761
1314.000000	0.487568
1315.000000	0.487275
1316.000000	0.487163
1317.000000	0.487139
1318.000000	0.486983
1319.000000	0.486674
1320.000000	0.486242
1321.000000	0.485707
1322.000000	0.485165
1323.000000	0.484783
1324.000000	0.484618
1325.000000	0.484395
1326.000000	0.484023
1327.000000	0.483793
1328.000000	0.483718
1329.000000	0.483368
1330.000000	0.482871
1331.000000	0.482565
1332.000000	0.482257
1333.000000	0.481958
1334.000000	0.482017
1335.000000	0.481735
1336.000000	0.481141
1337.000000	0.480754
1338.000000	0.480283
1339.000000	0.479739
1340.000000	0.479339
1341.000000	0.478932
1342.000000	0.478233
1343.000000	0.477679
1344.000000	0.477282
1345.000000	0.476691
1346.000000	0.476278
1347.000000	0.475722
1348.000000	0.475066
1349.000000	0.474396
1350.000000	0.473864
1351.000000	0.473420
1352.000000	0.472943
1353.000000	0.472505
1354.000000	0.471972
1355.000000	0.471305
1356.000000	0.470811
1357.000000	0.470150
1358.000000	0.469558
1359.000000	0.469193
1360.000000	0.468757
1361.000000	0.468417
1362.000000	0.467984
1363.000000	0.467507
1364.000000	0.467089
1365.000000	0.466575
1366.000000	0.466125
1367.000000	0.465824
1368.000000	0.465241
1369.000000	0.464671
1370.000000	0.464014
1371.000000	0.463301
1372.000000	0.462548
1373.000000	0.461819
1374.000000	0.461387
1375.000000	0.460761
1376.000000	0.460078
1377.000000	0.459439
1378.000000	0.458679
1379.000000	0.457954
1380.000000	0.457030
1381.000000	0.455765
1382.000000	0.454338
1383.000000	0.452963
1384.000000	0.451740
1385.000000	0.450482
1386.000000	0.449180
1387.000000	0.447763
1388.000000	0.445985
1389.000000	0.444189
1390.000000	0.442585
1391.000000	0.440770
1392.000000	0.438971
1393.000000	0.437100
1394.000000	0.435274
1395.000000	0.433269
1396.000000	0.431153
1397.000000	0.428945
1398.000000	0.426564
1399.000000	0.424219
1400.000000	0.421812
1401.000000	0.419439
1402.000000	0.417169
1403.000000	0.414677
1404.000000	0.412272
1405.000000	0.409715
1406.000000	0.406978
1407.000000	0.404429
1408.000000	0.401775
1409.000000	0.399060
1410.000000	0.396474
1411.000000	0.393831
1412.000000	0.391259
1413.000000	0.388746
1414.000000	0.386282
1415.000000	0.383977
1416.000000	0.381640
1417.000000	0.379438
1418.000000	0.377330
1419.000000	0.375285
1420.000000	0.373244
1421.000000	0.371371
1422.000000	0.369522
1423.000000	0.367702
1424.000000	0.365770
1425.000000	0.363828
1426.000000	0.361905
1427.000000	0.359882
1428.000000	0.357961
1429.000000	0.356198
1430.000000	0.354484
1431.000000	0.352849
1432.000000	0.351300
1433.000000	0.349867
1434.000000	0.348546
1435.000000	0.347421
1436.000000	0.346370
1437.000000	0.345379
1438.000000	0.344523
1439.000000	0.343827
1440.000000	0.343179
1441.000000	0.342743
1442.000000	0.342291
1443.000000	0.341786
1444.000000	0.341376
1445.000000	0.340941
1446.000000	0.340484
1447.000000	0.340141
1448.000000	0.339750
1449.000000	0.339317
1450.000000	0.338908
1451.000000	0.338431
1452.000000	0.337903
1453.000000	0.337515
1454.000000	0.337195
1455.000000	0.336893
1456.000000	0.336654
1457.000000	0.336331
1458.000000	0.335936
1459.000000	0.335503
1460.000000	0.335013
1461.000000	0.334602
1462.000000	0.334248
1463.000000	0.333849
1464.000000	0.333609
1465.000000	0.333409
1466.000000	0.333138
1467.000000	0.333096
1468.000000	0.333034
1469.000000	0.332972
1470.000000	0.333048
1471.000000	0.333147
1472.000000	0.333208
1473.000000	0.333466
1474.000000	0.333806
1475.000000	0.334136
1476.000000	0.334568
1477.000000	0.335099
1478.000000	0.335670
1479.000000	0.336311
1480.000000	0.336988
1481.000000	0.337643
1482.000000	0.338336
1483.000000	0.339074
1484.000000	0.339871
1485.000000	0.340630
1486.000000	0.341347
1487.000000	0.342146
1488.000000	0.342989
1489.000000	0.343794
1490.000000	0.344568
1491.000000	0.345330
1492.000000	0.345911
1493.000000	0.346654
1494.000000	0.347443
1495.000000	0.348198
1496.000000	0.349029
1497.000000	0.349798
1498.000000	0.350565
1499.000000	0.351263
1500.000000	0.351906
1501.000000	0.352568
1502.000000	0.353159
1503.000000	0.353739
1504.000000	0.354382
1505.000000	0.354987
1506.000000	0.355576
1507.000000	0.356174
1508.000000	0.356793
1509.000000	0.357380
1510.000000	0.357904
1511.000000	0.358426
1512.000000	0.358932
1513.000000	0.359357
1514.000000	0.359746
1515.000000	0.360155
1516.000000	0.360599
1517.000000	0.360978
1518.000000	0.361415
1519.000000	0.361791
1520.000000	0.362049
1521.000000	0.362275
1522.000000	0.362550
1523.000000	0.362868
1524.000000	0.363130
1525.000000	0.363385
1526.000000	0.363620
1527.000000	0.363834
1528.000000	0.364121
1529.000000	0.364449
1530.000000	0.364711
1531.000000	0.365049
1532.000000	0.365379
1533.000000	0.365600
1534.000000	0.365819
1535.000000	0.366007
1536.000000	0.366066
1537.000000	0.366293
1538.000000	0.366494
1539.000000	0.366560
1540.000000	0.366785
1541.000000	0.367022
1542.000000	0.367211
1543.000000	0.367366
1544.000000	0.367342
1545.000000	0.367233
1546.000000	0.367161
1547.000000	0.367186
1548.000000	0.367364
1549.000000	0.367488
1550.000000	0.367441
1551.000000	0.367478
1552.000000	0.367574
1553.000000	0.367552
1554.000000	0.367600
1555.000000	0.367740
1556.000000	0.367613
1557.000000	0.367499
1558.000000	0.367547
1559.000000	0.367574
1560.000000	0.367600
1561.000000	0.367834
1562.000000	0.367905
1563.000000	0.367914
1564.000000	0.368037
1565.000000	0.368232
1566.000000	0.368205
1567.000000	0.368214
1568.000000	0.368207
1569.000000	0.368170
1570.000000	0.368133
1571.000000	0.368078
1572.000000	0.368082
1573.000000	0.368090
1574.000000	0.368080
1575.000000	0.368173
1576.000000	0.368227
1577.000000	0.368189
1578.000000	0.368146
1579.000000	0.368190
1580.000000	0.368216
1581.000000	0.368332
1582.000000	0.368321
1583.000000	0.368232
1584.000000	0.368162
1585.000000	0.368058
1586.000000	0.368032
1587.000000	0.368134
1588.000000	0.368168
1589.000000	0.368226
1590.000000	0.368238
1591.000000	0.368181
1592.000000	0.368191
1593.000000	0.368244
1594.000000	0.368313
1595.000000	0.368510
1596.000000	0.368660
1597.000000	0.368867
1598.000000	0.368888
1599.000000	0.368852
1600.000000	0.368820
1601.000000	0.368710
1602.000000	0.368757
1603.000000	0.368968
1604.000000	0.369066
1605.000000	0.369227
1606.000000	0.369301
1607.000000	0.369337
1608.000000	0.369377
1609.000000	0.369456
1610.000000	0.369560
1611.000000	0.369672
1612.000000	0.369769
1613.000000	0.370005
1614.000000	0.370205
1615.000000	0.370434
1616.000000	0.370730
1617.000000	0.371047
1618.000000	0.371292
1619.000000	0.371498
1620.000000	0.371739
1621.000000	0.372015
1622.000000	0.372332
1623.000000	0.372587
1624.000000	0.372893
1625.000000	0.373044
1626.000000	0.373292
1627.000000	0.373703
1628.000000	0.374055
1629.000000	0.374416
1630.000000	0.374752
1631.000000	0.374891
1632.000000	0.375157
1633.000000	0.375514
1634.000000	0.375870
1635.000000	0.376328
1636.000000	0.376711
1637.000000	0.377107
1638.000000	0.377459
1639.000000	0.377834
1640.000000	0.378179
1641.000000	0.378540
1642.000000	0.378952
1643.000000	0.379439
1644.000000	0.379887
1645.000000	0.380369
1646.000000	0.380737
1647.000000	0.381037
1648.000000	0.381392
1649.000000	0.381888
1650.000000	0.382303
1651.000000	0.382785
1652.000000	0.383205
1653.000000	0.383419
1654.000000	0.383806
1655.000000	0.384209
1656.000000	0.384465
1657.000000	0.384804
1658.000000	0.385155
1659.000000	0.385517
1660.000000	0.386009
1661.000000	0.386584
1662.000000	0.386997
1663.000000	0.387328
1664.000000	0.387638
1665.000000	0.387846
1666.000000	0.388172
1667.000000	0.388446
1668.000000	0.388776
1669.000000	0.389104
1670.000000	0.389389
1671.000000	0.389833
1672.000000	0.390206
1673.000000	0.390475
1674.000000	0.390822
1675.000000	0.391204
1676.000000	0.391484
1677.000000	0.391884
1678.000000	0.392363
1679.000000	0.392737
1680.000000	0.393127
1681.000000	0.393549
1682.000000	0.393865
1683.000000	0.394159
1684.000000	0.394535
1685.000000	0.394894
1686.000000	0.395124
1687.000000	0.395509
1688.000000	0.395824
1689.000000	0.396016
1690.000000	0.396255
1691.000000	0.396446
1692.000000	0.396527
1693.000000	0.396817
1694.000000	0.396930
1695.000000	0.397049
1696.000000	0.397214
1697.000000	0.397318
1698.000000	0.397589
1699.000000	0.397852
1700.000000	0.398094
1701.000000	0.398390
1702.000000	0.398493
1703.000000	0.398563
1704.000000	0.398654
1705.000000	0.398789
1706.000000	0.398971
1707.000000	0.399215
1708.000000	0.399528
1709.000000	0.399699
1710.000000	0.399938
1711.000000	0.400238
1712.000000	0.400581
1713.000000	0.400831
1714.000000	0.401188
1715.000000	0.401434
1716.000000	0.401506
1717.000000	0.401690
1718.000000	0.401913
1719.000000	0.402027
1720.000000	0.402129
1721.000000	0.402316
1722.000000	0.402493
1723.000000	0.402693
1724.000000	0.403063
1725.000000	0.403305
1726.000000	0.403268
1727.000000	0.403476
1728.000000	0.403726
1729.000000	0.403865
1730.000000	0.404284
1731.000000	0.404480
1732.000000	0.404440
1733.000000	0.404728
1734.000000	0.404925
1735.000000	0.405219
1736.000000	0.405744
1737.000000	0.405917
1738.000000	0.405898
1739.000000	0.406103
1740.000000	0.406201
1741.000000	0.406440
1742.000000	0.406933
1743.000000	0.407252
1744.000000	0.407448
1745.000000	0.407733
1746.000000	0.408066
1747.000000	0.408163
1748.000000	0.408326
1749.000000	0.408439
1750.000000	0.408567
1751.000000	0.409152
1752.000000	0.409507
1753.000000	0.409452
1754.000000	0.409496
1755.000000	0.409263
1756.000000	0.409217
1757.000000	0.409406
1758.000000	0.409492
1759.000000	0.409541
1760.000000	0.409628
1761.000000	0.409584
1762.000000	0.409652
1763.000000	0.409864
1764.000000	0.410053
1765.000000	0.410156
1766.000000	0.410454
1767.000000	0.410864
1768.000000	0.411051
1769.000000	0.411388
1770.000000	0.411667
1771.000000	0.411709
1772.000000	0.411796
1773.000000	0.411786
1774.000000	0.411982
1775.000000	0.412321
1776.000000	0.412540
1777.000000	0.412880
1778.000000	0.413024
1779.000000	0.412875
1780.000000	0.412997
1781.000000	0.413216
1782.000000	0.413292
1783.000000	0.413348
1784.000000	0.413758
1785.000000	0.413932
1786.000000	0.414259
1787.000000	0.414953
1788.000000	0.415226
1789.000000	0.415379
1790.000000	0.415733
1791.000000	0.415973
1792.000000	0.416417
1793.000000	0.416678
1794.000000	0.416672
1795.000000	0.416918
1796.000000	0.417216
1797.000000	0.417501
1798.000000	0.417940
1799.000000	0.418293
1800.000000	0.418673
1801.000000	0.417786
1802.000000	0.418295
1803.000000	0.418824
1804.000000	0.419538
1805.000000	0.420740
1806.000000	0.421289
1807.000000	0.421670
1808.000000	0.421821
1809.000000	0.421595
1810.000000	0.421113
1811.000000	0.420867
1812.000000	0.420483
1813.000000	0.420635
1814.000000	0.421288
1815.000000	0.421464
1816.000000	0.422082
1817.000000	0.421920
1818.000000	0.421286
1819.000000	0.420269
1820.000000	0.419618
1821.000000	0.419839
1822.000000	0.420072
1823.000000	0.421184
1824.000000	0.421244
1825.000000	0.420415
1826.000000	0.420531
1827.000000	0.420640
1828.000000	0.420859
1829.000000	0.420793
1830.000000	0.420814
1831.000000	0.420445
1832.000000	0.418659
1833.000000	0.418466
1834.000000	0.419486
1835.000000	0.419495
1836.000000	0.419474
1837.000000	0.419287
1838.000000	0.418269
1839.000000	0.417677
1840.000000	0.417585
1841.000000	0.417016
1842.000000	0.416283
1843.000000	0.415147
1844.000000	0.414544
1845.000000	0.413764
1846.000000	0.413208
1847.000000	0.412947
1848.000000	0.412511
1849.000000	0.412104
1850.000000	0.411242
1851.000000	0.410124
1852.000000	0.408521
1853.000000	0.407307
1854.000000	0.405504
1855.000000	0.404203
1856.000000	0.403118
1857.000000	0.402496
1858.000000	0.401239
1859.000000	0.399468
1860.000000	0.398126
1861.000000	0.396475
1862.000000	0.394791
1863.000000	0.393636
1864.000000	0.391712
1865.000000	0.389214
1866.000000	0.386789
1867.000000	0.384025
1868.000000	0.381117
1869.000000	0.378313
1870.000000	0.375136
1871.000000	0.371609
1872.000000	0.368164
1873.000000	0.364506
1874.000000	0.360509
1875.000000	0.356543
1876.000000	0.352449
1877.000000	0.347535
1878.000000	0.342897
1879.000000	0.338727
1880.000000	0.334189
1881.000000	0.330388
1882.000000	0.326159
1883.000000	0.321087
1884.000000	0.316271
1885.000000	0.311132
1886.000000	0.305614
1887.000000	0.299558
1888.000000	0.294391
1889.000000	0.288341
1890.000000	0.282264
1891.000000	0.276943
1892.000000	0.270657
1893.000000	0.264722
1894.000000	0.259046
1895.000000	0.252753
1896.000000	0.246125
1897.000000	0.239726
1898.000000	0.233108
1899.000000	0.227065
1900.000000	0.221572
1901.000000	0.216265
1902.000000	0.211276
1903.000000	0.206296
1904.000000	0.202042
1905.000000	0.197834
1906.000000	0.193708
1907.000000	0.189808
1908.000000	0.186420
1909.000000	0.182513
1910.000000	0.178603
1911.000000	0.175038
1912.000000	0.171584
1913.000000	0.168100
1914.000000	0.165313
1915.000000	0.162981
1916.000000	0.160561
1917.000000	0.158333
1918.000000	0.156561
1919.000000	0.154822
1920.000000	0.152836
1921.000000	0.151377
1922.000000	0.150830
1923.000000	0.150064
1924.000000	0.149717
1925.000000	0.149783
1926.000000	0.148952
1927.000000	0.148661
1928.000000	0.148316
1929.000000	0.148100
1930.000000	0.147440
1931.000000	0.147219
1932.000000	0.147018
1933.000000	0.146833
1934.000000	0.146632
1935.000000	0.146725
1936.000000	0.147295
1937.000000	0.147414
1938.000000	0.146983
1939.000000	0.146982
1940.000000	0.147076
1941.000000	0.146538
1942.000000	0.146514
1943.000000	0.147431
1944.000000	0.147607
1945.000000	0.147338
1946.000000	0.146880
1947.000000	0.146391
1948.000000	0.145758
1949.000000	0.145651
1950.000000	0.145422
1951.000000	0.144965
1952.000000	0.144249
1953.000000	0.143901
1954.000000	0.143347
1955.000000	0.142934
1956.000000	0.142776
1957.000000	0.142148
1958.000000	0.141024
1959.000000	0.140252
1960.000000	0.139307
1961.000000	0.138811
1962.000000	0.138757
1963.000000	0.139296
1964.000000	0.139768
1965.000000	0.140892
1966.000000	0.141168
1967.000000	0.140566
1968.000000	0.140298
1969.000000	0.139389
1970.000000	0.138702
1971.000000	0.139128
1972.000000	0.139249
1973.000000	0.139455
1974.000000	0.140053
1975.000000	0.140524
1976.000000	0.140794
1977.000000	0.141720
1978.000000	0.142063
1979.000000	0.142207
1980.000000	0.142349
1981.000000	0.141820
1982.000000	0.141944
1983.000000	0.142758
1984.000000	0.143427
1985.000000	0.144440
1986.000000	0.145223
1987.000000	0.146063
1988.000000	0.146798
1989.000000	0.147168
1990.000000	0.147991
1991.000000	0.148925
1992.000000	0.149689
1993.000000	0.150834
1994.000000	0.152214
1995.000000	0.152836
1996.000000	0.153347
1997.000000	0.154064
1998.000000	0.154260
1999.000000	0.155093
2000.000000	0.156376
2001.000000	0.158163
2002.000000	0.159282
2003.000000	0.160750
2004.000000	0.162164
2005.000000	0.162419
2006.000000	0.162953
2007.000000	0.164276
2008.000000	0.165191
2009.000000	0.165711
2010.000000	0.166980
2011.000000	0.168385
2012.000000	0.169780
2013.000000	0.171527
2014.000000	0.173306
2015.000000	0.175026
2016.000000	0.176719
2017.000000	0.177944
2018.000000	0.179685
2019.000000	0.181215
2020.000000	0.181833
2021.000000	0.182907
2022.000000	0.183999
2023.000000	0.185266
2024.000000	0.186805
2025.000000	0.188224
2026.000000	0.189871
2027.000000	0.190908
2028.000000	0.191601
2029.000000	0.192522
2030.000000	0.193549
2031.000000	0.194548
2032.000000	0.196100
2033.000000	0.197864
2034.000000	0.199216
2035.000000	0.200686
2036.000000	0.201907
2037.000000	0.202614
2038.000000	0.203806
2039.000000	0.205323
2040.000000	0.206531
2041.000000	0.208159
2042.000000	0.209778
2043.000000	0.210969
2044.000000	0.212486
2045.000000	0.213797
2046.000000	0.214535
2047.000000	0.215478
2048.000000	0.216132
2049.000000	0.217270
2050.000000	0.218698
2051.000000	0.219531
2052.000000	0.220096
2053.000000	0.220796
2054.000000	0.221059
2055.000000	0.221903
2056.000000	0.223158
2057.000000	0.224736
2058.000000	0.226994
2059.000000	0.228495
2060.000000	0.229859
2061.000000	0.231404
2062.000000	0.232362
2063.000000	0.232424
2064.000000	0.233262
2065.000000	0.234553
2066.000000	0.235463
2067.000000	0.236750
2068.000000	0.237761
2069.000000	0.238564
2070.000000	0.239417
2071.000000	0.240695
2072.000000	0.242184
2073.000000	0.243365
2074.000000	0.244485
2075.000000	0.245650
2076.000000	0.246720
2077.000000	0.247719
2078.000000	0.248562
2079.000000	0.249678
2080.000000	0.250802
2081.000000	0.252081
2082.000000	0.253729
2083.000000	0.255553
2084.000000	0.256388
2085.000000	0.256845
2086.000000	0.257707
2087.000000	0.258322
2088.000000	0.259472
2089.000000	0.261219
2090.000000	0.262410
2091.000000	0.263375
2092.000000	0.264439
2093.000000	0.265155
2094.000000	0.266335
2095.000000	0.267991
2096.000000	0.269297
2097.000000	0.270880
2098.000000	0.271936
2099.000000	0.272121
2100.000000	0.272496
2101.000000	0.273130
2102.000000	0.274033
2103.000000	0.275662
2104.000000	0.277223
2105.000000	0.278398
2106.000000	0.279316
2107.000000	0.280080
2108.000000	0.280454
2109.000000	0.281114
2110.000000	0.281644
2111.000000	0.282298
2112.000000	0.283076
2113.000000	0.283466
2114.000000	0.283669
2115.000000	0.284433
2116.000000	0.285507
2117.000000	0.286157
2118.000000	0.288084
2119.000000	0.288789
2120.000000	0.289666
2121.000000	0.290896
2122.000000	0.291425
2123.000000	0.291291
2124.000000	0.291496
2125.000000	0.290778
2126.000000	0.291019
2127.000000	0.292174
2128.000000	0.292960
2129.000000	0.294009
2130.000000	0.295339
2131.000000	0.294954
2132.000000	0.294194
2133.000000	0.294368
2134.000000	0.294301
2135.000000	0.295274
2136.000000	0.296246
2137.000000	0.296980
2138.000000	0.297527
2139.000000	0.298066
2140.000000	0.298792
2141.000000	0.299099
2142.000000	0.298681
2143.000000	0.298662
2144.000000	0.298811
2145.000000	0.299163
2146.000000	0.299998
2147.000000	0.301040
2148.000000	0.301398
2149.000000	0.300955
2150.000000	0.300469
2151.000000	0.299433
2152.000000	0.298783
2153.000000	0.299138
2154.000000	0.299152
2155.000000	0.299365
2156.000000	0.299660
2157.000000	0.300281
2158.000000	0.300236
2159.000000	0.300020
2160.000000	0.299981
2161.000000	0.299089
2162.000000	0.299454
2163.000000	0.300866
2164.000000	0.301400
2165.000000	0.302302
2166.000000	0.302782
2167.000000	0.301967
2168.000000	0.302540
2169.000000	0.302998
2170.000000	0.302762
2171.000000	0.302811
2172.000000	0.302858
2173.000000	0.302656
2174.000000	0.302663
2175.000000	0.302140
2176.000000	0.300597
2177.000000	0.300211
2178.000000	0.300199
2179.000000	0.300193
2180.000000	0.301370
2181.000000	0.301807
2182.000000	0.301407
2183.000000	0.300013
2184.000000	0.299976
2185.000000	0.299853
2186.000000	0.298903
2187.000000	0.300028
2188.000000	0.300280
2189.000000	0.299010
2190.000000	0.299501
2191.000000	0.301333
2192.000000	0.302297
2193.000000	0.304296
2194.000000	0.303817
2195.000000	0.300865
2196.000000	0.299563
2197.000000	0.297139
2198.000000	0.296361
2199.000000	0.298298
2200.000000	0.298772
2201.000000	0.298624
2202.000000	0.298455
2203.000000	0.297962
2204.000000	0.297208
2205.000000	0.296181
2206.000000	0.294733
2207.000000	0.295210
2208.000000	0.297423
2209.000000	0.297970
2210.000000	0.300060
2211.000000	0.299138
2212.000000	0.295966
2213.000000	0.296226
2214.000000	0.298638
2215.000000	0.298623
2216.000000	0.299779
2217.000000	0.300156
2218.000000	0.296920
2219.000000	0.297567
2220.000000	0.301818
2221.000000	0.302940
2222.000000	0.304418
2223.000000	0.304816
2224.000000	0.303183
2225.000000	0.301960
2226.000000	0.300329
2227.000000	0.299285
2228.000000	0.297184
2229.000000	0.295496
2230.000000	0.297629
2231.000000	0.299625
2232.000000	0.303203
2233.000000	0.306008
2234.000000	0.305726
2235.000000	0.305827
2236.000000	0.305380
2237.000000	0.303281
2238.000000	0.303609
2239.000000	0.305358
2240.000000	0.305429
2241.000000	0.306358
2242.000000	0.306376
2243.000000	0.303638
2244.000000	0.303121
2245.000000	0.304538
2246.000000	0.305183
2247.000000	0.305571
2248.000000	0.306262
2249.000000	0.308841
2250.000000	0.306727
2251.000000	0.305423
2252.000000	0.307632
2253.000000	0.303521
2254.000000	0.301807
2255.000000	0.302977
2256.000000	0.302184
2257.000000	0.304820
2258.000000	0.307094
2259.000000	0.306941
2260.000000	0.305733
2261.000000	0.303228
2262.000000	0.299092
2263.000000	0.296893
2264.000000	0.292852
2265.000000	0.291774
2266.000000	0.294388
2267.000000	0.294387
2268.000000	0.294560
2269.000000	0.293442
2270.000000	0.290074
2271.000000	0.288283
2272.000000	0.286645
2273.000000	0.286320
2274.000000	0.287227
2275.000000	0.288125
2276.000000	0.291135
2277.000000	0.290133
2278.000000	0.288123
2279.000000	0.285725
2280.000000	0.281632
2281.000000	0.279727
2282.000000	0.277705
2283.000000	0.274137
2284.000000	0.271499
2285.000000	0.267938
2286.000000	0.267459
2287.000000	0.269532
2288.000000	0.272065
2289.000000	0.273559
2290.000000	0.272384
2291.000000	0.273886
2292.000000	0.274224
2293.000000	0.273523
2294.000000	0.273893
2295.000000	0.276004
2296.000000	0.274541
2297.000000	0.271562
2298.000000	0.269063
2299.000000	0.263835
2300.000000	0.261776
2301.000000	0.261191
2302.000000	0.261180
2303.000000	0.263285
2304.000000	0.263992
2305.000000	0.265017
2306.000000	0.265445
2307.000000	0.265102
2308.000000	0.264185
2309.000000	0.265205
2310.000000	0.266472
2311.000000	0.268221
2312.000000	0.267965
2313.000000	0.265669
2314.000000	0.263600
2315.000000	0.259356
2316.000000	0.256142
2317.000000	0.254683
2318.000000	0.252531
2319.000000	0.252161
2320.000000	0.253807
2321.000000	0.253501
2322.000000	0.251149
2323.000000	0.248407
2324.000000	0.246035
2325.000000	0.245715
2326.000000	0.245070
2327.000000	0.244230
2328.000000	0.242926
2329.000000	0.238732
2330.000000	0.234735
2331.000000	0.232433
2332.000000	0.230959
2333.000000	0.231607
2334.000000	0.232553
2335.000000	0.232854
2336.000000	0.232207
2337.000000	0.231768
2338.000000	0.232164
2339.000000	0.231015
2340.000000	0.228745
2341.000000	0.227395
2342.000000	0.224174
2343.000000	0.222205
2344.000000	0.222270
2345.000000	0.220808
2346.000000	0.219205
2347.000000	0.217911
2348.000000	0.216041
2349.000000	0.214371
2350.000000	0.215687
2351.000000	0.213012
2352.000000	0.208678
2353.000000	0.205840
2354.000000	0.199121
2355.000000	0.196036
2356.000000	0.195848
2357.000000	0.194475
2358.000000	0.193802
2359.000000	0.189192
2360.000000	0.186149
2361.000000	0.186498
2362.000000	0.184199
2363.000000	0.186835
2364.000000	0.189238
2365.000000	0.187527
2366.000000	0.188342
2367.000000	0.186369
2368.000000	0.180525
2369.000000	0.173758
2370.000000	0.170225
2371.000000	0.168266
2372.000000	0.168196
2373.000000	0.172103
2374.000000	0.171711
2375.000000	0.168409
2376.000000	0.169048
2377.000000	0.168082
2378.000000	0.163806
2379.000000	0.164165
2380.000000	0.162864
2381.000000	0.159225
2382.000000	0.160735
2383.000000	0.160230
2384.000000	0.158340
2385.000000	0.155837
2386.000000	0.148878
2387.000000	0.144600
2388.000000	0.140886
2389.000000	0.139401
2390.000000	0.138741
2391.000000	0.136067
2392.000000	0.141863
2393.000000	0.142803
2394.000000	0.140432
2395.000000	0.142657
2396.000000	0.135640
2397.000000	0.130381
2398.000000	0.132455
2399.000000	0.130797
2400.000000	0.133050
2401.000000	0.135179
2402.000000	0.135451
2403.000000	0.139406
2404.000000	0.137943
2405.000000	0.133460
2406.000000	0.125844
2407.000000	0.118882
2408.000000	0.116777
2409.000000	0.119185
2410.000000	0.125808
2411.000000	0.130214
2412.000000	0.134342
2413.000000	0.137753
2414.000000	0.140695
2415.000000	0.139840
2416.000000	0.134101
2417.000000	0.131599
2418.000000	0.126952
2419.000000	0.124075
2420.000000	0.129523
2421.000000	0.130373
2422.000000	0.136499
2423.000000	0.143686
2424.000000	0.138250
2425.000000	0.131704
2426.000000	0.116611
2427.000000	0.105510
2428.000000	0.108241
2429.000000	0.117454
2430.000000	0.129513
2431.000000	0.130696
2432.000000	0.134996
2433.000000	0.137978
2434.000000	0.131352
2435.000000	0.125611
2436.000000	0.118141
2437.000000	0.109770
2438.000000	0.103801
2439.000000	0.111405
2440.000000	0.118234
2441.000000	0.120841
2442.000000	0.128909
2443.000000	0.130325
2444.000000	0.128719
2445.000000	0.126013
2446.000000	0.120686
2447.000000	0.120502
2448.000000	0.122593
2449.000000	0.121761
2450.000000	0.121146
2451.000000	0.115055
2452.000000	0.109769
2453.000000	0.110712
2454.000000	0.111202
2455.000000	0.111999
2456.000000	0.106228
2457.000000	0.112115
2458.000000	0.125059
2459.000000	0.129856
2460.000000	0.136545
2461.000000	0.119861
2462.000000	0.104264
2463.000000	0.092166
2464.000000	0.074924
2465.000000	0.089793
2466.000000	0.092252
2467.000000	0.091124
2468.000000	0.102031
2469.000000	0.076617
2470.000000	0.056808
2471.000000	0.054350
2472.000000	0.050033
2473.000000	0.059857
2474.000000	0.072503
2475.000000	0.085156
2476.000000	0.083381
2477.000000	0.069231
2478.000000	0.048853
2479.000000	0.017739
2480.000000	0.002118
2481.000000	0.000746
2482.000000	0.013431
2483.000000	0.010878
2484.000000	0.001249
2485.000000	0.004373
2486.000000	-0.010986
2487.000000	-0.006777
2488.000000	0.014401
2489.000000	0.001907
2490.000000	-0.006186
2491.000000	-0.030719
2492.000000	-0.023868
2493.000000	0.026612
2494.000000	0.050661
2495.000000	0.081158
2496.000000	0.108173
2497.000000	0.128454
2498.000000	0.133293
2499.000000	0.133506
2500.000000	0.117979
