# Wavelength	Nau-1_30_FV7_70_00001.asd.rts.txt
350.000000	0.146480
351.000000	0.146631
352.000000	0.171083
353.000000	0.178481
354.000000	0.161396
355.000000	0.163345
356.000000	0.164747
357.000000	0.165037
358.000000	0.174285
359.000000	0.173035
360.000000	0.166758
361.000000	0.164758
362.000000	0.161531
363.000000	0.156546
364.000000	0.152315
365.000000	0.160667
366.000000	0.162814
367.000000	0.157781
368.000000	0.160253
369.000000	0.161716
370.000000	0.162592
371.000000	0.165202
372.000000	0.167479
373.000000	0.168333
374.000000	0.168395
375.000000	0.171888
376.000000	0.169549
377.000000	0.164663
378.000000	0.173531
379.000000	0.173333
380.000000	0.168823
381.000000	0.172261
382.000000	0.173889
383.000000	0.173727
384.000000	0.173291
385.000000	0.174146
386.000000	0.175095
387.000000	0.175879
388.000000	0.176927
389.000000	0.177939
390.000000	0.178741
391.000000	0.179184
392.000000	0.181901
393.000000	0.183256
394.000000	0.181634
395.000000	0.184853
396.000000	0.186440
397.000000	0.184895
398.000000	0.185064
399.000000	0.186327
400.000000	0.188140
401.000000	0.189639
402.000000	0.189877
403.000000	0.190075
404.000000	0.191387
405.000000	0.192521
406.000000	0.193981
407.000000	0.195566
408.000000	0.195456
409.000000	0.195732
410.000000	0.196639
411.000000	0.197394
412.000000	0.197573
413.000000	0.197661
414.000000	0.198299
415.000000	0.199618
416.000000	0.200547
417.000000	0.200665
418.000000	0.200985
419.000000	0.201513
420.000000	0.202108
421.000000	0.202456
422.000000	0.202600
423.000000	0.202854
424.000000	0.203552
425.000000	0.203623
426.000000	0.203440
427.000000	0.203438
428.000000	0.203808
429.000000	0.203867
430.000000	0.203703
431.000000	0.204539
432.000000	0.204614
433.000000	0.204228
434.000000	0.204639
435.000000	0.204712
436.000000	0.204699
437.000000	0.204908
438.000000	0.204753
439.000000	0.204562
440.000000	0.204594
441.000000	0.204679
442.000000	0.204554
443.000000	0.204364
444.000000	0.204711
445.000000	0.204683
446.000000	0.204586
447.000000	0.204846
448.000000	0.205248
449.000000	0.205991
450.000000	0.207095
451.000000	0.207980
452.000000	0.208968
453.000000	0.210016
454.000000	0.210829
455.000000	0.211917
456.000000	0.213442
457.000000	0.215201
458.000000	0.216347
459.000000	0.217248
460.000000	0.218355
461.000000	0.219172
462.000000	0.220216
463.000000	0.221371
464.000000	0.221709
465.000000	0.222259
466.000000	0.223107
467.000000	0.223889
468.000000	0.224537
469.000000	0.224886
470.000000	0.225037
471.000000	0.225715
472.000000	0.226295
473.000000	0.226468
474.000000	0.226969
475.000000	0.227464
476.000000	0.227892
477.000000	0.228132
478.000000	0.228359
479.000000	0.228853
480.000000	0.229566
481.000000	0.229788
482.000000	0.230070
483.000000	0.230686
484.000000	0.230907
485.000000	0.231097
486.000000	0.231563
487.000000	0.231941
488.000000	0.232165
489.000000	0.232438
490.000000	0.233159
491.000000	0.233619
492.000000	0.233877
493.000000	0.234097
494.000000	0.234568
495.000000	0.235029
496.000000	0.235322
497.000000	0.235941
498.000000	0.236396
499.000000	0.236668
500.000000	0.237128
501.000000	0.237605
502.000000	0.238088
503.000000	0.238530
504.000000	0.238773
505.000000	0.239095
506.000000	0.239742
507.000000	0.240406
508.000000	0.240934
509.000000	0.241290
510.000000	0.241771
511.000000	0.242242
512.000000	0.242713
513.000000	0.243251
514.000000	0.243748
515.000000	0.244287
516.000000	0.244920
517.000000	0.245416
518.000000	0.245924
519.000000	0.246496
520.000000	0.247081
521.000000	0.247649
522.000000	0.248192
523.000000	0.248698
524.000000	0.249248
525.000000	0.249833
526.000000	0.250430
527.000000	0.251068
528.000000	0.251671
529.000000	0.252215
530.000000	0.252788
531.000000	0.253367
532.000000	0.253886
533.000000	0.254544
534.000000	0.255130
535.000000	0.255647
536.000000	0.256370
537.000000	0.257005
538.000000	0.257565
539.000000	0.258162
540.000000	0.258725
541.000000	0.259295
542.000000	0.259934
543.000000	0.260546
544.000000	0.261126
545.000000	0.261650
546.000000	0.262290
547.000000	0.262887
548.000000	0.263455
549.000000	0.264033
550.000000	0.264655
551.000000	0.265311
552.000000	0.265934
553.000000	0.266557
554.000000	0.267153
555.000000	0.267734
556.000000	0.268443
557.000000	0.269020
558.000000	0.269539
559.000000	0.270162
560.000000	0.270733
561.000000	0.271322
562.000000	0.271952
563.000000	0.272443
564.000000	0.272918
565.000000	0.273427
566.000000	0.273971
567.000000	0.274489
568.000000	0.274945
569.000000	0.275437
570.000000	0.275970
571.000000	0.276493
572.000000	0.276923
573.000000	0.277396
574.000000	0.277838
575.000000	0.278181
576.000000	0.278610
577.000000	0.279006
578.000000	0.279334
579.000000	0.279691
580.000000	0.280099
581.000000	0.280526
582.000000	0.280850
583.000000	0.281185
584.000000	0.281528
585.000000	0.281815
586.000000	0.282142
587.000000	0.282453
588.000000	0.282676
589.000000	0.282883
590.000000	0.283130
591.000000	0.283420
592.000000	0.283606
593.000000	0.283822
594.000000	0.284079
595.000000	0.284269
596.000000	0.284483
597.000000	0.284733
598.000000	0.284902
599.000000	0.284985
600.000000	0.285079
601.000000	0.285198
602.000000	0.285371
603.000000	0.285519
604.000000	0.285639
605.000000	0.285847
606.000000	0.286025
607.000000	0.286182
608.000000	0.286398
609.000000	0.286544
610.000000	0.286708
611.000000	0.286986
612.000000	0.287142
613.000000	0.287261
614.000000	0.287421
615.000000	0.287458
616.000000	0.287431
617.000000	0.287386
618.000000	0.287476
619.000000	0.287595
620.000000	0.287683
621.000000	0.287751
622.000000	0.287732
623.000000	0.287712
624.000000	0.287763
625.000000	0.287813
626.000000	0.287906
627.000000	0.288033
628.000000	0.288078
629.000000	0.288293
630.000000	0.288473
631.000000	0.288457
632.000000	0.288656
633.000000	0.288932
634.000000	0.289059
635.000000	0.289211
636.000000	0.289391
637.000000	0.289574
638.000000	0.289770
639.000000	0.289932
640.000000	0.290086
641.000000	0.290159
642.000000	0.290286
643.000000	0.290432
644.000000	0.290521
645.000000	0.290610
646.000000	0.290710
647.000000	0.290803
648.000000	0.290905
649.000000	0.291014
650.000000	0.291127
651.000000	0.291307
652.000000	0.291576
653.000000	0.291846
654.000000	0.291914
655.000000	0.292112
656.000000	0.292392
657.000000	0.292602
658.000000	0.292784
659.000000	0.292989
660.000000	0.293200
661.000000	0.293331
662.000000	0.293462
663.000000	0.293641
664.000000	0.293804
665.000000	0.294032
666.000000	0.294250
667.000000	0.294365
668.000000	0.294654
669.000000	0.294939
670.000000	0.295123
671.000000	0.295323
672.000000	0.295497
673.000000	0.295647
674.000000	0.295825
675.000000	0.295998
676.000000	0.296165
677.000000	0.296351
678.000000	0.296543
679.000000	0.296801
680.000000	0.297130
681.000000	0.297312
682.000000	0.297571
683.000000	0.297868
684.000000	0.298131
685.000000	0.298328
686.000000	0.298524
687.000000	0.298757
688.000000	0.298986
689.000000	0.299190
690.000000	0.299396
691.000000	0.299606
692.000000	0.299824
693.000000	0.300114
694.000000	0.300437
695.000000	0.300704
696.000000	0.300927
697.000000	0.301164
698.000000	0.301369
699.000000	0.301638
700.000000	0.302025
701.000000	0.302349
702.000000	0.302690
703.000000	0.303025
704.000000	0.303239
705.000000	0.303499
706.000000	0.303800
707.000000	0.304143
708.000000	0.304374
709.000000	0.304586
710.000000	0.304882
711.000000	0.305151
712.000000	0.305303
713.000000	0.305401
714.000000	0.305669
715.000000	0.305959
716.000000	0.306252
717.000000	0.306542
718.000000	0.306786
719.000000	0.307026
720.000000	0.307315
721.000000	0.307643
722.000000	0.307870
723.000000	0.308040
724.000000	0.308279
725.000000	0.308415
726.000000	0.308573
727.000000	0.308825
728.000000	0.309103
729.000000	0.309373
730.000000	0.309584
731.000000	0.309880
732.000000	0.310128
733.000000	0.310307
734.000000	0.310407
735.000000	0.310581
736.000000	0.310892
737.000000	0.311098
738.000000	0.311130
739.000000	0.311254
740.000000	0.311475
741.000000	0.311671
742.000000	0.311926
743.000000	0.312204
744.000000	0.312419
745.000000	0.312518
746.000000	0.312589
747.000000	0.312664
748.000000	0.312763
749.000000	0.312950
750.000000	0.313172
751.000000	0.313185
752.000000	0.313246
753.000000	0.313388
754.000000	0.313427
755.000000	0.313511
756.000000	0.313642
757.000000	0.313745
758.000000	0.313939
759.000000	0.314078
760.000000	0.314057
761.000000	0.314167
762.000000	0.314293
763.000000	0.314384
764.000000	0.314495
765.000000	0.314548
766.000000	0.314592
767.000000	0.314666
768.000000	0.314693
769.000000	0.314652
770.000000	0.314572
771.000000	0.314538
772.000000	0.314601
773.000000	0.314668
774.000000	0.314728
775.000000	0.314823
776.000000	0.314947
777.000000	0.315052
778.000000	0.315071
779.000000	0.314951
780.000000	0.314787
781.000000	0.314786
782.000000	0.314760
783.000000	0.314805
784.000000	0.314862
785.000000	0.314804
786.000000	0.314711
787.000000	0.314648
788.000000	0.314640
789.000000	0.314656
790.000000	0.314633
791.000000	0.314551
792.000000	0.314597
793.000000	0.314581
794.000000	0.314391
795.000000	0.314359
796.000000	0.314328
797.000000	0.314222
798.000000	0.314060
799.000000	0.314019
800.000000	0.314036
801.000000	0.313991
802.000000	0.313886
803.000000	0.313745
804.000000	0.313634
805.000000	0.313571
806.000000	0.313444
807.000000	0.313360
808.000000	0.313355
809.000000	0.313161
810.000000	0.312957
811.000000	0.312858
812.000000	0.312604
813.000000	0.312390
814.000000	0.312279
815.000000	0.312247
816.000000	0.312280
817.000000	0.312234
818.000000	0.311944
819.000000	0.311824
820.000000	0.311824
821.000000	0.311826
822.000000	0.311796
823.000000	0.311778
824.000000	0.311774
825.000000	0.311861
826.000000	0.311722
827.000000	0.311477
828.000000	0.311283
829.000000	0.311122
830.000000	0.310964
831.000000	0.310829
832.000000	0.310599
833.000000	0.310445
834.000000	0.310339
835.000000	0.310273
836.000000	0.310248
837.000000	0.310171
838.000000	0.310030
839.000000	0.309841
840.000000	0.309763
841.000000	0.309714
842.000000	0.309551
843.000000	0.309351
844.000000	0.309175
845.000000	0.309007
846.000000	0.308822
847.000000	0.308707
848.000000	0.308590
849.000000	0.308414
850.000000	0.308232
851.000000	0.307970
852.000000	0.307717
853.000000	0.307683
854.000000	0.307640
855.000000	0.307653
856.000000	0.307658
857.000000	0.307541
858.000000	0.307422
859.000000	0.307273
860.000000	0.307029
861.000000	0.306826
862.000000	0.306735
863.000000	0.306702
864.000000	0.306616
865.000000	0.306443
866.000000	0.306217
867.000000	0.305981
868.000000	0.305923
869.000000	0.305879
870.000000	0.305686
871.000000	0.305505
872.000000	0.305303
873.000000	0.305039
874.000000	0.304910
875.000000	0.304700
876.000000	0.304400
877.000000	0.304053
878.000000	0.303929
879.000000	0.303869
880.000000	0.303626
881.000000	0.303371
882.000000	0.303129
883.000000	0.302902
884.000000	0.302621
885.000000	0.302358
886.000000	0.302217
887.000000	0.302169
888.000000	0.301817
889.000000	0.301655
890.000000	0.301606
891.000000	0.301573
892.000000	0.301230
893.000000	0.300909
894.000000	0.300844
895.000000	0.300640
896.000000	0.300377
897.000000	0.300136
898.000000	0.299980
899.000000	0.299809
900.000000	0.299614
901.000000	0.299393
902.000000	0.299274
903.000000	0.299154
904.000000	0.299032
905.000000	0.298838
906.000000	0.298682
907.000000	0.298498
908.000000	0.298277
909.000000	0.297916
910.000000	0.297641
911.000000	0.297355
912.000000	0.296998
913.000000	0.296854
914.000000	0.296729
915.000000	0.296583
916.000000	0.296349
917.000000	0.296276
918.000000	0.296229
919.000000	0.296062
920.000000	0.295863
921.000000	0.295616
922.000000	0.295414
923.000000	0.295338
924.000000	0.295210
925.000000	0.295023
926.000000	0.294791
927.000000	0.294399
928.000000	0.294194
929.000000	0.294118
930.000000	0.293964
931.000000	0.293594
932.000000	0.293261
933.000000	0.293039
934.000000	0.292693
935.000000	0.292550
936.000000	0.292415
937.000000	0.292049
938.000000	0.291911
939.000000	0.291938
940.000000	0.291853
941.000000	0.291482
942.000000	0.291416
943.000000	0.291283
944.000000	0.290843
945.000000	0.290733
946.000000	0.290569
947.000000	0.290324
948.000000	0.290001
949.000000	0.289540
950.000000	0.289372
951.000000	0.289479
952.000000	0.289502
953.000000	0.289216
954.000000	0.288893
955.000000	0.288712
956.000000	0.288640
957.000000	0.288493
958.000000	0.288259
959.000000	0.288130
960.000000	0.288089
961.000000	0.288150
962.000000	0.288124
963.000000	0.287672
964.000000	0.287579
965.000000	0.287550
966.000000	0.287167
967.000000	0.286926
968.000000	0.286558
969.000000	0.286222
970.000000	0.286302
971.000000	0.286200
972.000000	0.286087
973.000000	0.286029
974.000000	0.286058
975.000000	0.285792
976.000000	0.285454
977.000000	0.285226
978.000000	0.284746
979.000000	0.284579
980.000000	0.284474
981.000000	0.284326
982.000000	0.284220
983.000000	0.284125
984.000000	0.284048
985.000000	0.283903
986.000000	0.283803
987.000000	0.283779
988.000000	0.283694
989.000000	0.283448
990.000000	0.283506
991.000000	0.283519
992.000000	0.283126
993.000000	0.283084
994.000000	0.283277
995.000000	0.283507
996.000000	0.283241
997.000000	0.283189
998.000000	0.283163
999.000000	0.283039
1000.000000	0.282728
1001.000000	0.283202
1002.000000	0.282838
1003.000000	0.282891
1004.000000	0.282819
1005.000000	0.282596
1006.000000	0.282736
1007.000000	0.283294
1008.000000	0.283174
1009.000000	0.283405
1010.000000	0.283232
1011.000000	0.282271
1012.000000	0.281950
1013.000000	0.281663
1014.000000	0.281456
1015.000000	0.281928
1016.000000	0.282263
1017.000000	0.282528
1018.000000	0.283486
1019.000000	0.283588
1020.000000	0.283187
1021.000000	0.282758
1022.000000	0.281712
1023.000000	0.281491
1024.000000	0.281381
1025.000000	0.282103
1026.000000	0.282713
1027.000000	0.282895
1028.000000	0.283078
1029.000000	0.283243
1030.000000	0.282725
1031.000000	0.282116
1032.000000	0.281894
1033.000000	0.281718
1034.000000	0.281940
1035.000000	0.283241
1036.000000	0.283568
1037.000000	0.283615
1038.000000	0.283556
1039.000000	0.283001
1040.000000	0.282944
1041.000000	0.283360
1042.000000	0.283114
1043.000000	0.283246
1044.000000	0.283455
1045.000000	0.283180
1046.000000	0.283201
1047.000000	0.283471
1048.000000	0.283919
1049.000000	0.284211
1050.000000	0.284805
1051.000000	0.285032
1052.000000	0.284765
1053.000000	0.284861
1054.000000	0.285200
1055.000000	0.285618
1056.000000	0.286565
1057.000000	0.286830
1058.000000	0.286686
1059.000000	0.286819
1060.000000	0.286735
1061.000000	0.286794
1062.000000	0.287456
1063.000000	0.287996
1064.000000	0.288489
1065.000000	0.289068
1066.000000	0.289463
1067.000000	0.289614
1068.000000	0.289852
1069.000000	0.289936
1070.000000	0.290239
1071.000000	0.290853
1072.000000	0.291153
1073.000000	0.291505
1074.000000	0.291653
1075.000000	0.291607
1076.000000	0.292045
1077.000000	0.292174
1078.000000	0.292197
1079.000000	0.292285
1080.000000	0.292124
1081.000000	0.292322
1082.000000	0.292892
1083.000000	0.293264
1084.000000	0.293746
1085.000000	0.294201
1086.000000	0.294637
1087.000000	0.294997
1088.000000	0.295343
1089.000000	0.295486
1090.000000	0.295144
1091.000000	0.295222
1092.000000	0.295459
1093.000000	0.296024
1094.000000	0.296477
1095.000000	0.297221
1096.000000	0.297669
1097.000000	0.297872
1098.000000	0.298233
1099.000000	0.298610
1100.000000	0.299017
1101.000000	0.299569
1102.000000	0.299764
1103.000000	0.299638
1104.000000	0.299769
1105.000000	0.299701
1106.000000	0.299836
1107.000000	0.300122
1108.000000	0.300514
1109.000000	0.301272
1110.000000	0.301631
1111.000000	0.302090
1112.000000	0.302758
1113.000000	0.303057
1114.000000	0.303093
1115.000000	0.303205
1116.000000	0.303163
1117.000000	0.303277
1118.000000	0.303349
1119.000000	0.303516
1120.000000	0.303894
1121.000000	0.304087
1122.000000	0.304266
1123.000000	0.304680
1124.000000	0.304873
1125.000000	0.305163
1126.000000	0.305743
1127.000000	0.305964
1128.000000	0.306022
1129.000000	0.305856
1130.000000	0.305996
1131.000000	0.306077
1132.000000	0.306167
1133.000000	0.306454
1134.000000	0.306759
1135.000000	0.307014
1136.000000	0.307147
1137.000000	0.307308
1138.000000	0.307469
1139.000000	0.307451
1140.000000	0.307699
1141.000000	0.308274
1142.000000	0.308590
1143.000000	0.308699
1144.000000	0.308999
1145.000000	0.309293
1146.000000	0.309229
1147.000000	0.309244
1148.000000	0.309115
1149.000000	0.309268
1150.000000	0.309406
1151.000000	0.309661
1152.000000	0.310234
1153.000000	0.310466
1154.000000	0.310506
1155.000000	0.310564
1156.000000	0.310494
1157.000000	0.310493
1158.000000	0.310431
1159.000000	0.310417
1160.000000	0.310359
1161.000000	0.310429
1162.000000	0.310661
1163.000000	0.310963
1164.000000	0.311266
1165.000000	0.311487
1166.000000	0.311603
1167.000000	0.311509
1168.000000	0.311535
1169.000000	0.311545
1170.000000	0.311631
1171.000000	0.311856
1172.000000	0.312034
1173.000000	0.312182
1174.000000	0.312302
1175.000000	0.312377
1176.000000	0.312415
1177.000000	0.312485
1178.000000	0.312570
1179.000000	0.312631
1180.000000	0.312670
1181.000000	0.312867
1182.000000	0.312923
1183.000000	0.312873
1184.000000	0.313024
1185.000000	0.313098
1186.000000	0.313136
1187.000000	0.313128
1188.000000	0.313149
1189.000000	0.313073
1190.000000	0.312858
1191.000000	0.312871
1192.000000	0.313050
1193.000000	0.313298
1194.000000	0.313659
1195.000000	0.313843
1196.000000	0.313886
1197.000000	0.313971
1198.000000	0.314043
1199.000000	0.314058
1200.000000	0.313918
1201.000000	0.314042
1202.000000	0.314236
1203.000000	0.314298
1204.000000	0.314462
1205.000000	0.314605
1206.000000	0.314606
1207.000000	0.314446
1208.000000	0.314491
1209.000000	0.314690
1210.000000	0.314781
1211.000000	0.314896
1212.000000	0.314944
1213.000000	0.315011
1214.000000	0.314993
1215.000000	0.314827
1216.000000	0.314830
1217.000000	0.314844
1218.000000	0.314789
1219.000000	0.314794
1220.000000	0.314892
1221.000000	0.314817
1222.000000	0.314672
1223.000000	0.314748
1224.000000	0.314782
1225.000000	0.314680
1226.000000	0.314775
1227.000000	0.314830
1228.000000	0.314893
1229.000000	0.314930
1230.000000	0.315004
1231.000000	0.315006
1232.000000	0.315039
1233.000000	0.315155
1234.000000	0.315351
1235.000000	0.315438
1236.000000	0.315386
1237.000000	0.315432
1238.000000	0.315415
1239.000000	0.315359
1240.000000	0.315290
1241.000000	0.315291
1242.000000	0.315190
1243.000000	0.315161
1244.000000	0.315211
1245.000000	0.315355
1246.000000	0.315447
1247.000000	0.315599
1248.000000	0.315739
1249.000000	0.315731
1250.000000	0.315827
1251.000000	0.315948
1252.000000	0.315980
1253.000000	0.316066
1254.000000	0.316076
1255.000000	0.315961
1256.000000	0.315881
1257.000000	0.315811
1258.000000	0.315804
1259.000000	0.315685
1260.000000	0.315720
1261.000000	0.315871
1262.000000	0.315920
1263.000000	0.316005
1264.000000	0.316009
1265.000000	0.316041
1266.000000	0.316029
1267.000000	0.315989
1268.000000	0.316019
1269.000000	0.315887
1270.000000	0.315818
1271.000000	0.315678
1272.000000	0.315485
1273.000000	0.315556
1274.000000	0.315510
1275.000000	0.315533
1276.000000	0.315807
1277.000000	0.315885
1278.000000	0.315729
1279.000000	0.315704
1280.000000	0.315507
1281.000000	0.315437
1282.000000	0.315618
1283.000000	0.315687
1284.000000	0.315720
1285.000000	0.315758
1286.000000	0.315734
1287.000000	0.315555
1288.000000	0.315779
1289.000000	0.315732
1290.000000	0.315440
1291.000000	0.315462
1292.000000	0.315399
1293.000000	0.315357
1294.000000	0.315493
1295.000000	0.315643
1296.000000	0.315664
1297.000000	0.315457
1298.000000	0.315351
1299.000000	0.315269
1300.000000	0.315246
1301.000000	0.315365
1302.000000	0.315318
1303.000000	0.315341
1304.000000	0.315331
1305.000000	0.315293
1306.000000	0.315316
1307.000000	0.315478
1308.000000	0.315607
1309.000000	0.315731
1310.000000	0.315797
1311.000000	0.315869
1312.000000	0.315946
1313.000000	0.315941
1314.000000	0.315912
1315.000000	0.315755
1316.000000	0.315732
1317.000000	0.315690
1318.000000	0.315593
1319.000000	0.315611
1320.000000	0.315554
1321.000000	0.315519
1322.000000	0.315527
1323.000000	0.315428
1324.000000	0.315352
1325.000000	0.315172
1326.000000	0.314995
1327.000000	0.314973
1328.000000	0.315007
1329.000000	0.314959
1330.000000	0.314953
1331.000000	0.314917
1332.000000	0.314844
1333.000000	0.314790
1334.000000	0.314818
1335.000000	0.314878
1336.000000	0.314990
1337.000000	0.315024
1338.000000	0.315060
1339.000000	0.314868
1340.000000	0.314748
1341.000000	0.314684
1342.000000	0.314489
1343.000000	0.314515
1344.000000	0.314594
1345.000000	0.314525
1346.000000	0.314712
1347.000000	0.314722
1348.000000	0.314630
1349.000000	0.314584
1350.000000	0.314499
1351.000000	0.314547
1352.000000	0.314532
1353.000000	0.314373
1354.000000	0.314328
1355.000000	0.314244
1356.000000	0.314210
1357.000000	0.314171
1358.000000	0.314106
1359.000000	0.314092
1360.000000	0.314069
1361.000000	0.314144
1362.000000	0.314106
1363.000000	0.313952
1364.000000	0.313865
1365.000000	0.313730
1366.000000	0.313614
1367.000000	0.313521
1368.000000	0.313460
1369.000000	0.313408
1370.000000	0.313365
1371.000000	0.313411
1372.000000	0.313384
1373.000000	0.313314
1374.000000	0.313244
1375.000000	0.313015
1376.000000	0.312946
1377.000000	0.312936
1378.000000	0.312777
1379.000000	0.312754
1380.000000	0.312674
1381.000000	0.312481
1382.000000	0.312370
1383.000000	0.312071
1384.000000	0.311782
1385.000000	0.311738
1386.000000	0.311686
1387.000000	0.311499
1388.000000	0.311250
1389.000000	0.310867
1390.000000	0.310422
1391.000000	0.310179
1392.000000	0.310008
1393.000000	0.309671
1394.000000	0.309280
1395.000000	0.308959
1396.000000	0.308530
1397.000000	0.308156
1398.000000	0.307823
1399.000000	0.307500
1400.000000	0.307228
1401.000000	0.306854
1402.000000	0.306481
1403.000000	0.306106
1404.000000	0.305787
1405.000000	0.305367
1406.000000	0.305079
1407.000000	0.304883
1408.000000	0.304509
1409.000000	0.304227
1410.000000	0.304024
1411.000000	0.303758
1412.000000	0.303535
1413.000000	0.303329
1414.000000	0.303189
1415.000000	0.303066
1416.000000	0.302873
1417.000000	0.302772
1418.000000	0.302696
1419.000000	0.302764
1420.000000	0.302775
1421.000000	0.302790
1422.000000	0.302804
1423.000000	0.302785
1424.000000	0.302699
1425.000000	0.302549
1426.000000	0.302362
1427.000000	0.302129
1428.000000	0.301932
1429.000000	0.301968
1430.000000	0.301947
1431.000000	0.301889
1432.000000	0.301863
1433.000000	0.301806
1434.000000	0.301861
1435.000000	0.302121
1436.000000	0.302279
1437.000000	0.302453
1438.000000	0.302652
1439.000000	0.302793
1440.000000	0.303113
1441.000000	0.303563
1442.000000	0.304096
1443.000000	0.304726
1444.000000	0.305304
1445.000000	0.305777
1446.000000	0.306258
1447.000000	0.306723
1448.000000	0.307091
1449.000000	0.307438
1450.000000	0.307793
1451.000000	0.307959
1452.000000	0.307950
1453.000000	0.308108
1454.000000	0.308238
1455.000000	0.308311
1456.000000	0.308540
1457.000000	0.308620
1458.000000	0.308524
1459.000000	0.308432
1460.000000	0.308436
1461.000000	0.308504
1462.000000	0.308573
1463.000000	0.308602
1464.000000	0.308535
1465.000000	0.308491
1466.000000	0.308481
1467.000000	0.308494
1468.000000	0.308572
1469.000000	0.308766
1470.000000	0.308846
1471.000000	0.308912
1472.000000	0.309064
1473.000000	0.309168
1474.000000	0.309160
1475.000000	0.309256
1476.000000	0.309350
1477.000000	0.309405
1478.000000	0.309430
1479.000000	0.309456
1480.000000	0.309568
1481.000000	0.309620
1482.000000	0.309731
1483.000000	0.309831
1484.000000	0.309886
1485.000000	0.309938
1486.000000	0.309972
1487.000000	0.309989
1488.000000	0.310006
1489.000000	0.310087
1490.000000	0.310061
1491.000000	0.310137
1492.000000	0.310241
1493.000000	0.310314
1494.000000	0.310340
1495.000000	0.310395
1496.000000	0.310461
1497.000000	0.310622
1498.000000	0.310890
1499.000000	0.311025
1500.000000	0.311227
1501.000000	0.311315
1502.000000	0.311331
1503.000000	0.311428
1504.000000	0.311508
1505.000000	0.311635
1506.000000	0.311795
1507.000000	0.311867
1508.000000	0.311954
1509.000000	0.312013
1510.000000	0.312009
1511.000000	0.312096
1512.000000	0.312213
1513.000000	0.312289
1514.000000	0.312284
1515.000000	0.312205
1516.000000	0.312190
1517.000000	0.312170
1518.000000	0.312246
1519.000000	0.312305
1520.000000	0.312362
1521.000000	0.312356
1522.000000	0.312238
1523.000000	0.312260
1524.000000	0.312275
1525.000000	0.312191
1526.000000	0.312266
1527.000000	0.312469
1528.000000	0.312608
1529.000000	0.312665
1530.000000	0.312563
1531.000000	0.312500
1532.000000	0.312445
1533.000000	0.312415
1534.000000	0.312537
1535.000000	0.312584
1536.000000	0.312488
1537.000000	0.312492
1538.000000	0.312515
1539.000000	0.312431
1540.000000	0.312464
1541.000000	0.312634
1542.000000	0.312723
1543.000000	0.312740
1544.000000	0.312716
1545.000000	0.312690
1546.000000	0.312678
1547.000000	0.312682
1548.000000	0.312693
1549.000000	0.312686
1550.000000	0.312674
1551.000000	0.312696
1552.000000	0.312723
1553.000000	0.312617
1554.000000	0.312536
1555.000000	0.312577
1556.000000	0.312547
1557.000000	0.312521
1558.000000	0.312526
1559.000000	0.312424
1560.000000	0.312410
1561.000000	0.312538
1562.000000	0.312506
1563.000000	0.312438
1564.000000	0.312476
1565.000000	0.312530
1566.000000	0.312516
1567.000000	0.312646
1568.000000	0.312624
1569.000000	0.312495
1570.000000	0.312501
1571.000000	0.312596
1572.000000	0.312624
1573.000000	0.312678
1574.000000	0.312591
1575.000000	0.312386
1576.000000	0.312323
1577.000000	0.312204
1578.000000	0.312209
1579.000000	0.312423
1580.000000	0.312506
1581.000000	0.312684
1582.000000	0.312761
1583.000000	0.312731
1584.000000	0.312634
1585.000000	0.312579
1586.000000	0.312548
1587.000000	0.312414
1588.000000	0.312443
1589.000000	0.312615
1590.000000	0.312674
1591.000000	0.312745
1592.000000	0.312879
1593.000000	0.313075
1594.000000	0.313122
1595.000000	0.313242
1596.000000	0.313277
1597.000000	0.313154
1598.000000	0.313069
1599.000000	0.313006
1600.000000	0.312964
1601.000000	0.313039
1602.000000	0.312969
1603.000000	0.312889
1604.000000	0.312808
1605.000000	0.312634
1606.000000	0.312510
1607.000000	0.312522
1608.000000	0.312449
1609.000000	0.312361
1610.000000	0.312253
1611.000000	0.312111
1612.000000	0.312053
1613.000000	0.312113
1614.000000	0.312127
1615.000000	0.312295
1616.000000	0.312399
1617.000000	0.312387
1618.000000	0.312370
1619.000000	0.312290
1620.000000	0.312313
1621.000000	0.312400
1622.000000	0.312497
1623.000000	0.312652
1624.000000	0.312682
1625.000000	0.312472
1626.000000	0.312375
1627.000000	0.312339
1628.000000	0.312319
1629.000000	0.312340
1630.000000	0.312290
1631.000000	0.312082
1632.000000	0.311958
1633.000000	0.311843
1634.000000	0.311772
1635.000000	0.311805
1636.000000	0.311864
1637.000000	0.311965
1638.000000	0.312031
1639.000000	0.312226
1640.000000	0.312246
1641.000000	0.312208
1642.000000	0.312217
1643.000000	0.312244
1644.000000	0.312200
1645.000000	0.312156
1646.000000	0.312027
1647.000000	0.311802
1648.000000	0.311620
1649.000000	0.311507
1650.000000	0.311466
1651.000000	0.311508
1652.000000	0.311511
1653.000000	0.311527
1654.000000	0.311516
1655.000000	0.311403
1656.000000	0.311254
1657.000000	0.311102
1658.000000	0.311053
1659.000000	0.311214
1660.000000	0.311156
1661.000000	0.310997
1662.000000	0.310894
1663.000000	0.310523
1664.000000	0.310452
1665.000000	0.310633
1666.000000	0.310739
1667.000000	0.310825
1668.000000	0.310899
1669.000000	0.310949
1670.000000	0.310965
1671.000000	0.311052
1672.000000	0.311118
1673.000000	0.311166
1674.000000	0.311046
1675.000000	0.311128
1676.000000	0.311159
1677.000000	0.311058
1678.000000	0.311109
1679.000000	0.311093
1680.000000	0.310933
1681.000000	0.310940
1682.000000	0.311129
1683.000000	0.311216
1684.000000	0.311198
1685.000000	0.311211
1686.000000	0.311020
1687.000000	0.310924
1688.000000	0.311033
1689.000000	0.311048
1690.000000	0.310897
1691.000000	0.310771
1692.000000	0.310599
1693.000000	0.310576
1694.000000	0.310782
1695.000000	0.310936
1696.000000	0.310873
1697.000000	0.310812
1698.000000	0.310585
1699.000000	0.310556
1700.000000	0.310773
1701.000000	0.310923
1702.000000	0.310900
1703.000000	0.310902
1704.000000	0.311005
1705.000000	0.310992
1706.000000	0.310994
1707.000000	0.310971
1708.000000	0.310717
1709.000000	0.310595
1710.000000	0.310757
1711.000000	0.310754
1712.000000	0.310665
1713.000000	0.310697
1714.000000	0.310723
1715.000000	0.310821
1716.000000	0.311248
1717.000000	0.311301
1718.000000	0.311094
1719.000000	0.310966
1720.000000	0.310630
1721.000000	0.310568
1722.000000	0.310744
1723.000000	0.310791
1724.000000	0.310956
1725.000000	0.311003
1726.000000	0.310818
1727.000000	0.310798
1728.000000	0.310738
1729.000000	0.310677
1730.000000	0.310869
1731.000000	0.310832
1732.000000	0.310654
1733.000000	0.310684
1734.000000	0.310598
1735.000000	0.310538
1736.000000	0.310593
1737.000000	0.310493
1738.000000	0.310234
1739.000000	0.310166
1740.000000	0.310177
1741.000000	0.310045
1742.000000	0.309898
1743.000000	0.309899
1744.000000	0.309814
1745.000000	0.309884
1746.000000	0.310201
1747.000000	0.310095
1748.000000	0.310026
1749.000000	0.309953
1750.000000	0.309757
1751.000000	0.309595
1752.000000	0.309588
1753.000000	0.309312
1754.000000	0.309259
1755.000000	0.309568
1756.000000	0.309589
1757.000000	0.309490
1758.000000	0.309466
1759.000000	0.309218
1760.000000	0.309172
1761.000000	0.309355
1762.000000	0.309383
1763.000000	0.309421
1764.000000	0.309427
1765.000000	0.309239
1766.000000	0.309273
1767.000000	0.309436
1768.000000	0.309385
1769.000000	0.309413
1770.000000	0.309431
1771.000000	0.309216
1772.000000	0.309170
1773.000000	0.309211
1774.000000	0.309249
1775.000000	0.309369
1776.000000	0.309434
1777.000000	0.309530
1778.000000	0.309464
1779.000000	0.309249
1780.000000	0.309171
1781.000000	0.308975
1782.000000	0.309004
1783.000000	0.309272
1784.000000	0.309406
1785.000000	0.309458
1786.000000	0.309387
1787.000000	0.309357
1788.000000	0.309243
1789.000000	0.309083
1790.000000	0.309011
1791.000000	0.308911
1792.000000	0.308975
1793.000000	0.309007
1794.000000	0.308997
1795.000000	0.309052
1796.000000	0.309210
1797.000000	0.309228
1798.000000	0.309180
1799.000000	0.309134
1800.000000	0.308969
1801.000000	0.309243
1802.000000	0.309169
1803.000000	0.308871
1804.000000	0.308909
1805.000000	0.308864
1806.000000	0.308994
1807.000000	0.309629
1808.000000	0.309649
1809.000000	0.308779
1810.000000	0.309139
1811.000000	0.309353
1812.000000	0.309405
1813.000000	0.309917
1814.000000	0.311711
1815.000000	0.311930
1816.000000	0.311680
1817.000000	0.311071
1818.000000	0.309637
1819.000000	0.307977
1820.000000	0.307258
1821.000000	0.306792
1822.000000	0.306569
1823.000000	0.307175
1824.000000	0.307072
1825.000000	0.306371
1826.000000	0.306387
1827.000000	0.306237
1828.000000	0.306576
1829.000000	0.307594
1830.000000	0.308504
1831.000000	0.308729
1832.000000	0.308539
1833.000000	0.308335
1834.000000	0.307392
1835.000000	0.307159
1836.000000	0.307289
1837.000000	0.307296
1838.000000	0.307248
1839.000000	0.307440
1840.000000	0.307463
1841.000000	0.306952
1842.000000	0.306832
1843.000000	0.306658
1844.000000	0.306827
1845.000000	0.307443
1846.000000	0.307582
1847.000000	0.307755
1848.000000	0.307213
1849.000000	0.306629
1850.000000	0.306552
1851.000000	0.306728
1852.000000	0.307450
1853.000000	0.307729
1854.000000	0.307986
1855.000000	0.307986
1856.000000	0.307591
1857.000000	0.307220
1858.000000	0.307277
1859.000000	0.306755
1860.000000	0.306451
1861.000000	0.306928
1862.000000	0.306843
1863.000000	0.306658
1864.000000	0.306804
1865.000000	0.307018
1866.000000	0.306930
1867.000000	0.307087
1868.000000	0.306696
1869.000000	0.305893
1870.000000	0.305200
1871.000000	0.304585
1872.000000	0.303877
1873.000000	0.303586
1874.000000	0.303827
1875.000000	0.303586
1876.000000	0.302870
1877.000000	0.302644
1878.000000	0.302419
1879.000000	0.301349
1880.000000	0.301563
1881.000000	0.301697
1882.000000	0.300552
1883.000000	0.299781
1884.000000	0.299202
1885.000000	0.298220
1886.000000	0.297240
1887.000000	0.296591
1888.000000	0.295791
1889.000000	0.294378
1890.000000	0.292785
1891.000000	0.291719
1892.000000	0.290515
1893.000000	0.289285
1894.000000	0.287311
1895.000000	0.285316
1896.000000	0.282857
1897.000000	0.281263
1898.000000	0.279677
1899.000000	0.278845
1900.000000	0.278522
1901.000000	0.278058
1902.000000	0.277532
1903.000000	0.276634
1904.000000	0.276068
1905.000000	0.275397
1906.000000	0.274640
1907.000000	0.273583
1908.000000	0.273403
1909.000000	0.273225
1910.000000	0.272837
1911.000000	0.273186
1912.000000	0.273413
1913.000000	0.273593
1914.000000	0.274069
1915.000000	0.273854
1916.000000	0.273775
1917.000000	0.273941
1918.000000	0.274435
1919.000000	0.274642
1920.000000	0.275142
1921.000000	0.276070
1922.000000	0.276730
1923.000000	0.277302
1924.000000	0.277850
1925.000000	0.278334
1926.000000	0.278684
1927.000000	0.279380
1928.000000	0.279753
1929.000000	0.280226
1930.000000	0.280084
1931.000000	0.280340
1932.000000	0.280979
1933.000000	0.281697
1934.000000	0.282178
1935.000000	0.282177
1936.000000	0.281783
1937.000000	0.281230
1938.000000	0.281195
1939.000000	0.281382
1940.000000	0.282030
1941.000000	0.282485
1942.000000	0.282590
1943.000000	0.282367
1944.000000	0.282367
1945.000000	0.282030
1946.000000	0.281959
1947.000000	0.282259
1948.000000	0.282041
1949.000000	0.282260
1950.000000	0.282506
1951.000000	0.282569
1952.000000	0.282691
1953.000000	0.282808
1954.000000	0.282956
1955.000000	0.283372
1956.000000	0.283772
1957.000000	0.284544
1958.000000	0.284967
1959.000000	0.285085
1960.000000	0.285498
1961.000000	0.285494
1962.000000	0.285706
1963.000000	0.285924
1964.000000	0.286768
1965.000000	0.287356
1966.000000	0.287727
1967.000000	0.288258
1968.000000	0.288209
1969.000000	0.287775
1970.000000	0.287824
1971.000000	0.287695
1972.000000	0.287366
1973.000000	0.287237
1974.000000	0.287552
1975.000000	0.287589
1976.000000	0.287624
1977.000000	0.287494
1978.000000	0.287686
1979.000000	0.288294
1980.000000	0.288632
1981.000000	0.289130
1982.000000	0.289624
1983.000000	0.289899
1984.000000	0.290150
1985.000000	0.290847
1986.000000	0.291078
1987.000000	0.291197
1988.000000	0.290687
1989.000000	0.290632
1990.000000	0.290306
1991.000000	0.290105
1992.000000	0.290282
1993.000000	0.289963
1994.000000	0.290270
1995.000000	0.290819
1996.000000	0.291055
1997.000000	0.291231
1998.000000	0.291497
1999.000000	0.291628
2000.000000	0.291509
2001.000000	0.291420
2002.000000	0.291645
2003.000000	0.292204
2004.000000	0.292521
2005.000000	0.292640
2006.000000	0.292962
2007.000000	0.293210
2008.000000	0.293196
2009.000000	0.293169
2010.000000	0.293074
2011.000000	0.292128
2012.000000	0.291768
2013.000000	0.291722
2014.000000	0.291326
2015.000000	0.291181
2016.000000	0.291730
2017.000000	0.291833
2018.000000	0.292310
2019.000000	0.292797
2020.000000	0.292967
2021.000000	0.293299
2022.000000	0.293680
2023.000000	0.293853
2024.000000	0.294087
2025.000000	0.294220
2026.000000	0.293995
2027.000000	0.293765
2028.000000	0.293800
2029.000000	0.293968
2030.000000	0.294772
2031.000000	0.295835
2032.000000	0.296103
2033.000000	0.296435
2034.000000	0.296578
2035.000000	0.296060
2036.000000	0.295739
2037.000000	0.295862
2038.000000	0.295779
2039.000000	0.295326
2040.000000	0.295599
2041.000000	0.295830
2042.000000	0.295871
2043.000000	0.295811
2044.000000	0.295726
2045.000000	0.295545
2046.000000	0.295111
2047.000000	0.295198
2048.000000	0.295577
2049.000000	0.295947
2050.000000	0.296280
2051.000000	0.296594
2052.000000	0.296938
2053.000000	0.296976
2054.000000	0.297287
2055.000000	0.297124
2056.000000	0.296834
2057.000000	0.296735
2058.000000	0.296434
2059.000000	0.297108
2060.000000	0.297448
2061.000000	0.298111
2062.000000	0.298082
2063.000000	0.297640
2064.000000	0.297247
2065.000000	0.296773
2066.000000	0.296284
2067.000000	0.295965
2068.000000	0.296109
2069.000000	0.295661
2070.000000	0.295694
2071.000000	0.296101
2072.000000	0.296535
2073.000000	0.297469
2074.000000	0.297748
2075.000000	0.297950
2076.000000	0.298154
2077.000000	0.297783
2078.000000	0.296864
2079.000000	0.296214
2080.000000	0.294880
2081.000000	0.294302
2082.000000	0.294186
2083.000000	0.294098
2084.000000	0.294243
2085.000000	0.294790
2086.000000	0.295459
2087.000000	0.296113
2088.000000	0.296834
2089.000000	0.297114
2090.000000	0.297302
2091.000000	0.297103
2092.000000	0.297174
2093.000000	0.297396
2094.000000	0.297497
2095.000000	0.297626
2096.000000	0.297731
2097.000000	0.297770
2098.000000	0.297330
2099.000000	0.297458
2100.000000	0.297733
2101.000000	0.298156
2102.000000	0.298848
2103.000000	0.298800
2104.000000	0.298553
2105.000000	0.298150
2106.000000	0.296756
2107.000000	0.296578
2108.000000	0.296810
2109.000000	0.297159
2110.000000	0.298507
2111.000000	0.298932
2112.000000	0.298834
2113.000000	0.298834
2114.000000	0.297837
2115.000000	0.296509
2116.000000	0.296418
2117.000000	0.296194
2118.000000	0.296599
2119.000000	0.297604
2120.000000	0.298525
2121.000000	0.299806
2122.000000	0.300264
2123.000000	0.300881
2124.000000	0.300864
2125.000000	0.299418
2126.000000	0.298805
2127.000000	0.298566
2128.000000	0.298191
2129.000000	0.297859
2130.000000	0.297430
2131.000000	0.296782
2132.000000	0.296484
2133.000000	0.296789
2134.000000	0.297610
2135.000000	0.297907
2136.000000	0.298056
2137.000000	0.298072
2138.000000	0.297479
2139.000000	0.297016
2140.000000	0.296552
2141.000000	0.296343
2142.000000	0.296287
2143.000000	0.295898
2144.000000	0.295569
2145.000000	0.295493
2146.000000	0.295162
2147.000000	0.295251
2148.000000	0.296772
2149.000000	0.297993
2150.000000	0.298002
2151.000000	0.297721
2152.000000	0.296872
2153.000000	0.296835
2154.000000	0.296699
2155.000000	0.297620
2156.000000	0.297270
2157.000000	0.295824
2158.000000	0.295125
2159.000000	0.294392
2160.000000	0.294094
2161.000000	0.294788
2162.000000	0.294617
2163.000000	0.293419
2164.000000	0.293126
2165.000000	0.292901
2166.000000	0.292545
2167.000000	0.293895
2168.000000	0.294973
2169.000000	0.295890
2170.000000	0.297105
2171.000000	0.297619
2172.000000	0.298092
2173.000000	0.297696
2174.000000	0.296048
2175.000000	0.295389
2176.000000	0.294344
2177.000000	0.293824
2178.000000	0.294233
2179.000000	0.294294
2180.000000	0.294232
2181.000000	0.294499
2182.000000	0.294342
2183.000000	0.294507
2184.000000	0.294776
2185.000000	0.294076
2186.000000	0.292987
2187.000000	0.293121
2188.000000	0.293275
2189.000000	0.293112
2190.000000	0.293794
2191.000000	0.294023
2192.000000	0.294098
2193.000000	0.294294
2194.000000	0.293705
2195.000000	0.292216
2196.000000	0.291538
2197.000000	0.290053
2198.000000	0.289606
2199.000000	0.290086
2200.000000	0.291045
2201.000000	0.294025
2202.000000	0.295028
2203.000000	0.295734
2204.000000	0.295826
2205.000000	0.293320
2206.000000	0.289840
2207.000000	0.288087
2208.000000	0.287266
2209.000000	0.285754
2210.000000	0.286106
2211.000000	0.284981
2212.000000	0.286668
2213.000000	0.287939
2214.000000	0.290449
2215.000000	0.291184
2216.000000	0.290787
2217.000000	0.290833
2218.000000	0.290833
2219.000000	0.291061
2220.000000	0.291852
2221.000000	0.292542
2222.000000	0.292829
2223.000000	0.293309
2224.000000	0.293877
2225.000000	0.295427
2226.000000	0.295147
2227.000000	0.291271
2228.000000	0.288231
2229.000000	0.286089
2230.000000	0.283886
2231.000000	0.283082
2232.000000	0.284714
2233.000000	0.285037
2234.000000	0.285785
2235.000000	0.287715
2236.000000	0.288670
2237.000000	0.288730
2238.000000	0.289046
2239.000000	0.289375
2240.000000	0.289540
2241.000000	0.288365
2242.000000	0.288806
2243.000000	0.290942
2244.000000	0.291911
2245.000000	0.293728
2246.000000	0.293969
2247.000000	0.292014
2248.000000	0.291054
2249.000000	0.290382
2250.000000	0.288563
2251.000000	0.288329
2252.000000	0.289031
2253.000000	0.288098
2254.000000	0.289052
2255.000000	0.289405
2256.000000	0.287577
2257.000000	0.286486
2258.000000	0.285497
2259.000000	0.285874
2260.000000	0.287438
2261.000000	0.287671
2262.000000	0.288537
2263.000000	0.288758
2264.000000	0.286847
2265.000000	0.287347
2266.000000	0.290164
2267.000000	0.291136
2268.000000	0.292440
2269.000000	0.292837
2270.000000	0.291820
2271.000000	0.290678
2272.000000	0.289461
2273.000000	0.287685
2274.000000	0.283994
2275.000000	0.282091
2276.000000	0.281008
2277.000000	0.279847
2278.000000	0.277705
2279.000000	0.279707
2280.000000	0.280735
2281.000000	0.280010
2282.000000	0.280410
2283.000000	0.279577
2284.000000	0.278938
2285.000000	0.278181
2286.000000	0.278388
2287.000000	0.278035
2288.000000	0.277991
2289.000000	0.279067
2290.000000	0.278493
2291.000000	0.278317
2292.000000	0.279491
2293.000000	0.279213
2294.000000	0.279527
2295.000000	0.280999
2296.000000	0.282579
2297.000000	0.284145
2298.000000	0.285121
2299.000000	0.287307
2300.000000	0.287032
2301.000000	0.283585
2302.000000	0.281944
2303.000000	0.279222
2304.000000	0.278659
2305.000000	0.281493
2306.000000	0.281973
2307.000000	0.281621
2308.000000	0.282421
2309.000000	0.283324
2310.000000	0.282029
2311.000000	0.285141
2312.000000	0.288402
2313.000000	0.287228
2314.000000	0.287578
2315.000000	0.286325
2316.000000	0.283474
2317.000000	0.282690
2318.000000	0.282816
2319.000000	0.283467
2320.000000	0.283034
2321.000000	0.284376
2322.000000	0.284829
2323.000000	0.284914
2324.000000	0.286100
2325.000000	0.285613
2326.000000	0.286278
2327.000000	0.286861
2328.000000	0.287005
2329.000000	0.287103
2330.000000	0.288495
2331.000000	0.289062
2332.000000	0.288879
2333.000000	0.290372
2334.000000	0.288076
2335.000000	0.286985
2336.000000	0.285801
2337.000000	0.285938
2338.000000	0.286645
2339.000000	0.286785
2340.000000	0.286698
2341.000000	0.286518
2342.000000	0.285646
2343.000000	0.285455
2344.000000	0.286949
2345.000000	0.287422
2346.000000	0.286713
2347.000000	0.287035
2348.000000	0.288143
2349.000000	0.288108
2350.000000	0.286397
2351.000000	0.284912
2352.000000	0.282200
2353.000000	0.279129
2354.000000	0.279175
2355.000000	0.280740
2356.000000	0.281515
2357.000000	0.283670
2358.000000	0.285049
2359.000000	0.283126
2360.000000	0.281849
2361.000000	0.279212
2362.000000	0.274183
2363.000000	0.276557
2364.000000	0.282550
2365.000000	0.285956
2366.000000	0.288205
2367.000000	0.285742
2368.000000	0.279107
2369.000000	0.274514
2370.000000	0.276529
2371.000000	0.279481
2372.000000	0.281035
2373.000000	0.285454
2374.000000	0.288805
2375.000000	0.290350
2376.000000	0.290448
2377.000000	0.287621
2378.000000	0.280984
2379.000000	0.276278
2380.000000	0.278495
2381.000000	0.277648
2382.000000	0.275391
2383.000000	0.274178
2384.000000	0.270414
2385.000000	0.267080
2386.000000	0.268755
2387.000000	0.271020
2388.000000	0.269023
2389.000000	0.271101
2390.000000	0.268356
2391.000000	0.268390
2392.000000	0.270943
2393.000000	0.261600
2394.000000	0.262996
2395.000000	0.260695
2396.000000	0.248654
2397.000000	0.249059
2398.000000	0.247940
2399.000000	0.248000
2400.000000	0.257281
2401.000000	0.268874
2402.000000	0.270384
2403.000000	0.266316
2404.000000	0.262101
2405.000000	0.255270
2406.000000	0.258219
2407.000000	0.261775
2408.000000	0.265369
2409.000000	0.268756
2410.000000	0.265224
2411.000000	0.265008
2412.000000	0.262782
2413.000000	0.254046
2414.000000	0.248032
2415.000000	0.248887
2416.000000	0.252288
2417.000000	0.260157
2418.000000	0.274259
2419.000000	0.281026
2420.000000	0.277163
2421.000000	0.274895
2422.000000	0.270438
2423.000000	0.260615
2424.000000	0.259485
2425.000000	0.262238
2426.000000	0.257554
2427.000000	0.255705
2428.000000	0.257352
2429.000000	0.252062
2430.000000	0.247927
2431.000000	0.253046
2432.000000	0.253016
2433.000000	0.259706
2434.000000	0.270321
2435.000000	0.270825
2436.000000	0.276468
2437.000000	0.274738
2438.000000	0.270590
2439.000000	0.264725
2440.000000	0.249802
2441.000000	0.246030
2442.000000	0.245818
2443.000000	0.256634
2444.000000	0.275661
2445.000000	0.284250
2446.000000	0.300878
2447.000000	0.304419
2448.000000	0.296860
2449.000000	0.297386
2450.000000	0.275703
2451.000000	0.261248
2452.000000	0.259866
2453.000000	0.257320
2454.000000	0.268698
2455.000000	0.271034
2456.000000	0.276361
2457.000000	0.283821
2458.000000	0.271004
2459.000000	0.275601
2460.000000	0.279699
2461.000000	0.271279
2462.000000	0.280683
2463.000000	0.269134
2464.000000	0.255187
2465.000000	0.246620
2466.000000	0.233937
2467.000000	0.231513
2468.000000	0.214622
2469.000000	0.208496
2470.000000	0.214191
2471.000000	0.223600
2472.000000	0.249564
2473.000000	0.228533
2474.000000	0.204465
2475.000000	0.214812
2476.000000	0.207806
2477.000000	0.232475
2478.000000	0.254153
2479.000000	0.218463
2480.000000	0.197400
2481.000000	0.216117
2482.000000	0.263144
2483.000000	0.313997
2484.000000	0.345623
2485.000000	0.338079
2486.000000	0.283314
2487.000000	0.248119
2488.000000	0.256218
2489.000000	0.205665
2490.000000	0.164969
2491.000000	0.164915
2492.000000	0.153001
2493.000000	0.193552
2494.000000	0.217003
2495.000000	0.211491
2496.000000	0.215774
2497.000000	0.237076
2498.000000	0.236257
2499.000000	0.213541
2500.000000	0.200878
