# Wavelength	NAu-1-50_HEX-30_FV7-20_00001.asd.rts.txt
350.000000	0.122806
351.000000	0.103829
352.000000	0.110626
353.000000	0.123893
354.000000	0.131421
355.000000	0.134479
356.000000	0.129437
357.000000	0.121645
358.000000	0.121175
359.000000	0.129692
360.000000	0.138947
361.000000	0.139359
362.000000	0.127328
363.000000	0.121493
364.000000	0.130565
365.000000	0.139314
366.000000	0.136878
367.000000	0.126442
368.000000	0.123886
369.000000	0.126470
370.000000	0.130787
371.000000	0.132770
372.000000	0.129454
373.000000	0.128351
374.000000	0.132614
375.000000	0.130648
376.000000	0.128191
377.000000	0.129038
378.000000	0.136360
379.000000	0.135420
380.000000	0.132009
381.000000	0.137175
382.000000	0.139503
383.000000	0.140294
384.000000	0.141343
385.000000	0.140442
386.000000	0.141381
387.000000	0.143860
388.000000	0.142633
389.000000	0.145524
390.000000	0.150017
391.000000	0.150453
392.000000	0.151911
393.000000	0.153779
394.000000	0.154934
395.000000	0.154945
396.000000	0.156040
397.000000	0.158658
398.000000	0.161293
399.000000	0.162810
400.000000	0.163052
401.000000	0.162464
402.000000	0.164698
403.000000	0.167435
404.000000	0.168435
405.000000	0.169720
406.000000	0.171079
407.000000	0.172333
408.000000	0.173246
409.000000	0.175071
410.000000	0.177373
411.000000	0.178710
412.000000	0.179639
413.000000	0.180504
414.000000	0.181548
415.000000	0.182562
416.000000	0.183148
417.000000	0.183371
418.000000	0.184409
419.000000	0.184921
420.000000	0.184773
421.000000	0.184785
422.000000	0.185354
423.000000	0.185827
424.000000	0.185475
425.000000	0.186006
426.000000	0.186156
427.000000	0.185240
428.000000	0.185509
429.000000	0.185964
430.000000	0.186083
431.000000	0.185853
432.000000	0.185917
433.000000	0.186158
434.000000	0.186191
435.000000	0.186222
436.000000	0.186196
437.000000	0.186080
438.000000	0.186356
439.000000	0.186076
440.000000	0.185116
441.000000	0.184787
442.000000	0.184481
443.000000	0.184026
444.000000	0.183613
445.000000	0.183491
446.000000	0.183640
447.000000	0.183855
448.000000	0.184346
449.000000	0.185375
450.000000	0.186979
451.000000	0.188580
452.000000	0.190370
453.000000	0.192403
454.000000	0.194769
455.000000	0.197661
456.000000	0.200685
457.000000	0.203118
458.000000	0.205564
459.000000	0.208162
460.000000	0.210858
461.000000	0.212951
462.000000	0.214668
463.000000	0.216129
464.000000	0.217636
465.000000	0.219100
466.000000	0.220472
467.000000	0.221826
468.000000	0.222626
469.000000	0.223219
470.000000	0.224241
471.000000	0.225394
472.000000	0.226326
473.000000	0.226939
474.000000	0.227677
475.000000	0.228279
476.000000	0.228844
477.000000	0.229559
478.000000	0.230116
479.000000	0.230697
480.000000	0.231345
481.000000	0.231808
482.000000	0.232388
483.000000	0.233121
484.000000	0.233697
485.000000	0.234132
486.000000	0.234632
487.000000	0.235196
488.000000	0.235771
489.000000	0.236402
490.000000	0.237185
491.000000	0.237958
492.000000	0.238762
493.000000	0.239522
494.000000	0.239977
495.000000	0.240457
496.000000	0.241180
497.000000	0.242110
498.000000	0.242871
499.000000	0.243478
500.000000	0.244237
501.000000	0.244951
502.000000	0.245699
503.000000	0.246580
504.000000	0.247420
505.000000	0.248183
506.000000	0.248898
507.000000	0.249738
508.000000	0.250581
509.000000	0.251357
510.000000	0.252266
511.000000	0.253146
512.000000	0.253960
513.000000	0.254701
514.000000	0.255635
515.000000	0.256682
516.000000	0.257601
517.000000	0.258469
518.000000	0.259396
519.000000	0.260375
520.000000	0.261401
521.000000	0.262449
522.000000	0.263476
523.000000	0.264353
524.000000	0.265343
525.000000	0.266435
526.000000	0.267518
527.000000	0.268760
528.000000	0.269964
529.000000	0.270986
530.000000	0.272157
531.000000	0.273385
532.000000	0.274517
533.000000	0.275672
534.000000	0.276962
535.000000	0.278284
536.000000	0.279319
537.000000	0.280488
538.000000	0.281743
539.000000	0.282859
540.000000	0.284077
541.000000	0.285289
542.000000	0.286433
543.000000	0.287684
544.000000	0.288925
545.000000	0.290069
546.000000	0.291359
547.000000	0.292667
548.000000	0.293934
549.000000	0.295031
550.000000	0.296219
551.000000	0.297506
552.000000	0.298753
553.000000	0.299880
554.000000	0.300986
555.000000	0.302162
556.000000	0.303401
557.000000	0.304524
558.000000	0.305615
559.000000	0.306687
560.000000	0.307681
561.000000	0.308718
562.000000	0.309833
563.000000	0.310881
564.000000	0.311870
565.000000	0.312748
566.000000	0.313736
567.000000	0.314660
568.000000	0.315431
569.000000	0.316304
570.000000	0.317085
571.000000	0.317786
572.000000	0.318633
573.000000	0.319414
574.000000	0.320113
575.000000	0.320833
576.000000	0.321476
577.000000	0.322038
578.000000	0.322608
579.000000	0.323182
580.000000	0.323725
581.000000	0.324212
582.000000	0.324636
583.000000	0.325041
584.000000	0.325477
585.000000	0.326002
586.000000	0.326345
587.000000	0.326652
588.000000	0.327108
589.000000	0.327456
590.000000	0.327737
591.000000	0.327988
592.000000	0.328156
593.000000	0.328410
594.000000	0.328734
595.000000	0.328927
596.000000	0.329073
597.000000	0.329253
598.000000	0.329439
599.000000	0.329558
600.000000	0.329714
601.000000	0.329897
602.000000	0.330023
603.000000	0.330114
604.000000	0.330183
605.000000	0.330161
606.000000	0.330172
607.000000	0.330259
608.000000	0.330406
609.000000	0.330454
610.000000	0.330508
611.000000	0.330680
612.000000	0.330603
613.000000	0.330563
614.000000	0.330754
615.000000	0.330845
616.000000	0.330867
617.000000	0.330840
618.000000	0.330905
619.000000	0.330985
620.000000	0.331030
621.000000	0.331063
622.000000	0.331056
623.000000	0.331044
624.000000	0.331062
625.000000	0.331107
626.000000	0.331218
627.000000	0.331372
628.000000	0.331437
629.000000	0.331572
630.000000	0.331666
631.000000	0.331786
632.000000	0.331923
633.000000	0.332039
634.000000	0.332100
635.000000	0.332277
636.000000	0.332428
637.000000	0.332473
638.000000	0.332568
639.000000	0.332722
640.000000	0.332920
641.000000	0.332940
642.000000	0.333036
643.000000	0.333206
644.000000	0.333373
645.000000	0.333515
646.000000	0.333688
647.000000	0.333883
648.000000	0.333982
649.000000	0.334146
650.000000	0.334381
651.000000	0.334561
652.000000	0.334796
653.000000	0.335076
654.000000	0.335257
655.000000	0.335536
656.000000	0.335849
657.000000	0.336060
658.000000	0.336290
659.000000	0.336557
660.000000	0.336833
661.000000	0.337070
662.000000	0.337246
663.000000	0.337472
664.000000	0.337818
665.000000	0.338122
666.000000	0.338383
667.000000	0.338616
668.000000	0.338888
669.000000	0.339221
670.000000	0.339600
671.000000	0.339905
672.000000	0.340286
673.000000	0.340720
674.000000	0.341065
675.000000	0.341404
676.000000	0.341748
677.000000	0.342118
678.000000	0.342527
679.000000	0.342928
680.000000	0.343305
681.000000	0.343681
682.000000	0.344106
683.000000	0.344497
684.000000	0.344885
685.000000	0.345300
686.000000	0.345754
687.000000	0.346188
688.000000	0.346633
689.000000	0.347074
690.000000	0.347537
691.000000	0.348002
692.000000	0.348481
693.000000	0.349021
694.000000	0.349499
695.000000	0.350015
696.000000	0.350531
697.000000	0.350974
698.000000	0.351485
699.000000	0.352040
700.000000	0.352588
701.000000	0.353028
702.000000	0.353455
703.000000	0.353903
704.000000	0.354397
705.000000	0.354938
706.000000	0.355487
707.000000	0.356089
708.000000	0.356642
709.000000	0.357142
710.000000	0.357641
711.000000	0.358210
712.000000	0.358761
713.000000	0.359290
714.000000	0.359851
715.000000	0.360390
716.000000	0.360902
717.000000	0.361380
718.000000	0.361932
719.000000	0.362467
720.000000	0.362923
721.000000	0.363397
722.000000	0.363818
723.000000	0.364257
724.000000	0.364780
725.000000	0.365191
726.000000	0.365624
727.000000	0.366142
728.000000	0.366578
729.000000	0.367027
730.000000	0.367508
731.000000	0.367936
732.000000	0.368399
733.000000	0.368941
734.000000	0.369410
735.000000	0.369759
736.000000	0.370151
737.000000	0.370528
738.000000	0.370881
739.000000	0.371285
740.000000	0.371596
741.000000	0.371930
742.000000	0.372296
743.000000	0.372642
744.000000	0.372942
745.000000	0.373198
746.000000	0.373486
747.000000	0.373772
748.000000	0.374064
749.000000	0.374348
750.000000	0.374580
751.000000	0.374788
752.000000	0.375023
753.000000	0.375288
754.000000	0.375508
755.000000	0.375750
756.000000	0.376011
757.000000	0.376212
758.000000	0.376359
759.000000	0.376526
760.000000	0.376666
761.000000	0.376818
762.000000	0.376921
763.000000	0.376956
764.000000	0.377033
765.000000	0.377103
766.000000	0.377166
767.000000	0.377227
768.000000	0.377332
769.000000	0.377430
770.000000	0.377498
771.000000	0.377537
772.000000	0.377599
773.000000	0.377572
774.000000	0.377459
775.000000	0.377344
776.000000	0.377241
777.000000	0.377142
778.000000	0.377119
779.000000	0.377102
780.000000	0.377039
781.000000	0.376858
782.000000	0.376722
783.000000	0.376688
784.000000	0.376564
785.000000	0.376466
786.000000	0.376307
787.000000	0.376057
788.000000	0.375843
789.000000	0.375618
790.000000	0.375390
791.000000	0.375244
792.000000	0.375074
793.000000	0.374882
794.000000	0.374676
795.000000	0.374367
796.000000	0.374109
797.000000	0.373873
798.000000	0.373445
799.000000	0.373184
800.000000	0.373018
801.000000	0.372773
802.000000	0.372520
803.000000	0.372270
804.000000	0.372051
805.000000	0.371785
806.000000	0.371457
807.000000	0.371152
808.000000	0.370829
809.000000	0.370547
810.000000	0.370263
811.000000	0.369923
812.000000	0.369552
813.000000	0.369165
814.000000	0.368794
815.000000	0.368507
816.000000	0.368142
817.000000	0.367807
818.000000	0.367532
819.000000	0.367265
820.000000	0.367036
821.000000	0.366772
822.000000	0.366434
823.000000	0.366096
824.000000	0.365675
825.000000	0.365213
826.000000	0.364878
827.000000	0.364588
828.000000	0.364332
829.000000	0.364137
830.000000	0.363868
831.000000	0.363578
832.000000	0.363229
833.000000	0.362900
834.000000	0.362550
835.000000	0.362179
836.000000	0.361798
837.000000	0.361424
838.000000	0.361086
839.000000	0.360764
840.000000	0.360470
841.000000	0.360154
842.000000	0.359751
843.000000	0.359480
844.000000	0.359143
845.000000	0.358723
846.000000	0.358490
847.000000	0.358091
848.000000	0.357685
849.000000	0.357530
850.000000	0.357381
851.000000	0.357071
852.000000	0.356638
853.000000	0.356273
854.000000	0.355898
855.000000	0.355649
856.000000	0.355464
857.000000	0.355240
858.000000	0.355004
859.000000	0.354679
860.000000	0.354284
861.000000	0.353918
862.000000	0.353635
863.000000	0.353366
864.000000	0.353098
865.000000	0.352757
866.000000	0.352362
867.000000	0.352005
868.000000	0.351788
869.000000	0.351560
870.000000	0.351216
871.000000	0.350840
872.000000	0.350558
873.000000	0.350326
874.000000	0.349999
875.000000	0.349716
876.000000	0.349498
877.000000	0.349235
878.000000	0.348942
879.000000	0.348642
880.000000	0.348230
881.000000	0.347912
882.000000	0.347620
883.000000	0.347423
884.000000	0.347329
885.000000	0.347146
886.000000	0.346875
887.000000	0.346590
888.000000	0.346345
889.000000	0.346308
890.000000	0.346200
891.000000	0.345883
892.000000	0.345532
893.000000	0.345239
894.000000	0.345126
895.000000	0.344921
896.000000	0.344755
897.000000	0.344569
898.000000	0.344278
899.000000	0.344008
900.000000	0.343824
901.000000	0.343688
902.000000	0.343582
903.000000	0.343347
904.000000	0.343119
905.000000	0.342942
906.000000	0.342726
907.000000	0.342560
908.000000	0.342466
909.000000	0.342199
910.000000	0.342005
911.000000	0.341854
912.000000	0.341690
913.000000	0.341516
914.000000	0.341354
915.000000	0.341281
916.000000	0.341223
917.000000	0.341166
918.000000	0.341036
919.000000	0.340807
920.000000	0.340693
921.000000	0.340635
922.000000	0.340548
923.000000	0.340331
924.000000	0.340194
925.000000	0.340073
926.000000	0.339938
927.000000	0.339736
928.000000	0.339622
929.000000	0.339485
930.000000	0.339213
931.000000	0.339162
932.000000	0.339047
933.000000	0.338927
934.000000	0.339122
935.000000	0.338857
936.000000	0.338506
937.000000	0.338392
938.000000	0.338336
939.000000	0.338329
940.000000	0.338288
941.000000	0.338282
942.000000	0.338327
943.000000	0.338469
944.000000	0.338547
945.000000	0.338521
946.000000	0.338317
947.000000	0.338099
948.000000	0.337995
949.000000	0.337963
950.000000	0.337931
951.000000	0.337828
952.000000	0.337731
953.000000	0.337702
954.000000	0.337604
955.000000	0.337301
956.000000	0.337039
957.000000	0.337147
958.000000	0.337263
959.000000	0.337038
960.000000	0.337316
961.000000	0.337588
962.000000	0.337562
963.000000	0.337390
964.000000	0.337280
965.000000	0.337270
966.000000	0.337218
967.000000	0.337224
968.000000	0.337180
969.000000	0.337140
970.000000	0.337295
971.000000	0.337015
972.000000	0.336949
973.000000	0.337220
974.000000	0.337401
975.000000	0.337399
976.000000	0.337214
977.000000	0.336964
978.000000	0.336998
979.000000	0.337249
980.000000	0.337323
981.000000	0.337305
982.000000	0.337440
983.000000	0.337507
984.000000	0.337512
985.000000	0.337542
986.000000	0.337500
987.000000	0.337699
988.000000	0.338028
989.000000	0.337698
990.000000	0.337986
991.000000	0.338482
992.000000	0.338419
993.000000	0.338144
994.000000	0.338238
995.000000	0.338692
996.000000	0.338658
997.000000	0.338761
998.000000	0.339093
999.000000	0.339573
1000.000000	0.339687
1001.000000	0.339806
1002.000000	0.339452
1003.000000	0.339096
1004.000000	0.339381
1005.000000	0.340347
1006.000000	0.340776
1007.000000	0.341473
1008.000000	0.342175
1009.000000	0.341997
1010.000000	0.340956
1011.000000	0.340597
1012.000000	0.340747
1013.000000	0.340898
1014.000000	0.341208
1015.000000	0.341683
1016.000000	0.342444
1017.000000	0.342946
1018.000000	0.342590
1019.000000	0.342564
1020.000000	0.342673
1021.000000	0.342304
1022.000000	0.341582
1023.000000	0.342155
1024.000000	0.343486
1025.000000	0.343487
1026.000000	0.344123
1027.000000	0.344911
1028.000000	0.344449
1029.000000	0.344279
1030.000000	0.344945
1031.000000	0.345427
1032.000000	0.345757
1033.000000	0.346137
1034.000000	0.346455
1035.000000	0.346489
1036.000000	0.346592
1037.000000	0.346635
1038.000000	0.346921
1039.000000	0.347570
1040.000000	0.347648
1041.000000	0.347678
1042.000000	0.348579
1043.000000	0.349221
1044.000000	0.349580
1045.000000	0.350642
1046.000000	0.351155
1047.000000	0.351438
1048.000000	0.351259
1049.000000	0.351444
1050.000000	0.351421
1051.000000	0.351559
1052.000000	0.351921
1053.000000	0.352240
1054.000000	0.352683
1055.000000	0.353292
1056.000000	0.354264
1057.000000	0.354665
1058.000000	0.355564
1059.000000	0.355972
1060.000000	0.356503
1061.000000	0.357170
1062.000000	0.357326
1063.000000	0.358151
1064.000000	0.358752
1065.000000	0.359358
1066.000000	0.359881
1067.000000	0.360508
1068.000000	0.360700
1069.000000	0.360364
1070.000000	0.360505
1071.000000	0.360628
1072.000000	0.360872
1073.000000	0.361432
1074.000000	0.362166
1075.000000	0.362848
1076.000000	0.363422
1077.000000	0.363930
1078.000000	0.364469
1079.000000	0.364902
1080.000000	0.365051
1081.000000	0.365511
1082.000000	0.366268
1083.000000	0.366864
1084.000000	0.367771
1085.000000	0.368251
1086.000000	0.368260
1087.000000	0.368594
1088.000000	0.368600
1089.000000	0.368845
1090.000000	0.369303
1091.000000	0.369967
1092.000000	0.370072
1093.000000	0.370958
1094.000000	0.371535
1095.000000	0.371948
1096.000000	0.372523
1097.000000	0.373380
1098.000000	0.373862
1099.000000	0.373993
1100.000000	0.374544
1101.000000	0.375048
1102.000000	0.375547
1103.000000	0.376201
1104.000000	0.376972
1105.000000	0.377972
1106.000000	0.378539
1107.000000	0.378846
1108.000000	0.379308
1109.000000	0.379451
1110.000000	0.379728
1111.000000	0.380401
1112.000000	0.381674
1113.000000	0.382358
1114.000000	0.383054
1115.000000	0.383557
1116.000000	0.383714
1117.000000	0.384085
1118.000000	0.384527
1119.000000	0.384796
1120.000000	0.385001
1121.000000	0.385225
1122.000000	0.385332
1123.000000	0.385862
1124.000000	0.386503
1125.000000	0.386938
1126.000000	0.387298
1127.000000	0.387621
1128.000000	0.387854
1129.000000	0.387747
1130.000000	0.388290
1131.000000	0.389312
1132.000000	0.389735
1133.000000	0.390167
1134.000000	0.390734
1135.000000	0.391025
1136.000000	0.391331
1137.000000	0.391891
1138.000000	0.392262
1139.000000	0.392383
1140.000000	0.392746
1141.000000	0.393194
1142.000000	0.393663
1143.000000	0.394157
1144.000000	0.394667
1145.000000	0.395016
1146.000000	0.395301
1147.000000	0.395531
1148.000000	0.395488
1149.000000	0.395620
1150.000000	0.395773
1151.000000	0.396041
1152.000000	0.396308
1153.000000	0.396621
1154.000000	0.396983
1155.000000	0.397318
1156.000000	0.397706
1157.000000	0.397999
1158.000000	0.398091
1159.000000	0.398379
1160.000000	0.398700
1161.000000	0.399018
1162.000000	0.399542
1163.000000	0.400271
1164.000000	0.400361
1165.000000	0.400375
1166.000000	0.400652
1167.000000	0.400759
1168.000000	0.401014
1169.000000	0.401627
1170.000000	0.402000
1171.000000	0.402325
1172.000000	0.402631
1173.000000	0.402862
1174.000000	0.403133
1175.000000	0.403304
1176.000000	0.403477
1177.000000	0.403790
1178.000000	0.404067
1179.000000	0.404285
1180.000000	0.404458
1181.000000	0.404696
1182.000000	0.404993
1183.000000	0.405327
1184.000000	0.405755
1185.000000	0.406075
1186.000000	0.406457
1187.000000	0.406649
1188.000000	0.406629
1189.000000	0.406811
1190.000000	0.407027
1191.000000	0.407316
1192.000000	0.407946
1193.000000	0.408401
1194.000000	0.408643
1195.000000	0.408937
1196.000000	0.409149
1197.000000	0.409300
1198.000000	0.409368
1199.000000	0.409553
1200.000000	0.409696
1201.000000	0.409867
1202.000000	0.410321
1203.000000	0.410606
1204.000000	0.410664
1205.000000	0.410865
1206.000000	0.410984
1207.000000	0.411127
1208.000000	0.411223
1209.000000	0.411385
1210.000000	0.411558
1211.000000	0.411713
1212.000000	0.411755
1213.000000	0.411823
1214.000000	0.411997
1215.000000	0.412019
1216.000000	0.412219
1217.000000	0.412712
1218.000000	0.412944
1219.000000	0.413159
1220.000000	0.413262
1221.000000	0.413289
1222.000000	0.413313
1223.000000	0.413471
1224.000000	0.413693
1225.000000	0.413880
1226.000000	0.414105
1227.000000	0.414145
1228.000000	0.414307
1229.000000	0.414382
1230.000000	0.414417
1231.000000	0.414411
1232.000000	0.414465
1233.000000	0.414676
1234.000000	0.414974
1235.000000	0.415114
1236.000000	0.415102
1237.000000	0.415298
1238.000000	0.415490
1239.000000	0.415591
1240.000000	0.415765
1241.000000	0.415897
1242.000000	0.415959
1243.000000	0.416092
1244.000000	0.416258
1245.000000	0.416490
1246.000000	0.416606
1247.000000	0.416660
1248.000000	0.416832
1249.000000	0.417167
1250.000000	0.417492
1251.000000	0.417728
1252.000000	0.417833
1253.000000	0.417867
1254.000000	0.417881
1255.000000	0.417711
1256.000000	0.417741
1257.000000	0.417991
1258.000000	0.418098
1259.000000	0.418016
1260.000000	0.418102
1261.000000	0.418121
1262.000000	0.418184
1263.000000	0.418381
1264.000000	0.418573
1265.000000	0.418669
1266.000000	0.418572
1267.000000	0.418451
1268.000000	0.418478
1269.000000	0.418606
1270.000000	0.418827
1271.000000	0.419138
1272.000000	0.419376
1273.000000	0.419485
1274.000000	0.419582
1275.000000	0.419572
1276.000000	0.419433
1277.000000	0.419498
1278.000000	0.419495
1279.000000	0.419451
1280.000000	0.419347
1281.000000	0.419342
1282.000000	0.419414
1283.000000	0.419459
1284.000000	0.419470
1285.000000	0.419540
1286.000000	0.419496
1287.000000	0.419566
1288.000000	0.419780
1289.000000	0.419913
1290.000000	0.419900
1291.000000	0.419863
1292.000000	0.419891
1293.000000	0.420013
1294.000000	0.420093
1295.000000	0.420227
1296.000000	0.420380
1297.000000	0.420310
1298.000000	0.420292
1299.000000	0.420335
1300.000000	0.420300
1301.000000	0.420363
1302.000000	0.420294
1303.000000	0.420283
1304.000000	0.420184
1305.000000	0.420208
1306.000000	0.420078
1307.000000	0.419877
1308.000000	0.419831
1309.000000	0.419665
1310.000000	0.419568
1311.000000	0.419644
1312.000000	0.419772
1313.000000	0.419580
1314.000000	0.419535
1315.000000	0.419445
1316.000000	0.419268
1317.000000	0.419087
1318.000000	0.418902
1319.000000	0.418671
1320.000000	0.418395
1321.000000	0.418143
1322.000000	0.417865
1323.000000	0.417678
1324.000000	0.417751
1325.000000	0.417710
1326.000000	0.417601
1327.000000	0.417596
1328.000000	0.417356
1329.000000	0.417104
1330.000000	0.416940
1331.000000	0.416794
1332.000000	0.416591
1333.000000	0.416440
1334.000000	0.416460
1335.000000	0.416382
1336.000000	0.416215
1337.000000	0.416139
1338.000000	0.416059
1339.000000	0.415866
1340.000000	0.415753
1341.000000	0.415721
1342.000000	0.415530
1343.000000	0.415527
1344.000000	0.415627
1345.000000	0.415517
1346.000000	0.415490
1347.000000	0.415098
1348.000000	0.414604
1349.000000	0.414251
1350.000000	0.413962
1351.000000	0.413731
1352.000000	0.413586
1353.000000	0.413331
1354.000000	0.413046
1355.000000	0.412921
1356.000000	0.412773
1357.000000	0.412413
1358.000000	0.412184
1359.000000	0.411976
1360.000000	0.411711
1361.000000	0.411506
1362.000000	0.411336
1363.000000	0.411096
1364.000000	0.410867
1365.000000	0.410652
1366.000000	0.410428
1367.000000	0.410181
1368.000000	0.409892
1369.000000	0.409672
1370.000000	0.409349
1371.000000	0.408922
1372.000000	0.408472
1373.000000	0.407951
1374.000000	0.407443
1375.000000	0.406908
1376.000000	0.406509
1377.000000	0.406156
1378.000000	0.405780
1379.000000	0.405218
1380.000000	0.404364
1381.000000	0.403412
1382.000000	0.402331
1383.000000	0.401225
1384.000000	0.399970
1385.000000	0.398634
1386.000000	0.397462
1387.000000	0.396301
1388.000000	0.395093
1389.000000	0.393899
1390.000000	0.392630
1391.000000	0.391129
1392.000000	0.389696
1393.000000	0.388208
1394.000000	0.386680
1395.000000	0.385174
1396.000000	0.383740
1397.000000	0.382061
1398.000000	0.380203
1399.000000	0.378453
1400.000000	0.376569
1401.000000	0.374772
1402.000000	0.373098
1403.000000	0.371408
1404.000000	0.369884
1405.000000	0.368267
1406.000000	0.366619
1407.000000	0.365010
1408.000000	0.363172
1409.000000	0.361458
1410.000000	0.360042
1411.000000	0.358626
1412.000000	0.357143
1413.000000	0.355846
1414.000000	0.354643
1415.000000	0.353506
1416.000000	0.352606
1417.000000	0.351830
1418.000000	0.351011
1419.000000	0.350354
1420.000000	0.349776
1421.000000	0.349282
1422.000000	0.348774
1423.000000	0.348290
1424.000000	0.347611
1425.000000	0.346825
1426.000000	0.345958
1427.000000	0.345041
1428.000000	0.344112
1429.000000	0.343229
1430.000000	0.342607
1431.000000	0.342108
1432.000000	0.341600
1433.000000	0.341186
1434.000000	0.340960
1435.000000	0.340815
1436.000000	0.340863
1437.000000	0.341161
1438.000000	0.341538
1439.000000	0.342036
1440.000000	0.342715
1441.000000	0.343703
1442.000000	0.344603
1443.000000	0.345504
1444.000000	0.346444
1445.000000	0.347341
1446.000000	0.348132
1447.000000	0.348911
1448.000000	0.349568
1449.000000	0.350142
1450.000000	0.350598
1451.000000	0.350900
1452.000000	0.351100
1453.000000	0.351146
1454.000000	0.351107
1455.000000	0.351060
1456.000000	0.351075
1457.000000	0.351128
1458.000000	0.351120
1459.000000	0.351112
1460.000000	0.351110
1461.000000	0.351014
1462.000000	0.350951
1463.000000	0.351032
1464.000000	0.351177
1465.000000	0.351375
1466.000000	0.351558
1467.000000	0.351777
1468.000000	0.351981
1469.000000	0.352222
1470.000000	0.352530
1471.000000	0.352877
1472.000000	0.353211
1473.000000	0.353605
1474.000000	0.353960
1475.000000	0.354271
1476.000000	0.354592
1477.000000	0.354939
1478.000000	0.355334
1479.000000	0.355862
1480.000000	0.356334
1481.000000	0.356766
1482.000000	0.357249
1483.000000	0.357792
1484.000000	0.358296
1485.000000	0.358891
1486.000000	0.359624
1487.000000	0.360268
1488.000000	0.360882
1489.000000	0.361462
1490.000000	0.361874
1491.000000	0.362391
1492.000000	0.362911
1493.000000	0.363443
1494.000000	0.363919
1495.000000	0.364428
1496.000000	0.364938
1497.000000	0.365402
1498.000000	0.365904
1499.000000	0.366417
1500.000000	0.366807
1501.000000	0.367205
1502.000000	0.367637
1503.000000	0.368074
1504.000000	0.368440
1505.000000	0.368866
1506.000000	0.369381
1507.000000	0.369738
1508.000000	0.370209
1509.000000	0.370658
1510.000000	0.370912
1511.000000	0.371275
1512.000000	0.371582
1513.000000	0.371770
1514.000000	0.372036
1515.000000	0.372349
1516.000000	0.372682
1517.000000	0.372929
1518.000000	0.373140
1519.000000	0.373194
1520.000000	0.373244
1521.000000	0.373420
1522.000000	0.373677
1523.000000	0.373934
1524.000000	0.374106
1525.000000	0.374343
1526.000000	0.374511
1527.000000	0.374685
1528.000000	0.374949
1529.000000	0.375045
1530.000000	0.375069
1531.000000	0.375258
1532.000000	0.375468
1533.000000	0.375692
1534.000000	0.376040
1535.000000	0.376277
1536.000000	0.376297
1537.000000	0.376518
1538.000000	0.376765
1539.000000	0.376922
1540.000000	0.377196
1541.000000	0.377424
1542.000000	0.377574
1543.000000	0.377750
1544.000000	0.377894
1545.000000	0.378079
1546.000000	0.378207
1547.000000	0.378191
1548.000000	0.378299
1549.000000	0.378479
1550.000000	0.378589
1551.000000	0.378811
1552.000000	0.378944
1553.000000	0.378847
1554.000000	0.378796
1555.000000	0.378833
1556.000000	0.378993
1557.000000	0.379182
1558.000000	0.379283
1559.000000	0.379295
1560.000000	0.379290
1561.000000	0.379216
1562.000000	0.379227
1563.000000	0.379359
1564.000000	0.379426
1565.000000	0.379491
1566.000000	0.379399
1567.000000	0.379281
1568.000000	0.379306
1569.000000	0.379437
1570.000000	0.379460
1571.000000	0.379552
1572.000000	0.379526
1573.000000	0.379316
1574.000000	0.379314
1575.000000	0.379401
1576.000000	0.379525
1577.000000	0.379768
1578.000000	0.379836
1579.000000	0.379919
1580.000000	0.379979
1581.000000	0.380002
1582.000000	0.380050
1583.000000	0.380167
1584.000000	0.380173
1585.000000	0.380180
1586.000000	0.380222
1587.000000	0.380206
1588.000000	0.380298
1589.000000	0.380527
1590.000000	0.380616
1591.000000	0.380743
1592.000000	0.380776
1593.000000	0.380710
1594.000000	0.380702
1595.000000	0.380754
1596.000000	0.380747
1597.000000	0.380701
1598.000000	0.380724
1599.000000	0.380860
1600.000000	0.380858
1601.000000	0.380892
1602.000000	0.380945
1603.000000	0.380979
1604.000000	0.381006
1605.000000	0.381086
1606.000000	0.381170
1607.000000	0.381266
1608.000000	0.381386
1609.000000	0.381680
1610.000000	0.381848
1611.000000	0.382003
1612.000000	0.382067
1613.000000	0.382163
1614.000000	0.382179
1615.000000	0.382142
1616.000000	0.382189
1617.000000	0.382186
1618.000000	0.382245
1619.000000	0.382307
1620.000000	0.382440
1621.000000	0.382688
1622.000000	0.382919
1623.000000	0.383144
1624.000000	0.383360
1625.000000	0.383393
1626.000000	0.383458
1627.000000	0.383599
1628.000000	0.383727
1629.000000	0.383816
1630.000000	0.383921
1631.000000	0.383945
1632.000000	0.383952
1633.000000	0.383958
1634.000000	0.384020
1635.000000	0.384137
1636.000000	0.384234
1637.000000	0.384372
1638.000000	0.384432
1639.000000	0.384530
1640.000000	0.384580
1641.000000	0.384681
1642.000000	0.384793
1643.000000	0.384835
1644.000000	0.385039
1645.000000	0.385407
1646.000000	0.385571
1647.000000	0.385794
1648.000000	0.385924
1649.000000	0.386016
1650.000000	0.386097
1651.000000	0.386178
1652.000000	0.386425
1653.000000	0.386627
1654.000000	0.386854
1655.000000	0.387279
1656.000000	0.387261
1657.000000	0.386995
1658.000000	0.386971
1659.000000	0.386929
1660.000000	0.387071
1661.000000	0.387388
1662.000000	0.387587
1663.000000	0.387746
1664.000000	0.387903
1665.000000	0.388036
1666.000000	0.388257
1667.000000	0.388393
1668.000000	0.388592
1669.000000	0.388856
1670.000000	0.388882
1671.000000	0.388890
1672.000000	0.389133
1673.000000	0.389331
1674.000000	0.389601
1675.000000	0.389981
1676.000000	0.390146
1677.000000	0.390208
1678.000000	0.390359
1679.000000	0.390605
1680.000000	0.390686
1681.000000	0.390731
1682.000000	0.390856
1683.000000	0.390900
1684.000000	0.391055
1685.000000	0.391208
1686.000000	0.391163
1687.000000	0.391174
1688.000000	0.391102
1689.000000	0.391065
1690.000000	0.391093
1691.000000	0.391126
1692.000000	0.391044
1693.000000	0.390965
1694.000000	0.390915
1695.000000	0.390875
1696.000000	0.390908
1697.000000	0.390807
1698.000000	0.390642
1699.000000	0.390638
1700.000000	0.390660
1701.000000	0.390767
1702.000000	0.390879
1703.000000	0.390834
1704.000000	0.390685
1705.000000	0.390684
1706.000000	0.390840
1707.000000	0.390878
1708.000000	0.390881
1709.000000	0.390851
1710.000000	0.390796
1711.000000	0.390812
1712.000000	0.390977
1713.000000	0.391058
1714.000000	0.391118
1715.000000	0.391226
1716.000000	0.391382
1717.000000	0.391491
1718.000000	0.391594
1719.000000	0.391649
1720.000000	0.391693
1721.000000	0.391746
1722.000000	0.391769
1723.000000	0.391848
1724.000000	0.391997
1725.000000	0.392151
1726.000000	0.392256
1727.000000	0.392336
1728.000000	0.392288
1729.000000	0.392287
1730.000000	0.392485
1731.000000	0.392546
1732.000000	0.392683
1733.000000	0.392682
1734.000000	0.392289
1735.000000	0.392202
1736.000000	0.392112
1737.000000	0.392076
1738.000000	0.392249
1739.000000	0.392240
1740.000000	0.392084
1741.000000	0.392090
1742.000000	0.392111
1743.000000	0.392307
1744.000000	0.392701
1745.000000	0.392733
1746.000000	0.392695
1747.000000	0.392501
1748.000000	0.392303
1749.000000	0.392145
1750.000000	0.392023
1751.000000	0.392103
1752.000000	0.392182
1753.000000	0.392026
1754.000000	0.392099
1755.000000	0.392243
1756.000000	0.392304
1757.000000	0.392611
1758.000000	0.392707
1759.000000	0.392371
1760.000000	0.392388
1761.000000	0.392540
1762.000000	0.392612
1763.000000	0.392927
1764.000000	0.393043
1765.000000	0.392851
1766.000000	0.392877
1767.000000	0.392923
1768.000000	0.392841
1769.000000	0.392878
1770.000000	0.392930
1771.000000	0.392845
1772.000000	0.392802
1773.000000	0.392781
1774.000000	0.392707
1775.000000	0.392622
1776.000000	0.392571
1777.000000	0.392535
1778.000000	0.392412
1779.000000	0.392228
1780.000000	0.392071
1781.000000	0.391767
1782.000000	0.391649
1783.000000	0.391663
1784.000000	0.391735
1785.000000	0.391892
1786.000000	0.392126
1787.000000	0.392379
1788.000000	0.392572
1789.000000	0.392763
1790.000000	0.393192
1791.000000	0.393291
1792.000000	0.393374
1793.000000	0.393448
1794.000000	0.393215
1795.000000	0.393183
1796.000000	0.393288
1797.000000	0.393359
1798.000000	0.393444
1799.000000	0.393585
1800.000000	0.393908
1801.000000	0.394087
1802.000000	0.393848
1803.000000	0.393002
1804.000000	0.393490
1805.000000	0.395150
1806.000000	0.395864
1807.000000	0.397178
1808.000000	0.397760
1809.000000	0.397355
1810.000000	0.397188
1811.000000	0.396967
1812.000000	0.396595
1813.000000	0.396645
1814.000000	0.396681
1815.000000	0.396826
1816.000000	0.397527
1817.000000	0.397727
1818.000000	0.397564
1819.000000	0.398153
1820.000000	0.398502
1821.000000	0.397765
1822.000000	0.397279
1823.000000	0.396240
1824.000000	0.395672
1825.000000	0.394892
1826.000000	0.394652
1827.000000	0.394837
1828.000000	0.394732
1829.000000	0.394851
1830.000000	0.394878
1831.000000	0.394494
1832.000000	0.393474
1833.000000	0.393139
1834.000000	0.392573
1835.000000	0.392574
1836.000000	0.393360
1837.000000	0.393703
1838.000000	0.393944
1839.000000	0.394519
1840.000000	0.393988
1841.000000	0.392899
1842.000000	0.392155
1843.000000	0.390463
1844.000000	0.389897
1845.000000	0.389920
1846.000000	0.390205
1847.000000	0.391104
1848.000000	0.391654
1849.000000	0.391679
1850.000000	0.391350
1851.000000	0.391051
1852.000000	0.389844
1853.000000	0.389581
1854.000000	0.389696
1855.000000	0.389440
1856.000000	0.389114
1857.000000	0.389090
1858.000000	0.387946
1859.000000	0.386524
1860.000000	0.384605
1861.000000	0.382023
1862.000000	0.380474
1863.000000	0.379608
1864.000000	0.378439
1865.000000	0.378075
1866.000000	0.376865
1867.000000	0.375147
1868.000000	0.373077
1869.000000	0.370955
1870.000000	0.368960
1871.000000	0.367398
1872.000000	0.365792
1873.000000	0.364021
1874.000000	0.362521
1875.000000	0.360515
1876.000000	0.357955
1877.000000	0.354925
1878.000000	0.352054
1879.000000	0.347992
1880.000000	0.344196
1881.000000	0.340903
1882.000000	0.337215
1883.000000	0.334203
1884.000000	0.330477
1885.000000	0.325774
1886.000000	0.321467
1887.000000	0.317127
1888.000000	0.312391
1889.000000	0.307637
1890.000000	0.303716
1891.000000	0.299062
1892.000000	0.293184
1893.000000	0.287612
1894.000000	0.281895
1895.000000	0.276650
1896.000000	0.271683
1897.000000	0.267488
1898.000000	0.263066
1899.000000	0.258359
1900.000000	0.253084
1901.000000	0.248591
1902.000000	0.244308
1903.000000	0.240490
1904.000000	0.237243
1905.000000	0.233788
1906.000000	0.230830
1907.000000	0.228037
1908.000000	0.225852
1909.000000	0.224721
1910.000000	0.223352
1911.000000	0.221846
1912.000000	0.220445
1913.000000	0.218477
1914.000000	0.217099
1915.000000	0.216177
1916.000000	0.215524
1917.000000	0.214835
1918.000000	0.214547
1919.000000	0.214140
1920.000000	0.213450
1921.000000	0.212947
1922.000000	0.213201
1923.000000	0.213443
1924.000000	0.213662
1925.000000	0.214048
1926.000000	0.214227
1927.000000	0.214664
1928.000000	0.215091
1929.000000	0.215816
1930.000000	0.216376
1931.000000	0.216645
1932.000000	0.217173
1933.000000	0.217406
1934.000000	0.217262
1935.000000	0.217619
1936.000000	0.217621
1937.000000	0.217589
1938.000000	0.218436
1939.000000	0.219111
1940.000000	0.219999
1941.000000	0.220661
1942.000000	0.220852
1943.000000	0.219982
1944.000000	0.219305
1945.000000	0.218761
1946.000000	0.218906
1947.000000	0.220295
1948.000000	0.221129
1949.000000	0.221378
1950.000000	0.220947
1951.000000	0.220631
1952.000000	0.219626
1953.000000	0.219396
1954.000000	0.219794
1955.000000	0.220852
1956.000000	0.221689
1957.000000	0.221332
1958.000000	0.220701
1959.000000	0.220332
1960.000000	0.219828
1961.000000	0.219572
1962.000000	0.219675
1963.000000	0.220363
1964.000000	0.220444
1965.000000	0.220748
1966.000000	0.221504
1967.000000	0.221392
1968.000000	0.221405
1969.000000	0.221549
1970.000000	0.222130
1971.000000	0.222810
1972.000000	0.223548
1973.000000	0.224248
1974.000000	0.224973
1975.000000	0.225396
1976.000000	0.225821
1977.000000	0.226398
1978.000000	0.226210
1979.000000	0.226212
1980.000000	0.226801
1981.000000	0.227655
1982.000000	0.228571
1983.000000	0.230312
1984.000000	0.231356
1985.000000	0.232110
1986.000000	0.232431
1987.000000	0.232496
1988.000000	0.232209
1989.000000	0.232262
1990.000000	0.233403
1991.000000	0.234580
1992.000000	0.235596
1993.000000	0.236340
1994.000000	0.236481
1995.000000	0.237054
1996.000000	0.238505
1997.000000	0.239550
1998.000000	0.240948
1999.000000	0.242071
2000.000000	0.243207
2001.000000	0.243433
2002.000000	0.244062
2003.000000	0.244872
2004.000000	0.245513
2005.000000	0.246822
2006.000000	0.248388
2007.000000	0.249607
2008.000000	0.250882
2009.000000	0.252185
2010.000000	0.253376
2011.000000	0.254530
2012.000000	0.255488
2013.000000	0.256403
2014.000000	0.256730
2015.000000	0.256892
2016.000000	0.257353
2017.000000	0.258035
2018.000000	0.259412
2019.000000	0.261334
2020.000000	0.263127
2021.000000	0.264449
2022.000000	0.265380
2023.000000	0.266338
2024.000000	0.266718
2025.000000	0.267800
2026.000000	0.269038
2027.000000	0.270571
2028.000000	0.272276
2029.000000	0.273792
2030.000000	0.274474
2031.000000	0.275330
2032.000000	0.276331
2033.000000	0.277019
2034.000000	0.277651
2035.000000	0.278572
2036.000000	0.279071
2037.000000	0.278956
2038.000000	0.279415
2039.000000	0.280128
2040.000000	0.281023
2041.000000	0.281885
2042.000000	0.282993
2043.000000	0.283438
2044.000000	0.283836
2045.000000	0.284387
2046.000000	0.285129
2047.000000	0.286020
2048.000000	0.287202
2049.000000	0.288456
2050.000000	0.289669
2051.000000	0.290492
2052.000000	0.291227
2053.000000	0.291751
2054.000000	0.292177
2055.000000	0.292414
2056.000000	0.292475
2057.000000	0.293205
2058.000000	0.294111
2059.000000	0.294612
2060.000000	0.295267
2061.000000	0.296201
2062.000000	0.297015
2063.000000	0.297904
2064.000000	0.298620
2065.000000	0.299522
2066.000000	0.300198
2067.000000	0.301102
2068.000000	0.301354
2069.000000	0.302023
2070.000000	0.303010
2071.000000	0.302891
2072.000000	0.303035
2073.000000	0.303237
2074.000000	0.303739
2075.000000	0.304539
2076.000000	0.306120
2077.000000	0.307213
2078.000000	0.308394
2079.000000	0.309054
2080.000000	0.309476
2081.000000	0.309821
2082.000000	0.309585
2083.000000	0.309909
2084.000000	0.310580
2085.000000	0.311051
2086.000000	0.311443
2087.000000	0.311875
2088.000000	0.312013
2089.000000	0.312233
2090.000000	0.313140
2091.000000	0.314886
2092.000000	0.316173
2093.000000	0.318163
2094.000000	0.319309
2095.000000	0.319881
2096.000000	0.320357
2097.000000	0.320293
2098.000000	0.320318
2099.000000	0.320238
2100.000000	0.320522
2101.000000	0.320542
2102.000000	0.320353
2103.000000	0.320701
2104.000000	0.321326
2105.000000	0.322009
2106.000000	0.323187
2107.000000	0.324173
2108.000000	0.325152
2109.000000	0.325966
2110.000000	0.326777
2111.000000	0.327428
2112.000000	0.327804
2113.000000	0.327655
2114.000000	0.327876
2115.000000	0.328345
2116.000000	0.328919
2117.000000	0.329405
2118.000000	0.329237
2119.000000	0.329286
2120.000000	0.329615
2121.000000	0.329777
2122.000000	0.330069
2123.000000	0.331125
2124.000000	0.331243
2125.000000	0.330652
2126.000000	0.330543
2127.000000	0.330436
2128.000000	0.330396
2129.000000	0.330453
2130.000000	0.330341
2131.000000	0.329864
2132.000000	0.329704
2133.000000	0.330730
2134.000000	0.331581
2135.000000	0.332783
2136.000000	0.333364
2137.000000	0.333562
2138.000000	0.332758
2139.000000	0.332966
2140.000000	0.333519
2141.000000	0.333682
2142.000000	0.334056
2143.000000	0.333809
2144.000000	0.333041
2145.000000	0.332799
2146.000000	0.332695
2147.000000	0.332998
2148.000000	0.333265
2149.000000	0.333337
2150.000000	0.333007
2151.000000	0.333066
2152.000000	0.333260
2153.000000	0.333062
2154.000000	0.333180
2155.000000	0.333893
2156.000000	0.333549
2157.000000	0.332418
2158.000000	0.332241
2159.000000	0.332006
2160.000000	0.332115
2161.000000	0.333246
2162.000000	0.333917
2163.000000	0.334205
2164.000000	0.334282
2165.000000	0.334503
2166.000000	0.334065
2167.000000	0.333434
2168.000000	0.333508
2169.000000	0.333395
2170.000000	0.333576
2171.000000	0.334015
2172.000000	0.334877
2173.000000	0.335055
2174.000000	0.335268
2175.000000	0.335337
2176.000000	0.335037
2177.000000	0.334748
2178.000000	0.334481
2179.000000	0.334381
2180.000000	0.334160
2181.000000	0.334033
2182.000000	0.333430
2183.000000	0.332682
2184.000000	0.333602
2185.000000	0.332833
2186.000000	0.332486
2187.000000	0.333900
2188.000000	0.332151
2189.000000	0.330771
2190.000000	0.331032
2191.000000	0.330719
2192.000000	0.330253
2193.000000	0.330973
2194.000000	0.330140
2195.000000	0.326854
2196.000000	0.325786
2197.000000	0.325269
2198.000000	0.325207
2199.000000	0.327329
2200.000000	0.328308
2201.000000	0.328618
2202.000000	0.329607
2203.000000	0.330985
2204.000000	0.331163
2205.000000	0.330588
2206.000000	0.330826
2207.000000	0.331110
2208.000000	0.330406
2209.000000	0.331878
2210.000000	0.332702
2211.000000	0.330442
2212.000000	0.331848
2213.000000	0.331836
2214.000000	0.331641
2215.000000	0.331118
2216.000000	0.330002
2217.000000	0.329215
2218.000000	0.327768
2219.000000	0.327740
2220.000000	0.328815
2221.000000	0.329739
2222.000000	0.332092
2223.000000	0.332795
2224.000000	0.332330
2225.000000	0.333235
2226.000000	0.331361
2227.000000	0.329436
2228.000000	0.330023
2229.000000	0.328117
2230.000000	0.327730
2231.000000	0.328855
2232.000000	0.328705
2233.000000	0.329569
2234.000000	0.331033
2235.000000	0.331234
2236.000000	0.330784
2237.000000	0.329669
2238.000000	0.328239
2239.000000	0.323680
2240.000000	0.324403
2241.000000	0.328514
2242.000000	0.330062
2243.000000	0.334757
2244.000000	0.336808
2245.000000	0.333662
2246.000000	0.333924
2247.000000	0.336323
2248.000000	0.336820
2249.000000	0.337044
2250.000000	0.339375
2251.000000	0.336678
2252.000000	0.335170
2253.000000	0.331534
2254.000000	0.326725
2255.000000	0.325688
2256.000000	0.324545
2257.000000	0.324543
2258.000000	0.325574
2259.000000	0.325530
2260.000000	0.325886
2261.000000	0.326630
2262.000000	0.328841
2263.000000	0.328563
2264.000000	0.327631
2265.000000	0.326668
2266.000000	0.324482
2267.000000	0.323058
2268.000000	0.322128
2269.000000	0.319755
2270.000000	0.317487
2271.000000	0.313588
2272.000000	0.306870
2273.000000	0.303167
2274.000000	0.298710
2275.000000	0.296549
2276.000000	0.297979
2277.000000	0.297889
2278.000000	0.296691
2279.000000	0.293394
2280.000000	0.288080
2281.000000	0.284291
2282.000000	0.282500
2283.000000	0.281352
2284.000000	0.280002
2285.000000	0.278282
2286.000000	0.276342
2287.000000	0.275597
2288.000000	0.275688
2289.000000	0.278131
2290.000000	0.280727
2291.000000	0.283593
2292.000000	0.287073
2293.000000	0.287522
2294.000000	0.289385
2295.000000	0.291204
2296.000000	0.292235
2297.000000	0.294245
2298.000000	0.294873
2299.000000	0.292031
2300.000000	0.293188
2301.000000	0.296642
2302.000000	0.298755
2303.000000	0.303512
2304.000000	0.305395
2305.000000	0.304219
2306.000000	0.303038
2307.000000	0.300921
2308.000000	0.298839
2309.000000	0.297136
2310.000000	0.297757
2311.000000	0.299218
2312.000000	0.300223
2313.000000	0.299927
2314.000000	0.298946
2315.000000	0.297185
2316.000000	0.296020
2317.000000	0.296115
2318.000000	0.296258
2319.000000	0.295948
2320.000000	0.296159
2321.000000	0.296386
2322.000000	0.296338
2323.000000	0.297838
2324.000000	0.300739
2325.000000	0.300428
2326.000000	0.298019
2327.000000	0.296659
2328.000000	0.293897
2329.000000	0.294369
2330.000000	0.296714
2331.000000	0.295404
2332.000000	0.293970
2333.000000	0.292824
2334.000000	0.289534
2335.000000	0.287280
2336.000000	0.285951
2337.000000	0.283726
2338.000000	0.279747
2339.000000	0.278744
2340.000000	0.280843
2341.000000	0.281141
2342.000000	0.280656
2343.000000	0.280344
2344.000000	0.279211
2345.000000	0.277151
2346.000000	0.276665
2347.000000	0.275322
2348.000000	0.272853
2349.000000	0.269222
2350.000000	0.265326
2351.000000	0.261174
2352.000000	0.258484
2353.000000	0.257963
2354.000000	0.257652
2355.000000	0.256924
2356.000000	0.255313
2357.000000	0.253431
2358.000000	0.252443
2359.000000	0.254343
2360.000000	0.258817
2361.000000	0.260988
2362.000000	0.263331
2363.000000	0.266348
2364.000000	0.263106
2365.000000	0.257534
2366.000000	0.252988
2367.000000	0.246513
2368.000000	0.243512
2369.000000	0.244061
2370.000000	0.243473
2371.000000	0.243770
2372.000000	0.244563
2373.000000	0.247104
2374.000000	0.249416
2375.000000	0.248420
2376.000000	0.247084
2377.000000	0.245040
2378.000000	0.242205
2379.000000	0.243058
2380.000000	0.242950
2381.000000	0.238835
2382.000000	0.235605
2383.000000	0.227837
2384.000000	0.219873
2385.000000	0.218621
2386.000000	0.220280
2387.000000	0.224319
2388.000000	0.230667
2389.000000	0.232841
2390.000000	0.230586
2391.000000	0.226961
2392.000000	0.222116
2393.000000	0.224572
2394.000000	0.221324
2395.000000	0.213968
2396.000000	0.215558
2397.000000	0.205607
2398.000000	0.201416
2399.000000	0.211492
2400.000000	0.216263
2401.000000	0.226671
2402.000000	0.228499
2403.000000	0.220540
2404.000000	0.215626
2405.000000	0.205063
2406.000000	0.204442
2407.000000	0.213984
2408.000000	0.220876
2409.000000	0.229290
2410.000000	0.237115
2411.000000	0.234101
2412.000000	0.224277
2413.000000	0.215003
2414.000000	0.207816
2415.000000	0.206837
2416.000000	0.209770
2417.000000	0.211479
2418.000000	0.212234
2419.000000	0.218643
2420.000000	0.221092
2421.000000	0.218873
2422.000000	0.223745
2423.000000	0.226389
2424.000000	0.226525
2425.000000	0.228106
2426.000000	0.224136
2427.000000	0.216145
2428.000000	0.211704
2429.000000	0.212959
2430.000000	0.209445
2431.000000	0.199565
2432.000000	0.193125
2433.000000	0.194245
2434.000000	0.203626
2435.000000	0.210447
2436.000000	0.214054
2437.000000	0.212751
2438.000000	0.201768
2439.000000	0.201083
2440.000000	0.208567
2441.000000	0.207176
2442.000000	0.208900
2443.000000	0.213544
2444.000000	0.208684
2445.000000	0.211950
2446.000000	0.221987
2447.000000	0.226465
2448.000000	0.233130
2449.000000	0.240625
2450.000000	0.240629
2451.000000	0.229136
2452.000000	0.221930
2453.000000	0.224070
2454.000000	0.233221
2455.000000	0.236660
2456.000000	0.228244
2457.000000	0.220201
2458.000000	0.191930
2459.000000	0.167763
2460.000000	0.162848
2461.000000	0.151956
2462.000000	0.164838
2463.000000	0.186773
2464.000000	0.198569
2465.000000	0.203752
2466.000000	0.184960
2467.000000	0.177445
2468.000000	0.189328
2469.000000	0.198985
2470.000000	0.214854
2471.000000	0.222611
2472.000000	0.206442
2473.000000	0.193227
2474.000000	0.190663
2475.000000	0.183643
2476.000000	0.187436
2477.000000	0.196985
2478.000000	0.198643
2479.000000	0.204820
2480.000000	0.173380
2481.000000	0.134541
2482.000000	0.146407
2483.000000	0.137160
2484.000000	0.141207
2485.000000	0.177695
2486.000000	0.163502
2487.000000	0.182667
2488.000000	0.274236
2489.000000	0.337598
2490.000000	0.361097
2491.000000	0.309989
2492.000000	0.285122
2493.000000	0.243118
2494.000000	0.234337
2495.000000	0.261791
2496.000000	0.266927
2497.000000	0.274738
2498.000000	0.294102
2499.000000	0.355502
2500.000000	0.358345
