# Wavelength	Nau-1_20_FV7_80_00002.asd.rts.txt
350.000000	0.164061
351.000000	0.177169
352.000000	0.196001
353.000000	0.193345
354.000000	0.171962
355.000000	0.179574
356.000000	0.180419
357.000000	0.174486
358.000000	0.183819
359.000000	0.189282
360.000000	0.188100
361.000000	0.181969
362.000000	0.177414
363.000000	0.176680
364.000000	0.179021
365.000000	0.180930
366.000000	0.181478
367.000000	0.181359
368.000000	0.183397
369.000000	0.184787
370.000000	0.185087
371.000000	0.184924
372.000000	0.188148
373.000000	0.187928
374.000000	0.183121
375.000000	0.189320
376.000000	0.192337
377.000000	0.190048
378.000000	0.191788
379.000000	0.192802
380.000000	0.193255
381.000000	0.194899
382.000000	0.194137
383.000000	0.192825
384.000000	0.192850
385.000000	0.194113
386.000000	0.194126
387.000000	0.192912
388.000000	0.192648
389.000000	0.194846
390.000000	0.197112
391.000000	0.196050
392.000000	0.198490
393.000000	0.199902
394.000000	0.197719
395.000000	0.201096
396.000000	0.202136
397.000000	0.199661
398.000000	0.201603
399.000000	0.202820
400.000000	0.202797
401.000000	0.202682
402.000000	0.203953
403.000000	0.205658
404.000000	0.206793
405.000000	0.207326
406.000000	0.208076
407.000000	0.209189
408.000000	0.209576
409.000000	0.209513
410.000000	0.209606
411.000000	0.210665
412.000000	0.211106
413.000000	0.211130
414.000000	0.211366
415.000000	0.212163
416.000000	0.213005
417.000000	0.213502
418.000000	0.213502
419.000000	0.214098
420.000000	0.215115
421.000000	0.215263
422.000000	0.215412
423.000000	0.215551
424.000000	0.215555
425.000000	0.215958
426.000000	0.216240
427.000000	0.216148
428.000000	0.216812
429.000000	0.216858
430.000000	0.216309
431.000000	0.217147
432.000000	0.217336
433.000000	0.217167
434.000000	0.217948
435.000000	0.217952
436.000000	0.217763
437.000000	0.218095
438.000000	0.218216
439.000000	0.218391
440.000000	0.218694
441.000000	0.218370
442.000000	0.218243
443.000000	0.218481
444.000000	0.218975
445.000000	0.218784
446.000000	0.218557
447.000000	0.219033
448.000000	0.219137
449.000000	0.219451
450.000000	0.220357
451.000000	0.221240
452.000000	0.222030
453.000000	0.222743
454.000000	0.223711
455.000000	0.224528
456.000000	0.225389
457.000000	0.226527
458.000000	0.227435
459.000000	0.228254
460.000000	0.229124
461.000000	0.229315
462.000000	0.229927
463.000000	0.231069
464.000000	0.231472
465.000000	0.231809
466.000000	0.232332
467.000000	0.233218
468.000000	0.233848
469.000000	0.234135
470.000000	0.234363
471.000000	0.234917
472.000000	0.235371
473.000000	0.235524
474.000000	0.235853
475.000000	0.236142
476.000000	0.236420
477.000000	0.236628
478.000000	0.236967
479.000000	0.237464
480.000000	0.237754
481.000000	0.237987
482.000000	0.238404
483.000000	0.238932
484.000000	0.239316
485.000000	0.239575
486.000000	0.239874
487.000000	0.240052
488.000000	0.240390
489.000000	0.240817
490.000000	0.240998
491.000000	0.241305
492.000000	0.241780
493.000000	0.242214
494.000000	0.242409
495.000000	0.242593
496.000000	0.242925
497.000000	0.243453
498.000000	0.243887
499.000000	0.244267
500.000000	0.244870
501.000000	0.245255
502.000000	0.245547
503.000000	0.246017
504.000000	0.246402
505.000000	0.246784
506.000000	0.247254
507.000000	0.247601
508.000000	0.247915
509.000000	0.248264
510.000000	0.248797
511.000000	0.249252
512.000000	0.249625
513.000000	0.250056
514.000000	0.250470
515.000000	0.250940
516.000000	0.251489
517.000000	0.251892
518.000000	0.252313
519.000000	0.252805
520.000000	0.253277
521.000000	0.253717
522.000000	0.254141
523.000000	0.254596
524.000000	0.255091
525.000000	0.255578
526.000000	0.256022
527.000000	0.256584
528.000000	0.257150
529.000000	0.257624
530.000000	0.258098
531.000000	0.258550
532.000000	0.258920
533.000000	0.259433
534.000000	0.259922
535.000000	0.260361
536.000000	0.260907
537.000000	0.261368
538.000000	0.261796
539.000000	0.262304
540.000000	0.262669
541.000000	0.263053
542.000000	0.263628
543.000000	0.264146
544.000000	0.264603
545.000000	0.264988
546.000000	0.265503
547.000000	0.265979
548.000000	0.266460
549.000000	0.267037
550.000000	0.267497
551.000000	0.267937
552.000000	0.268476
553.000000	0.269086
554.000000	0.269628
555.000000	0.270061
556.000000	0.270661
557.000000	0.271097
558.000000	0.271449
559.000000	0.271990
560.000000	0.272522
561.000000	0.273004
562.000000	0.273316
563.000000	0.273710
564.000000	0.274187
565.000000	0.274599
566.000000	0.275065
567.000000	0.275556
568.000000	0.276021
569.000000	0.276462
570.000000	0.276949
571.000000	0.277420
572.000000	0.277704
573.000000	0.278065
574.000000	0.278446
575.000000	0.278755
576.000000	0.279138
577.000000	0.279498
578.000000	0.279820
579.000000	0.280204
580.000000	0.280585
581.000000	0.280945
582.000000	0.281361
583.000000	0.281784
584.000000	0.282129
585.000000	0.282299
586.000000	0.282565
587.000000	0.282877
588.000000	0.283119
589.000000	0.283306
590.000000	0.283546
591.000000	0.283877
592.000000	0.284145
593.000000	0.284417
594.000000	0.284667
595.000000	0.284774
596.000000	0.284960
597.000000	0.285252
598.000000	0.285494
599.000000	0.285636
600.000000	0.285737
601.000000	0.285808
602.000000	0.286000
603.000000	0.286203
604.000000	0.286385
605.000000	0.286628
606.000000	0.286863
607.000000	0.287071
608.000000	0.287251
609.000000	0.287476
610.000000	0.287695
611.000000	0.287843
612.000000	0.288010
613.000000	0.288131
614.000000	0.288211
615.000000	0.288343
616.000000	0.288372
617.000000	0.288318
618.000000	0.288495
619.000000	0.288663
620.000000	0.288761
621.000000	0.288841
622.000000	0.288802
623.000000	0.288789
624.000000	0.288894
625.000000	0.288891
626.000000	0.288940
627.000000	0.289104
628.000000	0.289279
629.000000	0.289551
630.000000	0.289763
631.000000	0.289907
632.000000	0.290163
633.000000	0.290431
634.000000	0.290567
635.000000	0.290656
636.000000	0.290798
637.000000	0.291006
638.000000	0.291174
639.000000	0.291300
640.000000	0.291458
641.000000	0.291637
642.000000	0.291759
643.000000	0.291842
644.000000	0.291939
645.000000	0.292038
646.000000	0.292187
647.000000	0.292375
648.000000	0.292519
649.000000	0.292655
650.000000	0.292794
651.000000	0.292986
652.000000	0.293278
653.000000	0.293536
654.000000	0.293489
655.000000	0.293643
656.000000	0.293916
657.000000	0.294096
658.000000	0.294260
659.000000	0.294433
660.000000	0.294602
661.000000	0.294749
662.000000	0.294882
663.000000	0.295012
664.000000	0.295048
665.000000	0.295167
666.000000	0.295357
667.000000	0.295544
668.000000	0.295822
669.000000	0.296082
670.000000	0.296266
671.000000	0.296414
672.000000	0.296596
673.000000	0.296794
674.000000	0.296942
675.000000	0.297133
676.000000	0.297331
677.000000	0.297487
678.000000	0.297592
679.000000	0.297753
680.000000	0.298007
681.000000	0.298129
682.000000	0.298375
683.000000	0.298680
684.000000	0.298882
685.000000	0.299040
686.000000	0.299238
687.000000	0.299509
688.000000	0.299771
689.000000	0.299963
690.000000	0.300117
691.000000	0.300378
692.000000	0.300581
693.000000	0.300777
694.000000	0.301108
695.000000	0.301381
696.000000	0.301594
697.000000	0.301821
698.000000	0.301989
699.000000	0.302212
700.000000	0.302557
701.000000	0.302787
702.000000	0.303043
703.000000	0.303316
704.000000	0.303428
705.000000	0.303652
706.000000	0.303943
707.000000	0.304215
708.000000	0.304406
709.000000	0.304615
710.000000	0.304924
711.000000	0.305141
712.000000	0.305263
713.000000	0.305383
714.000000	0.305682
715.000000	0.305949
716.000000	0.306153
717.000000	0.306313
718.000000	0.306466
719.000000	0.306606
720.000000	0.306751
721.000000	0.306999
722.000000	0.307200
723.000000	0.307387
724.000000	0.307676
725.000000	0.307879
726.000000	0.308080
727.000000	0.308299
728.000000	0.308448
729.000000	0.308567
730.000000	0.308658
731.000000	0.308802
732.000000	0.308936
733.000000	0.309061
734.000000	0.309137
735.000000	0.309289
736.000000	0.309596
737.000000	0.309844
738.000000	0.309886
739.000000	0.309988
740.000000	0.310174
741.000000	0.310326
742.000000	0.310597
743.000000	0.310928
744.000000	0.311106
745.000000	0.311234
746.000000	0.311366
747.000000	0.311447
748.000000	0.311523
749.000000	0.311643
750.000000	0.311761
751.000000	0.311713
752.000000	0.311736
753.000000	0.311878
754.000000	0.311997
755.000000	0.312109
756.000000	0.312199
757.000000	0.312221
758.000000	0.312343
759.000000	0.312380
760.000000	0.312237
761.000000	0.312341
762.000000	0.312420
763.000000	0.312431
764.000000	0.312535
765.000000	0.312595
766.000000	0.312646
767.000000	0.312734
768.000000	0.312868
769.000000	0.312946
770.000000	0.312961
771.000000	0.313032
772.000000	0.313160
773.000000	0.313242
774.000000	0.313276
775.000000	0.313310
776.000000	0.313379
777.000000	0.313463
778.000000	0.313504
779.000000	0.313422
780.000000	0.313290
781.000000	0.313295
782.000000	0.313332
783.000000	0.313440
784.000000	0.313491
785.000000	0.313466
786.000000	0.313414
787.000000	0.313384
788.000000	0.313443
789.000000	0.313495
790.000000	0.313491
791.000000	0.313458
792.000000	0.313464
793.000000	0.313411
794.000000	0.313280
795.000000	0.313398
796.000000	0.313516
797.000000	0.313513
798.000000	0.313414
799.000000	0.313364
800.000000	0.313318
801.000000	0.313193
802.000000	0.313080
803.000000	0.312930
804.000000	0.312788
805.000000	0.312774
806.000000	0.312714
807.000000	0.312704
808.000000	0.312789
809.000000	0.312657
810.000000	0.312532
811.000000	0.312552
812.000000	0.312389
813.000000	0.312250
814.000000	0.312179
815.000000	0.312109
816.000000	0.312163
817.000000	0.312163
818.000000	0.311879
819.000000	0.311724
820.000000	0.311756
821.000000	0.311849
822.000000	0.311793
823.000000	0.311729
824.000000	0.311667
825.000000	0.311679
826.000000	0.311589
827.000000	0.311476
828.000000	0.311448
829.000000	0.311476
830.000000	0.311481
831.000000	0.311450
832.000000	0.311250
833.000000	0.311103
834.000000	0.310987
835.000000	0.310893
836.000000	0.310841
837.000000	0.310708
838.000000	0.310549
839.000000	0.310510
840.000000	0.310430
841.000000	0.310377
842.000000	0.310379
843.000000	0.310348
844.000000	0.310244
845.000000	0.310061
846.000000	0.309907
847.000000	0.309856
848.000000	0.309832
849.000000	0.309768
850.000000	0.309682
851.000000	0.309460
852.000000	0.309205
853.000000	0.309216
854.000000	0.309168
855.000000	0.309114
856.000000	0.309020
857.000000	0.308857
858.000000	0.308768
859.000000	0.308701
860.000000	0.308514
861.000000	0.308382
862.000000	0.308337
863.000000	0.308254
864.000000	0.307974
865.000000	0.307703
866.000000	0.307566
867.000000	0.307386
868.000000	0.307329
869.000000	0.307282
870.000000	0.307161
871.000000	0.307060
872.000000	0.307009
873.000000	0.306944
874.000000	0.306859
875.000000	0.306648
876.000000	0.306356
877.000000	0.306039
878.000000	0.305886
879.000000	0.305768
880.000000	0.305487
881.000000	0.305271
882.000000	0.305219
883.000000	0.305199
884.000000	0.304936
885.000000	0.304619
886.000000	0.304434
887.000000	0.304364
888.000000	0.303909
889.000000	0.303602
890.000000	0.303441
891.000000	0.303406
892.000000	0.303198
893.000000	0.302961
894.000000	0.302868
895.000000	0.302685
896.000000	0.302517
897.000000	0.302294
898.000000	0.301950
899.000000	0.301818
900.000000	0.301634
901.000000	0.301325
902.000000	0.301258
903.000000	0.301197
904.000000	0.301069
905.000000	0.300801
906.000000	0.300770
907.000000	0.300626
908.000000	0.300358
909.000000	0.300162
910.000000	0.299879
911.000000	0.299504
912.000000	0.299122
913.000000	0.298921
914.000000	0.298751
915.000000	0.298621
916.000000	0.298497
917.000000	0.298328
918.000000	0.298135
919.000000	0.297913
920.000000	0.297641
921.000000	0.297407
922.000000	0.297185
923.000000	0.296894
924.000000	0.296796
925.000000	0.296626
926.000000	0.296279
927.000000	0.295897
928.000000	0.295666
929.000000	0.295579
930.000000	0.295510
931.000000	0.295169
932.000000	0.294784
933.000000	0.294492
934.000000	0.294195
935.000000	0.294089
936.000000	0.294027
937.000000	0.293799
938.000000	0.293695
939.000000	0.293600
940.000000	0.293323
941.000000	0.292851
942.000000	0.292683
943.000000	0.292618
944.000000	0.292365
945.000000	0.292067
946.000000	0.291829
947.000000	0.291686
948.000000	0.291544
949.000000	0.291286
950.000000	0.291163
951.000000	0.291128
952.000000	0.290948
953.000000	0.290624
954.000000	0.290252
955.000000	0.289895
956.000000	0.289730
957.000000	0.289576
958.000000	0.289400
959.000000	0.289327
960.000000	0.289140
961.000000	0.288986
962.000000	0.288824
963.000000	0.288442
964.000000	0.288221
965.000000	0.288128
966.000000	0.287956
967.000000	0.287820
968.000000	0.287551
969.000000	0.287146
970.000000	0.286834
971.000000	0.286796
972.000000	0.286827
973.000000	0.286699
974.000000	0.286409
975.000000	0.286358
976.000000	0.286192
977.000000	0.285681
978.000000	0.285443
979.000000	0.285524
980.000000	0.285459
981.000000	0.285135
982.000000	0.285009
983.000000	0.285039
984.000000	0.285018
985.000000	0.284510
986.000000	0.284380
987.000000	0.284374
988.000000	0.284188
989.000000	0.284340
990.000000	0.284122
991.000000	0.283835
992.000000	0.283995
993.000000	0.284070
994.000000	0.284025
995.000000	0.283898
996.000000	0.283476
997.000000	0.283560
998.000000	0.283864
999.000000	0.283995
1000.000000	0.283426
1001.000000	0.283250
1002.000000	0.284054
1003.000000	0.283980
1004.000000	0.283756
1005.000000	0.283181
1006.000000	0.282983
1007.000000	0.282823
1008.000000	0.282320
1009.000000	0.282286
1010.000000	0.282502
1011.000000	0.282258
1012.000000	0.282207
1013.000000	0.282129
1014.000000	0.281756
1015.000000	0.281817
1016.000000	0.281719
1017.000000	0.281314
1018.000000	0.281491
1019.000000	0.281619
1020.000000	0.281875
1021.000000	0.281689
1022.000000	0.281602
1023.000000	0.281705
1024.000000	0.281372
1025.000000	0.281547
1026.000000	0.281654
1027.000000	0.281412
1028.000000	0.281527
1029.000000	0.281333
1030.000000	0.281076
1031.000000	0.281044
1032.000000	0.280832
1033.000000	0.280731
1034.000000	0.280837
1035.000000	0.281588
1036.000000	0.282007
1037.000000	0.282301
1038.000000	0.282269
1039.000000	0.282231
1040.000000	0.282106
1041.000000	0.281630
1042.000000	0.281796
1043.000000	0.282288
1044.000000	0.282615
1045.000000	0.282826
1046.000000	0.282851
1047.000000	0.283045
1048.000000	0.283148
1049.000000	0.283299
1050.000000	0.283692
1051.000000	0.283718
1052.000000	0.283242
1053.000000	0.283283
1054.000000	0.283603
1055.000000	0.284027
1056.000000	0.285126
1057.000000	0.285492
1058.000000	0.285585
1059.000000	0.285405
1060.000000	0.285239
1061.000000	0.285475
1062.000000	0.285860
1063.000000	0.286378
1064.000000	0.286543
1065.000000	0.286245
1066.000000	0.286512
1067.000000	0.286836
1068.000000	0.287139
1069.000000	0.287922
1070.000000	0.288320
1071.000000	0.288337
1072.000000	0.288536
1073.000000	0.288843
1074.000000	0.289134
1075.000000	0.289232
1076.000000	0.289368
1077.000000	0.289190
1078.000000	0.289029
1079.000000	0.289307
1080.000000	0.289898
1081.000000	0.290341
1082.000000	0.291268
1083.000000	0.291741
1084.000000	0.291988
1085.000000	0.292249
1086.000000	0.292346
1087.000000	0.292494
1088.000000	0.292305
1089.000000	0.292461
1090.000000	0.292841
1091.000000	0.293207
1092.000000	0.293250
1093.000000	0.293829
1094.000000	0.294104
1095.000000	0.293984
1096.000000	0.294267
1097.000000	0.295085
1098.000000	0.295089
1099.000000	0.294385
1100.000000	0.294624
1101.000000	0.294861
1102.000000	0.295117
1103.000000	0.296143
1104.000000	0.296693
1105.000000	0.296730
1106.000000	0.296933
1107.000000	0.297272
1108.000000	0.297431
1109.000000	0.297372
1110.000000	0.297368
1111.000000	0.297707
1112.000000	0.298212
1113.000000	0.298619
1114.000000	0.299463
1115.000000	0.299672
1116.000000	0.299354
1117.000000	0.299448
1118.000000	0.299430
1119.000000	0.299525
1120.000000	0.299834
1121.000000	0.300115
1122.000000	0.300504
1123.000000	0.300966
1124.000000	0.301367
1125.000000	0.301706
1126.000000	0.301846
1127.000000	0.302016
1128.000000	0.302172
1129.000000	0.302334
1130.000000	0.302543
1131.000000	0.302856
1132.000000	0.302939
1133.000000	0.302943
1134.000000	0.303077
1135.000000	0.303126
1136.000000	0.303151
1137.000000	0.303224
1138.000000	0.303298
1139.000000	0.303286
1140.000000	0.303494
1141.000000	0.303928
1142.000000	0.304190
1143.000000	0.304304
1144.000000	0.304615
1145.000000	0.304737
1146.000000	0.304913
1147.000000	0.305125
1148.000000	0.305465
1149.000000	0.305479
1150.000000	0.305293
1151.000000	0.305329
1152.000000	0.305138
1153.000000	0.305244
1154.000000	0.305621
1155.000000	0.305838
1156.000000	0.306161
1157.000000	0.306323
1158.000000	0.306322
1159.000000	0.306356
1160.000000	0.306288
1161.000000	0.306256
1162.000000	0.306288
1163.000000	0.306474
1164.000000	0.306521
1165.000000	0.306327
1166.000000	0.306347
1167.000000	0.306324
1168.000000	0.306313
1169.000000	0.306392
1170.000000	0.306497
1171.000000	0.306673
1172.000000	0.306773
1173.000000	0.306869
1174.000000	0.306952
1175.000000	0.306863
1176.000000	0.306850
1177.000000	0.307046
1178.000000	0.307141
1179.000000	0.307177
1180.000000	0.307189
1181.000000	0.307333
1182.000000	0.307227
1183.000000	0.307209
1184.000000	0.307435
1185.000000	0.307608
1186.000000	0.307897
1187.000000	0.307960
1188.000000	0.307971
1189.000000	0.307934
1190.000000	0.307750
1191.000000	0.307721
1192.000000	0.307891
1193.000000	0.308005
1194.000000	0.307998
1195.000000	0.308047
1196.000000	0.307998
1197.000000	0.308051
1198.000000	0.308228
1199.000000	0.308354
1200.000000	0.308492
1201.000000	0.308645
1202.000000	0.308716
1203.000000	0.308612
1204.000000	0.308567
1205.000000	0.308605
1206.000000	0.308641
1207.000000	0.308875
1208.000000	0.308959
1209.000000	0.309121
1210.000000	0.309062
1211.000000	0.308788
1212.000000	0.308664
1213.000000	0.308481
1214.000000	0.308439
1215.000000	0.308554
1216.000000	0.308592
1217.000000	0.308662
1218.000000	0.308613
1219.000000	0.308428
1220.000000	0.308472
1221.000000	0.308520
1222.000000	0.308360
1223.000000	0.308455
1224.000000	0.308535
1225.000000	0.308466
1226.000000	0.308609
1227.000000	0.308610
1228.000000	0.308494
1229.000000	0.308440
1230.000000	0.308311
1231.000000	0.308270
1232.000000	0.308429
1233.000000	0.308598
1234.000000	0.308828
1235.000000	0.308912
1236.000000	0.308867
1237.000000	0.308885
1238.000000	0.308802
1239.000000	0.308711
1240.000000	0.308574
1241.000000	0.308592
1242.000000	0.308488
1243.000000	0.308406
1244.000000	0.308386
1245.000000	0.308423
1246.000000	0.308529
1247.000000	0.308739
1248.000000	0.308875
1249.000000	0.308878
1250.000000	0.308887
1251.000000	0.308884
1252.000000	0.308861
1253.000000	0.308907
1254.000000	0.308908
1255.000000	0.308839
1256.000000	0.308808
1257.000000	0.308855
1258.000000	0.308883
1259.000000	0.308806
1260.000000	0.308797
1261.000000	0.308757
1262.000000	0.308698
1263.000000	0.308648
1264.000000	0.308624
1265.000000	0.308554
1266.000000	0.308570
1267.000000	0.308689
1268.000000	0.308768
1269.000000	0.308798
1270.000000	0.308899
1271.000000	0.308903
1272.000000	0.308845
1273.000000	0.308761
1274.000000	0.308675
1275.000000	0.308687
1276.000000	0.308743
1277.000000	0.308895
1278.000000	0.309185
1279.000000	0.309246
1280.000000	0.309173
1281.000000	0.309129
1282.000000	0.308987
1283.000000	0.309012
1284.000000	0.309112
1285.000000	0.309100
1286.000000	0.309054
1287.000000	0.308974
1288.000000	0.308907
1289.000000	0.308897
1290.000000	0.308757
1291.000000	0.308669
1292.000000	0.308617
1293.000000	0.308511
1294.000000	0.308598
1295.000000	0.308741
1296.000000	0.308753
1297.000000	0.308726
1298.000000	0.308760
1299.000000	0.308812
1300.000000	0.308840
1301.000000	0.308889
1302.000000	0.308859
1303.000000	0.308837
1304.000000	0.308777
1305.000000	0.308772
1306.000000	0.308771
1307.000000	0.308843
1308.000000	0.308894
1309.000000	0.308944
1310.000000	0.308998
1311.000000	0.309124
1312.000000	0.308987
1313.000000	0.308981
1314.000000	0.309068
1315.000000	0.308986
1316.000000	0.309072
1317.000000	0.309244
1318.000000	0.309040
1319.000000	0.308775
1320.000000	0.308800
1321.000000	0.308597
1322.000000	0.308413
1323.000000	0.308477
1324.000000	0.308497
1325.000000	0.308360
1326.000000	0.308176
1327.000000	0.308073
1328.000000	0.307987
1329.000000	0.307912
1330.000000	0.308053
1331.000000	0.308068
1332.000000	0.308037
1333.000000	0.307968
1334.000000	0.307915
1335.000000	0.307893
1336.000000	0.307804
1337.000000	0.307794
1338.000000	0.307810
1339.000000	0.307820
1340.000000	0.307680
1341.000000	0.307608
1342.000000	0.307545
1343.000000	0.307490
1344.000000	0.307513
1345.000000	0.307540
1346.000000	0.307626
1347.000000	0.307397
1348.000000	0.307376
1349.000000	0.307493
1350.000000	0.307374
1351.000000	0.307355
1352.000000	0.307295
1353.000000	0.307138
1354.000000	0.307148
1355.000000	0.307139
1356.000000	0.307116
1357.000000	0.307021
1358.000000	0.307063
1359.000000	0.307265
1360.000000	0.307260
1361.000000	0.307263
1362.000000	0.307241
1363.000000	0.306967
1364.000000	0.306875
1365.000000	0.306922
1366.000000	0.306893
1367.000000	0.306811
1368.000000	0.306844
1369.000000	0.306961
1370.000000	0.306976
1371.000000	0.307052
1372.000000	0.306994
1373.000000	0.306799
1374.000000	0.306836
1375.000000	0.306849
1376.000000	0.306779
1377.000000	0.306831
1378.000000	0.306775
1379.000000	0.306675
1380.000000	0.306769
1381.000000	0.306674
1382.000000	0.306471
1383.000000	0.306278
1384.000000	0.305971
1385.000000	0.305855
1386.000000	0.305878
1387.000000	0.305827
1388.000000	0.305680
1389.000000	0.305372
1390.000000	0.305039
1391.000000	0.304827
1392.000000	0.304696
1393.000000	0.304468
1394.000000	0.304234
1395.000000	0.304147
1396.000000	0.304074
1397.000000	0.303950
1398.000000	0.303968
1399.000000	0.303804
1400.000000	0.303405
1401.000000	0.303099
1402.000000	0.302807
1403.000000	0.302607
1404.000000	0.302425
1405.000000	0.302228
1406.000000	0.302115
1407.000000	0.301923
1408.000000	0.301665
1409.000000	0.301508
1410.000000	0.301327
1411.000000	0.301159
1412.000000	0.300980
1413.000000	0.300855
1414.000000	0.300713
1415.000000	0.300568
1416.000000	0.300527
1417.000000	0.300500
1418.000000	0.300475
1419.000000	0.300511
1420.000000	0.300426
1421.000000	0.300382
1422.000000	0.300464
1423.000000	0.300622
1424.000000	0.300616
1425.000000	0.300564
1426.000000	0.300465
1427.000000	0.300313
1428.000000	0.300230
1429.000000	0.300325
1430.000000	0.300439
1431.000000	0.300441
1432.000000	0.300434
1433.000000	0.300464
1434.000000	0.300421
1435.000000	0.300338
1436.000000	0.300427
1437.000000	0.300542
1438.000000	0.300674
1439.000000	0.300983
1440.000000	0.301202
1441.000000	0.301405
1442.000000	0.301656
1443.000000	0.301879
1444.000000	0.302045
1445.000000	0.302280
1446.000000	0.302525
1447.000000	0.302712
1448.000000	0.302890
1449.000000	0.303013
1450.000000	0.303080
1451.000000	0.303231
1452.000000	0.303349
1453.000000	0.303361
1454.000000	0.303446
1455.000000	0.303447
1456.000000	0.303522
1457.000000	0.303751
1458.000000	0.303690
1459.000000	0.303613
1460.000000	0.303568
1461.000000	0.303403
1462.000000	0.303428
1463.000000	0.303471
1464.000000	0.303465
1465.000000	0.303559
1466.000000	0.303645
1467.000000	0.303704
1468.000000	0.303784
1469.000000	0.303871
1470.000000	0.303824
1471.000000	0.303892
1472.000000	0.303959
1473.000000	0.303948
1474.000000	0.303988
1475.000000	0.304070
1476.000000	0.304186
1477.000000	0.304358
1478.000000	0.304462
1479.000000	0.304455
1480.000000	0.304399
1481.000000	0.304338
1482.000000	0.304281
1483.000000	0.304263
1484.000000	0.304243
1485.000000	0.304249
1486.000000	0.304275
1487.000000	0.304304
1488.000000	0.304394
1489.000000	0.304442
1490.000000	0.304310
1491.000000	0.304294
1492.000000	0.304244
1493.000000	0.304277
1494.000000	0.304390
1495.000000	0.304453
1496.000000	0.304500
1497.000000	0.304567
1498.000000	0.304653
1499.000000	0.304716
1500.000000	0.304721
1501.000000	0.304748
1502.000000	0.304761
1503.000000	0.304828
1504.000000	0.304980
1505.000000	0.305071
1506.000000	0.305113
1507.000000	0.305030
1508.000000	0.305055
1509.000000	0.305172
1510.000000	0.305188
1511.000000	0.305304
1512.000000	0.305304
1513.000000	0.305306
1514.000000	0.305465
1515.000000	0.305480
1516.000000	0.305608
1517.000000	0.305671
1518.000000	0.305593
1519.000000	0.305585
1520.000000	0.305558
1521.000000	0.305545
1522.000000	0.305597
1523.000000	0.305622
1524.000000	0.305557
1525.000000	0.305437
1526.000000	0.305341
1527.000000	0.305366
1528.000000	0.305492
1529.000000	0.305535
1530.000000	0.305456
1531.000000	0.305460
1532.000000	0.305449
1533.000000	0.305391
1534.000000	0.305449
1535.000000	0.305513
1536.000000	0.305524
1537.000000	0.305630
1538.000000	0.305690
1539.000000	0.305612
1540.000000	0.305444
1541.000000	0.305299
1542.000000	0.305205
1543.000000	0.305183
1544.000000	0.305136
1545.000000	0.305100
1546.000000	0.305167
1547.000000	0.305153
1548.000000	0.305167
1549.000000	0.305218
1550.000000	0.305242
1551.000000	0.305307
1552.000000	0.305369
1553.000000	0.305461
1554.000000	0.305502
1555.000000	0.305516
1556.000000	0.305596
1557.000000	0.305576
1558.000000	0.305595
1559.000000	0.305596
1560.000000	0.305546
1561.000000	0.305471
1562.000000	0.305423
1563.000000	0.305346
1564.000000	0.305304
1565.000000	0.305344
1566.000000	0.305309
1567.000000	0.305343
1568.000000	0.305317
1569.000000	0.305285
1570.000000	0.305317
1571.000000	0.305339
1572.000000	0.305381
1573.000000	0.305566
1574.000000	0.305571
1575.000000	0.305480
1576.000000	0.305413
1577.000000	0.305237
1578.000000	0.305135
1579.000000	0.305130
1580.000000	0.305118
1581.000000	0.305217
1582.000000	0.305224
1583.000000	0.305138
1584.000000	0.305093
1585.000000	0.305140
1586.000000	0.305178
1587.000000	0.305302
1588.000000	0.305284
1589.000000	0.305127
1590.000000	0.305066
1591.000000	0.304973
1592.000000	0.305000
1593.000000	0.305245
1594.000000	0.305299
1595.000000	0.305365
1596.000000	0.305352
1597.000000	0.305201
1598.000000	0.305169
1599.000000	0.305201
1600.000000	0.305178
1601.000000	0.305274
1602.000000	0.305296
1603.000000	0.305289
1604.000000	0.305281
1605.000000	0.305253
1606.000000	0.305287
1607.000000	0.305386
1608.000000	0.305450
1609.000000	0.305593
1610.000000	0.305706
1611.000000	0.305828
1612.000000	0.305889
1613.000000	0.306069
1614.000000	0.306127
1615.000000	0.306156
1616.000000	0.306216
1617.000000	0.306157
1618.000000	0.306129
1619.000000	0.306086
1620.000000	0.306006
1621.000000	0.305989
1622.000000	0.305981
1623.000000	0.305882
1624.000000	0.305823
1625.000000	0.305637
1626.000000	0.305491
1627.000000	0.305429
1628.000000	0.305358
1629.000000	0.305264
1630.000000	0.305210
1631.000000	0.305078
1632.000000	0.304960
1633.000000	0.304904
1634.000000	0.304862
1635.000000	0.304826
1636.000000	0.304809
1637.000000	0.304842
1638.000000	0.304858
1639.000000	0.304947
1640.000000	0.304997
1641.000000	0.305115
1642.000000	0.305172
1643.000000	0.305274
1644.000000	0.305258
1645.000000	0.305119
1646.000000	0.305058
1647.000000	0.304966
1648.000000	0.304889
1649.000000	0.305055
1650.000000	0.304992
1651.000000	0.304769
1652.000000	0.304769
1653.000000	0.304709
1654.000000	0.304718
1655.000000	0.304878
1656.000000	0.304813
1657.000000	0.304689
1658.000000	0.304607
1659.000000	0.304572
1660.000000	0.304622
1661.000000	0.304673
1662.000000	0.304646
1663.000000	0.304589
1664.000000	0.304545
1665.000000	0.304414
1666.000000	0.304474
1667.000000	0.304577
1668.000000	0.304625
1669.000000	0.304718
1670.000000	0.304647
1671.000000	0.304576
1672.000000	0.304602
1673.000000	0.304591
1674.000000	0.304540
1675.000000	0.304500
1676.000000	0.304551
1677.000000	0.304449
1678.000000	0.304301
1679.000000	0.304452
1680.000000	0.304476
1681.000000	0.304530
1682.000000	0.304813
1683.000000	0.304822
1684.000000	0.304725
1685.000000	0.304761
1686.000000	0.304589
1687.000000	0.304599
1688.000000	0.304812
1689.000000	0.304781
1690.000000	0.304710
1691.000000	0.304746
1692.000000	0.304628
1693.000000	0.304605
1694.000000	0.304636
1695.000000	0.304652
1696.000000	0.304559
1697.000000	0.304399
1698.000000	0.304172
1699.000000	0.304130
1700.000000	0.304114
1701.000000	0.304226
1702.000000	0.304445
1703.000000	0.304530
1704.000000	0.304738
1705.000000	0.304736
1706.000000	0.304510
1707.000000	0.304465
1708.000000	0.304322
1709.000000	0.304211
1710.000000	0.304409
1711.000000	0.304462
1712.000000	0.304428
1713.000000	0.304400
1714.000000	0.304421
1715.000000	0.304368
1716.000000	0.304249
1717.000000	0.304171
1718.000000	0.304061
1719.000000	0.303915
1720.000000	0.303785
1721.000000	0.303725
1722.000000	0.303673
1723.000000	0.303617
1724.000000	0.303663
1725.000000	0.303671
1726.000000	0.303590
1727.000000	0.303460
1728.000000	0.303175
1729.000000	0.303051
1730.000000	0.303094
1731.000000	0.303028
1732.000000	0.303029
1733.000000	0.303147
1734.000000	0.303051
1735.000000	0.303149
1736.000000	0.303517
1737.000000	0.303590
1738.000000	0.303561
1739.000000	0.303543
1740.000000	0.303384
1741.000000	0.303378
1742.000000	0.303441
1743.000000	0.303501
1744.000000	0.303634
1745.000000	0.303595
1746.000000	0.303446
1747.000000	0.303358
1748.000000	0.303298
1749.000000	0.303431
1750.000000	0.303409
1751.000000	0.303360
1752.000000	0.303483
1753.000000	0.303490
1754.000000	0.303527
1755.000000	0.303685
1756.000000	0.303735
1757.000000	0.303719
1758.000000	0.303683
1759.000000	0.303546
1760.000000	0.303472
1761.000000	0.303295
1762.000000	0.303248
1763.000000	0.303359
1764.000000	0.303416
1765.000000	0.303533
1766.000000	0.303558
1767.000000	0.303418
1768.000000	0.303310
1769.000000	0.303252
1770.000000	0.303244
1771.000000	0.303269
1772.000000	0.303191
1773.000000	0.302982
1774.000000	0.302903
1775.000000	0.302866
1776.000000	0.302862
1777.000000	0.302962
1778.000000	0.302935
1779.000000	0.302843
1780.000000	0.302741
1781.000000	0.302543
1782.000000	0.302416
1783.000000	0.302347
1784.000000	0.302186
1785.000000	0.302084
1786.000000	0.302129
1787.000000	0.302130
1788.000000	0.302287
1789.000000	0.302501
1790.000000	0.302268
1791.000000	0.302143
1792.000000	0.302061
1793.000000	0.301908
1794.000000	0.301820
1795.000000	0.301788
1796.000000	0.301639
1797.000000	0.301559
1798.000000	0.301650
1799.000000	0.301625
1800.000000	0.301532
1801.000000	0.302506
1802.000000	0.301992
1803.000000	0.300308
1804.000000	0.299819
1805.000000	0.299834
1806.000000	0.299636
1807.000000	0.299750
1808.000000	0.299820
1809.000000	0.299719
1810.000000	0.299574
1811.000000	0.299853
1812.000000	0.300573
1813.000000	0.300774
1814.000000	0.300997
1815.000000	0.301259
1816.000000	0.301492
1817.000000	0.301366
1818.000000	0.301523
1819.000000	0.301152
1820.000000	0.300119
1821.000000	0.299296
1822.000000	0.299065
1823.000000	0.299200
1824.000000	0.299241
1825.000000	0.299577
1826.000000	0.299915
1827.000000	0.300313
1828.000000	0.300239
1829.000000	0.300624
1830.000000	0.301144
1831.000000	0.301362
1832.000000	0.301400
1833.000000	0.301553
1834.000000	0.301686
1835.000000	0.301753
1836.000000	0.301959
1837.000000	0.301673
1838.000000	0.300653
1839.000000	0.300129
1840.000000	0.299692
1841.000000	0.299096
1842.000000	0.298835
1843.000000	0.299227
1844.000000	0.299040
1845.000000	0.298076
1846.000000	0.298133
1847.000000	0.298568
1848.000000	0.298692
1849.000000	0.299130
1850.000000	0.299576
1851.000000	0.299956
1852.000000	0.299848
1853.000000	0.300163
1854.000000	0.301157
1855.000000	0.301103
1856.000000	0.300453
1857.000000	0.299730
1858.000000	0.298807
1859.000000	0.298231
1860.000000	0.298251
1861.000000	0.298252
1862.000000	0.298303
1863.000000	0.298663
1864.000000	0.298752
1865.000000	0.298659
1866.000000	0.298791
1867.000000	0.299132
1868.000000	0.298975
1869.000000	0.298712
1870.000000	0.298553
1871.000000	0.297679
1872.000000	0.297629
1873.000000	0.297631
1874.000000	0.298102
1875.000000	0.298013
1876.000000	0.298088
1877.000000	0.296741
1878.000000	0.295415
1879.000000	0.294477
1880.000000	0.293741
1881.000000	0.293861
1882.000000	0.293617
1883.000000	0.293406
1884.000000	0.293201
1885.000000	0.292632
1886.000000	0.292124
1887.000000	0.291686
1888.000000	0.291114
1889.000000	0.290543
1890.000000	0.290075
1891.000000	0.289549
1892.000000	0.288903
1893.000000	0.288120
1894.000000	0.287564
1895.000000	0.286741
1896.000000	0.285837
1897.000000	0.285201
1898.000000	0.284575
1899.000000	0.283845
1900.000000	0.283454
1901.000000	0.282885
1902.000000	0.281933
1903.000000	0.281059
1904.000000	0.280003
1905.000000	0.279209
1906.000000	0.278634
1907.000000	0.278424
1908.000000	0.277981
1909.000000	0.278190
1910.000000	0.277943
1911.000000	0.277149
1912.000000	0.277252
1913.000000	0.277469
1914.000000	0.277736
1915.000000	0.277996
1916.000000	0.278274
1917.000000	0.278466
1918.000000	0.278546
1919.000000	0.278683
1920.000000	0.278659
1921.000000	0.278613
1922.000000	0.278890
1923.000000	0.279064
1924.000000	0.279373
1925.000000	0.279889
1926.000000	0.280429
1927.000000	0.280950
1928.000000	0.281272
1929.000000	0.281821
1930.000000	0.282210
1931.000000	0.282138
1932.000000	0.281918
1933.000000	0.281504
1934.000000	0.281528
1935.000000	0.281575
1936.000000	0.281555
1937.000000	0.282370
1938.000000	0.282888
1939.000000	0.283265
1940.000000	0.283585
1941.000000	0.284091
1942.000000	0.284207
1943.000000	0.284388
1944.000000	0.284690
1945.000000	0.285009
1946.000000	0.285302
1947.000000	0.284818
1948.000000	0.284226
1949.000000	0.283892
1950.000000	0.283173
1951.000000	0.282855
1952.000000	0.283121
1953.000000	0.283363
1954.000000	0.283537
1955.000000	0.284233
1956.000000	0.284787
1957.000000	0.285339
1958.000000	0.285295
1959.000000	0.285342
1960.000000	0.285289
1961.000000	0.285218
1962.000000	0.285418
1963.000000	0.286232
1964.000000	0.286318
1965.000000	0.286192
1966.000000	0.286493
1967.000000	0.286508
1968.000000	0.286605
1969.000000	0.286954
1970.000000	0.286539
1971.000000	0.285944
1972.000000	0.285880
1973.000000	0.285624
1974.000000	0.285684
1975.000000	0.285813
1976.000000	0.286257
1977.000000	0.285664
1978.000000	0.285599
1979.000000	0.285427
1980.000000	0.285191
1981.000000	0.285913
1982.000000	0.286296
1983.000000	0.286693
1984.000000	0.287122
1985.000000	0.287631
1986.000000	0.287714
1987.000000	0.287856
1988.000000	0.287904
1989.000000	0.287136
1990.000000	0.286748
1991.000000	0.286374
1992.000000	0.286001
1993.000000	0.286441
1994.000000	0.286515
1995.000000	0.286619
1996.000000	0.286874
1997.000000	0.287232
1998.000000	0.287671
1999.000000	0.288132
2000.000000	0.288644
2001.000000	0.289736
2002.000000	0.290035
2003.000000	0.290047
2004.000000	0.290185
2005.000000	0.289154
2006.000000	0.288939
2007.000000	0.289162
2008.000000	0.289111
2009.000000	0.289418
2010.000000	0.289554
2011.000000	0.288906
2012.000000	0.288884
2013.000000	0.289212
2014.000000	0.289201
2015.000000	0.289809
2016.000000	0.290583
2017.000000	0.290863
2018.000000	0.291669
2019.000000	0.291928
2020.000000	0.291591
2021.000000	0.291426
2022.000000	0.291111
2023.000000	0.290630
2024.000000	0.289802
2025.000000	0.289615
2026.000000	0.289475
2027.000000	0.289235
2028.000000	0.289742
2029.000000	0.290480
2030.000000	0.290745
2031.000000	0.291380
2032.000000	0.291393
2033.000000	0.290742
2034.000000	0.290357
2035.000000	0.289711
2036.000000	0.289115
2037.000000	0.288758
2038.000000	0.288633
2039.000000	0.288564
2040.000000	0.288730
2041.000000	0.289274
2042.000000	0.289533
2043.000000	0.289471
2044.000000	0.289101
2045.000000	0.288898
2046.000000	0.289095
2047.000000	0.289555
2048.000000	0.290847
2049.000000	0.291494
2050.000000	0.291750
2051.000000	0.291826
2052.000000	0.291281
2053.000000	0.290873
2054.000000	0.290646
2055.000000	0.290366
2056.000000	0.290351
2057.000000	0.290700
2058.000000	0.290992
2059.000000	0.291477
2060.000000	0.291802
2061.000000	0.292226
2062.000000	0.291959
2063.000000	0.291242
2064.000000	0.290884
2065.000000	0.290369
2066.000000	0.289989
2067.000000	0.290308
2068.000000	0.290548
2069.000000	0.289976
2070.000000	0.289593
2071.000000	0.289058
2072.000000	0.288349
2073.000000	0.288376
2074.000000	0.288439
2075.000000	0.288922
2076.000000	0.290529
2077.000000	0.290907
2078.000000	0.290957
2079.000000	0.290797
2080.000000	0.289761
2081.000000	0.289227
2082.000000	0.288573
2083.000000	0.288605
2084.000000	0.288916
2085.000000	0.289017
2086.000000	0.289375
2087.000000	0.290045
2088.000000	0.290161
2089.000000	0.289977
2090.000000	0.289811
2091.000000	0.289316
2092.000000	0.289190
2093.000000	0.289065
2094.000000	0.289210
2095.000000	0.289968
2096.000000	0.290261
2097.000000	0.290304
2098.000000	0.290457
2099.000000	0.291081
2100.000000	0.290749
2101.000000	0.290527
2102.000000	0.291852
2103.000000	0.292130
2104.000000	0.292563
2105.000000	0.292626
2106.000000	0.292185
2107.000000	0.292045
2108.000000	0.291400
2109.000000	0.291572
2110.000000	0.292858
2111.000000	0.293053
2112.000000	0.292700
2113.000000	0.292786
2114.000000	0.291924
2115.000000	0.290984
2116.000000	0.290744
2117.000000	0.290216
2118.000000	0.290148
2119.000000	0.289866
2120.000000	0.290088
2121.000000	0.290752
2122.000000	0.291406
2123.000000	0.292806
2124.000000	0.293253
2125.000000	0.293243
2126.000000	0.293010
2127.000000	0.292093
2128.000000	0.291502
2129.000000	0.290603
2130.000000	0.290257
2131.000000	0.290320
2132.000000	0.289736
2133.000000	0.289005
2134.000000	0.289298
2135.000000	0.288808
2136.000000	0.288515
2137.000000	0.288683
2138.000000	0.289600
2139.000000	0.289612
2140.000000	0.289459
2141.000000	0.289476
2142.000000	0.289213
2143.000000	0.288891
2144.000000	0.288597
2145.000000	0.288715
2146.000000	0.289569
2147.000000	0.289408
2148.000000	0.288638
2149.000000	0.289382
2150.000000	0.288433
2151.000000	0.287972
2152.000000	0.289108
2153.000000	0.289724
2154.000000	0.290182
2155.000000	0.291294
2156.000000	0.291034
2157.000000	0.289587
2158.000000	0.288934
2159.000000	0.287514
2160.000000	0.287272
2161.000000	0.287877
2162.000000	0.288166
2163.000000	0.288909
2164.000000	0.289509
2165.000000	0.289684
2166.000000	0.291018
2167.000000	0.291727
2168.000000	0.291846
2169.000000	0.291322
2170.000000	0.290198
2171.000000	0.289255
2172.000000	0.287854
2173.000000	0.286960
2174.000000	0.285786
2175.000000	0.285683
2176.000000	0.286257
2177.000000	0.286947
2178.000000	0.289150
2179.000000	0.289882
2180.000000	0.289963
2181.000000	0.290348
2182.000000	0.289387
2183.000000	0.289019
2184.000000	0.288875
2185.000000	0.288632
2186.000000	0.288238
2187.000000	0.288926
2188.000000	0.289346
2189.000000	0.288151
2190.000000	0.288187
2191.000000	0.287732
2192.000000	0.287167
2193.000000	0.286842
2194.000000	0.286832
2195.000000	0.286466
2196.000000	0.286411
2197.000000	0.286528
2198.000000	0.287519
2199.000000	0.289985
2200.000000	0.291394
2201.000000	0.294153
2202.000000	0.295037
2203.000000	0.295018
2204.000000	0.290594
2205.000000	0.286652
2206.000000	0.285254
2207.000000	0.284555
2208.000000	0.286772
2209.000000	0.289518
2210.000000	0.290498
2211.000000	0.289462
2212.000000	0.287024
2213.000000	0.286902
2214.000000	0.287089
2215.000000	0.287335
2216.000000	0.290340
2217.000000	0.290612
2218.000000	0.288003
2219.000000	0.288041
2220.000000	0.288266
2221.000000	0.288749
2222.000000	0.291768
2223.000000	0.292188
2224.000000	0.291401
2225.000000	0.290515
2226.000000	0.287968
2227.000000	0.285213
2228.000000	0.285154
2229.000000	0.286238
2230.000000	0.287740
2231.000000	0.290345
2232.000000	0.293075
2233.000000	0.294056
2234.000000	0.294839
2235.000000	0.295558
2236.000000	0.295202
2237.000000	0.293507
2238.000000	0.292308
2239.000000	0.290131
2240.000000	0.288996
2241.000000	0.287628
2242.000000	0.286794
2243.000000	0.287124
2244.000000	0.287174
2245.000000	0.287629
2246.000000	0.288254
2247.000000	0.288614
2248.000000	0.289082
2249.000000	0.291035
2250.000000	0.289969
2251.000000	0.289397
2252.000000	0.287904
2253.000000	0.285647
2254.000000	0.283796
2255.000000	0.280962
2256.000000	0.281342
2257.000000	0.282963
2258.000000	0.284606
2259.000000	0.286306
2260.000000	0.287210
2261.000000	0.287112
2262.000000	0.284988
2263.000000	0.284251
2264.000000	0.283786
2265.000000	0.283635
2266.000000	0.284625
2267.000000	0.284246
2268.000000	0.281754
2269.000000	0.281546
2270.000000	0.282572
2271.000000	0.282389
2272.000000	0.283704
2273.000000	0.284311
2274.000000	0.282885
2275.000000	0.282299
2276.000000	0.282819
2277.000000	0.281883
2278.000000	0.279871
2279.000000	0.279864
2280.000000	0.280031
2281.000000	0.279053
2282.000000	0.279466
2283.000000	0.279827
2284.000000	0.279267
2285.000000	0.279313
2286.000000	0.280218
2287.000000	0.278797
2288.000000	0.278354
2289.000000	0.277911
2290.000000	0.275633
2291.000000	0.275158
2292.000000	0.275914
2293.000000	0.277640
2294.000000	0.278172
2295.000000	0.279492
2296.000000	0.280362
2297.000000	0.279721
2298.000000	0.279197
2299.000000	0.279246
2300.000000	0.278635
2301.000000	0.276054
2302.000000	0.276335
2303.000000	0.278325
2304.000000	0.279528
2305.000000	0.282556
2306.000000	0.283540
2307.000000	0.282900
2308.000000	0.283475
2309.000000	0.281849
2310.000000	0.279512
2311.000000	0.281093
2312.000000	0.282099
2313.000000	0.281962
2314.000000	0.284436
2315.000000	0.282323
2316.000000	0.280058
2317.000000	0.281906
2318.000000	0.281635
2319.000000	0.281725
2320.000000	0.281039
2321.000000	0.280520
2322.000000	0.282366
2323.000000	0.283627
2324.000000	0.286383
2325.000000	0.288853
2326.000000	0.286933
2327.000000	0.284422
2328.000000	0.281941
2329.000000	0.278508
2330.000000	0.277079
2331.000000	0.277937
2332.000000	0.281202
2333.000000	0.284401
2334.000000	0.284836
2335.000000	0.285162
2336.000000	0.282460
2337.000000	0.281566
2338.000000	0.281999
2339.000000	0.282213
2340.000000	0.282766
2341.000000	0.284206
2342.000000	0.285125
2343.000000	0.286388
2344.000000	0.289825
2345.000000	0.290604
2346.000000	0.289513
2347.000000	0.288659
2348.000000	0.286259
2349.000000	0.285875
2350.000000	0.285500
2351.000000	0.285090
2352.000000	0.285583
2353.000000	0.284549
2354.000000	0.283157
2355.000000	0.282524
2356.000000	0.277657
2357.000000	0.274946
2358.000000	0.274927
2359.000000	0.272850
2360.000000	0.274710
2361.000000	0.277785
2362.000000	0.275944
2363.000000	0.274830
2364.000000	0.274925
2365.000000	0.273188
2366.000000	0.274680
2367.000000	0.278288
2368.000000	0.280118
2369.000000	0.280387
2370.000000	0.277491
2371.000000	0.275730
2372.000000	0.277032
2373.000000	0.281990
2374.000000	0.287648
2375.000000	0.289760
2376.000000	0.290164
2377.000000	0.284905
2378.000000	0.280805
2379.000000	0.278589
2380.000000	0.275411
2381.000000	0.274442
2382.000000	0.271116
2383.000000	0.272417
2384.000000	0.273614
2385.000000	0.271816
2386.000000	0.277034
2387.000000	0.278401
2388.000000	0.275277
2389.000000	0.277098
2390.000000	0.274530
2391.000000	0.269223
2392.000000	0.267646
2393.000000	0.267855
2394.000000	0.272317
2395.000000	0.276729
2396.000000	0.280815
2397.000000	0.283309
2398.000000	0.281828
2399.000000	0.275884
2400.000000	0.267870
2401.000000	0.264945
2402.000000	0.260924
2403.000000	0.262453
2404.000000	0.269105
2405.000000	0.268812
2406.000000	0.271753
2407.000000	0.274438
2408.000000	0.275306
2409.000000	0.282683
2410.000000	0.285580
2411.000000	0.283981
2412.000000	0.283846
2413.000000	0.278665
2414.000000	0.271312
2415.000000	0.262053
2416.000000	0.256679
2417.000000	0.248448
2418.000000	0.244359
2419.000000	0.262688
2420.000000	0.267294
2421.000000	0.276373
2422.000000	0.291332
2423.000000	0.289783
2424.000000	0.292663
2425.000000	0.287529
2426.000000	0.279250
2427.000000	0.269327
2428.000000	0.264354
2429.000000	0.263453
2430.000000	0.260481
2431.000000	0.266335
2432.000000	0.272185
2433.000000	0.285510
2434.000000	0.294112
2435.000000	0.287490
2436.000000	0.279338
2437.000000	0.263045
2438.000000	0.258079
2439.000000	0.261825
2440.000000	0.263518
2441.000000	0.280302
2442.000000	0.287084
2443.000000	0.284098
2444.000000	0.292536
2445.000000	0.290504
2446.000000	0.281817
2447.000000	0.287739
2448.000000	0.280702
2449.000000	0.266065
2450.000000	0.268089
2451.000000	0.263872
2452.000000	0.266440
2453.000000	0.281281
2454.000000	0.281218
2455.000000	0.281548
2456.000000	0.287803
2457.000000	0.280953
2458.000000	0.275038
2459.000000	0.280856
2460.000000	0.280198
2461.000000	0.286374
2462.000000	0.305248
2463.000000	0.304558
2464.000000	0.292267
2465.000000	0.277286
2466.000000	0.261006
2467.000000	0.258168
2468.000000	0.253692
2469.000000	0.252193
2470.000000	0.258809
2471.000000	0.268817
2472.000000	0.284754
2473.000000	0.279141
2474.000000	0.261284
2475.000000	0.246448
2476.000000	0.224801
2477.000000	0.225634
2478.000000	0.229421
2479.000000	0.235587
2480.000000	0.260164
2481.000000	0.269468
2482.000000	0.286741
2483.000000	0.296815
2484.000000	0.280926
2485.000000	0.299335
2486.000000	0.303667
2487.000000	0.279719
2488.000000	0.279886
2489.000000	0.263557
2490.000000	0.246295
2491.000000	0.218696
2492.000000	0.206491
2493.000000	0.191009
2494.000000	0.213373
2495.000000	0.318212
2496.000000	0.345501
2497.000000	0.344515
2498.000000	0.339928
2499.000000	0.263622
2500.000000	0.253900
