# Wavelength	NAu-1-50_HEX-40_FV7-10_00000.asd.rts.txt
350.000000	0.161886
351.000000	0.148735
352.000000	0.130655
353.000000	0.125718
354.000000	0.135216
355.000000	0.123660
356.000000	0.122346
357.000000	0.132372
358.000000	0.133001
359.000000	0.134710
360.000000	0.133356
361.000000	0.124766
362.000000	0.129392
363.000000	0.133748
364.000000	0.129794
365.000000	0.128648
366.000000	0.133257
367.000000	0.139528
368.000000	0.137261
369.000000	0.132954
370.000000	0.130211
371.000000	0.131467
372.000000	0.134922
373.000000	0.136952
374.000000	0.136945
375.000000	0.142085
376.000000	0.142493
377.000000	0.138011
378.000000	0.137690
379.000000	0.137739
380.000000	0.138080
381.000000	0.139855
382.000000	0.141933
383.000000	0.143431
384.000000	0.144071
385.000000	0.143796
386.000000	0.146299
387.000000	0.150621
388.000000	0.150411
389.000000	0.152109
390.000000	0.154712
391.000000	0.154990
392.000000	0.157336
393.000000	0.159472
394.000000	0.159782
395.000000	0.161823
396.000000	0.162956
397.000000	0.163014
398.000000	0.165345
399.000000	0.167454
400.000000	0.169235
401.000000	0.171316
402.000000	0.173705
403.000000	0.175252
404.000000	0.175513
405.000000	0.176737
406.000000	0.179315
407.000000	0.182623
408.000000	0.184414
409.000000	0.185496
410.000000	0.186284
411.000000	0.187066
412.000000	0.188344
413.000000	0.189712
414.000000	0.190695
415.000000	0.191628
416.000000	0.192593
417.000000	0.193565
418.000000	0.194421
419.000000	0.194662
420.000000	0.194525
421.000000	0.194886
422.000000	0.195703
423.000000	0.196207
424.000000	0.195689
425.000000	0.195922
426.000000	0.196513
427.000000	0.196840
428.000000	0.196449
429.000000	0.196308
430.000000	0.196596
431.000000	0.196470
432.000000	0.196204
433.000000	0.195893
434.000000	0.195686
435.000000	0.195785
436.000000	0.195867
437.000000	0.195640
438.000000	0.195623
439.000000	0.195048
440.000000	0.193944
441.000000	0.193753
442.000000	0.193458
443.000000	0.192867
444.000000	0.192437
445.000000	0.192634
446.000000	0.193117
447.000000	0.193276
448.000000	0.193659
449.000000	0.194655
450.000000	0.196364
451.000000	0.198135
452.000000	0.200392
453.000000	0.203050
454.000000	0.205615
455.000000	0.208737
456.000000	0.212210
457.000000	0.215358
458.000000	0.218401
459.000000	0.221374
460.000000	0.224294
461.000000	0.226966
462.000000	0.229522
463.000000	0.231827
464.000000	0.233708
465.000000	0.235243
466.000000	0.236542
467.000000	0.237876
468.000000	0.239265
469.000000	0.240527
470.000000	0.241617
471.000000	0.242569
472.000000	0.243476
473.000000	0.244399
474.000000	0.245224
475.000000	0.245785
476.000000	0.246291
477.000000	0.247036
478.000000	0.247943
479.000000	0.248902
480.000000	0.249470
481.000000	0.250100
482.000000	0.250822
483.000000	0.251423
484.000000	0.252213
485.000000	0.253013
486.000000	0.253815
487.000000	0.254327
488.000000	0.254980
489.000000	0.255821
490.000000	0.256630
491.000000	0.257343
492.000000	0.258063
493.000000	0.258795
494.000000	0.259536
495.000000	0.260415
496.000000	0.261384
497.000000	0.262053
498.000000	0.262753
499.000000	0.263644
500.000000	0.264501
501.000000	0.265349
502.000000	0.266236
503.000000	0.267148
504.000000	0.268213
505.000000	0.269271
506.000000	0.270178
507.000000	0.271100
508.000000	0.272050
509.000000	0.273005
510.000000	0.274064
511.000000	0.275089
512.000000	0.276095
513.000000	0.277155
514.000000	0.278223
515.000000	0.279282
516.000000	0.280275
517.000000	0.281430
518.000000	0.282668
519.000000	0.283817
520.000000	0.284984
521.000000	0.286111
522.000000	0.287256
523.000000	0.288678
524.000000	0.289986
525.000000	0.291219
526.000000	0.292684
527.000000	0.294122
528.000000	0.295475
529.000000	0.296803
530.000000	0.298158
531.000000	0.299627
532.000000	0.301139
533.000000	0.302611
534.000000	0.304086
535.000000	0.305549
536.000000	0.306964
537.000000	0.308433
538.000000	0.309972
539.000000	0.311538
540.000000	0.313022
541.000000	0.314503
542.000000	0.316090
543.000000	0.317630
544.000000	0.319190
545.000000	0.320728
546.000000	0.322271
547.000000	0.323799
548.000000	0.325329
549.000000	0.326783
550.000000	0.328332
551.000000	0.329911
552.000000	0.331352
553.000000	0.332845
554.000000	0.334374
555.000000	0.335897
556.000000	0.337338
557.000000	0.338719
558.000000	0.340179
559.000000	0.341569
560.000000	0.342962
561.000000	0.344356
562.000000	0.345537
563.000000	0.346794
564.000000	0.348102
565.000000	0.349256
566.000000	0.350392
567.000000	0.351513
568.000000	0.352594
569.000000	0.353669
570.000000	0.354639
571.000000	0.355523
572.000000	0.356488
573.000000	0.357386
574.000000	0.358198
575.000000	0.359018
576.000000	0.359800
577.000000	0.360473
578.000000	0.361100
579.000000	0.361846
580.000000	0.362504
581.000000	0.363035
582.000000	0.363691
583.000000	0.364225
584.000000	0.364646
585.000000	0.365098
586.000000	0.365457
587.000000	0.365776
588.000000	0.366146
589.000000	0.366580
590.000000	0.366971
591.000000	0.367255
592.000000	0.367477
593.000000	0.367742
594.000000	0.368049
595.000000	0.368307
596.000000	0.368412
597.000000	0.368513
598.000000	0.368709
599.000000	0.368773
600.000000	0.368798
601.000000	0.368807
602.000000	0.368871
603.000000	0.368928
604.000000	0.368951
605.000000	0.368927
606.000000	0.368958
607.000000	0.369054
608.000000	0.369161
609.000000	0.369242
610.000000	0.369311
611.000000	0.369397
612.000000	0.369521
613.000000	0.369596
614.000000	0.369615
615.000000	0.369610
616.000000	0.369562
617.000000	0.369484
618.000000	0.369556
619.000000	0.369591
620.000000	0.369558
621.000000	0.369559
622.000000	0.369599
623.000000	0.369621
624.000000	0.369599
625.000000	0.369675
626.000000	0.369724
627.000000	0.369732
628.000000	0.369879
629.000000	0.370057
630.000000	0.370091
631.000000	0.370115
632.000000	0.370180
633.000000	0.370292
634.000000	0.370422
635.000000	0.370612
636.000000	0.370818
637.000000	0.370984
638.000000	0.371127
639.000000	0.371223
640.000000	0.371356
641.000000	0.371501
642.000000	0.371626
643.000000	0.371722
644.000000	0.371800
645.000000	0.371908
646.000000	0.372071
647.000000	0.372261
648.000000	0.372457
649.000000	0.372723
650.000000	0.373003
651.000000	0.373149
652.000000	0.373297
653.000000	0.373532
654.000000	0.373805
655.000000	0.374041
656.000000	0.374300
657.000000	0.374572
658.000000	0.374854
659.000000	0.375161
660.000000	0.375471
661.000000	0.375760
662.000000	0.376053
663.000000	0.376386
664.000000	0.376669
665.000000	0.377069
666.000000	0.377518
667.000000	0.377878
668.000000	0.378217
669.000000	0.378549
670.000000	0.378897
671.000000	0.379288
672.000000	0.379695
673.000000	0.380086
674.000000	0.380441
675.000000	0.380825
676.000000	0.381230
677.000000	0.381659
678.000000	0.382189
679.000000	0.382702
680.000000	0.383145
681.000000	0.383621
682.000000	0.384132
683.000000	0.384586
684.000000	0.385071
685.000000	0.385538
686.000000	0.386025
687.000000	0.386531
688.000000	0.387084
689.000000	0.387643
690.000000	0.388226
691.000000	0.388855
692.000000	0.389441
693.000000	0.390041
694.000000	0.390650
695.000000	0.391258
696.000000	0.391887
697.000000	0.392561
698.000000	0.393163
699.000000	0.393761
700.000000	0.394418
701.000000	0.395037
702.000000	0.395646
703.000000	0.396237
704.000000	0.396814
705.000000	0.397458
706.000000	0.398149
707.000000	0.398937
708.000000	0.399689
709.000000	0.400374
710.000000	0.401023
711.000000	0.401686
712.000000	0.402370
713.000000	0.403084
714.000000	0.403751
715.000000	0.404395
716.000000	0.405044
717.000000	0.405696
718.000000	0.406374
719.000000	0.407068
720.000000	0.407765
721.000000	0.408362
722.000000	0.408939
723.000000	0.409601
724.000000	0.410243
725.000000	0.410874
726.000000	0.411571
727.000000	0.412213
728.000000	0.412841
729.000000	0.413422
730.000000	0.413886
731.000000	0.414404
732.000000	0.414943
733.000000	0.415522
734.000000	0.416077
735.000000	0.416537
736.000000	0.417074
737.000000	0.417604
738.000000	0.418086
739.000000	0.418613
740.000000	0.419031
741.000000	0.419449
742.000000	0.419852
743.000000	0.420223
744.000000	0.420664
745.000000	0.421011
746.000000	0.421380
747.000000	0.421825
748.000000	0.422303
749.000000	0.422744
750.000000	0.423066
751.000000	0.423335
752.000000	0.423602
753.000000	0.423883
754.000000	0.424122
755.000000	0.424405
756.000000	0.424679
757.000000	0.424821
758.000000	0.425026
759.000000	0.425286
760.000000	0.425468
761.000000	0.425570
762.000000	0.425711
763.000000	0.425862
764.000000	0.426010
765.000000	0.426082
766.000000	0.426131
767.000000	0.426198
768.000000	0.426207
769.000000	0.426219
770.000000	0.426243
771.000000	0.426190
772.000000	0.426216
773.000000	0.426191
774.000000	0.426070
775.000000	0.426001
776.000000	0.425964
777.000000	0.425894
778.000000	0.425766
779.000000	0.425587
780.000000	0.425387
781.000000	0.425189
782.000000	0.425041
783.000000	0.424980
784.000000	0.424788
785.000000	0.424559
786.000000	0.424313
787.000000	0.424060
788.000000	0.423826
789.000000	0.423545
790.000000	0.423182
791.000000	0.422791
792.000000	0.422470
793.000000	0.422192
794.000000	0.421932
795.000000	0.421755
796.000000	0.421442
797.000000	0.421013
798.000000	0.420755
799.000000	0.420428
800.000000	0.420030
801.000000	0.419627
802.000000	0.419233
803.000000	0.418857
804.000000	0.418528
805.000000	0.418136
806.000000	0.417717
807.000000	0.417343
808.000000	0.416910
809.000000	0.416587
810.000000	0.416222
811.000000	0.415699
812.000000	0.415254
813.000000	0.414785
814.000000	0.414267
815.000000	0.413771
816.000000	0.413313
817.000000	0.412874
818.000000	0.412347
819.000000	0.411999
820.000000	0.411654
821.000000	0.411184
822.000000	0.410743
823.000000	0.410295
824.000000	0.409801
825.000000	0.409373
826.000000	0.408939
827.000000	0.408495
828.000000	0.408092
829.000000	0.407672
830.000000	0.407130
831.000000	0.406592
832.000000	0.406091
833.000000	0.405665
834.000000	0.405292
835.000000	0.404962
836.000000	0.404544
837.000000	0.404102
838.000000	0.403663
839.000000	0.403171
840.000000	0.402687
841.000000	0.402216
842.000000	0.401722
843.000000	0.401338
844.000000	0.401002
845.000000	0.400642
846.000000	0.400288
847.000000	0.399958
848.000000	0.399606
849.000000	0.399212
850.000000	0.398716
851.000000	0.398191
852.000000	0.397750
853.000000	0.397407
854.000000	0.397035
855.000000	0.396720
856.000000	0.396353
857.000000	0.395823
858.000000	0.395429
859.000000	0.395152
860.000000	0.394721
861.000000	0.394367
862.000000	0.394111
863.000000	0.393791
864.000000	0.393434
865.000000	0.393044
866.000000	0.392681
867.000000	0.392417
868.000000	0.392121
869.000000	0.391719
870.000000	0.391309
871.000000	0.390813
872.000000	0.390430
873.000000	0.390166
874.000000	0.389888
875.000000	0.389483
876.000000	0.389089
877.000000	0.388832
878.000000	0.388489
879.000000	0.388197
880.000000	0.387882
881.000000	0.387645
882.000000	0.387389
883.000000	0.387133
884.000000	0.386862
885.000000	0.386632
886.000000	0.386388
887.000000	0.386124
888.000000	0.385841
889.000000	0.385580
890.000000	0.385251
891.000000	0.385000
892.000000	0.384813
893.000000	0.384500
894.000000	0.384186
895.000000	0.384042
896.000000	0.383854
897.000000	0.383623
898.000000	0.383418
899.000000	0.383246
900.000000	0.383045
901.000000	0.382807
902.000000	0.382776
903.000000	0.382618
904.000000	0.382447
905.000000	0.382310
906.000000	0.382119
907.000000	0.381887
908.000000	0.381711
909.000000	0.381539
910.000000	0.381333
911.000000	0.381176
912.000000	0.381138
913.000000	0.381063
914.000000	0.380919
915.000000	0.380796
916.000000	0.380668
917.000000	0.380550
918.000000	0.380427
919.000000	0.380284
920.000000	0.380238
921.000000	0.380221
922.000000	0.380217
923.000000	0.380198
924.000000	0.380164
925.000000	0.379987
926.000000	0.379747
927.000000	0.379761
928.000000	0.379711
929.000000	0.379548
930.000000	0.379352
931.000000	0.379346
932.000000	0.379335
933.000000	0.379261
934.000000	0.379107
935.000000	0.378999
936.000000	0.379060
937.000000	0.379155
938.000000	0.378923
939.000000	0.378889
940.000000	0.378964
941.000000	0.378896
942.000000	0.378752
943.000000	0.378691
944.000000	0.378693
945.000000	0.378944
946.000000	0.379005
947.000000	0.378954
948.000000	0.378913
949.000000	0.378736
950.000000	0.378684
951.000000	0.378699
952.000000	0.378571
953.000000	0.378505
954.000000	0.378511
955.000000	0.378453
956.000000	0.378243
957.000000	0.378336
958.000000	0.378491
959.000000	0.378431
960.000000	0.378651
961.000000	0.378860
962.000000	0.378930
963.000000	0.379060
964.000000	0.378950
965.000000	0.378879
966.000000	0.378972
967.000000	0.379204
968.000000	0.379335
969.000000	0.379224
970.000000	0.379022
971.000000	0.379083
972.000000	0.379229
973.000000	0.379326
974.000000	0.379597
975.000000	0.379795
976.000000	0.379824
977.000000	0.379722
978.000000	0.379816
979.000000	0.379967
980.000000	0.379983
981.000000	0.380233
982.000000	0.380311
983.000000	0.380511
984.000000	0.380861
985.000000	0.380895
986.000000	0.381062
987.000000	0.381287
988.000000	0.381309
989.000000	0.381198
990.000000	0.381293
991.000000	0.381674
992.000000	0.382271
993.000000	0.382616
994.000000	0.382723
995.000000	0.382900
996.000000	0.383130
997.000000	0.383548
998.000000	0.383823
999.000000	0.383946
1000.000000	0.384115
1001.000000	0.384511
1002.000000	0.384051
1003.000000	0.383322
1004.000000	0.383212
1005.000000	0.383438
1006.000000	0.383756
1007.000000	0.384580
1008.000000	0.385158
1009.000000	0.385346
1010.000000	0.386102
1011.000000	0.386001
1012.000000	0.386593
1013.000000	0.387461
1014.000000	0.386652
1015.000000	0.386619
1016.000000	0.386846
1017.000000	0.386022
1018.000000	0.386974
1019.000000	0.387771
1020.000000	0.388902
1021.000000	0.389253
1022.000000	0.390106
1023.000000	0.390641
1024.000000	0.390411
1025.000000	0.390901
1026.000000	0.390921
1027.000000	0.390939
1028.000000	0.391574
1029.000000	0.392012
1030.000000	0.392391
1031.000000	0.393050
1032.000000	0.393476
1033.000000	0.393589
1034.000000	0.393953
1035.000000	0.394778
1036.000000	0.395149
1037.000000	0.395347
1038.000000	0.395406
1039.000000	0.395393
1040.000000	0.395167
1041.000000	0.395576
1042.000000	0.396609
1043.000000	0.398097
1044.000000	0.399527
1045.000000	0.400287
1046.000000	0.400641
1047.000000	0.401223
1048.000000	0.401707
1049.000000	0.401997
1050.000000	0.402068
1051.000000	0.402399
1052.000000	0.402472
1053.000000	0.402766
1054.000000	0.403672
1055.000000	0.404573
1056.000000	0.405945
1057.000000	0.406415
1058.000000	0.406450
1059.000000	0.406751
1060.000000	0.407059
1061.000000	0.407442
1062.000000	0.408057
1063.000000	0.408928
1064.000000	0.409690
1065.000000	0.410116
1066.000000	0.410658
1067.000000	0.411566
1068.000000	0.412019
1069.000000	0.411836
1070.000000	0.412216
1071.000000	0.412910
1072.000000	0.413297
1073.000000	0.413676
1074.000000	0.414326
1075.000000	0.414805
1076.000000	0.415846
1077.000000	0.416717
1078.000000	0.417161
1079.000000	0.417625
1080.000000	0.417507
1081.000000	0.418054
1082.000000	0.419343
1083.000000	0.419931
1084.000000	0.420417
1085.000000	0.420935
1086.000000	0.420671
1087.000000	0.421292
1088.000000	0.422713
1089.000000	0.423545
1090.000000	0.424370
1091.000000	0.425237
1092.000000	0.425575
1093.000000	0.425950
1094.000000	0.426236
1095.000000	0.426203
1096.000000	0.426821
1097.000000	0.427712
1098.000000	0.428321
1099.000000	0.429095
1100.000000	0.429981
1101.000000	0.430526
1102.000000	0.431265
1103.000000	0.432520
1104.000000	0.433364
1105.000000	0.433862
1106.000000	0.434476
1107.000000	0.435023
1108.000000	0.435507
1109.000000	0.436186
1110.000000	0.436411
1111.000000	0.436966
1112.000000	0.437399
1113.000000	0.438256
1114.000000	0.439572
1115.000000	0.440412
1116.000000	0.441423
1117.000000	0.442035
1118.000000	0.442005
1119.000000	0.442390
1120.000000	0.442795
1121.000000	0.443298
1122.000000	0.444069
1123.000000	0.445074
1124.000000	0.446119
1125.000000	0.446867
1126.000000	0.447474
1127.000000	0.447971
1128.000000	0.448301
1129.000000	0.448227
1130.000000	0.448697
1131.000000	0.449316
1132.000000	0.449962
1133.000000	0.451089
1134.000000	0.451675
1135.000000	0.451846
1136.000000	0.452327
1137.000000	0.452696
1138.000000	0.453094
1139.000000	0.453853
1140.000000	0.454548
1141.000000	0.455044
1142.000000	0.455576
1143.000000	0.456239
1144.000000	0.456788
1145.000000	0.456764
1146.000000	0.456970
1147.000000	0.457295
1148.000000	0.457425
1149.000000	0.457798
1150.000000	0.458596
1151.000000	0.458985
1152.000000	0.459046
1153.000000	0.459417
1154.000000	0.459745
1155.000000	0.460098
1156.000000	0.460660
1157.000000	0.461076
1158.000000	0.461286
1159.000000	0.461580
1160.000000	0.461823
1161.000000	0.462165
1162.000000	0.462638
1163.000000	0.463322
1164.000000	0.463789
1165.000000	0.464178
1166.000000	0.464565
1167.000000	0.464711
1168.000000	0.464996
1169.000000	0.465392
1170.000000	0.465793
1171.000000	0.466237
1172.000000	0.466764
1173.000000	0.467436
1174.000000	0.467854
1175.000000	0.468071
1176.000000	0.468403
1177.000000	0.468753
1178.000000	0.469089
1179.000000	0.469587
1180.000000	0.469895
1181.000000	0.470181
1182.000000	0.470388
1183.000000	0.470749
1184.000000	0.471281
1185.000000	0.471650
1186.000000	0.472054
1187.000000	0.472377
1188.000000	0.472526
1189.000000	0.472793
1190.000000	0.473259
1191.000000	0.473514
1192.000000	0.473802
1193.000000	0.474294
1194.000000	0.474592
1195.000000	0.474922
1196.000000	0.475299
1197.000000	0.475657
1198.000000	0.476045
1199.000000	0.476342
1200.000000	0.476609
1201.000000	0.476826
1202.000000	0.477129
1203.000000	0.477503
1204.000000	0.477691
1205.000000	0.478013
1206.000000	0.478265
1207.000000	0.478467
1208.000000	0.478634
1209.000000	0.479009
1210.000000	0.479257
1211.000000	0.479291
1212.000000	0.479439
1213.000000	0.479768
1214.000000	0.480062
1215.000000	0.480299
1216.000000	0.480560
1217.000000	0.480810
1218.000000	0.481019
1219.000000	0.481230
1220.000000	0.481463
1221.000000	0.481758
1222.000000	0.482122
1223.000000	0.482328
1224.000000	0.482577
1225.000000	0.482711
1226.000000	0.482658
1227.000000	0.482784
1228.000000	0.483101
1229.000000	0.483290
1230.000000	0.483541
1231.000000	0.483630
1232.000000	0.483744
1233.000000	0.484031
1234.000000	0.484402
1235.000000	0.484590
1236.000000	0.484560
1237.000000	0.484723
1238.000000	0.484726
1239.000000	0.484838
1240.000000	0.485137
1241.000000	0.485424
1242.000000	0.485524
1243.000000	0.485711
1244.000000	0.485975
1245.000000	0.486311
1246.000000	0.486566
1247.000000	0.486940
1248.000000	0.487362
1249.000000	0.487580
1250.000000	0.487720
1251.000000	0.487930
1252.000000	0.488035
1253.000000	0.488027
1254.000000	0.488073
1255.000000	0.488041
1256.000000	0.488144
1257.000000	0.488322
1258.000000	0.488569
1259.000000	0.488991
1260.000000	0.489274
1261.000000	0.489357
1262.000000	0.489474
1263.000000	0.489574
1264.000000	0.489561
1265.000000	0.489762
1266.000000	0.489932
1267.000000	0.490187
1268.000000	0.490437
1269.000000	0.490428
1270.000000	0.490588
1271.000000	0.490727
1272.000000	0.490828
1273.000000	0.491099
1274.000000	0.491247
1275.000000	0.491296
1276.000000	0.491280
1277.000000	0.491395
1278.000000	0.491326
1279.000000	0.491338
1280.000000	0.491291
1281.000000	0.491279
1282.000000	0.491455
1283.000000	0.491577
1284.000000	0.491588
1285.000000	0.491634
1286.000000	0.491592
1287.000000	0.491511
1288.000000	0.491685
1289.000000	0.491702
1290.000000	0.491568
1291.000000	0.491470
1292.000000	0.491380
1293.000000	0.491519
1294.000000	0.491640
1295.000000	0.491722
1296.000000	0.491809
1297.000000	0.491781
1298.000000	0.491840
1299.000000	0.491946
1300.000000	0.491986
1301.000000	0.491880
1302.000000	0.491781
1303.000000	0.491884
1304.000000	0.491807
1305.000000	0.491838
1306.000000	0.491736
1307.000000	0.491501
1308.000000	0.491434
1309.000000	0.491423
1310.000000	0.491336
1311.000000	0.491347
1312.000000	0.491261
1313.000000	0.491041
1314.000000	0.490796
1315.000000	0.490602
1316.000000	0.490459
1317.000000	0.490322
1318.000000	0.490112
1319.000000	0.489858
1320.000000	0.489806
1321.000000	0.489874
1322.000000	0.489793
1323.000000	0.489546
1324.000000	0.489332
1325.000000	0.488953
1326.000000	0.488614
1327.000000	0.488480
1328.000000	0.488423
1329.000000	0.488111
1330.000000	0.487612
1331.000000	0.487259
1332.000000	0.486954
1333.000000	0.486624
1334.000000	0.486368
1335.000000	0.486266
1336.000000	0.486240
1337.000000	0.486084
1338.000000	0.485893
1339.000000	0.485786
1340.000000	0.485451
1341.000000	0.485023
1342.000000	0.484815
1343.000000	0.484578
1344.000000	0.484233
1345.000000	0.483943
1346.000000	0.483573
1347.000000	0.483017
1348.000000	0.482667
1349.000000	0.482276
1350.000000	0.481922
1351.000000	0.481580
1352.000000	0.481201
1353.000000	0.480587
1354.000000	0.479909
1355.000000	0.479408
1356.000000	0.479035
1357.000000	0.478764
1358.000000	0.478689
1359.000000	0.478551
1360.000000	0.478300
1361.000000	0.477994
1362.000000	0.477729
1363.000000	0.477379
1364.000000	0.477037
1365.000000	0.476773
1366.000000	0.476459
1367.000000	0.476102
1368.000000	0.475501
1369.000000	0.475189
1370.000000	0.474658
1371.000000	0.473913
1372.000000	0.473345
1373.000000	0.472636
1374.000000	0.471624
1375.000000	0.470609
1376.000000	0.469758
1377.000000	0.468930
1378.000000	0.468050
1379.000000	0.467013
1380.000000	0.465809
1381.000000	0.464346
1382.000000	0.462844
1383.000000	0.461403
1384.000000	0.459680
1385.000000	0.457969
1386.000000	0.456336
1387.000000	0.454453
1388.000000	0.452506
1389.000000	0.450657
1390.000000	0.448650
1391.000000	0.446394
1392.000000	0.444300
1393.000000	0.442071
1394.000000	0.439690
1395.000000	0.437414
1396.000000	0.435246
1397.000000	0.432751
1398.000000	0.430047
1399.000000	0.427477
1400.000000	0.424788
1401.000000	0.422157
1402.000000	0.419694
1403.000000	0.417106
1404.000000	0.414506
1405.000000	0.411799
1406.000000	0.409168
1407.000000	0.406631
1408.000000	0.403967
1409.000000	0.401577
1410.000000	0.399369
1411.000000	0.397005
1412.000000	0.394734
1413.000000	0.392705
1414.000000	0.390872
1415.000000	0.389309
1416.000000	0.387904
1417.000000	0.386608
1418.000000	0.385283
1419.000000	0.384055
1420.000000	0.382935
1421.000000	0.381911
1422.000000	0.380909
1423.000000	0.379898
1424.000000	0.378630
1425.000000	0.377401
1426.000000	0.376075
1427.000000	0.374736
1428.000000	0.373597
1429.000000	0.372365
1430.000000	0.371162
1431.000000	0.370081
1432.000000	0.369112
1433.000000	0.368163
1434.000000	0.367557
1435.000000	0.367272
1436.000000	0.367149
1437.000000	0.367250
1438.000000	0.367512
1439.000000	0.368031
1440.000000	0.368643
1441.000000	0.369491
1442.000000	0.370319
1443.000000	0.371182
1444.000000	0.372090
1445.000000	0.372903
1446.000000	0.373817
1447.000000	0.374635
1448.000000	0.375250
1449.000000	0.375739
1450.000000	0.376029
1451.000000	0.376306
1452.000000	0.376466
1453.000000	0.376483
1454.000000	0.376561
1455.000000	0.376657
1456.000000	0.376700
1457.000000	0.376777
1458.000000	0.376833
1459.000000	0.376769
1460.000000	0.376669
1461.000000	0.376523
1462.000000	0.376432
1463.000000	0.376312
1464.000000	0.376233
1465.000000	0.376415
1466.000000	0.376491
1467.000000	0.376562
1468.000000	0.376726
1469.000000	0.376872
1470.000000	0.377124
1471.000000	0.377514
1472.000000	0.377897
1473.000000	0.378400
1474.000000	0.378823
1475.000000	0.379255
1476.000000	0.379807
1477.000000	0.380427
1478.000000	0.381112
1479.000000	0.381839
1480.000000	0.382666
1481.000000	0.383455
1482.000000	0.384320
1483.000000	0.385127
1484.000000	0.385939
1485.000000	0.386703
1486.000000	0.387369
1487.000000	0.388101
1488.000000	0.388880
1489.000000	0.389673
1490.000000	0.390321
1491.000000	0.391082
1492.000000	0.391823
1493.000000	0.392632
1494.000000	0.393509
1495.000000	0.394217
1496.000000	0.394895
1497.000000	0.395579
1498.000000	0.396181
1499.000000	0.396760
1500.000000	0.397491
1501.000000	0.398090
1502.000000	0.398547
1503.000000	0.399213
1504.000000	0.399884
1505.000000	0.400466
1506.000000	0.401138
1507.000000	0.401738
1508.000000	0.402386
1509.000000	0.403016
1510.000000	0.403526
1511.000000	0.404054
1512.000000	0.404414
1513.000000	0.404745
1514.000000	0.405201
1515.000000	0.405488
1516.000000	0.405775
1517.000000	0.406147
1518.000000	0.406440
1519.000000	0.406712
1520.000000	0.407170
1521.000000	0.407543
1522.000000	0.407952
1523.000000	0.408490
1524.000000	0.408882
1525.000000	0.409144
1526.000000	0.409244
1527.000000	0.409414
1528.000000	0.409728
1529.000000	0.410047
1530.000000	0.410358
1531.000000	0.410726
1532.000000	0.411030
1533.000000	0.411284
1534.000000	0.411623
1535.000000	0.411930
1536.000000	0.412119
1537.000000	0.412435
1538.000000	0.412805
1539.000000	0.412995
1540.000000	0.413169
1541.000000	0.413422
1542.000000	0.413564
1543.000000	0.413745
1544.000000	0.413988
1545.000000	0.414266
1546.000000	0.414549
1547.000000	0.414723
1548.000000	0.414810
1549.000000	0.414842
1550.000000	0.414874
1551.000000	0.414931
1552.000000	0.415026
1553.000000	0.415093
1554.000000	0.415115
1555.000000	0.415104
1556.000000	0.415156
1557.000000	0.415235
1558.000000	0.415342
1559.000000	0.415392
1560.000000	0.415518
1561.000000	0.415778
1562.000000	0.415899
1563.000000	0.416084
1564.000000	0.416205
1565.000000	0.416162
1566.000000	0.416171
1567.000000	0.416322
1568.000000	0.416427
1569.000000	0.416672
1570.000000	0.416822
1571.000000	0.416899
1572.000000	0.416948
1573.000000	0.416946
1574.000000	0.417029
1575.000000	0.417135
1576.000000	0.417308
1577.000000	0.417577
1578.000000	0.417669
1579.000000	0.417826
1580.000000	0.417845
1581.000000	0.417768
1582.000000	0.417767
1583.000000	0.417709
1584.000000	0.417672
1585.000000	0.417792
1586.000000	0.417889
1587.000000	0.417952
1588.000000	0.418044
1589.000000	0.418231
1590.000000	0.418326
1591.000000	0.418359
1592.000000	0.418493
1593.000000	0.418695
1594.000000	0.418841
1595.000000	0.419171
1596.000000	0.419336
1597.000000	0.419415
1598.000000	0.419429
1599.000000	0.419360
1600.000000	0.419293
1601.000000	0.419208
1602.000000	0.419296
1603.000000	0.419581
1604.000000	0.419673
1605.000000	0.419822
1606.000000	0.419888
1607.000000	0.419826
1608.000000	0.419897
1609.000000	0.420162
1610.000000	0.420315
1611.000000	0.420492
1612.000000	0.420562
1613.000000	0.420634
1614.000000	0.420674
1615.000000	0.420765
1616.000000	0.420850
1617.000000	0.420814
1618.000000	0.420923
1619.000000	0.420999
1620.000000	0.421169
1621.000000	0.421579
1622.000000	0.421913
1623.000000	0.422203
1624.000000	0.422457
1625.000000	0.422479
1626.000000	0.422560
1627.000000	0.422651
1628.000000	0.422863
1629.000000	0.423167
1630.000000	0.423408
1631.000000	0.423530
1632.000000	0.423718
1633.000000	0.423960
1634.000000	0.424149
1635.000000	0.424399
1636.000000	0.424657
1637.000000	0.424932
1638.000000	0.425098
1639.000000	0.425318
1640.000000	0.425535
1641.000000	0.425705
1642.000000	0.425931
1643.000000	0.426343
1644.000000	0.426639
1645.000000	0.426871
1646.000000	0.427050
1647.000000	0.427248
1648.000000	0.427350
1649.000000	0.427467
1650.000000	0.427646
1651.000000	0.427842
1652.000000	0.428113
1653.000000	0.428378
1654.000000	0.428693
1655.000000	0.429015
1656.000000	0.429193
1657.000000	0.429438
1658.000000	0.429639
1659.000000	0.429806
1660.000000	0.430234
1661.000000	0.430721
1662.000000	0.431123
1663.000000	0.431622
1664.000000	0.431956
1665.000000	0.432150
1666.000000	0.432438
1667.000000	0.432610
1668.000000	0.432868
1669.000000	0.433075
1670.000000	0.433275
1671.000000	0.433687
1672.000000	0.433985
1673.000000	0.434167
1674.000000	0.434440
1675.000000	0.434723
1676.000000	0.434737
1677.000000	0.434899
1678.000000	0.435068
1679.000000	0.435081
1680.000000	0.435194
1681.000000	0.435311
1682.000000	0.435356
1683.000000	0.435463
1684.000000	0.435731
1685.000000	0.435958
1686.000000	0.436061
1687.000000	0.436278
1688.000000	0.436342
1689.000000	0.436402
1690.000000	0.436462
1691.000000	0.436511
1692.000000	0.436526
1693.000000	0.436619
1694.000000	0.436683
1695.000000	0.436776
1696.000000	0.437047
1697.000000	0.437087
1698.000000	0.437095
1699.000000	0.437238
1700.000000	0.437265
1701.000000	0.437462
1702.000000	0.437654
1703.000000	0.437789
1704.000000	0.437997
1705.000000	0.438201
1706.000000	0.438547
1707.000000	0.438774
1708.000000	0.438912
1709.000000	0.438922
1710.000000	0.438885
1711.000000	0.438954
1712.000000	0.439020
1713.000000	0.439133
1714.000000	0.439447
1715.000000	0.439623
1716.000000	0.439783
1717.000000	0.439893
1718.000000	0.439882
1719.000000	0.439877
1720.000000	0.439857
1721.000000	0.439927
1722.000000	0.440081
1723.000000	0.440143
1724.000000	0.440252
1725.000000	0.440385
1726.000000	0.440359
1727.000000	0.440356
1728.000000	0.440256
1729.000000	0.440252
1730.000000	0.440430
1731.000000	0.440558
1732.000000	0.440897
1733.000000	0.441053
1734.000000	0.440819
1735.000000	0.440836
1736.000000	0.440810
1737.000000	0.440915
1738.000000	0.441169
1739.000000	0.441430
1740.000000	0.441787
1741.000000	0.441924
1742.000000	0.442044
1743.000000	0.442178
1744.000000	0.442137
1745.000000	0.442194
1746.000000	0.442318
1747.000000	0.442387
1748.000000	0.442367
1749.000000	0.442262
1750.000000	0.442231
1751.000000	0.442489
1752.000000	0.442661
1753.000000	0.442592
1754.000000	0.442633
1755.000000	0.442560
1756.000000	0.442460
1757.000000	0.442471
1758.000000	0.442441
1759.000000	0.442248
1760.000000	0.442125
1761.000000	0.441910
1762.000000	0.441888
1763.000000	0.442113
1764.000000	0.442127
1765.000000	0.442054
1766.000000	0.442144
1767.000000	0.442026
1768.000000	0.442008
1769.000000	0.442470
1770.000000	0.442599
1771.000000	0.442441
1772.000000	0.442360
1773.000000	0.442032
1774.000000	0.442030
1775.000000	0.442361
1776.000000	0.442354
1777.000000	0.442270
1778.000000	0.442267
1779.000000	0.442083
1780.000000	0.442027
1781.000000	0.442055
1782.000000	0.442187
1783.000000	0.442339
1784.000000	0.442697
1785.000000	0.442996
1786.000000	0.443345
1787.000000	0.443844
1788.000000	0.443994
1789.000000	0.444237
1790.000000	0.444321
1791.000000	0.444292
1792.000000	0.444432
1793.000000	0.444606
1794.000000	0.444768
1795.000000	0.444866
1796.000000	0.445009
1797.000000	0.445108
1798.000000	0.444918
1799.000000	0.444978
1800.000000	0.445366
1801.000000	0.444845
1802.000000	0.444790
1803.000000	0.445627
1804.000000	0.445847
1805.000000	0.445965
1806.000000	0.446694
1807.000000	0.448256
1808.000000	0.448561
1809.000000	0.448075
1810.000000	0.448965
1811.000000	0.448990
1812.000000	0.447708
1813.000000	0.447682
1814.000000	0.448607
1815.000000	0.448812
1816.000000	0.449027
1817.000000	0.448894
1818.000000	0.448211
1819.000000	0.448397
1820.000000	0.448802
1821.000000	0.448118
1822.000000	0.448070
1823.000000	0.448233
1824.000000	0.448293
1825.000000	0.448264
1826.000000	0.448390
1827.000000	0.448634
1828.000000	0.448521
1829.000000	0.448444
1830.000000	0.447912
1831.000000	0.447512
1832.000000	0.446750
1833.000000	0.446517
1834.000000	0.446814
1835.000000	0.446490
1836.000000	0.445331
1837.000000	0.445318
1838.000000	0.445565
1839.000000	0.445616
1840.000000	0.446630
1841.000000	0.447017
1842.000000	0.446628
1843.000000	0.444930
1844.000000	0.444212
1845.000000	0.443184
1846.000000	0.442543
1847.000000	0.442264
1848.000000	0.441279
1849.000000	0.441284
1850.000000	0.441006
1851.000000	0.440305
1852.000000	0.439637
1853.000000	0.438581
1854.000000	0.436450
1855.000000	0.434972
1856.000000	0.433281
1857.000000	0.432074
1858.000000	0.431649
1859.000000	0.430371
1860.000000	0.428539
1861.000000	0.427584
1862.000000	0.425902
1863.000000	0.423398
1864.000000	0.421547
1865.000000	0.419928
1866.000000	0.417941
1867.000000	0.415878
1868.000000	0.413946
1869.000000	0.411630
1870.000000	0.409170
1871.000000	0.406290
1872.000000	0.402640
1873.000000	0.398993
1874.000000	0.394809
1875.000000	0.390767
1876.000000	0.386137
1877.000000	0.381989
1878.000000	0.377581
1879.000000	0.373118
1880.000000	0.368888
1881.000000	0.364328
1882.000000	0.360002
1883.000000	0.354964
1884.000000	0.349682
1885.000000	0.343809
1886.000000	0.337817
1887.000000	0.331114
1888.000000	0.324973
1889.000000	0.318534
1890.000000	0.312098
1891.000000	0.305558
1892.000000	0.298711
1893.000000	0.292026
1894.000000	0.285811
1895.000000	0.279760
1896.000000	0.274473
1897.000000	0.268497
1898.000000	0.262290
1899.000000	0.256184
1900.000000	0.249673
1901.000000	0.244023
1902.000000	0.238968
1903.000000	0.234089
1904.000000	0.229528
1905.000000	0.225328
1906.000000	0.221754
1907.000000	0.218738
1908.000000	0.216249
1909.000000	0.214223
1910.000000	0.212236
1911.000000	0.209215
1912.000000	0.206221
1913.000000	0.204133
1914.000000	0.202167
1915.000000	0.201471
1916.000000	0.201645
1917.000000	0.200898
1918.000000	0.199939
1919.000000	0.198969
1920.000000	0.197554
1921.000000	0.196264
1922.000000	0.196047
1923.000000	0.195918
1924.000000	0.196229
1925.000000	0.196780
1926.000000	0.197281
1927.000000	0.198111
1928.000000	0.198525
1929.000000	0.198946
1930.000000	0.198937
1931.000000	0.198630
1932.000000	0.198425
1933.000000	0.198423
1934.000000	0.198961
1935.000000	0.200172
1936.000000	0.200997
1937.000000	0.201469
1938.000000	0.201824
1939.000000	0.202179
1940.000000	0.202214
1941.000000	0.202402
1942.000000	0.202554
1943.000000	0.202459
1944.000000	0.201889
1945.000000	0.201479
1946.000000	0.201626
1947.000000	0.201559
1948.000000	0.201474
1949.000000	0.201335
1950.000000	0.200749
1951.000000	0.200366
1952.000000	0.199975
1953.000000	0.200046
1954.000000	0.200526
1955.000000	0.200914
1956.000000	0.201381
1957.000000	0.201829
1958.000000	0.201417
1959.000000	0.201517
1960.000000	0.201726
1961.000000	0.201390
1962.000000	0.201494
1963.000000	0.201956
1964.000000	0.202258
1965.000000	0.202606
1966.000000	0.203113
1967.000000	0.203343
1968.000000	0.203606
1969.000000	0.203582
1970.000000	0.203942
1971.000000	0.204573
1972.000000	0.204364
1973.000000	0.204227
1974.000000	0.203812
1975.000000	0.203950
1976.000000	0.204037
1977.000000	0.204867
1978.000000	0.205568
1979.000000	0.206631
1980.000000	0.207683
1981.000000	0.208281
1982.000000	0.209519
1983.000000	0.210845
1984.000000	0.211747
1985.000000	0.212408
1986.000000	0.213077
1987.000000	0.213530
1988.000000	0.214252
1989.000000	0.214799
1990.000000	0.215238
1991.000000	0.216075
1992.000000	0.216304
1993.000000	0.217354
1994.000000	0.219429
1995.000000	0.220725
1996.000000	0.221770
1997.000000	0.222345
1998.000000	0.221278
1999.000000	0.221965
2000.000000	0.223094
2001.000000	0.224779
2002.000000	0.227058
2003.000000	0.228989
2004.000000	0.230368
2005.000000	0.231159
2006.000000	0.231847
2007.000000	0.232810
2008.000000	0.234025
2009.000000	0.235378
2010.000000	0.236736
2011.000000	0.238142
2012.000000	0.239638
2013.000000	0.241217
2014.000000	0.242403
2015.000000	0.243599
2016.000000	0.245597
2017.000000	0.247019
2018.000000	0.248530
2019.000000	0.250322
2020.000000	0.251531
2021.000000	0.252831
2022.000000	0.253925
2023.000000	0.254912
2024.000000	0.255761
2025.000000	0.257005
2026.000000	0.258165
2027.000000	0.259262
2028.000000	0.260779
2029.000000	0.262445
2030.000000	0.263824
2031.000000	0.265481
2032.000000	0.267384
2033.000000	0.268855
2034.000000	0.270177
2035.000000	0.271413
2036.000000	0.272401
2037.000000	0.273203
2038.000000	0.274082
2039.000000	0.274932
2040.000000	0.275819
2041.000000	0.276430
2042.000000	0.277418
2043.000000	0.278374
2044.000000	0.279004
2045.000000	0.279521
2046.000000	0.280171
2047.000000	0.281047
2048.000000	0.281846
2049.000000	0.283093
2050.000000	0.284644
2051.000000	0.285694
2052.000000	0.286472
2053.000000	0.287147
2054.000000	0.287659
2055.000000	0.288732
2056.000000	0.289539
2057.000000	0.290750
2058.000000	0.292255
2059.000000	0.293352
2060.000000	0.294340
2061.000000	0.295106
2062.000000	0.296102
2063.000000	0.297035
2064.000000	0.298043
2065.000000	0.299724
2066.000000	0.300900
2067.000000	0.302177
2068.000000	0.303249
2069.000000	0.303994
2070.000000	0.304560
2071.000000	0.305370
2072.000000	0.305998
2073.000000	0.306846
2074.000000	0.307867
2075.000000	0.308990
2076.000000	0.310296
2077.000000	0.311389
2078.000000	0.312832
2079.000000	0.313626
2080.000000	0.313625
2081.000000	0.314275
2082.000000	0.314940
2083.000000	0.315784
2084.000000	0.316510
2085.000000	0.317512
2086.000000	0.318958
2087.000000	0.320162
2088.000000	0.320982
2089.000000	0.321680
2090.000000	0.322405
2091.000000	0.322435
2092.000000	0.322864
2093.000000	0.323503
2094.000000	0.324660
2095.000000	0.326116
2096.000000	0.327333
2097.000000	0.329082
2098.000000	0.330590
2099.000000	0.330755
2100.000000	0.331275
2101.000000	0.332391
2102.000000	0.333338
2103.000000	0.334646
2104.000000	0.335918
2105.000000	0.336874
2106.000000	0.337232
2107.000000	0.338260
2108.000000	0.339545
2109.000000	0.340701
2110.000000	0.341990
2111.000000	0.342900
2112.000000	0.343711
2113.000000	0.343789
2114.000000	0.343466
2115.000000	0.343383
2116.000000	0.343409
2117.000000	0.343245
2118.000000	0.342795
2119.000000	0.343419
2120.000000	0.343842
2121.000000	0.344081
2122.000000	0.344483
2123.000000	0.345408
2124.000000	0.345717
2125.000000	0.345508
2126.000000	0.345842
2127.000000	0.346496
2128.000000	0.346969
2129.000000	0.347389
2130.000000	0.347970
2131.000000	0.347999
2132.000000	0.348343
2133.000000	0.349414
2134.000000	0.350020
2135.000000	0.350253
2136.000000	0.350363
2137.000000	0.350146
2138.000000	0.348996
2139.000000	0.348785
2140.000000	0.348863
2141.000000	0.348984
2142.000000	0.349588
2143.000000	0.349685
2144.000000	0.349937
2145.000000	0.349976
2146.000000	0.349716
2147.000000	0.350133
2148.000000	0.349889
2149.000000	0.349649
2150.000000	0.349942
2151.000000	0.349388
2152.000000	0.349495
2153.000000	0.349609
2154.000000	0.349171
2155.000000	0.348339
2156.000000	0.347904
2157.000000	0.346954
2158.000000	0.346965
2159.000000	0.348002
2160.000000	0.348547
2161.000000	0.349338
2162.000000	0.349776
2163.000000	0.349744
2164.000000	0.349655
2165.000000	0.349217
2166.000000	0.349450
2167.000000	0.349081
2168.000000	0.348752
2169.000000	0.348493
2170.000000	0.348275
2171.000000	0.348333
2172.000000	0.348498
2173.000000	0.348882
2174.000000	0.349675
2175.000000	0.350109
2176.000000	0.351019
2177.000000	0.351385
2178.000000	0.351299
2179.000000	0.351192
2180.000000	0.350688
2181.000000	0.350331
2182.000000	0.348553
2183.000000	0.348421
2184.000000	0.348703
2185.000000	0.348080
2186.000000	0.348460
2187.000000	0.349306
2188.000000	0.348666
2189.000000	0.347822
2190.000000	0.347627
2191.000000	0.346546
2192.000000	0.346862
2193.000000	0.349525
2194.000000	0.349603
2195.000000	0.349132
2196.000000	0.348492
2197.000000	0.344746
2198.000000	0.343925
2199.000000	0.346083
2200.000000	0.346495
2201.000000	0.347925
2202.000000	0.347708
2203.000000	0.346162
2204.000000	0.341774
2205.000000	0.338552
2206.000000	0.337571
2207.000000	0.335464
2208.000000	0.335278
2209.000000	0.336892
2210.000000	0.338929
2211.000000	0.342408
2212.000000	0.347006
2213.000000	0.349248
2214.000000	0.349763
2215.000000	0.350441
2216.000000	0.349380
2217.000000	0.350589
2218.000000	0.352940
2219.000000	0.354414
2220.000000	0.358032
2221.000000	0.358108
2222.000000	0.355883
2223.000000	0.353547
2224.000000	0.349084
2225.000000	0.345377
2226.000000	0.341411
2227.000000	0.339872
2228.000000	0.342384
2229.000000	0.342781
2230.000000	0.343785
2231.000000	0.344147
2232.000000	0.341804
2233.000000	0.340983
2234.000000	0.340840
2235.000000	0.341531
2236.000000	0.341693
2237.000000	0.341864
2238.000000	0.341761
2239.000000	0.341152
2240.000000	0.341614
2241.000000	0.342300
2242.000000	0.343671
2243.000000	0.345549
2244.000000	0.347668
2245.000000	0.352246
2246.000000	0.353288
2247.000000	0.352088
2248.000000	0.352090
2249.000000	0.351088
2250.000000	0.348918
2251.000000	0.348713
2252.000000	0.349936
2253.000000	0.347034
2254.000000	0.343068
2255.000000	0.341261
2256.000000	0.338814
2257.000000	0.338247
2258.000000	0.340338
2259.000000	0.340226
2260.000000	0.339098
2261.000000	0.337925
2262.000000	0.335669
2263.000000	0.334184
2264.000000	0.333007
2265.000000	0.331531
2266.000000	0.331093
2267.000000	0.328251
2268.000000	0.323595
2269.000000	0.320271
2270.000000	0.315135
2271.000000	0.312463
2272.000000	0.313076
2273.000000	0.311195
2274.000000	0.307979
2275.000000	0.305933
2276.000000	0.304203
2277.000000	0.300880
2278.000000	0.298094
2279.000000	0.297212
2280.000000	0.292711
2281.000000	0.288721
2282.000000	0.287661
2283.000000	0.285276
2284.000000	0.285304
2285.000000	0.286467
2286.000000	0.286532
2287.000000	0.289044
2288.000000	0.289443
2289.000000	0.288056
2290.000000	0.287897
2291.000000	0.286208
2292.000000	0.286670
2293.000000	0.289608
2294.000000	0.291354
2295.000000	0.293588
2296.000000	0.295285
2297.000000	0.296205
2298.000000	0.297216
2299.000000	0.298571
2300.000000	0.298858
2301.000000	0.298725
2302.000000	0.299323
2303.000000	0.298285
2304.000000	0.299333
2305.000000	0.302432
2306.000000	0.303875
2307.000000	0.305587
2308.000000	0.307431
2309.000000	0.306981
2310.000000	0.305268
2311.000000	0.303271
2312.000000	0.303009
2313.000000	0.303222
2314.000000	0.303510
2315.000000	0.304500
2316.000000	0.305692
2317.000000	0.305350
2318.000000	0.304058
2319.000000	0.301340
2320.000000	0.297215
2321.000000	0.295600
2322.000000	0.294778
2323.000000	0.294735
2324.000000	0.294529
2325.000000	0.292434
2326.000000	0.288929
2327.000000	0.284732
2328.000000	0.282987
2329.000000	0.282289
2330.000000	0.283314
2331.000000	0.284020
2332.000000	0.283783
2333.000000	0.284178
2334.000000	0.281596
2335.000000	0.280593
2336.000000	0.280711
2337.000000	0.279440
2338.000000	0.276679
2339.000000	0.276277
2340.000000	0.276945
2341.000000	0.276008
2342.000000	0.276234
2343.000000	0.274951
2344.000000	0.270819
2345.000000	0.268341
2346.000000	0.266504
2347.000000	0.264555
2348.000000	0.263312
2349.000000	0.260945
2350.000000	0.257801
2351.000000	0.255063
2352.000000	0.249949
2353.000000	0.247745
2354.000000	0.246968
2355.000000	0.246156
2356.000000	0.248881
2357.000000	0.251045
2358.000000	0.253320
2359.000000	0.252681
2360.000000	0.249602
2361.000000	0.249997
2362.000000	0.248476
2363.000000	0.246527
2364.000000	0.246129
2365.000000	0.242749
2366.000000	0.238179
2367.000000	0.237685
2368.000000	0.239074
2369.000000	0.237508
2370.000000	0.235732
2371.000000	0.232221
2372.000000	0.227998
2373.000000	0.226314
2374.000000	0.223791
2375.000000	0.224462
2376.000000	0.226620
2377.000000	0.225402
2378.000000	0.223805
2379.000000	0.220920
2380.000000	0.214478
2381.000000	0.209835
2382.000000	0.209012
2383.000000	0.209825
2384.000000	0.214386
2385.000000	0.218135
2386.000000	0.218244
2387.000000	0.218064
2388.000000	0.218684
2389.000000	0.218763
2390.000000	0.219435
2391.000000	0.216301
2392.000000	0.207668
2393.000000	0.201841
2394.000000	0.198372
2395.000000	0.199280
2396.000000	0.201700
2397.000000	0.204151
2398.000000	0.203946
2399.000000	0.201831
2400.000000	0.203902
2401.000000	0.200587
2402.000000	0.200738
2403.000000	0.206791
2404.000000	0.209907
2405.000000	0.214350
2406.000000	0.213924
2407.000000	0.200306
2408.000000	0.182580
2409.000000	0.171543
2410.000000	0.166167
2411.000000	0.167719
2412.000000	0.179170
2413.000000	0.192758
2414.000000	0.196240
2415.000000	0.201125
2416.000000	0.212870
2417.000000	0.213207
2418.000000	0.212118
2419.000000	0.211860
2420.000000	0.202687
2421.000000	0.194468
2422.000000	0.191246
2423.000000	0.196196
2424.000000	0.192474
2425.000000	0.181824
2426.000000	0.179123
2427.000000	0.168530
2428.000000	0.166580
2429.000000	0.178765
2430.000000	0.187277
2431.000000	0.202634
2432.000000	0.205562
2433.000000	0.195963
2434.000000	0.193917
2435.000000	0.180326
2436.000000	0.170591
2437.000000	0.175365
2438.000000	0.178078
2439.000000	0.184867
2440.000000	0.183979
2441.000000	0.180151
2442.000000	0.178760
2443.000000	0.166143
2444.000000	0.165337
2445.000000	0.166816
2446.000000	0.155310
2447.000000	0.162897
2448.000000	0.166058
2449.000000	0.154687
2450.000000	0.160410
2451.000000	0.153786
2452.000000	0.143173
2453.000000	0.153559
2454.000000	0.158789
2455.000000	0.167588
2456.000000	0.174652
2457.000000	0.176283
2458.000000	0.177064
2459.000000	0.171281
2460.000000	0.174839
2461.000000	0.176621
2462.000000	0.179509
2463.000000	0.186301
2464.000000	0.185966
2465.000000	0.184563
2466.000000	0.168551
2467.000000	0.153721
2468.000000	0.148870
2469.000000	0.151868
2470.000000	0.163201
2471.000000	0.164480
2472.000000	0.167640
2473.000000	0.166146
2474.000000	0.165174
2475.000000	0.177572
2476.000000	0.179218
2477.000000	0.169162
2478.000000	0.175893
2479.000000	0.178688
2480.000000	0.166743
2481.000000	0.179640
2482.000000	0.168750
2483.000000	0.148282
2484.000000	0.169791
2485.000000	0.174326
2486.000000	0.185495
2487.000000	0.193136
2488.000000	0.171853
2489.000000	0.177248
2490.000000	0.138695
2491.000000	0.146150
2492.000000	0.118887
2493.000000	0.041182
2494.000000	0.024731
2495.000000	0.013559
2496.000000	0.029153
2497.000000	0.116051
2498.000000	0.141745
2499.000000	0.160006
2500.000000	0.171060
