# Wavelength	Nau-2_90_FV7_10_00000.asd.rts.txt
350.000000	0.060360
351.000000	0.052627
352.000000	0.064610
353.000000	0.067545
354.000000	0.054902
355.000000	0.060326
356.000000	0.063443
357.000000	0.062659
358.000000	0.068134
359.000000	0.062716
360.000000	0.057442
361.000000	0.065765
362.000000	0.069369
363.000000	0.065317
364.000000	0.056825
365.000000	0.058656
366.000000	0.060214
367.000000	0.058728
368.000000	0.057695
369.000000	0.056544
370.000000	0.056087
371.000000	0.056747
372.000000	0.052816
373.000000	0.050885
374.000000	0.054823
375.000000	0.057806
376.000000	0.061705
377.000000	0.065066
378.000000	0.062937
379.000000	0.061186
380.000000	0.060009
381.000000	0.058421
382.000000	0.060603
383.000000	0.061343
384.000000	0.058277
385.000000	0.058973
386.000000	0.060828
387.000000	0.061747
388.000000	0.059826
389.000000	0.057185
390.000000	0.055757
391.000000	0.057095
392.000000	0.059253
393.000000	0.061498
394.000000	0.062830
395.000000	0.059807
396.000000	0.058950
397.000000	0.061253
398.000000	0.060469
399.000000	0.059797
400.000000	0.059855
401.000000	0.060301
402.000000	0.060066
403.000000	0.059851
404.000000	0.060242
405.000000	0.059745
406.000000	0.059659
407.000000	0.060355
408.000000	0.060559
409.000000	0.060612
410.000000	0.060703
411.000000	0.060982
412.000000	0.060977
413.000000	0.061531
414.000000	0.063271
415.000000	0.064136
416.000000	0.063861
417.000000	0.062933
418.000000	0.063163
419.000000	0.063222
420.000000	0.063071
421.000000	0.063762
422.000000	0.063614
423.000000	0.063344
424.000000	0.064214
425.000000	0.064793
426.000000	0.064987
427.000000	0.065002
428.000000	0.065351
429.000000	0.066269
430.000000	0.067312
431.000000	0.066941
432.000000	0.067260
433.000000	0.067824
434.000000	0.067192
435.000000	0.067636
436.000000	0.068402
437.000000	0.068474
438.000000	0.068476
439.000000	0.068637
440.000000	0.069067
441.000000	0.069686
442.000000	0.070165
443.000000	0.070349
444.000000	0.070255
445.000000	0.070573
446.000000	0.071117
447.000000	0.071475
448.000000	0.072150
449.000000	0.072710
450.000000	0.072948
451.000000	0.073504
452.000000	0.074048
453.000000	0.074373
454.000000	0.074410
455.000000	0.074734
456.000000	0.075281
457.000000	0.075672
458.000000	0.076159
459.000000	0.076720
460.000000	0.077268
461.000000	0.077505
462.000000	0.077824
463.000000	0.078291
464.000000	0.078492
465.000000	0.078820
466.000000	0.079324
467.000000	0.079887
468.000000	0.080477
469.000000	0.080883
470.000000	0.080979
471.000000	0.081012
472.000000	0.081316
473.000000	0.081920
474.000000	0.081987
475.000000	0.082384
476.000000	0.083157
477.000000	0.083334
478.000000	0.083619
479.000000	0.084038
480.000000	0.084287
481.000000	0.084748
482.000000	0.085171
483.000000	0.085289
484.000000	0.085615
485.000000	0.085900
486.000000	0.086101
487.000000	0.086393
488.000000	0.086750
489.000000	0.087021
490.000000	0.086941
491.000000	0.087118
492.000000	0.087348
493.000000	0.087256
494.000000	0.087403
495.000000	0.087573
496.000000	0.087589
497.000000	0.087682
498.000000	0.087748
499.000000	0.087790
500.000000	0.087876
501.000000	0.087963
502.000000	0.088003
503.000000	0.087928
504.000000	0.088004
505.000000	0.088190
506.000000	0.088422
507.000000	0.088849
508.000000	0.089268
509.000000	0.089564
510.000000	0.089843
511.000000	0.090156
512.000000	0.090538
513.000000	0.090993
514.000000	0.091421
515.000000	0.091817
516.000000	0.092187
517.000000	0.092564
518.000000	0.092961
519.000000	0.093362
520.000000	0.093778
521.000000	0.094324
522.000000	0.094983
523.000000	0.095510
524.000000	0.096194
525.000000	0.097033
526.000000	0.097900
527.000000	0.098899
528.000000	0.100058
529.000000	0.101378
530.000000	0.102693
531.000000	0.104099
532.000000	0.105621
533.000000	0.107184
534.000000	0.108818
535.000000	0.110489
536.000000	0.112106
537.000000	0.113666
538.000000	0.115200
539.000000	0.116743
540.000000	0.118180
541.000000	0.119562
542.000000	0.120949
543.000000	0.122251
544.000000	0.123486
545.000000	0.124691
546.000000	0.126047
547.000000	0.127429
548.000000	0.128810
549.000000	0.130182
550.000000	0.131656
551.000000	0.133300
552.000000	0.135117
553.000000	0.136999
554.000000	0.138941
555.000000	0.140973
556.000000	0.143208
557.000000	0.145487
558.000000	0.147803
559.000000	0.150159
560.000000	0.152467
561.000000	0.154807
562.000000	0.157244
563.000000	0.159467
564.000000	0.161601
565.000000	0.163752
566.000000	0.165773
567.000000	0.167673
568.000000	0.169452
569.000000	0.171110
570.000000	0.172567
571.000000	0.173851
572.000000	0.175108
573.000000	0.176232
574.000000	0.177213
575.000000	0.178095
576.000000	0.178813
577.000000	0.179402
578.000000	0.179932
579.000000	0.180358
580.000000	0.180650
581.000000	0.180797
582.000000	0.180814
583.000000	0.180804
584.000000	0.180755
585.000000	0.180585
586.000000	0.180281
587.000000	0.179905
588.000000	0.179526
589.000000	0.179108
590.000000	0.178575
591.000000	0.177927
592.000000	0.177359
593.000000	0.176760
594.000000	0.176095
595.000000	0.175404
596.000000	0.174616
597.000000	0.173742
598.000000	0.172775
599.000000	0.171856
600.000000	0.170911
601.000000	0.169849
602.000000	0.168916
603.000000	0.167967
604.000000	0.166942
605.000000	0.165918
606.000000	0.164979
607.000000	0.164098
608.000000	0.163166
609.000000	0.162334
610.000000	0.161545
611.000000	0.160704
612.000000	0.159849
613.000000	0.159042
614.000000	0.158302
615.000000	0.157456
616.000000	0.156627
617.000000	0.155845
618.000000	0.155103
619.000000	0.154407
620.000000	0.153701
621.000000	0.152953
622.000000	0.152293
623.000000	0.151683
624.000000	0.151070
625.000000	0.150429
626.000000	0.149863
627.000000	0.149385
628.000000	0.148855
629.000000	0.148365
630.000000	0.147888
631.000000	0.147475
632.000000	0.147068
633.000000	0.146672
634.000000	0.146304
635.000000	0.146012
636.000000	0.145704
637.000000	0.145360
638.000000	0.145160
639.000000	0.144965
640.000000	0.144791
641.000000	0.144698
642.000000	0.144631
643.000000	0.144595
644.000000	0.144608
645.000000	0.144619
646.000000	0.144677
647.000000	0.144784
648.000000	0.144799
649.000000	0.144900
650.000000	0.145127
651.000000	0.145386
652.000000	0.145601
653.000000	0.145857
654.000000	0.146268
655.000000	0.146639
656.000000	0.147009
657.000000	0.147424
658.000000	0.147929
659.000000	0.148479
660.000000	0.149025
661.000000	0.149531
662.000000	0.150107
663.000000	0.150797
664.000000	0.151552
665.000000	0.152289
666.000000	0.153055
667.000000	0.153890
668.000000	0.154687
669.000000	0.155582
670.000000	0.156611
671.000000	0.157559
672.000000	0.158568
673.000000	0.159667
674.000000	0.160822
675.000000	0.161957
676.000000	0.163114
677.000000	0.164368
678.000000	0.165658
679.000000	0.166999
680.000000	0.168407
681.000000	0.169882
682.000000	0.171425
683.000000	0.172987
684.000000	0.174597
685.000000	0.176269
686.000000	0.177984
687.000000	0.179695
688.000000	0.181513
689.000000	0.183407
690.000000	0.185354
691.000000	0.187324
692.000000	0.189315
693.000000	0.191390
694.000000	0.193577
695.000000	0.195817
696.000000	0.198071
697.000000	0.200317
698.000000	0.202678
699.000000	0.205122
700.000000	0.207604
701.000000	0.210127
702.000000	0.212742
703.000000	0.215417
704.000000	0.218037
705.000000	0.220738
706.000000	0.223516
707.000000	0.226386
708.000000	0.229257
709.000000	0.232165
710.000000	0.235156
711.000000	0.238150
712.000000	0.241193
713.000000	0.244320
714.000000	0.247501
715.000000	0.250709
716.000000	0.253956
717.000000	0.257251
718.000000	0.260529
719.000000	0.263849
720.000000	0.267258
721.000000	0.270612
722.000000	0.273911
723.000000	0.277233
724.000000	0.280613
725.000000	0.283914
726.000000	0.287258
727.000000	0.290719
728.000000	0.294203
729.000000	0.297690
730.000000	0.301145
731.000000	0.304704
732.000000	0.308187
733.000000	0.311601
734.000000	0.315086
735.000000	0.318513
736.000000	0.321943
737.000000	0.325255
738.000000	0.328517
739.000000	0.331841
740.000000	0.335098
741.000000	0.338289
742.000000	0.341439
743.000000	0.344520
744.000000	0.347560
745.000000	0.350567
746.000000	0.353589
747.000000	0.356570
748.000000	0.359515
749.000000	0.362464
750.000000	0.365392
751.000000	0.368258
752.000000	0.370995
753.000000	0.373622
754.000000	0.376208
755.000000	0.378769
756.000000	0.381279
757.000000	0.383658
758.000000	0.385954
759.000000	0.388170
760.000000	0.390248
761.000000	0.392329
762.000000	0.394369
763.000000	0.396337
764.000000	0.398296
765.000000	0.400158
766.000000	0.401922
767.000000	0.403600
768.000000	0.405248
769.000000	0.406821
770.000000	0.408325
771.000000	0.409808
772.000000	0.411309
773.000000	0.412707
774.000000	0.413998
775.000000	0.415168
776.000000	0.416305
777.000000	0.417440
778.000000	0.418513
779.000000	0.419520
780.000000	0.420483
781.000000	0.421422
782.000000	0.422313
783.000000	0.423240
784.000000	0.424048
785.000000	0.424704
786.000000	0.425314
787.000000	0.425914
788.000000	0.426433
789.000000	0.426934
790.000000	0.427403
791.000000	0.427860
792.000000	0.428338
793.000000	0.428803
794.000000	0.429215
795.000000	0.429513
796.000000	0.429769
797.000000	0.430007
798.000000	0.430219
799.000000	0.430429
800.000000	0.430624
801.000000	0.430791
802.000000	0.430960
803.000000	0.431069
804.000000	0.431134
805.000000	0.431149
806.000000	0.431107
807.000000	0.431154
808.000000	0.431275
809.000000	0.431306
810.000000	0.431319
811.000000	0.431333
812.000000	0.431168
813.000000	0.431010
814.000000	0.430886
815.000000	0.430716
816.000000	0.430573
817.000000	0.430458
818.000000	0.430252
819.000000	0.430113
820.000000	0.429926
821.000000	0.429617
822.000000	0.429405
823.000000	0.429177
824.000000	0.428911
825.000000	0.428764
826.000000	0.428538
827.000000	0.428271
828.000000	0.428054
829.000000	0.427839
830.000000	0.427423
831.000000	0.426927
832.000000	0.426424
833.000000	0.425959
834.000000	0.425575
835.000000	0.425282
836.000000	0.424831
837.000000	0.424337
838.000000	0.423941
839.000000	0.423734
840.000000	0.423466
841.000000	0.423128
842.000000	0.422715
843.000000	0.422271
844.000000	0.421875
845.000000	0.421478
846.000000	0.420997
847.000000	0.420553
848.000000	0.420132
849.000000	0.419725
850.000000	0.419262
851.000000	0.418760
852.000000	0.418308
853.000000	0.417945
854.000000	0.417428
855.000000	0.416952
856.000000	0.416545
857.000000	0.415983
858.000000	0.415566
859.000000	0.415257
860.000000	0.414742
861.000000	0.414197
862.000000	0.413772
863.000000	0.413461
864.000000	0.413084
865.000000	0.412627
866.000000	0.412130
867.000000	0.411595
868.000000	0.411084
869.000000	0.410575
870.000000	0.410146
871.000000	0.409647
872.000000	0.409091
873.000000	0.408472
874.000000	0.407976
875.000000	0.407530
876.000000	0.407093
877.000000	0.406543
878.000000	0.405858
879.000000	0.405325
880.000000	0.404876
881.000000	0.404372
882.000000	0.403874
883.000000	0.403405
884.000000	0.402895
885.000000	0.402423
886.000000	0.401951
887.000000	0.401487
888.000000	0.401009
889.000000	0.400661
890.000000	0.400217
891.000000	0.399669
892.000000	0.399289
893.000000	0.398855
894.000000	0.398387
895.000000	0.397825
896.000000	0.397264
897.000000	0.396779
898.000000	0.396391
899.000000	0.395879
900.000000	0.395441
901.000000	0.395084
902.000000	0.394687
903.000000	0.394260
904.000000	0.393836
905.000000	0.393340
906.000000	0.392955
907.000000	0.392568
908.000000	0.392175
909.000000	0.391672
910.000000	0.391120
911.000000	0.390666
912.000000	0.390401
913.000000	0.390081
914.000000	0.389568
915.000000	0.389038
916.000000	0.388682
917.000000	0.388376
918.000000	0.388104
919.000000	0.387800
920.000000	0.387339
921.000000	0.386840
922.000000	0.386445
923.000000	0.386228
924.000000	0.385880
925.000000	0.385489
926.000000	0.385135
927.000000	0.384642
928.000000	0.384215
929.000000	0.383817
930.000000	0.383370
931.000000	0.383032
932.000000	0.382721
933.000000	0.382439
934.000000	0.382151
935.000000	0.381769
936.000000	0.381439
937.000000	0.381141
938.000000	0.380739
939.000000	0.380427
940.000000	0.380122
941.000000	0.379795
942.000000	0.379549
943.000000	0.379422
944.000000	0.379262
945.000000	0.379151
946.000000	0.378837
947.000000	0.378477
948.000000	0.378204
949.000000	0.377784
950.000000	0.377525
951.000000	0.377365
952.000000	0.377033
953.000000	0.376654
954.000000	0.376313
955.000000	0.376025
956.000000	0.375997
957.000000	0.376054
958.000000	0.375927
959.000000	0.375575
960.000000	0.375501
961.000000	0.375151
962.000000	0.374499
963.000000	0.374271
964.000000	0.374085
965.000000	0.373936
966.000000	0.373748
967.000000	0.373672
968.000000	0.373767
969.000000	0.373717
970.000000	0.373310
971.000000	0.373133
972.000000	0.373041
973.000000	0.372878
974.000000	0.372791
975.000000	0.372581
976.000000	0.372442
977.000000	0.372456
978.000000	0.372176
979.000000	0.372168
980.000000	0.372063
981.000000	0.371809
982.000000	0.371924
983.000000	0.372069
984.000000	0.372143
985.000000	0.372166
986.000000	0.372154
987.000000	0.372197
988.000000	0.372132
989.000000	0.371695
990.000000	0.371579
991.000000	0.371665
992.000000	0.371648
993.000000	0.371542
994.000000	0.371525
995.000000	0.371807
996.000000	0.372071
997.000000	0.372086
998.000000	0.372037
999.000000	0.372193
1000.000000	0.372526
1001.000000	0.372205
1002.000000	0.372210
1003.000000	0.372340
1004.000000	0.372366
1005.000000	0.371951
1006.000000	0.371549
1007.000000	0.371226
1008.000000	0.371215
1009.000000	0.370605
1010.000000	0.370633
1011.000000	0.371030
1012.000000	0.371256
1013.000000	0.371789
1014.000000	0.371808
1015.000000	0.371927
1016.000000	0.372497
1017.000000	0.372562
1018.000000	0.373061
1019.000000	0.373201
1020.000000	0.373043
1021.000000	0.372728
1022.000000	0.372464
1023.000000	0.372640
1024.000000	0.372949
1025.000000	0.373070
1026.000000	0.373310
1027.000000	0.373345
1028.000000	0.373311
1029.000000	0.373820
1030.000000	0.374369
1031.000000	0.374289
1032.000000	0.374166
1033.000000	0.374303
1034.000000	0.374339
1035.000000	0.374202
1036.000000	0.374557
1037.000000	0.375193
1038.000000	0.375477
1039.000000	0.376055
1040.000000	0.376553
1041.000000	0.376562
1042.000000	0.376804
1043.000000	0.376954
1044.000000	0.377178
1045.000000	0.377492
1046.000000	0.377344
1047.000000	0.377427
1048.000000	0.377376
1049.000000	0.377678
1050.000000	0.378250
1051.000000	0.378592
1052.000000	0.379103
1053.000000	0.379290
1054.000000	0.379303
1055.000000	0.379562
1056.000000	0.379804
1057.000000	0.380269
1058.000000	0.380979
1059.000000	0.380882
1060.000000	0.381086
1061.000000	0.381240
1062.000000	0.381144
1063.000000	0.381740
1064.000000	0.382008
1065.000000	0.382159
1066.000000	0.382478
1067.000000	0.382606
1068.000000	0.382985
1069.000000	0.383962
1070.000000	0.384321
1071.000000	0.384253
1072.000000	0.384612
1073.000000	0.385247
1074.000000	0.385287
1075.000000	0.385382
1076.000000	0.386008
1077.000000	0.386143
1078.000000	0.386213
1079.000000	0.386494
1080.000000	0.387114
1081.000000	0.387598
1082.000000	0.388144
1083.000000	0.388642
1084.000000	0.389468
1085.000000	0.389846
1086.000000	0.389672
1087.000000	0.390003
1088.000000	0.390534
1089.000000	0.390620
1090.000000	0.390504
1091.000000	0.390578
1092.000000	0.390665
1093.000000	0.390801
1094.000000	0.391219
1095.000000	0.392254
1096.000000	0.392785
1097.000000	0.393224
1098.000000	0.393429
1099.000000	0.393244
1100.000000	0.393525
1101.000000	0.393784
1102.000000	0.393949
1103.000000	0.394379
1104.000000	0.394659
1105.000000	0.394319
1106.000000	0.394631
1107.000000	0.395577
1108.000000	0.396065
1109.000000	0.396739
1110.000000	0.397242
1111.000000	0.397550
1112.000000	0.397347
1113.000000	0.397660
1114.000000	0.398246
1115.000000	0.398512
1116.000000	0.398653
1117.000000	0.399052
1118.000000	0.399460
1119.000000	0.399706
1120.000000	0.400181
1121.000000	0.400448
1122.000000	0.400429
1123.000000	0.400801
1124.000000	0.401175
1125.000000	0.401431
1126.000000	0.401430
1127.000000	0.401603
1128.000000	0.401809
1129.000000	0.402025
1130.000000	0.402305
1131.000000	0.402766
1132.000000	0.403085
1133.000000	0.403431
1134.000000	0.403721
1135.000000	0.404029
1136.000000	0.404116
1137.000000	0.404024
1138.000000	0.403919
1139.000000	0.403636
1140.000000	0.403711
1141.000000	0.403847
1142.000000	0.404044
1143.000000	0.404457
1144.000000	0.404845
1145.000000	0.405014
1146.000000	0.405108
1147.000000	0.405183
1148.000000	0.404978
1149.000000	0.405109
1150.000000	0.405352
1151.000000	0.405625
1152.000000	0.406088
1153.000000	0.406312
1154.000000	0.406276
1155.000000	0.406459
1156.000000	0.406594
1157.000000	0.406860
1158.000000	0.407321
1159.000000	0.407667
1160.000000	0.407962
1161.000000	0.408255
1162.000000	0.408664
1163.000000	0.409080
1164.000000	0.409162
1165.000000	0.409467
1166.000000	0.409844
1167.000000	0.410197
1168.000000	0.410443
1169.000000	0.410856
1170.000000	0.411127
1171.000000	0.411194
1172.000000	0.411498
1173.000000	0.411870
1174.000000	0.412226
1175.000000	0.412728
1176.000000	0.412939
1177.000000	0.413060
1178.000000	0.413267
1179.000000	0.413241
1180.000000	0.413362
1181.000000	0.413812
1182.000000	0.414189
1183.000000	0.414375
1184.000000	0.414629
1185.000000	0.414962
1186.000000	0.415249
1187.000000	0.415523
1188.000000	0.415940
1189.000000	0.416189
1190.000000	0.416306
1191.000000	0.416550
1192.000000	0.417088
1193.000000	0.417452
1194.000000	0.417490
1195.000000	0.417726
1196.000000	0.417875
1197.000000	0.418066
1198.000000	0.418460
1199.000000	0.418758
1200.000000	0.418887
1201.000000	0.419105
1202.000000	0.419615
1203.000000	0.420045
1204.000000	0.420536
1205.000000	0.421207
1206.000000	0.421530
1207.000000	0.421744
1208.000000	0.421932
1209.000000	0.422057
1210.000000	0.422214
1211.000000	0.422285
1212.000000	0.422534
1213.000000	0.422958
1214.000000	0.423299
1215.000000	0.423717
1216.000000	0.424056
1217.000000	0.424237
1218.000000	0.424406
1219.000000	0.424538
1220.000000	0.424833
1221.000000	0.425062
1222.000000	0.425461
1223.000000	0.425861
1224.000000	0.426129
1225.000000	0.426340
1226.000000	0.426574
1227.000000	0.426754
1228.000000	0.426960
1229.000000	0.427203
1230.000000	0.427466
1231.000000	0.427609
1232.000000	0.427880
1233.000000	0.428297
1234.000000	0.428708
1235.000000	0.429027
1236.000000	0.429358
1237.000000	0.429653
1238.000000	0.429692
1239.000000	0.429873
1240.000000	0.430154
1241.000000	0.430358
1242.000000	0.430620
1243.000000	0.430713
1244.000000	0.430795
1245.000000	0.431147
1246.000000	0.431381
1247.000000	0.431822
1248.000000	0.432275
1249.000000	0.432529
1250.000000	0.432889
1251.000000	0.433176
1252.000000	0.433529
1253.000000	0.434105
1254.000000	0.434360
1255.000000	0.434450
1256.000000	0.434662
1257.000000	0.434692
1258.000000	0.434936
1259.000000	0.435347
1260.000000	0.435672
1261.000000	0.435849
1262.000000	0.436168
1263.000000	0.436607
1264.000000	0.436925
1265.000000	0.437303
1266.000000	0.437612
1267.000000	0.437805
1268.000000	0.437968
1269.000000	0.438161
1270.000000	0.438651
1271.000000	0.438978
1272.000000	0.439185
1273.000000	0.439586
1274.000000	0.439764
1275.000000	0.439929
1276.000000	0.440168
1277.000000	0.440454
1278.000000	0.440434
1279.000000	0.440699
1280.000000	0.441097
1281.000000	0.441368
1282.000000	0.441848
1283.000000	0.442212
1284.000000	0.442307
1285.000000	0.442543
1286.000000	0.442769
1287.000000	0.442921
1288.000000	0.443301
1289.000000	0.443677
1290.000000	0.443881
1291.000000	0.444051
1292.000000	0.444138
1293.000000	0.444174
1294.000000	0.444251
1295.000000	0.444632
1296.000000	0.445050
1297.000000	0.445361
1298.000000	0.445719
1299.000000	0.445912
1300.000000	0.446235
1301.000000	0.446503
1302.000000	0.446585
1303.000000	0.446790
1304.000000	0.446848
1305.000000	0.446718
1306.000000	0.446812
1307.000000	0.447142
1308.000000	0.447354
1309.000000	0.447642
1310.000000	0.447775
1311.000000	0.447870
1312.000000	0.447736
1313.000000	0.447645
1314.000000	0.447538
1315.000000	0.447490
1316.000000	0.447773
1317.000000	0.448067
1318.000000	0.448312
1319.000000	0.448484
1320.000000	0.448548
1321.000000	0.448469
1322.000000	0.448271
1323.000000	0.448172
1324.000000	0.448207
1325.000000	0.448316
1326.000000	0.448448
1327.000000	0.448452
1328.000000	0.448450
1329.000000	0.448375
1330.000000	0.448162
1331.000000	0.448195
1332.000000	0.448401
1333.000000	0.448494
1334.000000	0.448759
1335.000000	0.448967
1336.000000	0.449088
1337.000000	0.449268
1338.000000	0.449465
1339.000000	0.449527
1340.000000	0.449451
1341.000000	0.449466
1342.000000	0.449617
1343.000000	0.449722
1344.000000	0.449921
1345.000000	0.450142
1346.000000	0.450180
1347.000000	0.450065
1348.000000	0.450162
1349.000000	0.450012
1350.000000	0.449900
1351.000000	0.449947
1352.000000	0.449900
1353.000000	0.450036
1354.000000	0.450394
1355.000000	0.450613
1356.000000	0.450705
1357.000000	0.450734
1358.000000	0.450663
1359.000000	0.450462
1360.000000	0.450382
1361.000000	0.450500
1362.000000	0.450430
1363.000000	0.450275
1364.000000	0.450211
1365.000000	0.450083
1366.000000	0.449938
1367.000000	0.449862
1368.000000	0.449625
1369.000000	0.449325
1370.000000	0.448976
1371.000000	0.448482
1372.000000	0.448042
1373.000000	0.447732
1374.000000	0.447343
1375.000000	0.446871
1376.000000	0.446284
1377.000000	0.445369
1378.000000	0.444360
1379.000000	0.443286
1380.000000	0.442234
1381.000000	0.441212
1382.000000	0.439948
1383.000000	0.438486
1384.000000	0.436826
1385.000000	0.435015
1386.000000	0.433144
1387.000000	0.431284
1388.000000	0.429140
1389.000000	0.426660
1390.000000	0.424150
1391.000000	0.421302
1392.000000	0.418346
1393.000000	0.415274
1394.000000	0.412112
1395.000000	0.408858
1396.000000	0.405480
1397.000000	0.401976
1398.000000	0.398249
1399.000000	0.394781
1400.000000	0.391220
1401.000000	0.387855
1402.000000	0.384757
1403.000000	0.381560
1404.000000	0.378619
1405.000000	0.375998
1406.000000	0.373463
1407.000000	0.371285
1408.000000	0.369342
1409.000000	0.367645
1410.000000	0.366346
1411.000000	0.365385
1412.000000	0.364453
1413.000000	0.363570
1414.000000	0.363050
1415.000000	0.362678
1416.000000	0.362437
1417.000000	0.362572
1418.000000	0.362582
1419.000000	0.362514
1420.000000	0.362552
1421.000000	0.362712
1422.000000	0.362865
1423.000000	0.363067
1424.000000	0.363263
1425.000000	0.363297
1426.000000	0.363199
1427.000000	0.363405
1428.000000	0.363573
1429.000000	0.363710
1430.000000	0.364200
1431.000000	0.364577
1432.000000	0.364846
1433.000000	0.365134
1434.000000	0.365413
1435.000000	0.365552
1436.000000	0.365977
1437.000000	0.366476
1438.000000	0.367142
1439.000000	0.368020
1440.000000	0.369046
1441.000000	0.370236
1442.000000	0.371670
1443.000000	0.373227
1444.000000	0.374940
1445.000000	0.376870
1446.000000	0.378818
1447.000000	0.380866
1448.000000	0.382920
1449.000000	0.384959
1450.000000	0.386939
1451.000000	0.388720
1452.000000	0.390407
1453.000000	0.392006
1454.000000	0.393468
1455.000000	0.394840
1456.000000	0.396027
1457.000000	0.397094
1458.000000	0.398086
1459.000000	0.399126
1460.000000	0.400254
1461.000000	0.401242
1462.000000	0.402221
1463.000000	0.403111
1464.000000	0.403948
1465.000000	0.404961
1466.000000	0.405893
1467.000000	0.406820
1468.000000	0.407897
1469.000000	0.409085
1470.000000	0.410224
1471.000000	0.411350
1472.000000	0.412450
1473.000000	0.413606
1474.000000	0.414674
1475.000000	0.415694
1476.000000	0.416712
1477.000000	0.417764
1478.000000	0.418822
1479.000000	0.419867
1480.000000	0.420939
1481.000000	0.421878
1482.000000	0.422684
1483.000000	0.423567
1484.000000	0.424493
1485.000000	0.425337
1486.000000	0.426133
1487.000000	0.426899
1488.000000	0.427578
1489.000000	0.428382
1490.000000	0.429059
1491.000000	0.429812
1492.000000	0.430636
1493.000000	0.431334
1494.000000	0.431936
1495.000000	0.432497
1496.000000	0.432955
1497.000000	0.433488
1498.000000	0.434044
1499.000000	0.434532
1500.000000	0.435080
1501.000000	0.435635
1502.000000	0.436120
1503.000000	0.436695
1504.000000	0.437324
1505.000000	0.437838
1506.000000	0.438278
1507.000000	0.438739
1508.000000	0.439335
1509.000000	0.439799
1510.000000	0.440190
1511.000000	0.440676
1512.000000	0.441014
1513.000000	0.441459
1514.000000	0.442125
1515.000000	0.442639
1516.000000	0.443083
1517.000000	0.443531
1518.000000	0.443893
1519.000000	0.444191
1520.000000	0.444720
1521.000000	0.445029
1522.000000	0.445286
1523.000000	0.445824
1524.000000	0.446163
1525.000000	0.446580
1526.000000	0.447023
1527.000000	0.447273
1528.000000	0.447601
1529.000000	0.447940
1530.000000	0.448194
1531.000000	0.448596
1532.000000	0.449034
1533.000000	0.449414
1534.000000	0.449859
1535.000000	0.450301
1536.000000	0.450616
1537.000000	0.451073
1538.000000	0.451501
1539.000000	0.451807
1540.000000	0.452169
1541.000000	0.452511
1542.000000	0.452933
1543.000000	0.453402
1544.000000	0.453749
1545.000000	0.454063
1546.000000	0.454270
1547.000000	0.454431
1548.000000	0.454745
1549.000000	0.455026
1550.000000	0.455218
1551.000000	0.455525
1552.000000	0.455776
1553.000000	0.455909
1554.000000	0.456199
1555.000000	0.456541
1556.000000	0.456828
1557.000000	0.457157
1558.000000	0.457482
1559.000000	0.457719
1560.000000	0.457920
1561.000000	0.458144
1562.000000	0.458316
1563.000000	0.458497
1564.000000	0.458636
1565.000000	0.458746
1566.000000	0.458819
1567.000000	0.458938
1568.000000	0.459102
1569.000000	0.459446
1570.000000	0.459610
1571.000000	0.459665
1572.000000	0.459811
1573.000000	0.459944
1574.000000	0.460075
1575.000000	0.460283
1576.000000	0.460544
1577.000000	0.460786
1578.000000	0.460982
1579.000000	0.461301
1580.000000	0.461561
1581.000000	0.461874
1582.000000	0.462033
1583.000000	0.462128
1584.000000	0.462199
1585.000000	0.462257
1586.000000	0.462347
1587.000000	0.462486
1588.000000	0.462635
1589.000000	0.462725
1590.000000	0.462885
1591.000000	0.463195
1592.000000	0.463418
1593.000000	0.463684
1594.000000	0.463830
1595.000000	0.463960
1596.000000	0.464073
1597.000000	0.464134
1598.000000	0.464274
1599.000000	0.464515
1600.000000	0.464624
1601.000000	0.464883
1602.000000	0.464938
1603.000000	0.464831
1604.000000	0.464834
1605.000000	0.464849
1606.000000	0.464833
1607.000000	0.464954
1608.000000	0.464965
1609.000000	0.464894
1610.000000	0.464904
1611.000000	0.464958
1612.000000	0.465045
1613.000000	0.465423
1614.000000	0.465533
1615.000000	0.465648
1616.000000	0.465737
1617.000000	0.465584
1618.000000	0.465534
1619.000000	0.465475
1620.000000	0.465420
1621.000000	0.465383
1622.000000	0.465509
1623.000000	0.465700
1624.000000	0.465840
1625.000000	0.465892
1626.000000	0.465831
1627.000000	0.465658
1628.000000	0.465672
1629.000000	0.465667
1630.000000	0.465746
1631.000000	0.465902
1632.000000	0.465882
1633.000000	0.465762
1634.000000	0.465879
1635.000000	0.466085
1636.000000	0.466274
1637.000000	0.466767
1638.000000	0.466839
1639.000000	0.466745
1640.000000	0.466666
1641.000000	0.466388
1642.000000	0.466413
1643.000000	0.466673
1644.000000	0.466799
1645.000000	0.467028
1646.000000	0.467143
1647.000000	0.467185
1648.000000	0.467204
1649.000000	0.467358
1650.000000	0.467473
1651.000000	0.467545
1652.000000	0.467749
1653.000000	0.467991
1654.000000	0.468173
1655.000000	0.468327
1656.000000	0.468273
1657.000000	0.468198
1658.000000	0.468069
1659.000000	0.467900
1660.000000	0.467965
1661.000000	0.467962
1662.000000	0.468050
1663.000000	0.468318
1664.000000	0.468414
1665.000000	0.468466
1666.000000	0.468554
1667.000000	0.468414
1668.000000	0.468529
1669.000000	0.468713
1670.000000	0.468779
1671.000000	0.469121
1672.000000	0.469332
1673.000000	0.469394
1674.000000	0.469322
1675.000000	0.469350
1676.000000	0.469384
1677.000000	0.469409
1678.000000	0.469470
1679.000000	0.469458
1680.000000	0.469278
1681.000000	0.469012
1682.000000	0.468857
1683.000000	0.468955
1684.000000	0.468975
1685.000000	0.468883
1686.000000	0.468786
1687.000000	0.468610
1688.000000	0.468364
1689.000000	0.468400
1690.000000	0.468471
1691.000000	0.468520
1692.000000	0.468554
1693.000000	0.468434
1694.000000	0.468214
1695.000000	0.468169
1696.000000	0.468134
1697.000000	0.467999
1698.000000	0.467862
1699.000000	0.467845
1700.000000	0.467888
1701.000000	0.468011
1702.000000	0.468048
1703.000000	0.467970
1704.000000	0.467900
1705.000000	0.467827
1706.000000	0.467771
1707.000000	0.467747
1708.000000	0.467742
1709.000000	0.467575
1710.000000	0.467471
1711.000000	0.467383
1712.000000	0.467248
1713.000000	0.467115
1714.000000	0.467081
1715.000000	0.467013
1716.000000	0.466952
1717.000000	0.466832
1718.000000	0.466646
1719.000000	0.466419
1720.000000	0.466149
1721.000000	0.465972
1722.000000	0.465861
1723.000000	0.465710
1724.000000	0.465571
1725.000000	0.465551
1726.000000	0.465511
1727.000000	0.465361
1728.000000	0.465234
1729.000000	0.464833
1730.000000	0.464258
1731.000000	0.463952
1732.000000	0.463645
1733.000000	0.463606
1734.000000	0.463647
1735.000000	0.463632
1736.000000	0.463713
1737.000000	0.463595
1738.000000	0.463390
1739.000000	0.463244
1740.000000	0.463012
1741.000000	0.462773
1742.000000	0.462537
1743.000000	0.462489
1744.000000	0.462449
1745.000000	0.462333
1746.000000	0.462325
1747.000000	0.462095
1748.000000	0.461947
1749.000000	0.462119
1750.000000	0.462019
1751.000000	0.461938
1752.000000	0.461994
1753.000000	0.461663
1754.000000	0.461550
1755.000000	0.461659
1756.000000	0.461598
1757.000000	0.461501
1758.000000	0.461450
1759.000000	0.461297
1760.000000	0.461186
1761.000000	0.461201
1762.000000	0.460982
1763.000000	0.460576
1764.000000	0.460310
1765.000000	0.459931
1766.000000	0.459643
1767.000000	0.459341
1768.000000	0.459064
1769.000000	0.458926
1770.000000	0.458806
1771.000000	0.458810
1772.000000	0.458554
1773.000000	0.457903
1774.000000	0.457754
1775.000000	0.457891
1776.000000	0.457770
1777.000000	0.457821
1778.000000	0.457623
1779.000000	0.457004
1780.000000	0.456711
1781.000000	0.456547
1782.000000	0.456323
1783.000000	0.456127
1784.000000	0.456076
1785.000000	0.455818
1786.000000	0.455438
1787.000000	0.455504
1788.000000	0.455655
1789.000000	0.455637
1790.000000	0.455523
1791.000000	0.455410
1792.000000	0.455213
1793.000000	0.455104
1794.000000	0.455255
1795.000000	0.455290
1796.000000	0.455098
1797.000000	0.455137
1798.000000	0.455348
1799.000000	0.455418
1800.000000	0.455749
1801.000000	0.456449
1802.000000	0.455941
1803.000000	0.454125
1804.000000	0.453498
1805.000000	0.452957
1806.000000	0.452863
1807.000000	0.453648
1808.000000	0.453856
1809.000000	0.454068
1810.000000	0.454244
1811.000000	0.454308
1812.000000	0.454022
1813.000000	0.453852
1814.000000	0.453853
1815.000000	0.453624
1816.000000	0.452897
1817.000000	0.452655
1818.000000	0.452332
1819.000000	0.453212
1820.000000	0.453417
1821.000000	0.452884
1822.000000	0.452858
1823.000000	0.452235
1824.000000	0.452030
1825.000000	0.452554
1826.000000	0.452571
1827.000000	0.452065
1828.000000	0.451789
1829.000000	0.451155
1830.000000	0.450970
1831.000000	0.450962
1832.000000	0.451138
1833.000000	0.451304
1834.000000	0.452105
1835.000000	0.451947
1836.000000	0.450957
1837.000000	0.450521
1838.000000	0.449762
1839.000000	0.449064
1840.000000	0.448530
1841.000000	0.448209
1842.000000	0.447744
1843.000000	0.446753
1844.000000	0.446450
1845.000000	0.446555
1846.000000	0.446527
1847.000000	0.446502
1848.000000	0.446354
1849.000000	0.446190
1850.000000	0.445944
1851.000000	0.445608
1852.000000	0.445198
1853.000000	0.444543
1854.000000	0.443469
1855.000000	0.442194
1856.000000	0.440308
1857.000000	0.438964
1858.000000	0.437237
1859.000000	0.436115
1860.000000	0.435113
1861.000000	0.433372
1862.000000	0.431898
1863.000000	0.430561
1864.000000	0.428931
1865.000000	0.427414
1866.000000	0.425818
1867.000000	0.424278
1868.000000	0.421972
1869.000000	0.419545
1870.000000	0.416541
1871.000000	0.413000
1872.000000	0.410084
1873.000000	0.406548
1874.000000	0.402425
1875.000000	0.398782
1876.000000	0.395265
1877.000000	0.390273
1878.000000	0.385673
1879.000000	0.381301
1880.000000	0.376024
1881.000000	0.370673
1882.000000	0.364986
1883.000000	0.358738
1884.000000	0.352006
1885.000000	0.344041
1886.000000	0.336378
1887.000000	0.328386
1888.000000	0.320070
1889.000000	0.312049
1890.000000	0.304228
1891.000000	0.296426
1892.000000	0.288443
1893.000000	0.280350
1894.000000	0.271849
1895.000000	0.263778
1896.000000	0.255917
1897.000000	0.248420
1898.000000	0.240869
1899.000000	0.234743
1900.000000	0.228775
1901.000000	0.223513
1902.000000	0.219915
1903.000000	0.216633
1904.000000	0.214210
1905.000000	0.212499
1906.000000	0.211526
1907.000000	0.211182
1908.000000	0.211632
1909.000000	0.212594
1910.000000	0.214820
1911.000000	0.217271
1912.000000	0.220182
1913.000000	0.223814
1914.000000	0.226771
1915.000000	0.229596
1916.000000	0.232477
1917.000000	0.235268
1918.000000	0.238079
1919.000000	0.240891
1920.000000	0.243617
1921.000000	0.246165
1922.000000	0.248470
1923.000000	0.251444
1924.000000	0.253943
1925.000000	0.256108
1926.000000	0.258527
1927.000000	0.260177
1928.000000	0.261916
1929.000000	0.263603
1930.000000	0.265823
1931.000000	0.267372
1932.000000	0.269055
1933.000000	0.270918
1934.000000	0.271895
1935.000000	0.272990
1936.000000	0.274425
1937.000000	0.275545
1938.000000	0.276373
1939.000000	0.277306
1940.000000	0.278252
1941.000000	0.279060
1942.000000	0.279858
1943.000000	0.280526
1944.000000	0.280801
1945.000000	0.281196
1946.000000	0.281791
1947.000000	0.282853
1948.000000	0.284348
1949.000000	0.285501
1950.000000	0.286351
1951.000000	0.287081
1952.000000	0.287693
1953.000000	0.288062
1954.000000	0.288631
1955.000000	0.289579
1956.000000	0.290045
1957.000000	0.290589
1958.000000	0.291889
1959.000000	0.292841
1960.000000	0.294227
1961.000000	0.295657
1962.000000	0.296319
1963.000000	0.296266
1964.000000	0.296397
1965.000000	0.296404
1966.000000	0.296911
1967.000000	0.298244
1968.000000	0.299516
1969.000000	0.300382
1970.000000	0.301068
1971.000000	0.301710
1972.000000	0.301802
1973.000000	0.302425
1974.000000	0.303867
1975.000000	0.304898
1976.000000	0.305749
1977.000000	0.307039
1978.000000	0.308604
1979.000000	0.309958
1980.000000	0.311438
1981.000000	0.313044
1982.000000	0.314140
1983.000000	0.314946
1984.000000	0.315822
1985.000000	0.316715
1986.000000	0.317624
1987.000000	0.318683
1988.000000	0.319445
1989.000000	0.320172
1990.000000	0.320969
1991.000000	0.321573
1992.000000	0.322205
1993.000000	0.323151
1994.000000	0.324185
1995.000000	0.325069
1996.000000	0.326250
1997.000000	0.327520
1998.000000	0.328734
1999.000000	0.330465
2000.000000	0.332763
2001.000000	0.334876
2002.000000	0.336768
2003.000000	0.338112
2004.000000	0.338966
2005.000000	0.339311
2006.000000	0.339939
2007.000000	0.341064
2008.000000	0.342080
2009.000000	0.343320
2010.000000	0.344528
2011.000000	0.345361
2012.000000	0.346439
2013.000000	0.347834
2014.000000	0.348315
2015.000000	0.349531
2016.000000	0.351199
2017.000000	0.352163
2018.000000	0.353704
2019.000000	0.354625
2020.000000	0.355507
2021.000000	0.356537
2022.000000	0.357546
2023.000000	0.358613
2024.000000	0.359758
2025.000000	0.360783
2026.000000	0.361753
2027.000000	0.362485
2028.000000	0.363161
2029.000000	0.364391
2030.000000	0.365173
2031.000000	0.365829
2032.000000	0.366554
2033.000000	0.367523
2034.000000	0.368323
2035.000000	0.369429
2036.000000	0.370296
2037.000000	0.370991
2038.000000	0.371740
2039.000000	0.372757
2040.000000	0.373461
2041.000000	0.374120
2042.000000	0.375375
2043.000000	0.376082
2044.000000	0.376921
2045.000000	0.377265
2046.000000	0.377251
2047.000000	0.377696
2048.000000	0.378004
2049.000000	0.378821
2050.000000	0.379860
2051.000000	0.380449
2052.000000	0.380832
2053.000000	0.381229
2054.000000	0.381609
2055.000000	0.382370
2056.000000	0.383008
2057.000000	0.384062
2058.000000	0.384746
2059.000000	0.385087
2060.000000	0.385474
2061.000000	0.385641
2062.000000	0.385962
2063.000000	0.386383
2064.000000	0.386673
2065.000000	0.387331
2066.000000	0.387733
2067.000000	0.388252
2068.000000	0.388917
2069.000000	0.389511
2070.000000	0.390643
2071.000000	0.391119
2072.000000	0.391380
2073.000000	0.391853
2074.000000	0.391417
2075.000000	0.391657
2076.000000	0.392348
2077.000000	0.392612
2078.000000	0.393031
2079.000000	0.393120
2080.000000	0.392770
2081.000000	0.392698
2082.000000	0.392565
2083.000000	0.392606
2084.000000	0.392628
2085.000000	0.392372
2086.000000	0.392153
2087.000000	0.391857
2088.000000	0.391431
2089.000000	0.391549
2090.000000	0.392012
2091.000000	0.393154
2092.000000	0.393772
2093.000000	0.394877
2094.000000	0.395257
2095.000000	0.394754
2096.000000	0.394825
2097.000000	0.394620
2098.000000	0.394964
2099.000000	0.395539
2100.000000	0.395834
2101.000000	0.396071
2102.000000	0.395854
2103.000000	0.394994
2104.000000	0.394899
2105.000000	0.394936
2106.000000	0.394953
2107.000000	0.395413
2108.000000	0.396182
2109.000000	0.397040
2110.000000	0.398228
2111.000000	0.399226
2112.000000	0.400124
2113.000000	0.401371
2114.000000	0.401701
2115.000000	0.401481
2116.000000	0.401368
2117.000000	0.401217
2118.000000	0.401252
2119.000000	0.400642
2120.000000	0.400639
2121.000000	0.400228
2122.000000	0.400775
2123.000000	0.402795
2124.000000	0.403505
2125.000000	0.404039
2126.000000	0.404529
2127.000000	0.403987
2128.000000	0.404281
2129.000000	0.405452
2130.000000	0.405700
2131.000000	0.405686
2132.000000	0.405625
2133.000000	0.404862
2134.000000	0.404519
2135.000000	0.404818
2136.000000	0.405154
2137.000000	0.405360
2138.000000	0.406037
2139.000000	0.406291
2140.000000	0.405896
2141.000000	0.406181
2142.000000	0.406491
2143.000000	0.406820
2144.000000	0.408340
2145.000000	0.408797
2146.000000	0.409260
2147.000000	0.409266
2148.000000	0.407840
2149.000000	0.407113
2150.000000	0.406551
2151.000000	0.406195
2152.000000	0.407052
2153.000000	0.407488
2154.000000	0.407517
2155.000000	0.407258
2156.000000	0.407508
2157.000000	0.407821
2158.000000	0.407538
2159.000000	0.407433
2160.000000	0.407480
2161.000000	0.406720
2162.000000	0.406774
2163.000000	0.407360
2164.000000	0.407754
2165.000000	0.408430
2166.000000	0.408751
2167.000000	0.409213
2168.000000	0.409128
2169.000000	0.407885
2170.000000	0.406745
2171.000000	0.405981
2172.000000	0.405066
2173.000000	0.404595
2174.000000	0.404595
2175.000000	0.404828
2176.000000	0.405350
2177.000000	0.405860
2178.000000	0.407165
2179.000000	0.407445
2180.000000	0.407000
2181.000000	0.407026
2182.000000	0.405614
2183.000000	0.405437
2184.000000	0.405335
2185.000000	0.404817
2186.000000	0.403838
2187.000000	0.402832
2188.000000	0.401563
2189.000000	0.399706
2190.000000	0.398967
2191.000000	0.399577
2192.000000	0.400280
2193.000000	0.402740
2194.000000	0.403230
2195.000000	0.403703
2196.000000	0.403002
2197.000000	0.399470
2198.000000	0.398174
2199.000000	0.397064
2200.000000	0.396826
2201.000000	0.399512
2202.000000	0.400107
2203.000000	0.400042
2204.000000	0.398830
2205.000000	0.397984
2206.000000	0.396075
2207.000000	0.393724
2208.000000	0.394291
2209.000000	0.393354
2210.000000	0.393639
2211.000000	0.395410
2212.000000	0.395967
2213.000000	0.396650
2214.000000	0.397143
2215.000000	0.396275
2216.000000	0.394218
2217.000000	0.393677
2218.000000	0.393266
2219.000000	0.392689
2220.000000	0.394593
2221.000000	0.393456
2222.000000	0.389113
2223.000000	0.386413
2224.000000	0.383585
2225.000000	0.379297
2226.000000	0.378489
2227.000000	0.378143
2228.000000	0.378620
2229.000000	0.379723
2230.000000	0.379289
2231.000000	0.378378
2232.000000	0.376479
2233.000000	0.374754
2234.000000	0.372128
2235.000000	0.370644
2236.000000	0.368788
2237.000000	0.366214
2238.000000	0.364536
2239.000000	0.361896
2240.000000	0.362472
2241.000000	0.366636
2242.000000	0.367874
2243.000000	0.371120
2244.000000	0.371527
2245.000000	0.367103
2246.000000	0.365890
2247.000000	0.365298
2248.000000	0.364903
2249.000000	0.366344
2250.000000	0.366129
2251.000000	0.365731
2252.000000	0.364711
2253.000000	0.362820
2254.000000	0.362118
2255.000000	0.362103
2256.000000	0.361666
2257.000000	0.362416
2258.000000	0.363622
2259.000000	0.362097
2260.000000	0.360446
2261.000000	0.360578
2262.000000	0.361799
2263.000000	0.360909
2264.000000	0.360801
2265.000000	0.359779
2266.000000	0.355846
2267.000000	0.353943
2268.000000	0.353946
2269.000000	0.352793
2270.000000	0.351696
2271.000000	0.349538
2272.000000	0.346175
2273.000000	0.343333
2274.000000	0.340479
2275.000000	0.336651
2276.000000	0.332348
2277.000000	0.328182
2278.000000	0.323980
2279.000000	0.321118
2280.000000	0.316940
2281.000000	0.313926
2282.000000	0.310805
2283.000000	0.305253
2284.000000	0.302747
2285.000000	0.300670
2286.000000	0.297861
2287.000000	0.294728
2288.000000	0.291790
2289.000000	0.290236
2290.000000	0.286620
2291.000000	0.284490
2292.000000	0.282227
2293.000000	0.276717
2294.000000	0.273720
2295.000000	0.271018
2296.000000	0.270221
2297.000000	0.271068
2298.000000	0.272535
2299.000000	0.276812
2300.000000	0.279418
2301.000000	0.280696
2302.000000	0.283597
2303.000000	0.286586
2304.000000	0.289483
2305.000000	0.294709
2306.000000	0.297361
2307.000000	0.298370
2308.000000	0.299909
2309.000000	0.299993
2310.000000	0.301668
2311.000000	0.304434
2312.000000	0.306878
2313.000000	0.309864
2314.000000	0.312407
2315.000000	0.315136
2316.000000	0.317337
2317.000000	0.318763
2318.000000	0.321181
2319.000000	0.323429
2320.000000	0.326340
2321.000000	0.330398
2322.000000	0.331760
2323.000000	0.332185
2324.000000	0.334147
2325.000000	0.334921
2326.000000	0.335100
2327.000000	0.335708
2328.000000	0.335868
2329.000000	0.337974
2330.000000	0.341977
2331.000000	0.344002
2332.000000	0.344884
2333.000000	0.342692
2334.000000	0.338203
2335.000000	0.337205
2336.000000	0.338624
2337.000000	0.336857
2338.000000	0.335410
2339.000000	0.333429
2340.000000	0.327518
2341.000000	0.326749
2342.000000	0.329895
2343.000000	0.331069
2344.000000	0.333833
2345.000000	0.334716
2346.000000	0.334345
2347.000000	0.332799
2348.000000	0.330306
2349.000000	0.327888
2350.000000	0.323252
2351.000000	0.320536
2352.000000	0.318767
2353.000000	0.315369
2354.000000	0.313121
2355.000000	0.311943
2356.000000	0.312582
2357.000000	0.317319
2358.000000	0.322563
2359.000000	0.325373
2360.000000	0.325384
2361.000000	0.321891
2362.000000	0.317578
2363.000000	0.316370
2364.000000	0.313583
2365.000000	0.310951
2366.000000	0.309319
2367.000000	0.303484
2368.000000	0.302566
2369.000000	0.303636
2370.000000	0.300368
2371.000000	0.301221
2372.000000	0.298244
2373.000000	0.292507
2374.000000	0.292693
2375.000000	0.290560
2376.000000	0.290523
2377.000000	0.292221
2378.000000	0.289861
2379.000000	0.288742
2380.000000	0.285799
2381.000000	0.279779
2382.000000	0.275557
2383.000000	0.273178
2384.000000	0.272527
2385.000000	0.275458
2386.000000	0.276681
2387.000000	0.276942
2388.000000	0.273507
2389.000000	0.267939
2390.000000	0.264919
2391.000000	0.257270
2392.000000	0.255667
2393.000000	0.255581
2394.000000	0.254102
2395.000000	0.257487
2396.000000	0.251607
2397.000000	0.247201
2398.000000	0.246637
2399.000000	0.240643
2400.000000	0.241542
2401.000000	0.242043
2402.000000	0.238903
2403.000000	0.241997
2404.000000	0.243338
2405.000000	0.235473
2406.000000	0.229625
2407.000000	0.228537
2408.000000	0.225602
2409.000000	0.230587
2410.000000	0.244200
2411.000000	0.249058
2412.000000	0.244828
2413.000000	0.245169
2414.000000	0.244751
2415.000000	0.244223
2416.000000	0.253143
2417.000000	0.262469
2418.000000	0.260110
2419.000000	0.248729
2420.000000	0.240594
2421.000000	0.232209
2422.000000	0.228920
2423.000000	0.236364
2424.000000	0.242363
2425.000000	0.246855
2426.000000	0.248266
2427.000000	0.247484
2428.000000	0.252267
2429.000000	0.265012
2430.000000	0.280376
2431.000000	0.282556
2432.000000	0.277346
2433.000000	0.269576
2434.000000	0.251057
2435.000000	0.246803
2436.000000	0.251456
2437.000000	0.256760
2438.000000	0.270407
2439.000000	0.267210
2440.000000	0.270598
2441.000000	0.269601
2442.000000	0.252945
2443.000000	0.250965
2444.000000	0.249293
2445.000000	0.243951
2446.000000	0.244818
2447.000000	0.250249
2448.000000	0.243508
2449.000000	0.239429
2450.000000	0.240973
2451.000000	0.233486
2452.000000	0.237029
2453.000000	0.241355
2454.000000	0.235568
2455.000000	0.231753
2456.000000	0.240022
2457.000000	0.244202
2458.000000	0.246364
2459.000000	0.253222
2460.000000	0.245281
2461.000000	0.236278
2462.000000	0.235658
2463.000000	0.239516
2464.000000	0.257127
2465.000000	0.281197
2466.000000	0.289459
2467.000000	0.284692
2468.000000	0.260803
2469.000000	0.221125
2470.000000	0.200687
2471.000000	0.163698
2472.000000	0.137337
2473.000000	0.136416
2474.000000	0.130145
2475.000000	0.161419
2476.000000	0.196642
2477.000000	0.204168
2478.000000	0.204282
2479.000000	0.177395
2480.000000	0.168955
2481.000000	0.172368
2482.000000	0.179142
2483.000000	0.199847
2484.000000	0.191045
2485.000000	0.177873
2486.000000	0.153923
2487.000000	0.135672
2488.000000	0.144082
2489.000000	0.167922
2490.000000	0.199092
2491.000000	0.207117
2492.000000	0.203353
2493.000000	0.175131
2494.000000	0.152644
2495.000000	0.121836
2496.000000	0.099755
2497.000000	0.059852
2498.000000	0.038956
2499.000000	0.033840
2500.000000	0.047112
