# Wavelength	NAu-2-20_HEX-60_FV7-20_000000002.asd.rts.txt
350.000000	0.192571
351.000000	0.195868
352.000000	0.195522
353.000000	0.188576
354.000000	0.179348
355.000000	0.181884
356.000000	0.183074
357.000000	0.182817
358.000000	0.186681
359.000000	0.186877
360.000000	0.185114
361.000000	0.184678
362.000000	0.185415
363.000000	0.186428
364.000000	0.186804
365.000000	0.187366
366.000000	0.187188
367.000000	0.186144
368.000000	0.185183
369.000000	0.186303
370.000000	0.188382
371.000000	0.189370
372.000000	0.188960
373.000000	0.187623
374.000000	0.186503
375.000000	0.186752
376.000000	0.187644
377.000000	0.188541
378.000000	0.189125
379.000000	0.188734
380.000000	0.188269
381.000000	0.189486
382.000000	0.190438
383.000000	0.190126
384.000000	0.188989
385.000000	0.190381
386.000000	0.191046
387.000000	0.190544
388.000000	0.191096
389.000000	0.192188
390.000000	0.193019
391.000000	0.192568
392.000000	0.192299
393.000000	0.192241
394.000000	0.192319
395.000000	0.192950
396.000000	0.193514
397.000000	0.193683
398.000000	0.193506
399.000000	0.193405
400.000000	0.193786
401.000000	0.194836
402.000000	0.194978
403.000000	0.194666
404.000000	0.194721
405.000000	0.195286
406.000000	0.195872
407.000000	0.196234
408.000000	0.196368
409.000000	0.196455
410.000000	0.196780
411.000000	0.197659
412.000000	0.197861
413.000000	0.197807
414.000000	0.198168
415.000000	0.198493
416.000000	0.198851
417.000000	0.199267
418.000000	0.199614
419.000000	0.199762
420.000000	0.199829
421.000000	0.200151
422.000000	0.200515
423.000000	0.200856
424.000000	0.201217
425.000000	0.201595
426.000000	0.201973
427.000000	0.202327
428.000000	0.202681
429.000000	0.203032
430.000000	0.203373
431.000000	0.203677
432.000000	0.203976
433.000000	0.204243
434.000000	0.204518
435.000000	0.204916
436.000000	0.205293
437.000000	0.205507
438.000000	0.205774
439.000000	0.205961
440.000000	0.206107
441.000000	0.206344
442.000000	0.206679
443.000000	0.207001
444.000000	0.207234
445.000000	0.207478
446.000000	0.207839
447.000000	0.208242
448.000000	0.208523
449.000000	0.208807
450.000000	0.209203
451.000000	0.209675
452.000000	0.210067
453.000000	0.210367
454.000000	0.210934
455.000000	0.211405
456.000000	0.211740
457.000000	0.211895
458.000000	0.212291
459.000000	0.212727
460.000000	0.213033
461.000000	0.213413
462.000000	0.213867
463.000000	0.214240
464.000000	0.214533
465.000000	0.214815
466.000000	0.215095
467.000000	0.215456
468.000000	0.215823
469.000000	0.216135
470.000000	0.216481
471.000000	0.216806
472.000000	0.217052
473.000000	0.217245
474.000000	0.217512
475.000000	0.217787
476.000000	0.218149
477.000000	0.218548
478.000000	0.218788
479.000000	0.219085
480.000000	0.219501
481.000000	0.219747
482.000000	0.220071
483.000000	0.220495
484.000000	0.220765
485.000000	0.220944
486.000000	0.221214
487.000000	0.221466
488.000000	0.221714
489.000000	0.221983
490.000000	0.222292
491.000000	0.222523
492.000000	0.222739
493.000000	0.222925
494.000000	0.223101
495.000000	0.223291
496.000000	0.223472
497.000000	0.223640
498.000000	0.223806
499.000000	0.224020
500.000000	0.224222
501.000000	0.224364
502.000000	0.224509
503.000000	0.224697
504.000000	0.224909
505.000000	0.225126
506.000000	0.225344
507.000000	0.225596
508.000000	0.225904
509.000000	0.226233
510.000000	0.226571
511.000000	0.226889
512.000000	0.227207
513.000000	0.227540
514.000000	0.227935
515.000000	0.228365
516.000000	0.228726
517.000000	0.229039
518.000000	0.229395
519.000000	0.229783
520.000000	0.230179
521.000000	0.230614
522.000000	0.231087
523.000000	0.231524
524.000000	0.232067
525.000000	0.232692
526.000000	0.233322
527.000000	0.233986
528.000000	0.234692
529.000000	0.235483
530.000000	0.236251
531.000000	0.237096
532.000000	0.238009
533.000000	0.239001
534.000000	0.239998
535.000000	0.240977
536.000000	0.242001
537.000000	0.242985
538.000000	0.243951
539.000000	0.244941
540.000000	0.245851
541.000000	0.246675
542.000000	0.247469
543.000000	0.248292
544.000000	0.249126
545.000000	0.249915
546.000000	0.250750
547.000000	0.251604
548.000000	0.252472
549.000000	0.253268
550.000000	0.254138
551.000000	0.255105
552.000000	0.256103
553.000000	0.257142
554.000000	0.258239
555.000000	0.259404
556.000000	0.260604
557.000000	0.261809
558.000000	0.263100
559.000000	0.264362
560.000000	0.265627
561.000000	0.266943
562.000000	0.268220
563.000000	0.269464
564.000000	0.270717
565.000000	0.271912
566.000000	0.273045
567.000000	0.274147
568.000000	0.275201
569.000000	0.276146
570.000000	0.277051
571.000000	0.277914
572.000000	0.278693
573.000000	0.279395
574.000000	0.280018
575.000000	0.280609
576.000000	0.281118
577.000000	0.281568
578.000000	0.282033
579.000000	0.282414
580.000000	0.282754
581.000000	0.283059
582.000000	0.283279
583.000000	0.283482
584.000000	0.283676
585.000000	0.283839
586.000000	0.283912
587.000000	0.283915
588.000000	0.283891
589.000000	0.283869
590.000000	0.283811
591.000000	0.283704
592.000000	0.283601
593.000000	0.283510
594.000000	0.283399
595.000000	0.283196
596.000000	0.282967
597.000000	0.282772
598.000000	0.282565
599.000000	0.282271
600.000000	0.281983
601.000000	0.281709
602.000000	0.281426
603.000000	0.281114
604.000000	0.280789
605.000000	0.280493
606.000000	0.280195
607.000000	0.279869
608.000000	0.279492
609.000000	0.279183
610.000000	0.278925
611.000000	0.278663
612.000000	0.278394
613.000000	0.278086
614.000000	0.277765
615.000000	0.277473
616.000000	0.277148
617.000000	0.276762
618.000000	0.276414
619.000000	0.276092
620.000000	0.275759
621.000000	0.275431
622.000000	0.275143
623.000000	0.274864
624.000000	0.274565
625.000000	0.274281
626.000000	0.274061
627.000000	0.273898
628.000000	0.273686
629.000000	0.273565
630.000000	0.273430
631.000000	0.273313
632.000000	0.273225
633.000000	0.273167
634.000000	0.273120
635.000000	0.273063
636.000000	0.273044
637.000000	0.273068
638.000000	0.273101
639.000000	0.273141
640.000000	0.273207
641.000000	0.273194
642.000000	0.273199
643.000000	0.273254
644.000000	0.273364
645.000000	0.273445
646.000000	0.273528
647.000000	0.273622
648.000000	0.273732
649.000000	0.273872
650.000000	0.274028
651.000000	0.274199
652.000000	0.274340
653.000000	0.274521
654.000000	0.274785
655.000000	0.275063
656.000000	0.275376
657.000000	0.275697
658.000000	0.276050
659.000000	0.276424
660.000000	0.276794
661.000000	0.277143
662.000000	0.277514
663.000000	0.277939
664.000000	0.278352
665.000000	0.278775
666.000000	0.279237
667.000000	0.279736
668.000000	0.280287
669.000000	0.280847
670.000000	0.281397
671.000000	0.281963
672.000000	0.282566
673.000000	0.283187
674.000000	0.283793
675.000000	0.284434
676.000000	0.285104
677.000000	0.285804
678.000000	0.286566
679.000000	0.287326
680.000000	0.288054
681.000000	0.288805
682.000000	0.289602
683.000000	0.290407
684.000000	0.291336
685.000000	0.292270
686.000000	0.293203
687.000000	0.294121
688.000000	0.295059
689.000000	0.296020
690.000000	0.297025
691.000000	0.298026
692.000000	0.299020
693.000000	0.300078
694.000000	0.301180
695.000000	0.302252
696.000000	0.303320
697.000000	0.304446
698.000000	0.305573
699.000000	0.306708
700.000000	0.307870
701.000000	0.309043
702.000000	0.310220
703.000000	0.311393
704.000000	0.312613
705.000000	0.313869
706.000000	0.315130
707.000000	0.316444
708.000000	0.317733
709.000000	0.318999
710.000000	0.320276
711.000000	0.321583
712.000000	0.322918
713.000000	0.324284
714.000000	0.325635
715.000000	0.326948
716.000000	0.328245
717.000000	0.329549
718.000000	0.330868
719.000000	0.332182
720.000000	0.333492
721.000000	0.334823
722.000000	0.336126
723.000000	0.337457
724.000000	0.338816
725.000000	0.340127
726.000000	0.341447
727.000000	0.342712
728.000000	0.343979
729.000000	0.345250
730.000000	0.346462
731.000000	0.347666
732.000000	0.348879
733.000000	0.350137
734.000000	0.351362
735.000000	0.352538
736.000000	0.353766
737.000000	0.354908
738.000000	0.355966
739.000000	0.357062
740.000000	0.358089
741.000000	0.359120
742.000000	0.360146
743.000000	0.361125
744.000000	0.362083
745.000000	0.363039
746.000000	0.364030
747.000000	0.364980
748.000000	0.365946
749.000000	0.366894
750.000000	0.367766
751.000000	0.368622
752.000000	0.369418
753.000000	0.370178
754.000000	0.370962
755.000000	0.371732
756.000000	0.372475
757.000000	0.373136
758.000000	0.373818
759.000000	0.374491
760.000000	0.375068
761.000000	0.375687
762.000000	0.376287
763.000000	0.376833
764.000000	0.377391
765.000000	0.377938
766.000000	0.378476
767.000000	0.378990
768.000000	0.379426
769.000000	0.379828
770.000000	0.380240
771.000000	0.380699
772.000000	0.381141
773.000000	0.381502
774.000000	0.381877
775.000000	0.382202
776.000000	0.382512
777.000000	0.382817
778.000000	0.383126
779.000000	0.383409
780.000000	0.383673
781.000000	0.383936
782.000000	0.384136
783.000000	0.384392
784.000000	0.384625
785.000000	0.384810
786.000000	0.384984
787.000000	0.385161
788.000000	0.385320
789.000000	0.385490
790.000000	0.385668
791.000000	0.385879
792.000000	0.385999
793.000000	0.386077
794.000000	0.386171
795.000000	0.386232
796.000000	0.386325
797.000000	0.386438
798.000000	0.386495
799.000000	0.386542
800.000000	0.386622
801.000000	0.386761
802.000000	0.386878
803.000000	0.386938
804.000000	0.386988
805.000000	0.387085
806.000000	0.387093
807.000000	0.387076
808.000000	0.387012
809.000000	0.386963
810.000000	0.386981
811.000000	0.387046
812.000000	0.386983
813.000000	0.386922
814.000000	0.386907
815.000000	0.386937
816.000000	0.386951
817.000000	0.386978
818.000000	0.386958
819.000000	0.386951
820.000000	0.386959
821.000000	0.386917
822.000000	0.386866
823.000000	0.386811
824.000000	0.386697
825.000000	0.386602
826.000000	0.386527
827.000000	0.386439
828.000000	0.386382
829.000000	0.386379
830.000000	0.386320
831.000000	0.386268
832.000000	0.386172
833.000000	0.386068
834.000000	0.385966
835.000000	0.385895
836.000000	0.385775
837.000000	0.385631
838.000000	0.385508
839.000000	0.385407
840.000000	0.385267
841.000000	0.385138
842.000000	0.385035
843.000000	0.385009
844.000000	0.385010
845.000000	0.384950
846.000000	0.384801
847.000000	0.384668
848.000000	0.384504
849.000000	0.384292
850.000000	0.384134
851.000000	0.383976
852.000000	0.383851
853.000000	0.383786
854.000000	0.383592
855.000000	0.383420
856.000000	0.383273
857.000000	0.383120
858.000000	0.383064
859.000000	0.383011
860.000000	0.382839
861.000000	0.382699
862.000000	0.382626
863.000000	0.382507
864.000000	0.382362
865.000000	0.382194
866.000000	0.382037
867.000000	0.381892
868.000000	0.381782
869.000000	0.381605
870.000000	0.381368
871.000000	0.381169
872.000000	0.380955
873.000000	0.380648
874.000000	0.380422
875.000000	0.380137
876.000000	0.379817
877.000000	0.379470
878.000000	0.379126
879.000000	0.378964
880.000000	0.378848
881.000000	0.378637
882.000000	0.378474
883.000000	0.378320
884.000000	0.378010
885.000000	0.377732
886.000000	0.377458
887.000000	0.377211
888.000000	0.377056
889.000000	0.376923
890.000000	0.376675
891.000000	0.376439
892.000000	0.376190
893.000000	0.375881
894.000000	0.375657
895.000000	0.375496
896.000000	0.375275
897.000000	0.375018
898.000000	0.374796
899.000000	0.374545
900.000000	0.374278
901.000000	0.373973
902.000000	0.373722
903.000000	0.373449
904.000000	0.373239
905.000000	0.373067
906.000000	0.372985
907.000000	0.372794
908.000000	0.372523
909.000000	0.372240
910.000000	0.371913
911.000000	0.371554
912.000000	0.371216
913.000000	0.370934
914.000000	0.370700
915.000000	0.370544
916.000000	0.370321
917.000000	0.370082
918.000000	0.369913
919.000000	0.369812
920.000000	0.369653
921.000000	0.369425
922.000000	0.369134
923.000000	0.368778
924.000000	0.368508
925.000000	0.368263
926.000000	0.368013
927.000000	0.367671
928.000000	0.367403
929.000000	0.367182
930.000000	0.366925
931.000000	0.366633
932.000000	0.366322
933.000000	0.366029
934.000000	0.365681
935.000000	0.365382
936.000000	0.365145
937.000000	0.364850
938.000000	0.364591
939.000000	0.364364
940.000000	0.364118
941.000000	0.363955
942.000000	0.363674
943.000000	0.363388
944.000000	0.363069
945.000000	0.362869
946.000000	0.362574
947.000000	0.362328
948.000000	0.362231
949.000000	0.362028
950.000000	0.361813
951.000000	0.361547
952.000000	0.361205
953.000000	0.360920
954.000000	0.360659
955.000000	0.360300
956.000000	0.359908
957.000000	0.359615
958.000000	0.359406
959.000000	0.359320
960.000000	0.359120
961.000000	0.358907
962.000000	0.358719
963.000000	0.358555
964.000000	0.358391
965.000000	0.358185
966.000000	0.357813
967.000000	0.357540
968.000000	0.357307
969.000000	0.357038
970.000000	0.356795
971.000000	0.356508
972.000000	0.356336
973.000000	0.356234
974.000000	0.356122
975.000000	0.356003
976.000000	0.355808
977.000000	0.355518
978.000000	0.355316
979.000000	0.355238
980.000000	0.354997
981.000000	0.354781
982.000000	0.354665
983.000000	0.354606
984.000000	0.354529
985.000000	0.354185
986.000000	0.353962
987.000000	0.353786
988.000000	0.353504
989.000000	0.353524
990.000000	0.353467
991.000000	0.353281
992.000000	0.353110
993.000000	0.353076
994.000000	0.352996
995.000000	0.352961
996.000000	0.352815
997.000000	0.352729
998.000000	0.352642
999.000000	0.352637
1000.000000	0.352745
1001.000000	0.352824
1002.000000	0.352642
1003.000000	0.352558
1004.000000	0.352493
1005.000000	0.352501
1006.000000	0.352322
1007.000000	0.352107
1008.000000	0.351963
1009.000000	0.351890
1010.000000	0.351368
1011.000000	0.351539
1012.000000	0.352041
1013.000000	0.351931
1014.000000	0.351897
1015.000000	0.351686
1016.000000	0.351616
1017.000000	0.351674
1018.000000	0.351739
1019.000000	0.351836
1020.000000	0.352193
1021.000000	0.351907
1022.000000	0.351465
1023.000000	0.351591
1024.000000	0.351650
1025.000000	0.351653
1026.000000	0.351987
1027.000000	0.352188
1028.000000	0.352167
1029.000000	0.352405
1030.000000	0.352515
1031.000000	0.352405
1032.000000	0.352485
1033.000000	0.352572
1034.000000	0.352670
1035.000000	0.352977
1036.000000	0.353076
1037.000000	0.353009
1038.000000	0.352943
1039.000000	0.352820
1040.000000	0.352997
1041.000000	0.353218
1042.000000	0.353371
1043.000000	0.353767
1044.000000	0.353990
1045.000000	0.354097
1046.000000	0.354233
1047.000000	0.354472
1048.000000	0.354763
1049.000000	0.354839
1050.000000	0.354855
1051.000000	0.354961
1052.000000	0.354766
1053.000000	0.354779
1054.000000	0.355342
1055.000000	0.355686
1056.000000	0.356027
1057.000000	0.356306
1058.000000	0.356461
1059.000000	0.356393
1060.000000	0.356457
1061.000000	0.356674
1062.000000	0.356872
1063.000000	0.357090
1064.000000	0.357341
1065.000000	0.357517
1066.000000	0.357767
1067.000000	0.358093
1068.000000	0.358310
1069.000000	0.358412
1070.000000	0.358556
1071.000000	0.358694
1072.000000	0.358912
1073.000000	0.359210
1074.000000	0.359641
1075.000000	0.360010
1076.000000	0.360310
1077.000000	0.360387
1078.000000	0.360381
1079.000000	0.360493
1080.000000	0.360587
1081.000000	0.360748
1082.000000	0.361118
1083.000000	0.361401
1084.000000	0.361739
1085.000000	0.362032
1086.000000	0.362261
1087.000000	0.362553
1088.000000	0.362793
1089.000000	0.362939
1090.000000	0.363013
1091.000000	0.363066
1092.000000	0.363176
1093.000000	0.363456
1094.000000	0.363648
1095.000000	0.363829
1096.000000	0.364159
1097.000000	0.364555
1098.000000	0.364821
1099.000000	0.365115
1100.000000	0.365422
1101.000000	0.365519
1102.000000	0.365696
1103.000000	0.365950
1104.000000	0.366217
1105.000000	0.366437
1106.000000	0.366672
1107.000000	0.366909
1108.000000	0.367126
1109.000000	0.367412
1110.000000	0.367623
1111.000000	0.367834
1112.000000	0.368053
1113.000000	0.368304
1114.000000	0.368562
1115.000000	0.368764
1116.000000	0.368990
1117.000000	0.369187
1118.000000	0.369294
1119.000000	0.369381
1120.000000	0.369484
1121.000000	0.369570
1122.000000	0.369691
1123.000000	0.370015
1124.000000	0.370151
1125.000000	0.370373
1126.000000	0.370624
1127.000000	0.370774
1128.000000	0.370887
1129.000000	0.371018
1130.000000	0.371172
1131.000000	0.371301
1132.000000	0.371398
1133.000000	0.371596
1134.000000	0.371737
1135.000000	0.371724
1136.000000	0.371788
1137.000000	0.371910
1138.000000	0.371922
1139.000000	0.371975
1140.000000	0.372112
1141.000000	0.372142
1142.000000	0.372247
1143.000000	0.372401
1144.000000	0.372606
1145.000000	0.372611
1146.000000	0.372620
1147.000000	0.372622
1148.000000	0.372439
1149.000000	0.372459
1150.000000	0.372598
1151.000000	0.372689
1152.000000	0.372789
1153.000000	0.372850
1154.000000	0.372819
1155.000000	0.372795
1156.000000	0.372743
1157.000000	0.372745
1158.000000	0.372708
1159.000000	0.372686
1160.000000	0.372689
1161.000000	0.372674
1162.000000	0.372712
1163.000000	0.372844
1164.000000	0.372921
1165.000000	0.372953
1166.000000	0.373053
1167.000000	0.373153
1168.000000	0.373148
1169.000000	0.373157
1170.000000	0.373169
1171.000000	0.373132
1172.000000	0.373182
1173.000000	0.373245
1174.000000	0.373312
1175.000000	0.373393
1176.000000	0.373392
1177.000000	0.373476
1178.000000	0.373493
1179.000000	0.373393
1180.000000	0.373305
1181.000000	0.373278
1182.000000	0.373290
1183.000000	0.373372
1184.000000	0.373463
1185.000000	0.373513
1186.000000	0.373557
1187.000000	0.373573
1188.000000	0.373554
1189.000000	0.373529
1190.000000	0.373551
1191.000000	0.373566
1192.000000	0.373676
1193.000000	0.373852
1194.000000	0.373944
1195.000000	0.374012
1196.000000	0.374022
1197.000000	0.374031
1198.000000	0.374020
1199.000000	0.374036
1200.000000	0.374030
1201.000000	0.374069
1202.000000	0.374141
1203.000000	0.374174
1204.000000	0.374177
1205.000000	0.374262
1206.000000	0.374286
1207.000000	0.374407
1208.000000	0.374404
1209.000000	0.374408
1210.000000	0.374452
1211.000000	0.374472
1212.000000	0.374472
1213.000000	0.374570
1214.000000	0.374626
1215.000000	0.374570
1216.000000	0.374582
1217.000000	0.374610
1218.000000	0.374604
1219.000000	0.374608
1220.000000	0.374653
1221.000000	0.374733
1222.000000	0.374837
1223.000000	0.374940
1224.000000	0.375014
1225.000000	0.375040
1226.000000	0.375095
1227.000000	0.375121
1228.000000	0.375201
1229.000000	0.375186
1230.000000	0.375087
1231.000000	0.374985
1232.000000	0.374955
1233.000000	0.375034
1234.000000	0.375193
1235.000000	0.375222
1236.000000	0.375091
1237.000000	0.375124
1238.000000	0.375081
1239.000000	0.375075
1240.000000	0.375169
1241.000000	0.375273
1242.000000	0.375298
1243.000000	0.375287
1244.000000	0.375323
1245.000000	0.375494
1246.000000	0.375572
1247.000000	0.375750
1248.000000	0.375959
1249.000000	0.376027
1250.000000	0.376113
1251.000000	0.376202
1252.000000	0.376228
1253.000000	0.376219
1254.000000	0.376224
1255.000000	0.376164
1256.000000	0.376188
1257.000000	0.376295
1258.000000	0.376398
1259.000000	0.376468
1260.000000	0.376583
1261.000000	0.376620
1262.000000	0.376674
1263.000000	0.376773
1264.000000	0.376865
1265.000000	0.376990
1266.000000	0.377069
1267.000000	0.377144
1268.000000	0.377208
1269.000000	0.377185
1270.000000	0.377326
1271.000000	0.377418
1272.000000	0.377490
1273.000000	0.377693
1274.000000	0.377751
1275.000000	0.377766
1276.000000	0.377779
1277.000000	0.377894
1278.000000	0.377877
1279.000000	0.377870
1280.000000	0.377845
1281.000000	0.377805
1282.000000	0.377738
1283.000000	0.377807
1284.000000	0.377926
1285.000000	0.378008
1286.000000	0.378076
1287.000000	0.378095
1288.000000	0.378193
1289.000000	0.378235
1290.000000	0.378209
1291.000000	0.378260
1292.000000	0.378309
1293.000000	0.378293
1294.000000	0.378276
1295.000000	0.378302
1296.000000	0.378242
1297.000000	0.378214
1298.000000	0.378296
1299.000000	0.378320
1300.000000	0.378406
1301.000000	0.378423
1302.000000	0.378348
1303.000000	0.378323
1304.000000	0.378241
1305.000000	0.378206
1306.000000	0.378121
1307.000000	0.378023
1308.000000	0.378002
1309.000000	0.377984
1310.000000	0.377978
1311.000000	0.378092
1312.000000	0.378054
1313.000000	0.377990
1314.000000	0.377920
1315.000000	0.377745
1316.000000	0.377692
1317.000000	0.377676
1318.000000	0.377583
1319.000000	0.377444
1320.000000	0.377355
1321.000000	0.377205
1322.000000	0.376995
1323.000000	0.376911
1324.000000	0.376862
1325.000000	0.376674
1326.000000	0.376513
1327.000000	0.376389
1328.000000	0.376225
1329.000000	0.376025
1330.000000	0.375875
1331.000000	0.375736
1332.000000	0.375650
1333.000000	0.375502
1334.000000	0.375436
1335.000000	0.375328
1336.000000	0.375083
1337.000000	0.374914
1338.000000	0.374729
1339.000000	0.374578
1340.000000	0.374362
1341.000000	0.374220
1342.000000	0.374047
1343.000000	0.373832
1344.000000	0.373699
1345.000000	0.373485
1346.000000	0.373328
1347.000000	0.373057
1348.000000	0.372770
1349.000000	0.372493
1350.000000	0.372265
1351.000000	0.372039
1352.000000	0.371790
1353.000000	0.371495
1354.000000	0.371206
1355.000000	0.370902
1356.000000	0.370635
1357.000000	0.370366
1358.000000	0.370103
1359.000000	0.369779
1360.000000	0.369483
1361.000000	0.369242
1362.000000	0.368974
1363.000000	0.368661
1364.000000	0.368425
1365.000000	0.368191
1366.000000	0.367965
1367.000000	0.367762
1368.000000	0.367539
1369.000000	0.367411
1370.000000	0.367119
1371.000000	0.366782
1372.000000	0.366439
1373.000000	0.366066
1374.000000	0.365735
1375.000000	0.365392
1376.000000	0.365142
1377.000000	0.364823
1378.000000	0.364439
1379.000000	0.363927
1380.000000	0.363352
1381.000000	0.362785
1382.000000	0.362170
1383.000000	0.361659
1384.000000	0.361049
1385.000000	0.360354
1386.000000	0.359694
1387.000000	0.358920
1388.000000	0.358089
1389.000000	0.357271
1390.000000	0.356405
1391.000000	0.355382
1392.000000	0.354358
1393.000000	0.353240
1394.000000	0.352040
1395.000000	0.350813
1396.000000	0.349569
1397.000000	0.348205
1398.000000	0.346691
1399.000000	0.345232
1400.000000	0.343716
1401.000000	0.342173
1402.000000	0.340664
1403.000000	0.339134
1404.000000	0.337657
1405.000000	0.336185
1406.000000	0.334729
1407.000000	0.333333
1408.000000	0.331863
1409.000000	0.330495
1410.000000	0.329253
1411.000000	0.327924
1412.000000	0.326607
1413.000000	0.325338
1414.000000	0.324041
1415.000000	0.322862
1416.000000	0.321731
1417.000000	0.320591
1418.000000	0.319404
1419.000000	0.318223
1420.000000	0.317005
1421.000000	0.315888
1422.000000	0.314807
1423.000000	0.313803
1424.000000	0.312773
1425.000000	0.311751
1426.000000	0.310714
1427.000000	0.309713
1428.000000	0.308753
1429.000000	0.307801
1430.000000	0.306893
1431.000000	0.306024
1432.000000	0.305179
1433.000000	0.304418
1434.000000	0.303613
1435.000000	0.302879
1436.000000	0.302158
1437.000000	0.301397
1438.000000	0.300692
1439.000000	0.300077
1440.000000	0.299506
1441.000000	0.298979
1442.000000	0.298518
1443.000000	0.298049
1444.000000	0.297665
1445.000000	0.297342
1446.000000	0.297041
1447.000000	0.296822
1448.000000	0.296622
1449.000000	0.296424
1450.000000	0.296289
1451.000000	0.296194
1452.000000	0.296055
1453.000000	0.295881
1454.000000	0.295706
1455.000000	0.295561
1456.000000	0.295489
1457.000000	0.295476
1458.000000	0.295434
1459.000000	0.295339
1460.000000	0.295219
1461.000000	0.295098
1462.000000	0.295014
1463.000000	0.294906
1464.000000	0.294830
1465.000000	0.294804
1466.000000	0.294746
1467.000000	0.294717
1468.000000	0.294707
1469.000000	0.294747
1470.000000	0.294747
1471.000000	0.294819
1472.000000	0.294962
1473.000000	0.295187
1474.000000	0.295419
1475.000000	0.295712
1476.000000	0.296033
1477.000000	0.296316
1478.000000	0.296663
1479.000000	0.297060
1480.000000	0.297458
1481.000000	0.297870
1482.000000	0.298396
1483.000000	0.298890
1484.000000	0.299357
1485.000000	0.299858
1486.000000	0.300389
1487.000000	0.300874
1488.000000	0.301350
1489.000000	0.301888
1490.000000	0.302316
1491.000000	0.302796
1492.000000	0.303305
1493.000000	0.303800
1494.000000	0.304233
1495.000000	0.304688
1496.000000	0.305151
1497.000000	0.305611
1498.000000	0.306085
1499.000000	0.306554
1500.000000	0.307016
1501.000000	0.307471
1502.000000	0.307885
1503.000000	0.308320
1504.000000	0.308762
1505.000000	0.309152
1506.000000	0.309542
1507.000000	0.309901
1508.000000	0.310288
1509.000000	0.310692
1510.000000	0.311024
1511.000000	0.311375
1512.000000	0.311681
1513.000000	0.311925
1514.000000	0.312257
1515.000000	0.312504
1516.000000	0.312695
1517.000000	0.312905
1518.000000	0.313092
1519.000000	0.313243
1520.000000	0.313448
1521.000000	0.313619
1522.000000	0.313814
1523.000000	0.314069
1524.000000	0.314254
1525.000000	0.314450
1526.000000	0.314606
1527.000000	0.314737
1528.000000	0.314927
1529.000000	0.315107
1530.000000	0.315215
1531.000000	0.315371
1532.000000	0.315534
1533.000000	0.315644
1534.000000	0.315778
1535.000000	0.315917
1536.000000	0.315979
1537.000000	0.316086
1538.000000	0.316227
1539.000000	0.316282
1540.000000	0.316328
1541.000000	0.316461
1542.000000	0.316546
1543.000000	0.316613
1544.000000	0.316714
1545.000000	0.316787
1546.000000	0.316869
1547.000000	0.316989
1548.000000	0.317090
1549.000000	0.317161
1550.000000	0.317208
1551.000000	0.317243
1552.000000	0.317287
1553.000000	0.317299
1554.000000	0.317305
1555.000000	0.317351
1556.000000	0.317407
1557.000000	0.317417
1558.000000	0.317452
1559.000000	0.317434
1560.000000	0.317429
1561.000000	0.317470
1562.000000	0.317491
1563.000000	0.317550
1564.000000	0.317587
1565.000000	0.317613
1566.000000	0.317548
1567.000000	0.317533
1568.000000	0.317523
1569.000000	0.317541
1570.000000	0.317560
1571.000000	0.317592
1572.000000	0.317583
1573.000000	0.317566
1574.000000	0.317531
1575.000000	0.317479
1576.000000	0.317491
1577.000000	0.317504
1578.000000	0.317497
1579.000000	0.317584
1580.000000	0.317605
1581.000000	0.317654
1582.000000	0.317648
1583.000000	0.317600
1584.000000	0.317539
1585.000000	0.317505
1586.000000	0.317502
1587.000000	0.317498
1588.000000	0.317520
1589.000000	0.317589
1590.000000	0.317626
1591.000000	0.317715
1592.000000	0.317747
1593.000000	0.317751
1594.000000	0.317752
1595.000000	0.317775
1596.000000	0.317802
1597.000000	0.317859
1598.000000	0.317887
1599.000000	0.317947
1600.000000	0.317962
1601.000000	0.318006
1602.000000	0.318059
1603.000000	0.318136
1604.000000	0.318202
1605.000000	0.318326
1606.000000	0.318394
1607.000000	0.318478
1608.000000	0.318534
1609.000000	0.318623
1610.000000	0.318644
1611.000000	0.318612
1612.000000	0.318655
1613.000000	0.318804
1614.000000	0.318881
1615.000000	0.319049
1616.000000	0.319214
1617.000000	0.319270
1618.000000	0.319366
1619.000000	0.319497
1620.000000	0.319610
1621.000000	0.319729
1622.000000	0.319920
1623.000000	0.320094
1624.000000	0.320295
1625.000000	0.320408
1626.000000	0.320520
1627.000000	0.320659
1628.000000	0.320865
1629.000000	0.321079
1630.000000	0.321297
1631.000000	0.321505
1632.000000	0.321682
1633.000000	0.321816
1634.000000	0.322037
1635.000000	0.322360
1636.000000	0.322598
1637.000000	0.322878
1638.000000	0.323079
1639.000000	0.323242
1640.000000	0.323440
1641.000000	0.323712
1642.000000	0.323912
1643.000000	0.324133
1644.000000	0.324320
1645.000000	0.324436
1646.000000	0.324582
1647.000000	0.324773
1648.000000	0.324921
1649.000000	0.325138
1650.000000	0.325370
1651.000000	0.325662
1652.000000	0.325922
1653.000000	0.326120
1654.000000	0.326370
1655.000000	0.326555
1656.000000	0.326679
1657.000000	0.326895
1658.000000	0.327068
1659.000000	0.327273
1660.000000	0.327523
1661.000000	0.327708
1662.000000	0.327936
1663.000000	0.328173
1664.000000	0.328377
1665.000000	0.328582
1666.000000	0.328870
1667.000000	0.329066
1668.000000	0.329290
1669.000000	0.329567
1670.000000	0.329718
1671.000000	0.329908
1672.000000	0.330126
1673.000000	0.330268
1674.000000	0.330500
1675.000000	0.330785
1676.000000	0.331013
1677.000000	0.331198
1678.000000	0.331306
1679.000000	0.331380
1680.000000	0.331464
1681.000000	0.331597
1682.000000	0.331757
1683.000000	0.331950
1684.000000	0.332105
1685.000000	0.332248
1686.000000	0.332356
1687.000000	0.332439
1688.000000	0.332463
1689.000000	0.332493
1690.000000	0.332532
1691.000000	0.332638
1692.000000	0.332705
1693.000000	0.332819
1694.000000	0.332931
1695.000000	0.333048
1696.000000	0.333147
1697.000000	0.333190
1698.000000	0.333212
1699.000000	0.333306
1700.000000	0.333434
1701.000000	0.333635
1702.000000	0.333735
1703.000000	0.333785
1704.000000	0.333910
1705.000000	0.334012
1706.000000	0.334119
1707.000000	0.334239
1708.000000	0.334326
1709.000000	0.334376
1710.000000	0.334533
1711.000000	0.334661
1712.000000	0.334770
1713.000000	0.334897
1714.000000	0.335077
1715.000000	0.335243
1716.000000	0.335462
1717.000000	0.335610
1718.000000	0.335666
1719.000000	0.335743
1720.000000	0.335861
1721.000000	0.335947
1722.000000	0.336008
1723.000000	0.336123
1724.000000	0.336276
1725.000000	0.336426
1726.000000	0.336516
1727.000000	0.336656
1728.000000	0.336729
1729.000000	0.336785
1730.000000	0.337029
1731.000000	0.337179
1732.000000	0.337270
1733.000000	0.337479
1734.000000	0.337584
1735.000000	0.337746
1736.000000	0.337936
1737.000000	0.338090
1738.000000	0.338263
1739.000000	0.338411
1740.000000	0.338527
1741.000000	0.338618
1742.000000	0.338697
1743.000000	0.338828
1744.000000	0.338946
1745.000000	0.339008
1746.000000	0.339060
1747.000000	0.339085
1748.000000	0.339063
1749.000000	0.339027
1750.000000	0.339005
1751.000000	0.339101
1752.000000	0.339276
1753.000000	0.339371
1754.000000	0.339495
1755.000000	0.339602
1756.000000	0.339686
1757.000000	0.339775
1758.000000	0.339887
1759.000000	0.339971
1760.000000	0.340064
1761.000000	0.340153
1762.000000	0.340213
1763.000000	0.340264
1764.000000	0.340330
1765.000000	0.340338
1766.000000	0.340410
1767.000000	0.340425
1768.000000	0.340455
1769.000000	0.340639
1770.000000	0.340791
1771.000000	0.340922
1772.000000	0.340985
1773.000000	0.340898
1774.000000	0.340968
1775.000000	0.341152
1776.000000	0.341256
1777.000000	0.341378
1778.000000	0.341466
1779.000000	0.341447
1780.000000	0.341524
1781.000000	0.341664
1782.000000	0.341673
1783.000000	0.341628
1784.000000	0.341727
1785.000000	0.341803
1786.000000	0.342005
1787.000000	0.342324
1788.000000	0.342473
1789.000000	0.342573
1790.000000	0.342698
1791.000000	0.342753
1792.000000	0.342891
1793.000000	0.342990
1794.000000	0.343013
1795.000000	0.343138
1796.000000	0.343306
1797.000000	0.343446
1798.000000	0.343609
1799.000000	0.343765
1800.000000	0.343960
1801.000000	0.343294
1802.000000	0.343696
1803.000000	0.344345
1804.000000	0.344565
1805.000000	0.344250
1806.000000	0.344328
1807.000000	0.344558
1808.000000	0.344587
1809.000000	0.344478
1810.000000	0.344607
1811.000000	0.344723
1812.000000	0.344670
1813.000000	0.344948
1814.000000	0.345751
1815.000000	0.346049
1816.000000	0.346286
1817.000000	0.346207
1818.000000	0.345715
1819.000000	0.345598
1820.000000	0.345504
1821.000000	0.345287
1822.000000	0.345204
1823.000000	0.345257
1824.000000	0.345069
1825.000000	0.344494
1826.000000	0.344492
1827.000000	0.344611
1828.000000	0.344716
1829.000000	0.344970
1830.000000	0.345079
1831.000000	0.344927
1832.000000	0.344235
1833.000000	0.344012
1834.000000	0.343826
1835.000000	0.343768
1836.000000	0.343921
1837.000000	0.343900
1838.000000	0.343858
1839.000000	0.343609
1840.000000	0.343090
1841.000000	0.342767
1842.000000	0.342364
1843.000000	0.341711
1844.000000	0.341399
1845.000000	0.341193
1846.000000	0.340996
1847.000000	0.340823
1848.000000	0.340578
1849.000000	0.340312
1850.000000	0.339524
1851.000000	0.339067
1852.000000	0.338566
1853.000000	0.338133
1854.000000	0.337713
1855.000000	0.337128
1856.000000	0.336405
1857.000000	0.335495
1858.000000	0.334560
1859.000000	0.333636
1860.000000	0.332840
1861.000000	0.331960
1862.000000	0.330804
1863.000000	0.329664
1864.000000	0.328322
1865.000000	0.326577
1866.000000	0.325010
1867.000000	0.323488
1868.000000	0.321695
1869.000000	0.319783
1870.000000	0.317987
1871.000000	0.316086
1872.000000	0.314182
1873.000000	0.312243
1874.000000	0.310393
1875.000000	0.308271
1876.000000	0.305891
1877.000000	0.303102
1878.000000	0.299949
1879.000000	0.296886
1880.000000	0.293497
1881.000000	0.290195
1882.000000	0.286944
1883.000000	0.283360
1884.000000	0.279857
1885.000000	0.276006
1886.000000	0.272126
1887.000000	0.268213
1888.000000	0.264223
1889.000000	0.259765
1890.000000	0.255814
1891.000000	0.251885
1892.000000	0.247332
1893.000000	0.243023
1894.000000	0.238506
1895.000000	0.233720
1896.000000	0.228569
1897.000000	0.223956
1898.000000	0.219260
1899.000000	0.214920
1900.000000	0.211171
1901.000000	0.207568
1902.000000	0.204192
1903.000000	0.200910
1904.000000	0.197775
1905.000000	0.194663
1906.000000	0.191652
1907.000000	0.188682
1908.000000	0.186110
1909.000000	0.183746
1910.000000	0.181511
1911.000000	0.179659
1912.000000	0.177888
1913.000000	0.176142
1914.000000	0.174642
1915.000000	0.173027
1916.000000	0.171290
1917.000000	0.169772
1918.000000	0.168387
1919.000000	0.167122
1920.000000	0.166022
1921.000000	0.165388
1922.000000	0.164771
1923.000000	0.164205
1924.000000	0.163907
1925.000000	0.163563
1926.000000	0.163302
1927.000000	0.163326
1928.000000	0.163266
1929.000000	0.163284
1930.000000	0.163245
1931.000000	0.163279
1932.000000	0.163247
1933.000000	0.163215
1934.000000	0.163447
1935.000000	0.163618
1936.000000	0.163723
1937.000000	0.163943
1938.000000	0.163964
1939.000000	0.163880
1940.000000	0.163691
1941.000000	0.163531
1942.000000	0.163343
1943.000000	0.163117
1944.000000	0.163016
1945.000000	0.162912
1946.000000	0.162703
1947.000000	0.162520
1948.000000	0.162168
1949.000000	0.161752
1950.000000	0.161300
1951.000000	0.160806
1952.000000	0.160181
1953.000000	0.159810
1954.000000	0.159551
1955.000000	0.159380
1956.000000	0.159242
1957.000000	0.158901
1958.000000	0.158733
1959.000000	0.158633
1960.000000	0.158464
1961.000000	0.158266
1962.000000	0.158020
1963.000000	0.157644
1964.000000	0.157324
1965.000000	0.157204
1966.000000	0.157270
1967.000000	0.157342
1968.000000	0.157313
1969.000000	0.157246
1970.000000	0.157182
1971.000000	0.157215
1972.000000	0.157365
1973.000000	0.157459
1974.000000	0.157650
1975.000000	0.157778
1976.000000	0.157841
1977.000000	0.158151
1978.000000	0.158243
1979.000000	0.158460
1980.000000	0.159113
1981.000000	0.159443
1982.000000	0.159716
1983.000000	0.160199
1984.000000	0.160631
1985.000000	0.160956
1986.000000	0.161384
1987.000000	0.161983
1988.000000	0.162552
1989.000000	0.162974
1990.000000	0.163566
1991.000000	0.164106
1992.000000	0.164674
1993.000000	0.165525
1994.000000	0.166169
1995.000000	0.166824
1996.000000	0.167774
1997.000000	0.168584
1998.000000	0.169334
1999.000000	0.170195
2000.000000	0.171238
2001.000000	0.171914
2002.000000	0.172594
2003.000000	0.173406
2004.000000	0.174112
2005.000000	0.174971
2006.000000	0.175976
2007.000000	0.177120
2008.000000	0.178235
2009.000000	0.179336
2010.000000	0.180438
2011.000000	0.181613
2012.000000	0.182611
2013.000000	0.183352
2014.000000	0.184362
2015.000000	0.185497
2016.000000	0.186276
2017.000000	0.187228
2018.000000	0.188263
2019.000000	0.189021
2020.000000	0.189937
2021.000000	0.190943
2022.000000	0.192008
2023.000000	0.193010
2024.000000	0.194163
2025.000000	0.195234
2026.000000	0.196130
2027.000000	0.197051
2028.000000	0.198168
2029.000000	0.199104
2030.000000	0.199896
2031.000000	0.200893
2032.000000	0.201698
2033.000000	0.202511
2034.000000	0.203419
2035.000000	0.204498
2036.000000	0.205453
2037.000000	0.206607
2038.000000	0.207539
2039.000000	0.208485
2040.000000	0.209225
2041.000000	0.209715
2042.000000	0.210533
2043.000000	0.211370
2044.000000	0.212164
2045.000000	0.213234
2046.000000	0.214132
2047.000000	0.215063
2048.000000	0.216079
2049.000000	0.216965
2050.000000	0.217480
2051.000000	0.218086
2052.000000	0.218343
2053.000000	0.218957
2054.000000	0.219966
2055.000000	0.220989
2056.000000	0.222014
2057.000000	0.223057
2058.000000	0.223673
2059.000000	0.224425
2060.000000	0.225125
2061.000000	0.225740
2062.000000	0.226356
2063.000000	0.226996
2064.000000	0.227553
2065.000000	0.228273
2066.000000	0.228892
2067.000000	0.229647
2068.000000	0.230427
2069.000000	0.231150
2070.000000	0.231913
2071.000000	0.232542
2072.000000	0.233194
2073.000000	0.233943
2074.000000	0.234858
2075.000000	0.235726
2076.000000	0.236774
2077.000000	0.237604
2078.000000	0.238240
2079.000000	0.238939
2080.000000	0.239670
2081.000000	0.240430
2082.000000	0.241120
2083.000000	0.242061
2084.000000	0.243038
2085.000000	0.243665
2086.000000	0.244546
2087.000000	0.245449
2088.000000	0.246141
2089.000000	0.247002
2090.000000	0.247839
2091.000000	0.248671
2092.000000	0.249511
2093.000000	0.250598
2094.000000	0.251388
2095.000000	0.252031
2096.000000	0.252640
2097.000000	0.253090
2098.000000	0.253287
2099.000000	0.253660
2100.000000	0.254321
2101.000000	0.255082
2102.000000	0.255896
2103.000000	0.256503
2104.000000	0.257103
2105.000000	0.257606
2106.000000	0.257770
2107.000000	0.258335
2108.000000	0.259008
2109.000000	0.259737
2110.000000	0.260673
2111.000000	0.261380
2112.000000	0.261903
2113.000000	0.262371
2114.000000	0.262899
2115.000000	0.263208
2116.000000	0.263533
2117.000000	0.263717
2118.000000	0.263856
2119.000000	0.264250
2120.000000	0.264743
2121.000000	0.265522
2122.000000	0.266058
2123.000000	0.266582
2124.000000	0.267079
2125.000000	0.267556
2126.000000	0.267860
2127.000000	0.268059
2128.000000	0.268445
2129.000000	0.268668
2130.000000	0.268888
2131.000000	0.269519
2132.000000	0.270068
2133.000000	0.270503
2134.000000	0.271313
2135.000000	0.271521
2136.000000	0.271659
2137.000000	0.271877
2138.000000	0.271848
2139.000000	0.272044
2140.000000	0.272497
2141.000000	0.272768
2142.000000	0.273077
2143.000000	0.273103
2144.000000	0.273088
2145.000000	0.273176
2146.000000	0.273297
2147.000000	0.273474
2148.000000	0.273533
2149.000000	0.273853
2150.000000	0.273914
2151.000000	0.273980
2152.000000	0.274220
2153.000000	0.274120
2154.000000	0.274078
2155.000000	0.273940
2156.000000	0.273953
2157.000000	0.274058
2158.000000	0.274147
2159.000000	0.274335
2160.000000	0.274678
2161.000000	0.275157
2162.000000	0.275397
2163.000000	0.275518
2164.000000	0.275687
2165.000000	0.275529
2166.000000	0.275690
2167.000000	0.276249
2168.000000	0.276442
2169.000000	0.276776
2170.000000	0.277082
2171.000000	0.277272
2172.000000	0.277525
2173.000000	0.277546
2174.000000	0.277282
2175.000000	0.277201
2176.000000	0.277070
2177.000000	0.276932
2178.000000	0.276983
2179.000000	0.276907
2180.000000	0.276361
2181.000000	0.276528
2182.000000	0.276718
2183.000000	0.276587
2184.000000	0.276669
2185.000000	0.276914
2186.000000	0.276495
2187.000000	0.276242
2188.000000	0.276235
2189.000000	0.275843
2190.000000	0.275424
2191.000000	0.276041
2192.000000	0.276364
2193.000000	0.277023
2194.000000	0.277106
2195.000000	0.276877
2196.000000	0.276983
2197.000000	0.276835
2198.000000	0.276842
2199.000000	0.277666
2200.000000	0.277914
2201.000000	0.277462
2202.000000	0.277448
2203.000000	0.277505
2204.000000	0.276972
2205.000000	0.276990
2206.000000	0.277466
2207.000000	0.277427
2208.000000	0.277654
2209.000000	0.278280
2210.000000	0.278291
2211.000000	0.278041
2212.000000	0.278964
2213.000000	0.279131
2214.000000	0.278683
2215.000000	0.278441
2216.000000	0.278394
2217.000000	0.277994
2218.000000	0.276903
2219.000000	0.276845
2220.000000	0.277244
2221.000000	0.277550
2222.000000	0.278852
2223.000000	0.279120
2224.000000	0.278866
2225.000000	0.278363
2226.000000	0.277529
2227.000000	0.276230
2228.000000	0.275961
2229.000000	0.275456
2230.000000	0.275270
2231.000000	0.275919
2232.000000	0.276267
2233.000000	0.276983
2234.000000	0.276505
2235.000000	0.276738
2236.000000	0.277131
2237.000000	0.277276
2238.000000	0.277594
2239.000000	0.278563
2240.000000	0.278954
2241.000000	0.279274
2242.000000	0.279169
2243.000000	0.278893
2244.000000	0.278564
2245.000000	0.277047
2246.000000	0.276649
2247.000000	0.276768
2248.000000	0.276941
2249.000000	0.277896
2250.000000	0.278962
2251.000000	0.278041
2252.000000	0.277089
2253.000000	0.275321
2254.000000	0.274043
2255.000000	0.274829
2256.000000	0.275135
2257.000000	0.275853
2258.000000	0.276586
2259.000000	0.276331
2260.000000	0.276038
2261.000000	0.275456
2262.000000	0.274500
2263.000000	0.273612
2264.000000	0.272461
2265.000000	0.272076
2266.000000	0.272263
2267.000000	0.271383
2268.000000	0.270066
2269.000000	0.269092
2270.000000	0.267563
2271.000000	0.266535
2272.000000	0.266367
2273.000000	0.266130
2274.000000	0.265601
2275.000000	0.265268
2276.000000	0.265741
2277.000000	0.264848
2278.000000	0.263781
2279.000000	0.263151
2280.000000	0.262191
2281.000000	0.261421
2282.000000	0.260738
2283.000000	0.259343
2284.000000	0.257875
2285.000000	0.256463
2286.000000	0.255503
2287.000000	0.254914
2288.000000	0.254398
2289.000000	0.254238
2290.000000	0.252646
2291.000000	0.250915
2292.000000	0.249447
2293.000000	0.247052
2294.000000	0.245745
2295.000000	0.245312
2296.000000	0.244531
2297.000000	0.244066
2298.000000	0.243673
2299.000000	0.243316
2300.000000	0.242941
2301.000000	0.242377
2302.000000	0.242346
2303.000000	0.242553
2304.000000	0.242425
2305.000000	0.242910
2306.000000	0.242792
2307.000000	0.241486
2308.000000	0.241727
2309.000000	0.242557
2310.000000	0.242545
2311.000000	0.243236
2312.000000	0.243284
2313.000000	0.242690
2314.000000	0.242090
2315.000000	0.240811
2316.000000	0.240141
2317.000000	0.239264
2318.000000	0.238441
2319.000000	0.238765
2320.000000	0.238620
2321.000000	0.238540
2322.000000	0.238756
2323.000000	0.237504
2324.000000	0.235989
2325.000000	0.234611
2326.000000	0.232847
2327.000000	0.232177
2328.000000	0.232015
2329.000000	0.231873
2330.000000	0.230930
2331.000000	0.229286
2332.000000	0.228728
2333.000000	0.227914
2334.000000	0.227055
2335.000000	0.227086
2336.000000	0.227986
2337.000000	0.227379
2338.000000	0.226799
2339.000000	0.225455
2340.000000	0.222428
2341.000000	0.220637
2342.000000	0.218771
2343.000000	0.217751
2344.000000	0.218125
2345.000000	0.217109
2346.000000	0.216145
2347.000000	0.215064
2348.000000	0.213395
2349.000000	0.210911
2350.000000	0.209548
2351.000000	0.207600
2352.000000	0.205542
2353.000000	0.205918
2354.000000	0.204980
2355.000000	0.204438
2356.000000	0.204391
2357.000000	0.202027
2358.000000	0.201569
2359.000000	0.200200
2360.000000	0.198594
2361.000000	0.199003
2362.000000	0.197906
2363.000000	0.197502
2364.000000	0.196372
2365.000000	0.193797
2366.000000	0.191479
2367.000000	0.189157
2368.000000	0.187828
2369.000000	0.187164
2370.000000	0.186119
2371.000000	0.185658
2372.000000	0.186228
2373.000000	0.185263
2374.000000	0.183708
2375.000000	0.182318
2376.000000	0.179881
2377.000000	0.178229
2378.000000	0.176846
2379.000000	0.176771
2380.000000	0.177420
2381.000000	0.175628
2382.000000	0.175183
2383.000000	0.174198
2384.000000	0.169604
2385.000000	0.168810
2386.000000	0.168220
2387.000000	0.166175
2388.000000	0.168255
2389.000000	0.168528
2390.000000	0.168344
2391.000000	0.169574
2392.000000	0.168844
2393.000000	0.169435
2394.000000	0.170819
2395.000000	0.171320
2396.000000	0.172308
2397.000000	0.172527
2398.000000	0.171402
2399.000000	0.169627
2400.000000	0.168138
2401.000000	0.166344
2402.000000	0.165199
2403.000000	0.167420
2404.000000	0.169239
2405.000000	0.169168
2406.000000	0.169698
2407.000000	0.165899
2408.000000	0.160041
2409.000000	0.158204
2410.000000	0.154186
2411.000000	0.153055
2412.000000	0.157170
2413.000000	0.157619
2414.000000	0.159964
2415.000000	0.162544
2416.000000	0.161160
2417.000000	0.160396
2418.000000	0.158706
2419.000000	0.157899
2420.000000	0.157300
2421.000000	0.157087
2422.000000	0.160316
2423.000000	0.158954
2424.000000	0.155895
2425.000000	0.155708
2426.000000	0.150615
2427.000000	0.145398
2428.000000	0.144981
2429.000000	0.144167
2430.000000	0.143488
2431.000000	0.148301
2432.000000	0.153387
2433.000000	0.154169
2434.000000	0.158300
2435.000000	0.160080
2436.000000	0.158621
2437.000000	0.160931
2438.000000	0.159705
2439.000000	0.160076
2440.000000	0.164448
2441.000000	0.163024
2442.000000	0.163215
2443.000000	0.164328
2444.000000	0.158170
2445.000000	0.154537
2446.000000	0.151820
2447.000000	0.147771
2448.000000	0.144232
2449.000000	0.142408
2450.000000	0.145287
2451.000000	0.144874
2452.000000	0.150693
2453.000000	0.157752
2454.000000	0.156704
2455.000000	0.160302
2456.000000	0.160983
2457.000000	0.156293
2458.000000	0.156215
2459.000000	0.158597
2460.000000	0.158367
2461.000000	0.159287
2462.000000	0.158639
2463.000000	0.148266
2464.000000	0.136380
2465.000000	0.132109
2466.000000	0.129857
2467.000000	0.132872
2468.000000	0.140564
2469.000000	0.138797
2470.000000	0.139644
2471.000000	0.136790
2472.000000	0.132732
2473.000000	0.132338
2474.000000	0.124457
2475.000000	0.125593
2476.000000	0.121475
2477.000000	0.123850
2478.000000	0.138682
2479.000000	0.145752
2480.000000	0.153923
2481.000000	0.155646
2482.000000	0.150532
2483.000000	0.146045
2484.000000	0.146763
2485.000000	0.149009
2486.000000	0.146966
2487.000000	0.147246
2488.000000	0.144514
2489.000000	0.144005
2490.000000	0.145680
2491.000000	0.143589
2492.000000	0.137730
2493.000000	0.125821
2494.000000	0.123886
2495.000000	0.125870
2496.000000	0.119841
2497.000000	0.119894
2498.000000	0.110109
2499.000000	0.087711
2500.000000	0.080804
