# Wavelength	NAu-2-60_HEX-20_FV7-20_000000002.asd.rts.txt
350.000000	0.096231
351.000000	0.100253
352.000000	0.096990
353.000000	0.092317
354.000000	0.090482
355.000000	0.088456
356.000000	0.087123
357.000000	0.088073
358.000000	0.092286
359.000000	0.092177
360.000000	0.091393
361.000000	0.094445
362.000000	0.092911
363.000000	0.090675
364.000000	0.090339
365.000000	0.090088
366.000000	0.089854
367.000000	0.089232
368.000000	0.087706
369.000000	0.086875
370.000000	0.087591
371.000000	0.090050
372.000000	0.091846
373.000000	0.092603
374.000000	0.092520
375.000000	0.091332
376.000000	0.092107
377.000000	0.094192
378.000000	0.093327
379.000000	0.093395
380.000000	0.093851
381.000000	0.093303
382.000000	0.092531
383.000000	0.092510
384.000000	0.093445
385.000000	0.093052
386.000000	0.093266
387.000000	0.094133
388.000000	0.093397
389.000000	0.093606
390.000000	0.094653
391.000000	0.095358
392.000000	0.094684
393.000000	0.094397
394.000000	0.095567
395.000000	0.095907
396.000000	0.095981
397.000000	0.096065
398.000000	0.096027
399.000000	0.096193
400.000000	0.096435
401.000000	0.096407
402.000000	0.096867
403.000000	0.097077
404.000000	0.096664
405.000000	0.097598
406.000000	0.098286
407.000000	0.098074
408.000000	0.097796
409.000000	0.098168
410.000000	0.098756
411.000000	0.098410
412.000000	0.098573
413.000000	0.098919
414.000000	0.098924
415.000000	0.099356
416.000000	0.099764
417.000000	0.099948
418.000000	0.100442
419.000000	0.100925
420.000000	0.101273
421.000000	0.101484
422.000000	0.101799
423.000000	0.102142
424.000000	0.102390
425.000000	0.102658
426.000000	0.102962
427.000000	0.103292
428.000000	0.103641
429.000000	0.103954
430.000000	0.104255
431.000000	0.104690
432.000000	0.105017
433.000000	0.105194
434.000000	0.105325
435.000000	0.105640
436.000000	0.106084
437.000000	0.106522
438.000000	0.106804
439.000000	0.107049
440.000000	0.107338
441.000000	0.107502
442.000000	0.107681
443.000000	0.107953
444.000000	0.108440
445.000000	0.108602
446.000000	0.108746
447.000000	0.109246
448.000000	0.109726
449.000000	0.110165
450.000000	0.110572
451.000000	0.110849
452.000000	0.111300
453.000000	0.111922
454.000000	0.112475
455.000000	0.112769
456.000000	0.113035
457.000000	0.113576
458.000000	0.113949
459.000000	0.114185
460.000000	0.114452
461.000000	0.114984
462.000000	0.115520
463.000000	0.115874
464.000000	0.116236
465.000000	0.116635
466.000000	0.116996
467.000000	0.117224
468.000000	0.117584
469.000000	0.117938
470.000000	0.118180
471.000000	0.118627
472.000000	0.119002
473.000000	0.119178
474.000000	0.119503
475.000000	0.119921
476.000000	0.120380
477.000000	0.120640
478.000000	0.120915
479.000000	0.121307
480.000000	0.121709
481.000000	0.122083
482.000000	0.122413
483.000000	0.122622
484.000000	0.122971
485.000000	0.123308
486.000000	0.123599
487.000000	0.123727
488.000000	0.123934
489.000000	0.124244
490.000000	0.124531
491.000000	0.124745
492.000000	0.124916
493.000000	0.125031
494.000000	0.125108
495.000000	0.125237
496.000000	0.125420
497.000000	0.125498
498.000000	0.125585
499.000000	0.125737
500.000000	0.125843
501.000000	0.125977
502.000000	0.126129
503.000000	0.126218
504.000000	0.126390
505.000000	0.126588
506.000000	0.126752
507.000000	0.126989
508.000000	0.127304
509.000000	0.127651
510.000000	0.127962
511.000000	0.128268
512.000000	0.128604
513.000000	0.128986
514.000000	0.129397
515.000000	0.129803
516.000000	0.130142
517.000000	0.130559
518.000000	0.130987
519.000000	0.131350
520.000000	0.131825
521.000000	0.132294
522.000000	0.132742
523.000000	0.133309
524.000000	0.133893
525.000000	0.134532
526.000000	0.135354
527.000000	0.136225
528.000000	0.137134
529.000000	0.138125
530.000000	0.139234
531.000000	0.140449
532.000000	0.141707
533.000000	0.143014
534.000000	0.144328
535.000000	0.145647
536.000000	0.147038
537.000000	0.148432
538.000000	0.149781
539.000000	0.151045
540.000000	0.152297
541.000000	0.153522
542.000000	0.154713
543.000000	0.155828
544.000000	0.156941
545.000000	0.158056
546.000000	0.159184
547.000000	0.160315
548.000000	0.161493
549.000000	0.162755
550.000000	0.164034
551.000000	0.165376
552.000000	0.166820
553.000000	0.168375
554.000000	0.170011
555.000000	0.171706
556.000000	0.173461
557.000000	0.175274
558.000000	0.177188
559.000000	0.179080
560.000000	0.180952
561.000000	0.182869
562.000000	0.184829
563.000000	0.186715
564.000000	0.188540
565.000000	0.190275
566.000000	0.191986
567.000000	0.193650
568.000000	0.195220
569.000000	0.196651
570.000000	0.197976
571.000000	0.199189
572.000000	0.200273
573.000000	0.201226
574.000000	0.202062
575.000000	0.202835
576.000000	0.203528
577.000000	0.204132
578.000000	0.204673
579.000000	0.205082
580.000000	0.205401
581.000000	0.205655
582.000000	0.205849
583.000000	0.205960
584.000000	0.206004
585.000000	0.206020
586.000000	0.205930
587.000000	0.205753
588.000000	0.205530
589.000000	0.205265
590.000000	0.204947
591.000000	0.204572
592.000000	0.204144
593.000000	0.203691
594.000000	0.203208
595.000000	0.202652
596.000000	0.202088
597.000000	0.201534
598.000000	0.200921
599.000000	0.200287
600.000000	0.199676
601.000000	0.199053
602.000000	0.198382
603.000000	0.197722
604.000000	0.197088
605.000000	0.196378
606.000000	0.195711
607.000000	0.195062
608.000000	0.194318
609.000000	0.193614
610.000000	0.192948
611.000000	0.192285
612.000000	0.191620
613.000000	0.190968
614.000000	0.190350
615.000000	0.189716
616.000000	0.189109
617.000000	0.188520
618.000000	0.187955
619.000000	0.187426
620.000000	0.186931
621.000000	0.186498
622.000000	0.186065
623.000000	0.185643
624.000000	0.185247
625.000000	0.184842
626.000000	0.184456
627.000000	0.184093
628.000000	0.183696
629.000000	0.183377
630.000000	0.183053
631.000000	0.182712
632.000000	0.182432
633.000000	0.182174
634.000000	0.181874
635.000000	0.181566
636.000000	0.181312
637.000000	0.181126
638.000000	0.180955
639.000000	0.180830
640.000000	0.180760
641.000000	0.180631
642.000000	0.180594
643.000000	0.180621
644.000000	0.180638
645.000000	0.180676
646.000000	0.180734
647.000000	0.180799
648.000000	0.180892
649.000000	0.181037
650.000000	0.181227
651.000000	0.181447
652.000000	0.181662
653.000000	0.181900
654.000000	0.182172
655.000000	0.182489
656.000000	0.182864
657.000000	0.183262
658.000000	0.183676
659.000000	0.184130
660.000000	0.184628
661.000000	0.185170
662.000000	0.185696
663.000000	0.186250
664.000000	0.186867
665.000000	0.187476
666.000000	0.188113
667.000000	0.188807
668.000000	0.189503
669.000000	0.190249
670.000000	0.191067
671.000000	0.191901
672.000000	0.192771
673.000000	0.193685
674.000000	0.194659
675.000000	0.195628
676.000000	0.196609
677.000000	0.197651
678.000000	0.198762
679.000000	0.199900
680.000000	0.201050
681.000000	0.202241
682.000000	0.203501
683.000000	0.204781
684.000000	0.206096
685.000000	0.207438
686.000000	0.208829
687.000000	0.210258
688.000000	0.211731
689.000000	0.213239
690.000000	0.214801
691.000000	0.216410
692.000000	0.218017
693.000000	0.219670
694.000000	0.221400
695.000000	0.223162
696.000000	0.224960
697.000000	0.226813
698.000000	0.228666
699.000000	0.230554
700.000000	0.232509
701.000000	0.234494
702.000000	0.236508
703.000000	0.238547
704.000000	0.240644
705.000000	0.242822
706.000000	0.245016
707.000000	0.247203
708.000000	0.249404
709.000000	0.251619
710.000000	0.253864
711.000000	0.256145
712.000000	0.258443
713.000000	0.260768
714.000000	0.263128
715.000000	0.265497
716.000000	0.267877
717.000000	0.270262
718.000000	0.272686
719.000000	0.275113
720.000000	0.277532
721.000000	0.280001
722.000000	0.282453
723.000000	0.284917
724.000000	0.287373
725.000000	0.289808
726.000000	0.292272
727.000000	0.294680
728.000000	0.297102
729.000000	0.299559
730.000000	0.302000
731.000000	0.304431
732.000000	0.306879
733.000000	0.309353
734.000000	0.311720
735.000000	0.314053
736.000000	0.316455
737.000000	0.318772
738.000000	0.320999
739.000000	0.323227
740.000000	0.325354
741.000000	0.327484
742.000000	0.329617
743.000000	0.331710
744.000000	0.333766
745.000000	0.335749
746.000000	0.337714
747.000000	0.339636
748.000000	0.341550
749.000000	0.343447
750.000000	0.345282
751.000000	0.347088
752.000000	0.348845
753.000000	0.350569
754.000000	0.352274
755.000000	0.353900
756.000000	0.355459
757.000000	0.356934
758.000000	0.358388
759.000000	0.359818
760.000000	0.361143
761.000000	0.362451
762.000000	0.363744
763.000000	0.364966
764.000000	0.366115
765.000000	0.367208
766.000000	0.368270
767.000000	0.369305
768.000000	0.370303
769.000000	0.371257
770.000000	0.372178
771.000000	0.373090
772.000000	0.374002
773.000000	0.374841
774.000000	0.375661
775.000000	0.376412
776.000000	0.377110
777.000000	0.377762
778.000000	0.378434
779.000000	0.379036
780.000000	0.379558
781.000000	0.380034
782.000000	0.380540
783.000000	0.381139
784.000000	0.381648
785.000000	0.382077
786.000000	0.382472
787.000000	0.382854
788.000000	0.383225
789.000000	0.383562
790.000000	0.383845
791.000000	0.384115
792.000000	0.384410
793.000000	0.384693
794.000000	0.384935
795.000000	0.385169
796.000000	0.385359
797.000000	0.385500
798.000000	0.385633
799.000000	0.385750
800.000000	0.385859
801.000000	0.385976
802.000000	0.386127
803.000000	0.386240
804.000000	0.386316
805.000000	0.386336
806.000000	0.386289
807.000000	0.386266
808.000000	0.386218
809.000000	0.386227
810.000000	0.386265
811.000000	0.386277
812.000000	0.386282
813.000000	0.386276
814.000000	0.386235
815.000000	0.386149
816.000000	0.386039
817.000000	0.385957
818.000000	0.385853
819.000000	0.385856
820.000000	0.385883
821.000000	0.385811
822.000000	0.385666
823.000000	0.385509
824.000000	0.385262
825.000000	0.384982
826.000000	0.384832
827.000000	0.384694
828.000000	0.384554
829.000000	0.384495
830.000000	0.384344
831.000000	0.384162
832.000000	0.383924
833.000000	0.383631
834.000000	0.383322
835.000000	0.383066
836.000000	0.382813
837.000000	0.382608
838.000000	0.382470
839.000000	0.382338
840.000000	0.382151
841.000000	0.381918
842.000000	0.381632
843.000000	0.381424
844.000000	0.381230
845.000000	0.381000
846.000000	0.380810
847.000000	0.380649
848.000000	0.380446
849.000000	0.380174
850.000000	0.379863
851.000000	0.379516
852.000000	0.379217
853.000000	0.379020
854.000000	0.378733
855.000000	0.378476
856.000000	0.378206
857.000000	0.377835
858.000000	0.377572
859.000000	0.377378
860.000000	0.377088
861.000000	0.376779
862.000000	0.376492
863.000000	0.376159
864.000000	0.375796
865.000000	0.375469
866.000000	0.375207
867.000000	0.374849
868.000000	0.374509
869.000000	0.374146
870.000000	0.373808
871.000000	0.373496
872.000000	0.373208
873.000000	0.372872
874.000000	0.372547
875.000000	0.372208
876.000000	0.371872
877.000000	0.371491
878.000000	0.371116
879.000000	0.370852
880.000000	0.370567
881.000000	0.370292
882.000000	0.369976
883.000000	0.369630
884.000000	0.369218
885.000000	0.368817
886.000000	0.368439
887.000000	0.368123
888.000000	0.367881
889.000000	0.367632
890.000000	0.367253
891.000000	0.366892
892.000000	0.366517
893.000000	0.366147
894.000000	0.365875
895.000000	0.365434
896.000000	0.364928
897.000000	0.364484
898.000000	0.364199
899.000000	0.363927
900.000000	0.363603
901.000000	0.363223
902.000000	0.363022
903.000000	0.362703
904.000000	0.362366
905.000000	0.362065
906.000000	0.361824
907.000000	0.361567
908.000000	0.361312
909.000000	0.360977
910.000000	0.360719
911.000000	0.360485
912.000000	0.360195
913.000000	0.359758
914.000000	0.359308
915.000000	0.358995
916.000000	0.358761
917.000000	0.358442
918.000000	0.358143
919.000000	0.357922
920.000000	0.357726
921.000000	0.357405
922.000000	0.357005
923.000000	0.356637
924.000000	0.356281
925.000000	0.355945
926.000000	0.355644
927.000000	0.355264
928.000000	0.354872
929.000000	0.354450
930.000000	0.353998
931.000000	0.353710
932.000000	0.353402
933.000000	0.353092
934.000000	0.352906
935.000000	0.352638
936.000000	0.352354
937.000000	0.352035
938.000000	0.351716
939.000000	0.351506
940.000000	0.351324
941.000000	0.351150
942.000000	0.350780
943.000000	0.350474
944.000000	0.350227
945.000000	0.349966
946.000000	0.349656
947.000000	0.349342
948.000000	0.349018
949.000000	0.348757
950.000000	0.348405
951.000000	0.347997
952.000000	0.347882
953.000000	0.347747
954.000000	0.347528
955.000000	0.347195
956.000000	0.347004
957.000000	0.346791
958.000000	0.346550
959.000000	0.346452
960.000000	0.346251
961.000000	0.346122
962.000000	0.346024
963.000000	0.345709
964.000000	0.345433
965.000000	0.345286
966.000000	0.345140
967.000000	0.344963
968.000000	0.344717
969.000000	0.344436
970.000000	0.344308
971.000000	0.344156
972.000000	0.344001
973.000000	0.343788
974.000000	0.343577
975.000000	0.343442
976.000000	0.343364
977.000000	0.343278
978.000000	0.343054
979.000000	0.343056
980.000000	0.342956
981.000000	0.342749
982.000000	0.342621
983.000000	0.342406
984.000000	0.342187
985.000000	0.342132
986.000000	0.342082
987.000000	0.342033
988.000000	0.341904
989.000000	0.341864
990.000000	0.341729
991.000000	0.341596
992.000000	0.341649
993.000000	0.341689
994.000000	0.341617
995.000000	0.341589
996.000000	0.341487
997.000000	0.341466
998.000000	0.341507
999.000000	0.341595
1000.000000	0.341469
1001.000000	0.341620
1002.000000	0.341493
1003.000000	0.341460
1004.000000	0.341427
1005.000000	0.341506
1006.000000	0.341331
1007.000000	0.341036
1008.000000	0.340883
1009.000000	0.340939
1010.000000	0.340836
1011.000000	0.341257
1012.000000	0.341756
1013.000000	0.341554
1014.000000	0.341598
1015.000000	0.341664
1016.000000	0.341396
1017.000000	0.341217
1018.000000	0.341473
1019.000000	0.341568
1020.000000	0.341736
1021.000000	0.341590
1022.000000	0.341587
1023.000000	0.341680
1024.000000	0.341489
1025.000000	0.341615
1026.000000	0.341717
1027.000000	0.341570
1028.000000	0.341716
1029.000000	0.342089
1030.000000	0.342318
1031.000000	0.342484
1032.000000	0.342597
1033.000000	0.342677
1034.000000	0.342806
1035.000000	0.343074
1036.000000	0.343238
1037.000000	0.343390
1038.000000	0.343377
1039.000000	0.343306
1040.000000	0.343446
1041.000000	0.343529
1042.000000	0.343467
1043.000000	0.343625
1044.000000	0.343943
1045.000000	0.344181
1046.000000	0.344395
1047.000000	0.344692
1048.000000	0.344985
1049.000000	0.345182
1050.000000	0.345406
1051.000000	0.345619
1052.000000	0.345707
1053.000000	0.345798
1054.000000	0.346155
1055.000000	0.346394
1056.000000	0.346565
1057.000000	0.346769
1058.000000	0.346960
1059.000000	0.347017
1060.000000	0.347378
1061.000000	0.347660
1062.000000	0.347846
1063.000000	0.348311
1064.000000	0.348549
1065.000000	0.348555
1066.000000	0.348745
1067.000000	0.348853
1068.000000	0.349064
1069.000000	0.349377
1070.000000	0.349668
1071.000000	0.350098
1072.000000	0.350409
1073.000000	0.350739
1074.000000	0.351082
1075.000000	0.351183
1076.000000	0.351306
1077.000000	0.351482
1078.000000	0.351644
1079.000000	0.351896
1080.000000	0.352367
1081.000000	0.352642
1082.000000	0.352967
1083.000000	0.353235
1084.000000	0.353420
1085.000000	0.353740
1086.000000	0.354059
1087.000000	0.354414
1088.000000	0.354848
1089.000000	0.355124
1090.000000	0.355217
1091.000000	0.355372
1092.000000	0.355766
1093.000000	0.356160
1094.000000	0.356393
1095.000000	0.356586
1096.000000	0.356911
1097.000000	0.357139
1098.000000	0.357378
1099.000000	0.357734
1100.000000	0.358076
1101.000000	0.358215
1102.000000	0.358416
1103.000000	0.358706
1104.000000	0.358999
1105.000000	0.359220
1106.000000	0.359468
1107.000000	0.359686
1108.000000	0.359959
1109.000000	0.360345
1110.000000	0.360655
1111.000000	0.360953
1112.000000	0.361341
1113.000000	0.361625
1114.000000	0.361771
1115.000000	0.362033
1116.000000	0.362371
1117.000000	0.362628
1118.000000	0.362820
1119.000000	0.363035
1120.000000	0.363298
1121.000000	0.363446
1122.000000	0.363648
1123.000000	0.364026
1124.000000	0.364065
1125.000000	0.364265
1126.000000	0.364572
1127.000000	0.364761
1128.000000	0.364912
1129.000000	0.365068
1130.000000	0.365259
1131.000000	0.365420
1132.000000	0.365585
1133.000000	0.365861
1134.000000	0.366092
1135.000000	0.366255
1136.000000	0.366376
1137.000000	0.366471
1138.000000	0.366528
1139.000000	0.366558
1140.000000	0.366757
1141.000000	0.367032
1142.000000	0.367219
1143.000000	0.367380
1144.000000	0.367616
1145.000000	0.367678
1146.000000	0.367526
1147.000000	0.367557
1148.000000	0.367496
1149.000000	0.367562
1150.000000	0.367737
1151.000000	0.367891
1152.000000	0.368019
1153.000000	0.368175
1154.000000	0.368324
1155.000000	0.368420
1156.000000	0.368473
1157.000000	0.368596
1158.000000	0.368646
1159.000000	0.368746
1160.000000	0.368933
1161.000000	0.369063
1162.000000	0.369178
1163.000000	0.369509
1164.000000	0.369739
1165.000000	0.369882
1166.000000	0.370071
1167.000000	0.370194
1168.000000	0.370326
1169.000000	0.370497
1170.000000	0.370680
1171.000000	0.370920
1172.000000	0.371163
1173.000000	0.371398
1174.000000	0.371572
1175.000000	0.371673
1176.000000	0.371780
1177.000000	0.371951
1178.000000	0.372093
1179.000000	0.372228
1180.000000	0.372306
1181.000000	0.372439
1182.000000	0.372519
1183.000000	0.372720
1184.000000	0.373010
1185.000000	0.373155
1186.000000	0.373273
1187.000000	0.373376
1188.000000	0.373364
1189.000000	0.373432
1190.000000	0.373616
1191.000000	0.373770
1192.000000	0.374058
1193.000000	0.374345
1194.000000	0.374518
1195.000000	0.374692
1196.000000	0.374738
1197.000000	0.374852
1198.000000	0.375017
1199.000000	0.375169
1200.000000	0.375292
1201.000000	0.375506
1202.000000	0.375671
1203.000000	0.375810
1204.000000	0.375936
1205.000000	0.376123
1206.000000	0.376214
1207.000000	0.376367
1208.000000	0.376456
1209.000000	0.376531
1210.000000	0.376660
1211.000000	0.376834
1212.000000	0.376953
1213.000000	0.377132
1214.000000	0.377300
1215.000000	0.377397
1216.000000	0.377527
1217.000000	0.377634
1218.000000	0.377742
1219.000000	0.377883
1220.000000	0.378057
1221.000000	0.378207
1222.000000	0.378357
1223.000000	0.378524
1224.000000	0.378645
1225.000000	0.378737
1226.000000	0.378951
1227.000000	0.379104
1228.000000	0.379277
1229.000000	0.379396
1230.000000	0.379482
1231.000000	0.379497
1232.000000	0.379566
1233.000000	0.379775
1234.000000	0.379996
1235.000000	0.380183
1236.000000	0.380355
1237.000000	0.380533
1238.000000	0.380599
1239.000000	0.380700
1240.000000	0.380818
1241.000000	0.380935
1242.000000	0.381080
1243.000000	0.381249
1244.000000	0.381372
1245.000000	0.381602
1246.000000	0.381804
1247.000000	0.382040
1248.000000	0.382346
1249.000000	0.382578
1250.000000	0.382795
1251.000000	0.383060
1252.000000	0.383259
1253.000000	0.383512
1254.000000	0.383656
1255.000000	0.383693
1256.000000	0.383770
1257.000000	0.383827
1258.000000	0.383960
1259.000000	0.384026
1260.000000	0.384187
1261.000000	0.384349
1262.000000	0.384505
1263.000000	0.384718
1264.000000	0.384922
1265.000000	0.385113
1266.000000	0.385199
1267.000000	0.385262
1268.000000	0.385345
1269.000000	0.385406
1270.000000	0.385604
1271.000000	0.385834
1272.000000	0.386105
1273.000000	0.386395
1274.000000	0.386595
1275.000000	0.386736
1276.000000	0.386831
1277.000000	0.387016
1278.000000	0.387062
1279.000000	0.387157
1280.000000	0.387239
1281.000000	0.387279
1282.000000	0.387337
1283.000000	0.387512
1284.000000	0.387645
1285.000000	0.387782
1286.000000	0.387943
1287.000000	0.388072
1288.000000	0.388197
1289.000000	0.388320
1290.000000	0.388385
1291.000000	0.388412
1292.000000	0.388455
1293.000000	0.388568
1294.000000	0.388644
1295.000000	0.388754
1296.000000	0.388852
1297.000000	0.388890
1298.000000	0.389070
1299.000000	0.389302
1300.000000	0.389555
1301.000000	0.389753
1302.000000	0.389849
1303.000000	0.390002
1304.000000	0.390059
1305.000000	0.390142
1306.000000	0.390194
1307.000000	0.390248
1308.000000	0.390305
1309.000000	0.390340
1310.000000	0.390377
1311.000000	0.390453
1312.000000	0.390445
1313.000000	0.390457
1314.000000	0.390452
1315.000000	0.390370
1316.000000	0.390450
1317.000000	0.390568
1318.000000	0.390594
1319.000000	0.390579
1320.000000	0.390579
1321.000000	0.390538
1322.000000	0.390452
1323.000000	0.390423
1324.000000	0.390470
1325.000000	0.390461
1326.000000	0.390453
1327.000000	0.390514
1328.000000	0.390588
1329.000000	0.390510
1330.000000	0.390311
1331.000000	0.390270
1332.000000	0.390307
1333.000000	0.390259
1334.000000	0.390369
1335.000000	0.390397
1336.000000	0.390255
1337.000000	0.390173
1338.000000	0.390055
1339.000000	0.389967
1340.000000	0.389860
1341.000000	0.389829
1342.000000	0.389831
1343.000000	0.389790
1344.000000	0.389776
1345.000000	0.389721
1346.000000	0.389654
1347.000000	0.389510
1348.000000	0.389442
1349.000000	0.389286
1350.000000	0.389207
1351.000000	0.389142
1352.000000	0.388980
1353.000000	0.388842
1354.000000	0.388760
1355.000000	0.388652
1356.000000	0.388629
1357.000000	0.388522
1358.000000	0.388326
1359.000000	0.388142
1360.000000	0.387998
1361.000000	0.387900
1362.000000	0.387781
1363.000000	0.387664
1364.000000	0.387588
1365.000000	0.387484
1366.000000	0.387380
1367.000000	0.387303
1368.000000	0.387203
1369.000000	0.387173
1370.000000	0.387014
1371.000000	0.386798
1372.000000	0.386553
1373.000000	0.386247
1374.000000	0.385907
1375.000000	0.385547
1376.000000	0.385317
1377.000000	0.384991
1378.000000	0.384522
1379.000000	0.383962
1380.000000	0.383324
1381.000000	0.382551
1382.000000	0.381686
1383.000000	0.380846
1384.000000	0.379790
1385.000000	0.378667
1386.000000	0.377641
1387.000000	0.376475
1388.000000	0.375161
1389.000000	0.373762
1390.000000	0.372265
1391.000000	0.370640
1392.000000	0.368980
1393.000000	0.367186
1394.000000	0.365316
1395.000000	0.363406
1396.000000	0.361419
1397.000000	0.359325
1398.000000	0.357090
1399.000000	0.354924
1400.000000	0.352610
1401.000000	0.350449
1402.000000	0.348415
1403.000000	0.346407
1404.000000	0.344554
1405.000000	0.342800
1406.000000	0.341110
1407.000000	0.339624
1408.000000	0.338169
1409.000000	0.336887
1410.000000	0.335828
1411.000000	0.334811
1412.000000	0.333937
1413.000000	0.333197
1414.000000	0.332546
1415.000000	0.332006
1416.000000	0.331477
1417.000000	0.331009
1418.000000	0.330529
1419.000000	0.330138
1420.000000	0.329781
1421.000000	0.329533
1422.000000	0.329297
1423.000000	0.329053
1424.000000	0.328725
1425.000000	0.328430
1426.000000	0.328119
1427.000000	0.327851
1428.000000	0.327673
1429.000000	0.327488
1430.000000	0.327337
1431.000000	0.327208
1432.000000	0.327049
1433.000000	0.326890
1434.000000	0.326778
1435.000000	0.326756
1436.000000	0.326744
1437.000000	0.326723
1438.000000	0.326785
1439.000000	0.326873
1440.000000	0.327121
1441.000000	0.327521
1442.000000	0.328023
1443.000000	0.328564
1444.000000	0.329244
1445.000000	0.329995
1446.000000	0.330809
1447.000000	0.331728
1448.000000	0.332609
1449.000000	0.333484
1450.000000	0.334340
1451.000000	0.335141
1452.000000	0.335900
1453.000000	0.336627
1454.000000	0.337267
1455.000000	0.337807
1456.000000	0.338353
1457.000000	0.338889
1458.000000	0.339367
1459.000000	0.339801
1460.000000	0.340210
1461.000000	0.340580
1462.000000	0.340961
1463.000000	0.341309
1464.000000	0.341653
1465.000000	0.342065
1466.000000	0.342422
1467.000000	0.342843
1468.000000	0.343319
1469.000000	0.343790
1470.000000	0.344218
1471.000000	0.344713
1472.000000	0.345234
1473.000000	0.345814
1474.000000	0.346345
1475.000000	0.346887
1476.000000	0.347472
1477.000000	0.348043
1478.000000	0.348631
1479.000000	0.349228
1480.000000	0.349806
1481.000000	0.350347
1482.000000	0.350925
1483.000000	0.351531
1484.000000	0.352120
1485.000000	0.352682
1486.000000	0.353230
1487.000000	0.353807
1488.000000	0.354394
1489.000000	0.355009
1490.000000	0.355557
1491.000000	0.356107
1492.000000	0.356584
1493.000000	0.357080
1494.000000	0.357533
1495.000000	0.357967
1496.000000	0.358378
1497.000000	0.358810
1498.000000	0.359260
1499.000000	0.359678
1500.000000	0.360119
1501.000000	0.360542
1502.000000	0.360929
1503.000000	0.361362
1504.000000	0.361792
1505.000000	0.362174
1506.000000	0.362567
1507.000000	0.362941
1508.000000	0.363349
1509.000000	0.363765
1510.000000	0.364137
1511.000000	0.364529
1512.000000	0.364838
1513.000000	0.365119
1514.000000	0.365471
1515.000000	0.365748
1516.000000	0.366076
1517.000000	0.366359
1518.000000	0.366526
1519.000000	0.366634
1520.000000	0.366785
1521.000000	0.366892
1522.000000	0.367075
1523.000000	0.367339
1524.000000	0.367447
1525.000000	0.367638
1526.000000	0.367856
1527.000000	0.368032
1528.000000	0.368313
1529.000000	0.368537
1530.000000	0.368632
1531.000000	0.368815
1532.000000	0.369018
1533.000000	0.369200
1534.000000	0.369423
1535.000000	0.369651
1536.000000	0.369814
1537.000000	0.370053
1538.000000	0.370283
1539.000000	0.370418
1540.000000	0.370579
1541.000000	0.370783
1542.000000	0.370977
1543.000000	0.371171
1544.000000	0.371351
1545.000000	0.371536
1546.000000	0.371702
1547.000000	0.371831
1548.000000	0.371954
1549.000000	0.372012
1550.000000	0.372030
1551.000000	0.372104
1552.000000	0.372179
1553.000000	0.372241
1554.000000	0.372355
1555.000000	0.372489
1556.000000	0.372629
1557.000000	0.372766
1558.000000	0.372926
1559.000000	0.373022
1560.000000	0.373146
1561.000000	0.373349
1562.000000	0.373459
1563.000000	0.373592
1564.000000	0.373697
1565.000000	0.373727
1566.000000	0.373753
1567.000000	0.373885
1568.000000	0.373980
1569.000000	0.374141
1570.000000	0.374281
1571.000000	0.374402
1572.000000	0.374496
1573.000000	0.374588
1574.000000	0.374677
1575.000000	0.374763
1576.000000	0.374878
1577.000000	0.374993
1578.000000	0.375073
1579.000000	0.375226
1580.000000	0.375314
1581.000000	0.375439
1582.000000	0.375526
1583.000000	0.375561
1584.000000	0.375567
1585.000000	0.375634
1586.000000	0.375721
1587.000000	0.375810
1588.000000	0.375872
1589.000000	0.375958
1590.000000	0.376023
1591.000000	0.376082
1592.000000	0.376138
1593.000000	0.376250
1594.000000	0.376275
1595.000000	0.376298
1596.000000	0.376325
1597.000000	0.376338
1598.000000	0.376361
1599.000000	0.376439
1600.000000	0.376450
1601.000000	0.376521
1602.000000	0.376567
1603.000000	0.376607
1604.000000	0.376659
1605.000000	0.376771
1606.000000	0.376824
1607.000000	0.376912
1608.000000	0.376966
1609.000000	0.377042
1610.000000	0.377068
1611.000000	0.377092
1612.000000	0.377109
1613.000000	0.377214
1614.000000	0.377253
1615.000000	0.377339
1616.000000	0.377457
1617.000000	0.377503
1618.000000	0.377539
1619.000000	0.377564
1620.000000	0.377614
1621.000000	0.377674
1622.000000	0.377835
1623.000000	0.378033
1624.000000	0.378194
1625.000000	0.378209
1626.000000	0.378242
1627.000000	0.378307
1628.000000	0.378418
1629.000000	0.378556
1630.000000	0.378654
1631.000000	0.378672
1632.000000	0.378656
1633.000000	0.378573
1634.000000	0.378595
1635.000000	0.378688
1636.000000	0.378773
1637.000000	0.378948
1638.000000	0.379032
1639.000000	0.379152
1640.000000	0.379236
1641.000000	0.379330
1642.000000	0.379464
1643.000000	0.379669
1644.000000	0.379813
1645.000000	0.379956
1646.000000	0.380046
1647.000000	0.380115
1648.000000	0.380160
1649.000000	0.380294
1650.000000	0.380434
1651.000000	0.380604
1652.000000	0.380785
1653.000000	0.380942
1654.000000	0.381102
1655.000000	0.381203
1656.000000	0.381192
1657.000000	0.381203
1658.000000	0.381222
1659.000000	0.381307
1660.000000	0.381408
1661.000000	0.381433
1662.000000	0.381523
1663.000000	0.381573
1664.000000	0.381672
1665.000000	0.381854
1666.000000	0.382063
1667.000000	0.382191
1668.000000	0.382324
1669.000000	0.382465
1670.000000	0.382496
1671.000000	0.382568
1672.000000	0.382725
1673.000000	0.382848
1674.000000	0.382969
1675.000000	0.383183
1676.000000	0.383277
1677.000000	0.383302
1678.000000	0.383346
1679.000000	0.383362
1680.000000	0.383380
1681.000000	0.383416
1682.000000	0.383462
1683.000000	0.383534
1684.000000	0.383529
1685.000000	0.383531
1686.000000	0.383503
1687.000000	0.383510
1688.000000	0.383544
1689.000000	0.383580
1690.000000	0.383559
1691.000000	0.383585
1692.000000	0.383524
1693.000000	0.383446
1694.000000	0.383401
1695.000000	0.383409
1696.000000	0.383418
1697.000000	0.383377
1698.000000	0.383396
1699.000000	0.383426
1700.000000	0.383420
1701.000000	0.383551
1702.000000	0.383554
1703.000000	0.383536
1704.000000	0.383670
1705.000000	0.383736
1706.000000	0.383800
1707.000000	0.383864
1708.000000	0.383888
1709.000000	0.383837
1710.000000	0.383836
1711.000000	0.383878
1712.000000	0.383947
1713.000000	0.383993
1714.000000	0.384131
1715.000000	0.384223
1716.000000	0.384325
1717.000000	0.384337
1718.000000	0.384238
1719.000000	0.384179
1720.000000	0.384127
1721.000000	0.384078
1722.000000	0.384063
1723.000000	0.384052
1724.000000	0.384054
1725.000000	0.384075
1726.000000	0.384020
1727.000000	0.384011
1728.000000	0.383936
1729.000000	0.383829
1730.000000	0.383898
1731.000000	0.383908
1732.000000	0.383881
1733.000000	0.383974
1734.000000	0.383964
1735.000000	0.383999
1736.000000	0.384048
1737.000000	0.384084
1738.000000	0.384140
1739.000000	0.384194
1740.000000	0.384240
1741.000000	0.384250
1742.000000	0.384259
1743.000000	0.384319
1744.000000	0.384356
1745.000000	0.384363
1746.000000	0.384388
1747.000000	0.384298
1748.000000	0.384172
1749.000000	0.383978
1750.000000	0.383819
1751.000000	0.383853
1752.000000	0.383937
1753.000000	0.383932
1754.000000	0.383898
1755.000000	0.383770
1756.000000	0.383648
1757.000000	0.383489
1758.000000	0.383386
1759.000000	0.383293
1760.000000	0.383198
1761.000000	0.383072
1762.000000	0.382962
1763.000000	0.382894
1764.000000	0.382807
1765.000000	0.382646
1766.000000	0.382592
1767.000000	0.382497
1768.000000	0.382373
1769.000000	0.382428
1770.000000	0.382448
1771.000000	0.382375
1772.000000	0.382300
1773.000000	0.382135
1774.000000	0.382092
1775.000000	0.382161
1776.000000	0.382167
1777.000000	0.382183
1778.000000	0.382194
1779.000000	0.382119
1780.000000	0.382133
1781.000000	0.382195
1782.000000	0.382202
1783.000000	0.382227
1784.000000	0.382339
1785.000000	0.382345
1786.000000	0.382402
1787.000000	0.382520
1788.000000	0.382534
1789.000000	0.382552
1790.000000	0.382649
1791.000000	0.382597
1792.000000	0.382561
1793.000000	0.382540
1794.000000	0.382435
1795.000000	0.382442
1796.000000	0.382585
1797.000000	0.382598
1798.000000	0.382562
1799.000000	0.382503
1800.000000	0.382357
1801.000000	0.382458
1802.000000	0.382536
1803.000000	0.382427
1804.000000	0.382552
1805.000000	0.382568
1806.000000	0.382779
1807.000000	0.383476
1808.000000	0.383614
1809.000000	0.383493
1810.000000	0.383296
1811.000000	0.383261
1812.000000	0.383037
1813.000000	0.383045
1814.000000	0.383487
1815.000000	0.383540
1816.000000	0.383499
1817.000000	0.383162
1818.000000	0.382454
1819.000000	0.382216
1820.000000	0.382099
1821.000000	0.381754
1822.000000	0.381517
1823.000000	0.381397
1824.000000	0.381143
1825.000000	0.380510
1826.000000	0.380383
1827.000000	0.380412
1828.000000	0.380450
1829.000000	0.380531
1830.000000	0.380589
1831.000000	0.380568
1832.000000	0.380340
1833.000000	0.380307
1834.000000	0.380436
1835.000000	0.380365
1836.000000	0.380237
1837.000000	0.380052
1838.000000	0.379568
1839.000000	0.379027
1840.000000	0.378844
1841.000000	0.378425
1842.000000	0.378126
1843.000000	0.377854
1844.000000	0.377786
1845.000000	0.377725
1846.000000	0.377686
1847.000000	0.377773
1848.000000	0.377598
1849.000000	0.377132
1850.000000	0.376554
1851.000000	0.376261
1852.000000	0.375967
1853.000000	0.375680
1854.000000	0.375470
1855.000000	0.374922
1856.000000	0.374005
1857.000000	0.373206
1858.000000	0.372234
1859.000000	0.371260
1860.000000	0.370472
1861.000000	0.369399
1862.000000	0.368277
1863.000000	0.367291
1864.000000	0.366150
1865.000000	0.364840
1866.000000	0.363470
1867.000000	0.362177
1868.000000	0.360397
1869.000000	0.358146
1870.000000	0.355983
1871.000000	0.353653
1872.000000	0.351400
1873.000000	0.349197
1874.000000	0.347217
1875.000000	0.344932
1876.000000	0.342392
1877.000000	0.339382
1878.000000	0.336311
1879.000000	0.333176
1880.000000	0.329618
1881.000000	0.325766
1882.000000	0.321492
1883.000000	0.317077
1884.000000	0.312677
1885.000000	0.308017
1886.000000	0.303058
1887.000000	0.298020
1888.000000	0.292445
1889.000000	0.286482
1890.000000	0.280838
1891.000000	0.275118
1892.000000	0.269179
1893.000000	0.263303
1894.000000	0.257442
1895.000000	0.251607
1896.000000	0.245819
1897.000000	0.240367
1898.000000	0.235013
1899.000000	0.230047
1900.000000	0.225582
1901.000000	0.221265
1902.000000	0.217495
1903.000000	0.214528
1904.000000	0.212089
1905.000000	0.210329
1906.000000	0.208809
1907.000000	0.207915
1908.000000	0.207074
1909.000000	0.206497
1910.000000	0.206416
1911.000000	0.206795
1912.000000	0.207362
1913.000000	0.208149
1914.000000	0.209061
1915.000000	0.209995
1916.000000	0.210989
1917.000000	0.211988
1918.000000	0.213199
1919.000000	0.214414
1920.000000	0.215390
1921.000000	0.216418
1922.000000	0.217389
1923.000000	0.218235
1924.000000	0.219099
1925.000000	0.220058
1926.000000	0.221071
1927.000000	0.222125
1928.000000	0.222980
1929.000000	0.223801
1930.000000	0.224531
1931.000000	0.225192
1932.000000	0.225811
1933.000000	0.226585
1934.000000	0.227362
1935.000000	0.228081
1936.000000	0.228692
1937.000000	0.229177
1938.000000	0.229556
1939.000000	0.229886
1940.000000	0.230082
1941.000000	0.230382
1942.000000	0.230770
1943.000000	0.231063
1944.000000	0.231376
1945.000000	0.231717
1946.000000	0.232033
1947.000000	0.232260
1948.000000	0.232601
1949.000000	0.232911
1950.000000	0.232994
1951.000000	0.233098
1952.000000	0.233288
1953.000000	0.233312
1954.000000	0.233341
1955.000000	0.233671
1956.000000	0.233912
1957.000000	0.234034
1958.000000	0.234347
1959.000000	0.234495
1960.000000	0.234396
1961.000000	0.234544
1962.000000	0.234650
1963.000000	0.234693
1964.000000	0.234884
1965.000000	0.235205
1966.000000	0.235394
1967.000000	0.235889
1968.000000	0.236310
1969.000000	0.236808
1970.000000	0.237523
1971.000000	0.237763
1972.000000	0.238070
1973.000000	0.238294
1974.000000	0.238315
1975.000000	0.238626
1976.000000	0.239100
1977.000000	0.239672
1978.000000	0.240389
1979.000000	0.241140
1980.000000	0.241753
1981.000000	0.242450
1982.000000	0.243179
1983.000000	0.244098
1984.000000	0.244853
1985.000000	0.245806
1986.000000	0.246353
1987.000000	0.246588
1988.000000	0.247075
1989.000000	0.247621
1990.000000	0.248327
1991.000000	0.249334
1992.000000	0.250150
1993.000000	0.250855
1994.000000	0.251616
1995.000000	0.252287
1996.000000	0.253054
1997.000000	0.253873
1998.000000	0.254796
1999.000000	0.255773
2000.000000	0.256910
2001.000000	0.257873
2002.000000	0.258805
2003.000000	0.259812
2004.000000	0.260730
2005.000000	0.261674
2006.000000	0.262834
2007.000000	0.263984
2008.000000	0.265001
2009.000000	0.265926
2010.000000	0.266923
2011.000000	0.267734
2012.000000	0.268496
2013.000000	0.269161
2014.000000	0.269923
2015.000000	0.270616
2016.000000	0.271509
2017.000000	0.272480
2018.000000	0.273388
2019.000000	0.274321
2020.000000	0.275077
2021.000000	0.275971
2022.000000	0.276956
2023.000000	0.277906
2024.000000	0.278959
2025.000000	0.279919
2026.000000	0.280755
2027.000000	0.281433
2028.000000	0.282090
2029.000000	0.282923
2030.000000	0.283784
2031.000000	0.284572
2032.000000	0.285546
2033.000000	0.286489
2034.000000	0.287304
2035.000000	0.288207
2036.000000	0.288898
2037.000000	0.289591
2038.000000	0.290246
2039.000000	0.290804
2040.000000	0.291547
2041.000000	0.292238
2042.000000	0.292930
2043.000000	0.293840
2044.000000	0.294492
2045.000000	0.295109
2046.000000	0.295493
2047.000000	0.296040
2048.000000	0.296443
2049.000000	0.297278
2050.000000	0.298159
2051.000000	0.298820
2052.000000	0.299401
2053.000000	0.299782
2054.000000	0.300175
2055.000000	0.300572
2056.000000	0.301047
2057.000000	0.301907
2058.000000	0.302622
2059.000000	0.303338
2060.000000	0.303879
2061.000000	0.304212
2062.000000	0.304647
2063.000000	0.305104
2064.000000	0.305381
2065.000000	0.305899
2066.000000	0.306237
2067.000000	0.306591
2068.000000	0.307132
2069.000000	0.307686
2070.000000	0.308191
2071.000000	0.308796
2072.000000	0.309555
2073.000000	0.310290
2074.000000	0.310858
2075.000000	0.311381
2076.000000	0.311708
2077.000000	0.312120
2078.000000	0.312562
2079.000000	0.312911
2080.000000	0.313247
2081.000000	0.313620
2082.000000	0.313875
2083.000000	0.314310
2084.000000	0.314808
2085.000000	0.315467
2086.000000	0.316194
2087.000000	0.316774
2088.000000	0.317509
2089.000000	0.318084
2090.000000	0.318704
2091.000000	0.319454
2092.000000	0.320053
2093.000000	0.320709
2094.000000	0.321163
2095.000000	0.321442
2096.000000	0.321775
2097.000000	0.322028
2098.000000	0.321908
2099.000000	0.322048
2100.000000	0.322532
2101.000000	0.322957
2102.000000	0.323268
2103.000000	0.323502
2104.000000	0.323594
2105.000000	0.323774
2106.000000	0.323823
2107.000000	0.324155
2108.000000	0.324697
2109.000000	0.325112
2110.000000	0.325429
2111.000000	0.325752
2112.000000	0.326008
2113.000000	0.325914
2114.000000	0.326002
2115.000000	0.326220
2116.000000	0.326331
2117.000000	0.326630
2118.000000	0.327339
2119.000000	0.327837
2120.000000	0.328397
2121.000000	0.329261
2122.000000	0.329698
2123.000000	0.329771
2124.000000	0.330036
2125.000000	0.330117
2126.000000	0.330357
2127.000000	0.330848
2128.000000	0.331355
2129.000000	0.331881
2130.000000	0.332297
2131.000000	0.332649
2132.000000	0.332806
2133.000000	0.332868
2134.000000	0.333067
2135.000000	0.332871
2136.000000	0.332810
2137.000000	0.332852
2138.000000	0.332913
2139.000000	0.332960
2140.000000	0.333141
2141.000000	0.333240
2142.000000	0.333136
2143.000000	0.333055
2144.000000	0.333327
2145.000000	0.333596
2146.000000	0.333865
2147.000000	0.334630
2148.000000	0.335262
2149.000000	0.335564
2150.000000	0.335530
2151.000000	0.335425
2152.000000	0.335163
2153.000000	0.334881
2154.000000	0.334817
2155.000000	0.334895
2156.000000	0.335088
2157.000000	0.335655
2158.000000	0.335969
2159.000000	0.336362
2160.000000	0.336789
2161.000000	0.336991
2162.000000	0.337332
2163.000000	0.337942
2164.000000	0.338107
2165.000000	0.338014
2166.000000	0.337973
2167.000000	0.337578
2168.000000	0.337194
2169.000000	0.336869
2170.000000	0.336614
2171.000000	0.336574
2172.000000	0.336673
2173.000000	0.336767
2174.000000	0.337185
2175.000000	0.337225
2176.000000	0.337056
2177.000000	0.337080
2178.000000	0.337159
2179.000000	0.337274
2180.000000	0.337394
2181.000000	0.337769
2182.000000	0.337866
2183.000000	0.337400
2184.000000	0.337224
2185.000000	0.336631
2186.000000	0.335358
2187.000000	0.335122
2188.000000	0.335326
2189.000000	0.335276
2190.000000	0.335667
2191.000000	0.336313
2192.000000	0.336262
2193.000000	0.335435
2194.000000	0.335090
2195.000000	0.334538
2196.000000	0.334458
2197.000000	0.334806
2198.000000	0.335068
2199.000000	0.335805
2200.000000	0.336130
2201.000000	0.336499
2202.000000	0.336641
2203.000000	0.336450
2204.000000	0.335501
2205.000000	0.334740
2206.000000	0.333354
2207.000000	0.332034
2208.000000	0.332748
2209.000000	0.333708
2210.000000	0.334592
2211.000000	0.334498
2212.000000	0.333660
2213.000000	0.333325
2214.000000	0.332082
2215.000000	0.331680
2216.000000	0.332307
2217.000000	0.332502
2218.000000	0.332392
2219.000000	0.332793
2220.000000	0.334050
2221.000000	0.334248
2222.000000	0.334152
2223.000000	0.333763
2224.000000	0.332692
2225.000000	0.331559
2226.000000	0.330581
2227.000000	0.329454
2228.000000	0.329118
2229.000000	0.328018
2230.000000	0.327220
2231.000000	0.327272
2232.000000	0.326320
2233.000000	0.326493
2234.000000	0.326729
2235.000000	0.326513
2236.000000	0.325826
2237.000000	0.324513
2238.000000	0.323464
2239.000000	0.321598
2240.000000	0.321016
2241.000000	0.321679
2242.000000	0.321539
2243.000000	0.321372
2244.000000	0.321358
2245.000000	0.321105
2246.000000	0.320987
2247.000000	0.321420
2248.000000	0.321251
2249.000000	0.321144
2250.000000	0.319574
2251.000000	0.318444
2252.000000	0.317939
2253.000000	0.317610
2254.000000	0.318701
2255.000000	0.320213
2256.000000	0.321040
2257.000000	0.321394
2258.000000	0.320559
2259.000000	0.319006
2260.000000	0.318243
2261.000000	0.317266
2262.000000	0.316547
2263.000000	0.315735
2264.000000	0.314592
2265.000000	0.313875
2266.000000	0.313639
2267.000000	0.312602
2268.000000	0.311544
2269.000000	0.310335
2270.000000	0.308623
2271.000000	0.307118
2272.000000	0.305535
2273.000000	0.304252
2274.000000	0.302879
2275.000000	0.301328
2276.000000	0.300282
2277.000000	0.298433
2278.000000	0.296213
2279.000000	0.294661
2280.000000	0.291980
2281.000000	0.289786
2282.000000	0.287698
2283.000000	0.284903
2284.000000	0.282355
2285.000000	0.279803
2286.000000	0.277525
2287.000000	0.275413
2288.000000	0.274148
2289.000000	0.272318
2290.000000	0.269462
2291.000000	0.267751
2292.000000	0.266240
2293.000000	0.264984
2294.000000	0.264066
2295.000000	0.263938
2296.000000	0.263307
2297.000000	0.262301
2298.000000	0.262185
2299.000000	0.262330
2300.000000	0.262831
2301.000000	0.264201
2302.000000	0.264970
2303.000000	0.265564
2304.000000	0.266417
2305.000000	0.267094
2306.000000	0.268102
2307.000000	0.269335
2308.000000	0.270999
2309.000000	0.272234
2310.000000	0.273302
2311.000000	0.275150
2312.000000	0.277170
2313.000000	0.278889
2314.000000	0.280638
2315.000000	0.281660
2316.000000	0.281993
2317.000000	0.282565
2318.000000	0.283458
2319.000000	0.284973
2320.000000	0.286165
2321.000000	0.287374
2322.000000	0.288648
2323.000000	0.287760
2324.000000	0.286745
2325.000000	0.286385
2326.000000	0.285100
2327.000000	0.285439
2328.000000	0.286191
2329.000000	0.286567
2330.000000	0.288054
2331.000000	0.287731
2332.000000	0.287159
2333.000000	0.287209
2334.000000	0.285241
2335.000000	0.284773
2336.000000	0.285558
2337.000000	0.284901
2338.000000	0.283451
2339.000000	0.282820
2340.000000	0.281597
2341.000000	0.280542
2342.000000	0.280646
2343.000000	0.280132
2344.000000	0.278598
2345.000000	0.278282
2346.000000	0.278467
2347.000000	0.278256
2348.000000	0.278737
2349.000000	0.278516
2350.000000	0.277126
2351.000000	0.275782
2352.000000	0.274212
2353.000000	0.273294
2354.000000	0.271489
2355.000000	0.270832
2356.000000	0.269847
2357.000000	0.267526
2358.000000	0.266236
2359.000000	0.264696
2360.000000	0.262776
2361.000000	0.261395
2362.000000	0.260590
2363.000000	0.259474
2364.000000	0.257892
2365.000000	0.256725
2366.000000	0.255294
2367.000000	0.254052
2368.000000	0.254106
2369.000000	0.254493
2370.000000	0.253612
2371.000000	0.253500
2372.000000	0.253521
2373.000000	0.252280
2374.000000	0.250455
2375.000000	0.248218
2376.000000	0.247308
2377.000000	0.245953
2378.000000	0.245180
2379.000000	0.245598
2380.000000	0.243028
2381.000000	0.240091
2382.000000	0.238389
2383.000000	0.236795
2384.000000	0.235442
2385.000000	0.234411
2386.000000	0.233110
2387.000000	0.230092
2388.000000	0.227641
2389.000000	0.225841
2390.000000	0.224695
2391.000000	0.224143
2392.000000	0.223468
2393.000000	0.222245
2394.000000	0.219554
2395.000000	0.219472
2396.000000	0.220271
2397.000000	0.221261
2398.000000	0.223040
2399.000000	0.222479
2400.000000	0.221627
2401.000000	0.221353
2402.000000	0.223021
2403.000000	0.224339
2404.000000	0.222525
2405.000000	0.220277
2406.000000	0.218071
2407.000000	0.215551
2408.000000	0.215233
2409.000000	0.215720
2410.000000	0.212810
2411.000000	0.211098
2412.000000	0.212370
2413.000000	0.212090
2414.000000	0.212170
2415.000000	0.211897
2416.000000	0.210717
2417.000000	0.212509
2418.000000	0.215573
2419.000000	0.219130
2420.000000	0.220362
2421.000000	0.217363
2422.000000	0.215899
2423.000000	0.216376
2424.000000	0.217434
2425.000000	0.218438
2426.000000	0.219437
2427.000000	0.220559
2428.000000	0.220664
2429.000000	0.220903
2430.000000	0.219281
2431.000000	0.215717
2432.000000	0.215467
2433.000000	0.216005
2434.000000	0.216670
2435.000000	0.218612
2436.000000	0.215648
2437.000000	0.213812
2438.000000	0.215092
2439.000000	0.215502
2440.000000	0.215081
2441.000000	0.215431
2442.000000	0.218418
2443.000000	0.217441
2444.000000	0.216488
2445.000000	0.214800
2446.000000	0.208766
2447.000000	0.203231
2448.000000	0.198348
2449.000000	0.196479
2450.000000	0.195602
2451.000000	0.199780
2452.000000	0.207373
2453.000000	0.210137
2454.000000	0.214437
2455.000000	0.212938
2456.000000	0.208523
2457.000000	0.212053
2458.000000	0.206195
2459.000000	0.206034
2460.000000	0.215132
2461.000000	0.211412
2462.000000	0.216236
2463.000000	0.211539
2464.000000	0.199062
2465.000000	0.197737
2466.000000	0.193866
2467.000000	0.199291
2468.000000	0.203571
2469.000000	0.201966
2470.000000	0.199415
2471.000000	0.196252
2472.000000	0.194548
2473.000000	0.190353
2474.000000	0.186913
2475.000000	0.183507
2476.000000	0.183659
2477.000000	0.185762
2478.000000	0.188539
2479.000000	0.189854
2480.000000	0.190892
2481.000000	0.188035
2482.000000	0.182817
2483.000000	0.182327
2484.000000	0.171662
2485.000000	0.173006
2486.000000	0.185870
2487.000000	0.183622
2488.000000	0.193334
2489.000000	0.184881
2490.000000	0.162981
2491.000000	0.175865
2492.000000	0.161976
2493.000000	0.140603
2494.000000	0.142095
2495.000000	0.139998
2496.000000	0.137038
2497.000000	0.163318
2498.000000	0.163360
2499.000000	0.127727
2500.000000	0.119686
