# Wavelength	NAu-1-10_HEX-70_FV7-20_00000.asd.rts.txt
350.000000	0.260132
351.000000	0.262739
352.000000	0.246834
353.000000	0.238525
354.000000	0.247804
355.000000	0.253618
356.000000	0.249405
357.000000	0.243407
358.000000	0.251276
359.000000	0.250306
360.000000	0.243656
361.000000	0.240127
362.000000	0.244518
363.000000	0.250995
364.000000	0.253688
365.000000	0.249924
366.000000	0.246997
367.000000	0.247151
368.000000	0.249454
369.000000	0.251472
370.000000	0.252073
371.000000	0.251140
372.000000	0.252847
373.000000	0.251413
374.000000	0.245692
375.000000	0.246594
376.000000	0.248218
377.000000	0.249727
378.000000	0.255804
379.000000	0.257346
380.000000	0.254312
381.000000	0.251036
382.000000	0.252783
383.000000	0.256388
384.000000	0.258949
385.000000	0.259692
386.000000	0.261293
387.000000	0.263776
388.000000	0.264008
389.000000	0.261996
390.000000	0.260442
391.000000	0.262331
392.000000	0.263996
393.000000	0.265670
394.000000	0.267631
395.000000	0.268420
396.000000	0.268940
397.000000	0.269636
398.000000	0.270595
399.000000	0.270723
400.000000	0.271335
401.000000	0.274394
402.000000	0.276090
403.000000	0.276502
404.000000	0.276693
405.000000	0.277697
406.000000	0.278617
407.000000	0.279042
408.000000	0.279111
409.000000	0.279776
410.000000	0.280901
411.000000	0.281670
412.000000	0.282478
413.000000	0.283082
414.000000	0.283388
415.000000	0.284760
416.000000	0.285986
417.000000	0.286479
418.000000	0.287468
419.000000	0.287627
420.000000	0.287256
421.000000	0.288050
422.000000	0.288714
423.000000	0.289010
424.000000	0.289103
425.000000	0.288913
426.000000	0.289029
427.000000	0.289663
428.000000	0.289742
429.000000	0.290103
430.000000	0.290758
431.000000	0.290494
432.000000	0.290969
433.000000	0.291751
434.000000	0.291650
435.000000	0.291598
436.000000	0.291815
437.000000	0.292182
438.000000	0.291795
439.000000	0.291553
440.000000	0.291828
441.000000	0.291395
442.000000	0.291199
443.000000	0.291416
444.000000	0.291930
445.000000	0.292222
446.000000	0.292428
447.000000	0.292659
448.000000	0.292988
449.000000	0.293502
450.000000	0.294207
451.000000	0.294807
452.000000	0.295837
453.000000	0.297211
454.000000	0.298392
455.000000	0.299603
456.000000	0.300999
457.000000	0.302505
458.000000	0.304132
459.000000	0.305515
460.000000	0.306435
461.000000	0.307071
462.000000	0.308055
463.000000	0.309265
464.000000	0.309844
465.000000	0.310490
466.000000	0.311230
467.000000	0.311872
468.000000	0.312718
469.000000	0.313375
470.000000	0.313635
471.000000	0.314221
472.000000	0.314908
473.000000	0.315439
474.000000	0.315504
475.000000	0.315670
476.000000	0.316263
477.000000	0.316980
478.000000	0.317334
479.000000	0.317732
480.000000	0.318461
481.000000	0.318633
482.000000	0.318832
483.000000	0.319336
484.000000	0.319621
485.000000	0.319839
486.000000	0.320258
487.000000	0.320580
488.000000	0.320911
489.000000	0.321332
490.000000	0.321903
491.000000	0.322408
492.000000	0.322999
493.000000	0.323669
494.000000	0.323910
495.000000	0.324156
496.000000	0.324665
497.000000	0.325198
498.000000	0.325699
499.000000	0.326224
500.000000	0.326721
501.000000	0.327190
502.000000	0.327730
503.000000	0.328363
504.000000	0.328905
505.000000	0.329323
506.000000	0.329650
507.000000	0.329973
508.000000	0.330443
509.000000	0.331038
510.000000	0.331601
511.000000	0.332066
512.000000	0.332550
513.000000	0.333270
514.000000	0.333914
515.000000	0.334475
516.000000	0.334976
517.000000	0.335611
518.000000	0.336290
519.000000	0.336815
520.000000	0.337253
521.000000	0.337773
522.000000	0.338396
523.000000	0.338883
524.000000	0.339548
525.000000	0.340266
526.000000	0.340743
527.000000	0.341342
528.000000	0.342036
529.000000	0.342761
530.000000	0.343314
531.000000	0.343955
532.000000	0.344683
533.000000	0.345212
534.000000	0.345793
535.000000	0.346466
536.000000	0.347121
537.000000	0.347835
538.000000	0.348526
539.000000	0.349060
540.000000	0.349647
541.000000	0.350224
542.000000	0.350777
543.000000	0.351421
544.000000	0.352100
545.000000	0.352688
546.000000	0.353223
547.000000	0.353844
548.000000	0.354571
549.000000	0.355218
550.000000	0.355905
551.000000	0.356594
552.000000	0.357162
553.000000	0.357776
554.000000	0.358413
555.000000	0.359054
556.000000	0.359746
557.000000	0.360325
558.000000	0.360917
559.000000	0.361550
560.000000	0.362118
561.000000	0.362691
562.000000	0.363228
563.000000	0.363773
564.000000	0.364348
565.000000	0.364840
566.000000	0.365408
567.000000	0.365966
568.000000	0.366453
569.000000	0.367004
570.000000	0.367496
571.000000	0.367931
572.000000	0.368458
573.000000	0.368934
574.000000	0.369332
575.000000	0.369743
576.000000	0.370224
577.000000	0.370648
578.000000	0.371014
579.000000	0.371456
580.000000	0.371906
581.000000	0.372316
582.000000	0.372679
583.000000	0.373037
584.000000	0.373405
585.000000	0.373783
586.000000	0.374094
587.000000	0.374353
588.000000	0.374611
589.000000	0.374920
590.000000	0.375231
591.000000	0.375497
592.000000	0.375683
593.000000	0.375958
594.000000	0.376301
595.000000	0.376504
596.000000	0.376724
597.000000	0.376979
598.000000	0.377122
599.000000	0.377286
600.000000	0.377483
601.000000	0.377619
602.000000	0.377835
603.000000	0.378089
604.000000	0.378334
605.000000	0.378456
606.000000	0.378592
607.000000	0.378775
608.000000	0.378971
609.000000	0.379127
610.000000	0.379309
611.000000	0.379566
612.000000	0.379620
613.000000	0.379688
614.000000	0.379934
615.000000	0.380110
616.000000	0.380214
617.000000	0.380246
618.000000	0.380337
619.000000	0.380524
620.000000	0.380687
621.000000	0.380741
622.000000	0.380838
623.000000	0.380933
624.000000	0.380981
625.000000	0.381061
626.000000	0.381191
627.000000	0.381355
628.000000	0.381487
629.000000	0.381650
630.000000	0.381734
631.000000	0.381901
632.000000	0.382072
633.000000	0.382255
634.000000	0.382453
635.000000	0.382701
636.000000	0.382934
637.000000	0.383107
638.000000	0.383315
639.000000	0.383527
640.000000	0.383749
641.000000	0.383799
642.000000	0.383902
643.000000	0.384055
644.000000	0.384191
645.000000	0.384308
646.000000	0.384449
647.000000	0.384606
648.000000	0.384764
649.000000	0.384996
650.000000	0.385256
651.000000	0.385413
652.000000	0.385577
653.000000	0.385771
654.000000	0.385882
655.000000	0.386058
656.000000	0.386283
657.000000	0.386453
658.000000	0.386660
659.000000	0.386917
660.000000	0.387185
661.000000	0.387383
662.000000	0.387560
663.000000	0.387774
664.000000	0.387962
665.000000	0.388135
666.000000	0.388313
667.000000	0.388486
668.000000	0.388690
669.000000	0.388939
670.000000	0.389217
671.000000	0.389418
672.000000	0.389648
673.000000	0.389906
674.000000	0.390131
675.000000	0.390332
676.000000	0.390551
677.000000	0.390850
678.000000	0.391126
679.000000	0.391365
680.000000	0.391580
681.000000	0.391771
682.000000	0.392033
683.000000	0.392293
684.000000	0.392598
685.000000	0.392846
686.000000	0.393108
687.000000	0.393434
688.000000	0.393698
689.000000	0.393905
690.000000	0.394133
691.000000	0.394417
692.000000	0.394709
693.000000	0.395030
694.000000	0.395239
695.000000	0.395517
696.000000	0.395830
697.000000	0.396069
698.000000	0.396304
699.000000	0.396601
700.000000	0.396978
701.000000	0.397250
702.000000	0.397512
703.000000	0.397797
704.000000	0.398139
705.000000	0.398455
706.000000	0.398706
707.000000	0.398996
708.000000	0.399271
709.000000	0.399512
710.000000	0.399740
711.000000	0.399986
712.000000	0.400236
713.000000	0.400488
714.000000	0.400665
715.000000	0.400921
716.000000	0.401253
717.000000	0.401549
718.000000	0.401763
719.000000	0.401969
720.000000	0.402245
721.000000	0.402529
722.000000	0.402786
723.000000	0.403076
724.000000	0.403342
725.000000	0.403568
726.000000	0.403839
727.000000	0.404064
728.000000	0.404230
729.000000	0.404430
730.000000	0.404655
731.000000	0.404851
732.000000	0.405029
733.000000	0.405250
734.000000	0.405485
735.000000	0.405710
736.000000	0.406001
737.000000	0.406143
738.000000	0.406227
739.000000	0.406449
740.000000	0.406688
741.000000	0.406872
742.000000	0.407007
743.000000	0.407101
744.000000	0.407288
745.000000	0.407445
746.000000	0.407632
747.000000	0.407826
748.000000	0.408049
749.000000	0.408246
750.000000	0.408361
751.000000	0.408534
752.000000	0.408724
753.000000	0.408899
754.000000	0.409001
755.000000	0.409112
756.000000	0.409219
757.000000	0.409238
758.000000	0.409318
759.000000	0.409452
760.000000	0.409548
761.000000	0.409735
762.000000	0.409807
763.000000	0.409793
764.000000	0.409964
765.000000	0.410045
766.000000	0.410091
767.000000	0.410186
768.000000	0.410283
769.000000	0.410350
770.000000	0.410386
771.000000	0.410414
772.000000	0.410555
773.000000	0.410690
774.000000	0.410781
775.000000	0.410815
776.000000	0.410800
777.000000	0.410725
778.000000	0.410586
779.000000	0.410547
780.000000	0.410590
781.000000	0.410496
782.000000	0.410491
783.000000	0.410610
784.000000	0.410609
785.000000	0.410635
786.000000	0.410618
787.000000	0.410543
788.000000	0.410556
789.000000	0.410577
790.000000	0.410565
791.000000	0.410557
792.000000	0.410645
793.000000	0.410684
794.000000	0.410596
795.000000	0.410617
796.000000	0.410533
797.000000	0.410317
798.000000	0.410157
799.000000	0.410090
800.000000	0.410091
801.000000	0.410117
802.000000	0.410130
803.000000	0.410119
804.000000	0.410103
805.000000	0.409973
806.000000	0.409880
807.000000	0.409883
808.000000	0.409797
809.000000	0.409743
810.000000	0.409628
811.000000	0.409406
812.000000	0.409345
813.000000	0.409313
814.000000	0.409247
815.000000	0.409172
816.000000	0.409012
817.000000	0.408858
818.000000	0.408711
819.000000	0.408675
820.000000	0.408596
821.000000	0.408423
822.000000	0.408471
823.000000	0.408482
824.000000	0.408330
825.000000	0.408128
826.000000	0.407981
827.000000	0.407875
828.000000	0.407845
829.000000	0.407863
830.000000	0.407753
831.000000	0.407586
832.000000	0.407360
833.000000	0.407221
834.000000	0.407136
835.000000	0.407071
836.000000	0.406900
837.000000	0.406799
838.000000	0.406745
839.000000	0.406501
840.000000	0.406293
841.000000	0.406148
842.000000	0.405996
843.000000	0.405873
844.000000	0.405814
845.000000	0.405780
846.000000	0.405753
847.000000	0.405703
848.000000	0.405597
849.000000	0.405457
850.000000	0.405280
851.000000	0.405101
852.000000	0.404998
853.000000	0.404968
854.000000	0.404858
855.000000	0.404780
856.000000	0.404667
857.000000	0.404486
858.000000	0.404444
859.000000	0.404463
860.000000	0.404284
861.000000	0.404109
862.000000	0.404024
863.000000	0.403951
864.000000	0.403801
865.000000	0.403638
866.000000	0.403495
867.000000	0.403196
868.000000	0.403029
869.000000	0.402887
870.000000	0.402674
871.000000	0.402515
872.000000	0.402386
873.000000	0.402200
874.000000	0.402059
875.000000	0.401885
876.000000	0.401700
877.000000	0.401479
878.000000	0.401310
879.000000	0.401167
880.000000	0.400897
881.000000	0.400801
882.000000	0.400511
883.000000	0.400162
884.000000	0.399977
885.000000	0.399839
886.000000	0.399583
887.000000	0.399261
888.000000	0.399227
889.000000	0.399122
890.000000	0.398889
891.000000	0.398845
892.000000	0.398690
893.000000	0.398522
894.000000	0.398477
895.000000	0.398165
896.000000	0.397867
897.000000	0.397648
898.000000	0.397488
899.000000	0.397334
900.000000	0.397187
901.000000	0.397015
902.000000	0.396907
903.000000	0.396785
904.000000	0.396719
905.000000	0.396637
906.000000	0.396467
907.000000	0.396284
908.000000	0.396167
909.000000	0.395964
910.000000	0.395849
911.000000	0.395685
912.000000	0.395361
913.000000	0.394990
914.000000	0.394761
915.000000	0.394730
916.000000	0.394626
917.000000	0.394491
918.000000	0.394346
919.000000	0.394150
920.000000	0.393774
921.000000	0.393668
922.000000	0.393620
923.000000	0.393146
924.000000	0.393074
925.000000	0.393071
926.000000	0.392926
927.000000	0.392707
928.000000	0.392473
929.000000	0.392225
930.000000	0.391960
931.000000	0.391737
932.000000	0.391541
933.000000	0.391418
934.000000	0.391347
935.000000	0.391064
936.000000	0.390887
937.000000	0.390888
938.000000	0.390512
939.000000	0.390328
940.000000	0.390271
941.000000	0.390111
942.000000	0.389880
943.000000	0.389702
944.000000	0.389511
945.000000	0.389438
946.000000	0.389266
947.000000	0.389012
948.000000	0.388700
949.000000	0.388483
950.000000	0.388360
951.000000	0.388231
952.000000	0.388070
953.000000	0.387958
954.000000	0.387777
955.000000	0.387391
956.000000	0.387077
957.000000	0.386897
958.000000	0.386750
959.000000	0.386624
960.000000	0.386467
961.000000	0.386377
962.000000	0.386267
963.000000	0.385922
964.000000	0.385573
965.000000	0.385329
966.000000	0.385136
967.000000	0.385306
968.000000	0.385017
969.000000	0.384475
970.000000	0.384466
971.000000	0.384477
972.000000	0.384361
973.000000	0.384127
974.000000	0.384174
975.000000	0.384080
976.000000	0.383851
977.000000	0.383574
978.000000	0.383270
979.000000	0.383385
980.000000	0.383396
981.000000	0.383087
982.000000	0.382812
983.000000	0.382569
984.000000	0.382335
985.000000	0.381925
986.000000	0.381912
987.000000	0.382096
988.000000	0.382090
989.000000	0.382005
990.000000	0.381892
991.000000	0.381826
992.000000	0.381876
993.000000	0.381733
994.000000	0.381494
995.000000	0.381561
996.000000	0.381914
997.000000	0.381746
998.000000	0.381348
999.000000	0.381229
1000.000000	0.381623
1001.000000	0.381714
1002.000000	0.381691
1003.000000	0.380795
1004.000000	0.380525
1005.000000	0.381254
1006.000000	0.380980
1007.000000	0.380167
1008.000000	0.379775
1009.000000	0.379863
1010.000000	0.379894
1011.000000	0.380184
1012.000000	0.380326
1013.000000	0.379548
1014.000000	0.378817
1015.000000	0.379337
1016.000000	0.380284
1017.000000	0.380738
1018.000000	0.381489
1019.000000	0.381809
1020.000000	0.381545
1021.000000	0.381045
1022.000000	0.380381
1023.000000	0.380440
1024.000000	0.380306
1025.000000	0.380624
1026.000000	0.381437
1027.000000	0.381873
1028.000000	0.381716
1029.000000	0.381639
1030.000000	0.381395
1031.000000	0.381329
1032.000000	0.381636
1033.000000	0.381638
1034.000000	0.381688
1035.000000	0.381844
1036.000000	0.382040
1037.000000	0.382102
1038.000000	0.382117
1039.000000	0.382450
1040.000000	0.382543
1041.000000	0.382241
1042.000000	0.382524
1043.000000	0.383121
1044.000000	0.383395
1045.000000	0.383303
1046.000000	0.383391
1047.000000	0.383703
1048.000000	0.383851
1049.000000	0.384071
1050.000000	0.384912
1051.000000	0.385003
1052.000000	0.384151
1053.000000	0.384137
1054.000000	0.384653
1055.000000	0.384964
1056.000000	0.385591
1057.000000	0.386211
1058.000000	0.386344
1059.000000	0.386349
1060.000000	0.386831
1061.000000	0.387049
1062.000000	0.387251
1063.000000	0.387689
1064.000000	0.388072
1065.000000	0.388611
1066.000000	0.388759
1067.000000	0.388454
1068.000000	0.388616
1069.000000	0.388591
1070.000000	0.388785
1071.000000	0.389648
1072.000000	0.390158
1073.000000	0.390713
1074.000000	0.390959
1075.000000	0.390846
1076.000000	0.391184
1077.000000	0.391138
1078.000000	0.391245
1079.000000	0.391578
1080.000000	0.392243
1081.000000	0.392676
1082.000000	0.393519
1083.000000	0.393777
1084.000000	0.393517
1085.000000	0.393779
1086.000000	0.393832
1087.000000	0.394217
1088.000000	0.395432
1089.000000	0.395875
1090.000000	0.396245
1091.000000	0.395830
1092.000000	0.395192
1093.000000	0.394864
1094.000000	0.394990
1095.000000	0.395403
1096.000000	0.395752
1097.000000	0.396556
1098.000000	0.396963
1099.000000	0.397068
1100.000000	0.397304
1101.000000	0.397313
1102.000000	0.397616
1103.000000	0.398064
1104.000000	0.398507
1105.000000	0.399321
1106.000000	0.399734
1107.000000	0.399559
1108.000000	0.399796
1109.000000	0.400198
1110.000000	0.400723
1111.000000	0.400819
1112.000000	0.400976
1113.000000	0.401057
1114.000000	0.400543
1115.000000	0.400714
1116.000000	0.401422
1117.000000	0.401812
1118.000000	0.402181
1119.000000	0.402547
1120.000000	0.402948
1121.000000	0.403214
1122.000000	0.403511
1123.000000	0.404058
1124.000000	0.404464
1125.000000	0.404693
1126.000000	0.404860
1127.000000	0.404907
1128.000000	0.404805
1129.000000	0.404339
1130.000000	0.404371
1131.000000	0.404613
1132.000000	0.404683
1133.000000	0.404926
1134.000000	0.405128
1135.000000	0.405144
1136.000000	0.405249
1137.000000	0.405432
1138.000000	0.405570
1139.000000	0.405814
1140.000000	0.406075
1141.000000	0.406291
1142.000000	0.406536
1143.000000	0.406832
1144.000000	0.407026
1145.000000	0.406849
1146.000000	0.406746
1147.000000	0.406719
1148.000000	0.406425
1149.000000	0.406408
1150.000000	0.406673
1151.000000	0.406801
1152.000000	0.406791
1153.000000	0.406921
1154.000000	0.407122
1155.000000	0.407213
1156.000000	0.407336
1157.000000	0.407401
1158.000000	0.407334
1159.000000	0.407254
1160.000000	0.407009
1161.000000	0.406950
1162.000000	0.406970
1163.000000	0.407270
1164.000000	0.407488
1165.000000	0.407520
1166.000000	0.407643
1167.000000	0.407623
1168.000000	0.407627
1169.000000	0.407721
1170.000000	0.407822
1171.000000	0.407937
1172.000000	0.408032
1173.000000	0.408140
1174.000000	0.408212
1175.000000	0.408137
1176.000000	0.408125
1177.000000	0.408307
1178.000000	0.408356
1179.000000	0.408383
1180.000000	0.408295
1181.000000	0.408172
1182.000000	0.408049
1183.000000	0.408097
1184.000000	0.408097
1185.000000	0.408141
1186.000000	0.408311
1187.000000	0.408346
1188.000000	0.408330
1189.000000	0.408263
1190.000000	0.408167
1191.000000	0.408094
1192.000000	0.408043
1193.000000	0.408255
1194.000000	0.408542
1195.000000	0.408681
1196.000000	0.408814
1197.000000	0.408905
1198.000000	0.408849
1199.000000	0.408876
1200.000000	0.409030
1201.000000	0.409016
1202.000000	0.408892
1203.000000	0.408952
1204.000000	0.408942
1205.000000	0.408886
1206.000000	0.408829
1207.000000	0.408912
1208.000000	0.408861
1209.000000	0.408789
1210.000000	0.408804
1211.000000	0.408861
1212.000000	0.408865
1213.000000	0.408932
1214.000000	0.409026
1215.000000	0.409080
1216.000000	0.409086
1217.000000	0.409101
1218.000000	0.409071
1219.000000	0.408964
1220.000000	0.408923
1221.000000	0.409029
1222.000000	0.409197
1223.000000	0.409273
1224.000000	0.409394
1225.000000	0.409461
1226.000000	0.409395
1227.000000	0.409264
1228.000000	0.409202
1229.000000	0.409104
1230.000000	0.408868
1231.000000	0.408723
1232.000000	0.408822
1233.000000	0.408937
1234.000000	0.409092
1235.000000	0.409133
1236.000000	0.408963
1237.000000	0.409028
1238.000000	0.409085
1239.000000	0.409141
1240.000000	0.409317
1241.000000	0.409553
1242.000000	0.409509
1243.000000	0.409348
1244.000000	0.409317
1245.000000	0.409381
1246.000000	0.409430
1247.000000	0.409624
1248.000000	0.409777
1249.000000	0.409861
1250.000000	0.409947
1251.000000	0.410012
1252.000000	0.409993
1253.000000	0.409875
1254.000000	0.409825
1255.000000	0.409715
1256.000000	0.409753
1257.000000	0.409960
1258.000000	0.410080
1259.000000	0.410143
1260.000000	0.410258
1261.000000	0.410289
1262.000000	0.410319
1263.000000	0.410404
1264.000000	0.410464
1265.000000	0.410463
1266.000000	0.410368
1267.000000	0.410442
1268.000000	0.410468
1269.000000	0.410380
1270.000000	0.410506
1271.000000	0.410515
1272.000000	0.410404
1273.000000	0.410408
1274.000000	0.410440
1275.000000	0.410445
1276.000000	0.410502
1277.000000	0.410638
1278.000000	0.410687
1279.000000	0.410694
1280.000000	0.410665
1281.000000	0.410542
1282.000000	0.410376
1283.000000	0.410370
1284.000000	0.410263
1285.000000	0.410265
1286.000000	0.410371
1287.000000	0.410391
1288.000000	0.410457
1289.000000	0.410504
1290.000000	0.410453
1291.000000	0.410362
1292.000000	0.410335
1293.000000	0.410338
1294.000000	0.410210
1295.000000	0.410208
1296.000000	0.410226
1297.000000	0.410039
1298.000000	0.410040
1299.000000	0.410190
1300.000000	0.410262
1301.000000	0.410363
1302.000000	0.410357
1303.000000	0.410440
1304.000000	0.410373
1305.000000	0.410317
1306.000000	0.410222
1307.000000	0.410161
1308.000000	0.410097
1309.000000	0.409953
1310.000000	0.409882
1311.000000	0.409942
1312.000000	0.409710
1313.000000	0.409589
1314.000000	0.409516
1315.000000	0.409240
1316.000000	0.409075
1317.000000	0.408932
1318.000000	0.408770
1319.000000	0.408610
1320.000000	0.408430
1321.000000	0.408246
1322.000000	0.408037
1323.000000	0.407827
1324.000000	0.407808
1325.000000	0.407710
1326.000000	0.407429
1327.000000	0.407269
1328.000000	0.407201
1329.000000	0.406948
1330.000000	0.406653
1331.000000	0.406393
1332.000000	0.406068
1333.000000	0.405838
1334.000000	0.405762
1335.000000	0.405643
1336.000000	0.405599
1337.000000	0.405415
1338.000000	0.405027
1339.000000	0.404824
1340.000000	0.404606
1341.000000	0.404070
1342.000000	0.403631
1343.000000	0.403368
1344.000000	0.403122
1345.000000	0.402909
1346.000000	0.402848
1347.000000	0.402584
1348.000000	0.402167
1349.000000	0.401797
1350.000000	0.401543
1351.000000	0.401293
1352.000000	0.401030
1353.000000	0.400731
1354.000000	0.400421
1355.000000	0.399927
1356.000000	0.399573
1357.000000	0.399222
1358.000000	0.398809
1359.000000	0.398585
1360.000000	0.398301
1361.000000	0.398006
1362.000000	0.397792
1363.000000	0.397633
1364.000000	0.397431
1365.000000	0.397273
1366.000000	0.397029
1367.000000	0.396722
1368.000000	0.396345
1369.000000	0.396120
1370.000000	0.395797
1371.000000	0.395409
1372.000000	0.395062
1373.000000	0.394642
1374.000000	0.394216
1375.000000	0.393795
1376.000000	0.393405
1377.000000	0.393048
1378.000000	0.392771
1379.000000	0.392308
1380.000000	0.391802
1381.000000	0.391243
1382.000000	0.390423
1383.000000	0.389830
1384.000000	0.389279
1385.000000	0.388589
1386.000000	0.387953
1387.000000	0.387268
1388.000000	0.386444
1389.000000	0.385595
1390.000000	0.384836
1391.000000	0.383885
1392.000000	0.382919
1393.000000	0.381945
1394.000000	0.381010
1395.000000	0.379951
1396.000000	0.378835
1397.000000	0.377654
1398.000000	0.376316
1399.000000	0.375041
1400.000000	0.373810
1401.000000	0.372491
1402.000000	0.371222
1403.000000	0.369742
1404.000000	0.368259
1405.000000	0.366619
1406.000000	0.364967
1407.000000	0.363452
1408.000000	0.361802
1409.000000	0.360245
1410.000000	0.358753
1411.000000	0.357090
1412.000000	0.355561
1413.000000	0.354133
1414.000000	0.352570
1415.000000	0.351017
1416.000000	0.349458
1417.000000	0.347956
1418.000000	0.346495
1419.000000	0.345136
1420.000000	0.343660
1421.000000	0.342187
1422.000000	0.340747
1423.000000	0.339375
1424.000000	0.337965
1425.000000	0.336543
1426.000000	0.335129
1427.000000	0.333739
1428.000000	0.332428
1429.000000	0.331197
1430.000000	0.330047
1431.000000	0.328935
1432.000000	0.327787
1433.000000	0.326629
1434.000000	0.325613
1435.000000	0.324734
1436.000000	0.323831
1437.000000	0.323004
1438.000000	0.322159
1439.000000	0.321301
1440.000000	0.320596
1441.000000	0.320049
1442.000000	0.319475
1443.000000	0.318889
1444.000000	0.318313
1445.000000	0.317755
1446.000000	0.317218
1447.000000	0.316814
1448.000000	0.316442
1449.000000	0.316002
1450.000000	0.315627
1451.000000	0.315248
1452.000000	0.314694
1453.000000	0.314170
1454.000000	0.313738
1455.000000	0.313396
1456.000000	0.313166
1457.000000	0.313030
1458.000000	0.312784
1459.000000	0.312327
1460.000000	0.311956
1461.000000	0.311490
1462.000000	0.311022
1463.000000	0.310809
1464.000000	0.310575
1465.000000	0.310403
1466.000000	0.310275
1467.000000	0.310073
1468.000000	0.309912
1469.000000	0.309868
1470.000000	0.309874
1471.000000	0.309967
1472.000000	0.310029
1473.000000	0.310108
1474.000000	0.310237
1475.000000	0.310444
1476.000000	0.310748
1477.000000	0.311167
1478.000000	0.311604
1479.000000	0.312082
1480.000000	0.312529
1481.000000	0.312928
1482.000000	0.313338
1483.000000	0.313846
1484.000000	0.314356
1485.000000	0.314835
1486.000000	0.315300
1487.000000	0.315831
1488.000000	0.316430
1489.000000	0.316982
1490.000000	0.317519
1491.000000	0.317997
1492.000000	0.318216
1493.000000	0.318636
1494.000000	0.319143
1495.000000	0.319599
1496.000000	0.320117
1497.000000	0.320612
1498.000000	0.321094
1499.000000	0.321522
1500.000000	0.322086
1501.000000	0.322581
1502.000000	0.322923
1503.000000	0.323322
1504.000000	0.323657
1505.000000	0.323910
1506.000000	0.324307
1507.000000	0.324766
1508.000000	0.325213
1509.000000	0.325613
1510.000000	0.326002
1511.000000	0.326384
1512.000000	0.326549
1513.000000	0.326769
1514.000000	0.327192
1515.000000	0.327447
1516.000000	0.327762
1517.000000	0.328155
1518.000000	0.328373
1519.000000	0.328454
1520.000000	0.328614
1521.000000	0.328672
1522.000000	0.328769
1523.000000	0.328949
1524.000000	0.329027
1525.000000	0.329316
1526.000000	0.329505
1527.000000	0.329634
1528.000000	0.329919
1529.000000	0.330028
1530.000000	0.330027
1531.000000	0.330116
1532.000000	0.330267
1533.000000	0.330413
1534.000000	0.330530
1535.000000	0.330661
1536.000000	0.330673
1537.000000	0.330693
1538.000000	0.330832
1539.000000	0.331029
1540.000000	0.331234
1541.000000	0.331431
1542.000000	0.331564
1543.000000	0.331596
1544.000000	0.331630
1545.000000	0.331775
1546.000000	0.331876
1547.000000	0.331934
1548.000000	0.332032
1549.000000	0.331935
1550.000000	0.331783
1551.000000	0.331803
1552.000000	0.331798
1553.000000	0.331742
1554.000000	0.331700
1555.000000	0.331621
1556.000000	0.331502
1557.000000	0.331441
1558.000000	0.331463
1559.000000	0.331534
1560.000000	0.331509
1561.000000	0.331566
1562.000000	0.331531
1563.000000	0.331450
1564.000000	0.331430
1565.000000	0.331392
1566.000000	0.331298
1567.000000	0.331291
1568.000000	0.331306
1569.000000	0.331393
1570.000000	0.331440
1571.000000	0.331509
1572.000000	0.331486
1573.000000	0.331398
1574.000000	0.331350
1575.000000	0.331278
1576.000000	0.331311
1577.000000	0.331470
1578.000000	0.331422
1579.000000	0.331348
1580.000000	0.331340
1581.000000	0.331292
1582.000000	0.331282
1583.000000	0.331420
1584.000000	0.331361
1585.000000	0.331210
1586.000000	0.331170
1587.000000	0.331172
1588.000000	0.331158
1589.000000	0.331139
1590.000000	0.331203
1591.000000	0.331280
1592.000000	0.331390
1593.000000	0.331710
1594.000000	0.331806
1595.000000	0.331861
1596.000000	0.331911
1597.000000	0.331864
1598.000000	0.331848
1599.000000	0.331854
1600.000000	0.331861
1601.000000	0.331934
1602.000000	0.332017
1603.000000	0.332224
1604.000000	0.332306
1605.000000	0.332344
1606.000000	0.332388
1607.000000	0.332455
1608.000000	0.332460
1609.000000	0.332443
1610.000000	0.332515
1611.000000	0.332625
1612.000000	0.332687
1613.000000	0.332927
1614.000000	0.333030
1615.000000	0.333053
1616.000000	0.333187
1617.000000	0.333391
1618.000000	0.333457
1619.000000	0.333324
1620.000000	0.333458
1621.000000	0.333733
1622.000000	0.333919
1623.000000	0.334224
1624.000000	0.334455
1625.000000	0.334329
1626.000000	0.334394
1627.000000	0.334626
1628.000000	0.334830
1629.000000	0.334999
1630.000000	0.335276
1631.000000	0.335590
1632.000000	0.335865
1633.000000	0.336194
1634.000000	0.336484
1635.000000	0.336786
1636.000000	0.337011
1637.000000	0.337236
1638.000000	0.337404
1639.000000	0.337519
1640.000000	0.337696
1641.000000	0.337927
1642.000000	0.338202
1643.000000	0.338614
1644.000000	0.338914
1645.000000	0.339181
1646.000000	0.339407
1647.000000	0.339585
1648.000000	0.339814
1649.000000	0.340177
1650.000000	0.340482
1651.000000	0.340835
1652.000000	0.341116
1653.000000	0.341246
1654.000000	0.341589
1655.000000	0.341908
1656.000000	0.342208
1657.000000	0.342816
1658.000000	0.342993
1659.000000	0.342989
1660.000000	0.343245
1661.000000	0.343293
1662.000000	0.343556
1663.000000	0.344109
1664.000000	0.344370
1665.000000	0.344484
1666.000000	0.344732
1667.000000	0.344848
1668.000000	0.345107
1669.000000	0.345467
1670.000000	0.345665
1671.000000	0.345938
1672.000000	0.346262
1673.000000	0.346526
1674.000000	0.346841
1675.000000	0.347134
1676.000000	0.347243
1677.000000	0.347368
1678.000000	0.347727
1679.000000	0.348108
1680.000000	0.348448
1681.000000	0.348738
1682.000000	0.348829
1683.000000	0.348909
1684.000000	0.348934
1685.000000	0.349089
1686.000000	0.349440
1687.000000	0.349703
1688.000000	0.349856
1689.000000	0.350061
1690.000000	0.350056
1691.000000	0.350049
1692.000000	0.350279
1693.000000	0.350511
1694.000000	0.350577
1695.000000	0.350774
1696.000000	0.350816
1697.000000	0.350799
1698.000000	0.350795
1699.000000	0.350877
1700.000000	0.350984
1701.000000	0.351134
1702.000000	0.351061
1703.000000	0.351176
1704.000000	0.351610
1705.000000	0.351775
1706.000000	0.351971
1707.000000	0.352162
1708.000000	0.352075
1709.000000	0.352049
1710.000000	0.352325
1711.000000	0.352443
1712.000000	0.352344
1713.000000	0.352430
1714.000000	0.352591
1715.000000	0.352844
1716.000000	0.353374
1717.000000	0.353659
1718.000000	0.353883
1719.000000	0.353994
1720.000000	0.353931
1721.000000	0.353985
1722.000000	0.354012
1723.000000	0.354137
1724.000000	0.354378
1725.000000	0.354581
1726.000000	0.354745
1727.000000	0.354887
1728.000000	0.354931
1729.000000	0.354960
1730.000000	0.355044
1731.000000	0.355274
1732.000000	0.355643
1733.000000	0.355934
1734.000000	0.356178
1735.000000	0.356353
1736.000000	0.356364
1737.000000	0.356424
1738.000000	0.356492
1739.000000	0.356639
1740.000000	0.356737
1741.000000	0.356935
1742.000000	0.357294
1743.000000	0.357561
1744.000000	0.357836
1745.000000	0.357927
1746.000000	0.357888
1747.000000	0.358002
1748.000000	0.358017
1749.000000	0.358056
1750.000000	0.358135
1751.000000	0.358337
1752.000000	0.358559
1753.000000	0.358738
1754.000000	0.358884
1755.000000	0.358846
1756.000000	0.358877
1757.000000	0.358948
1758.000000	0.359059
1759.000000	0.359194
1760.000000	0.359305
1761.000000	0.359404
1762.000000	0.359474
1763.000000	0.359546
1764.000000	0.359589
1765.000000	0.359489
1766.000000	0.359585
1767.000000	0.359739
1768.000000	0.359733
1769.000000	0.359775
1770.000000	0.360017
1771.000000	0.360213
1772.000000	0.360393
1773.000000	0.360741
1774.000000	0.360960
1775.000000	0.361030
1776.000000	0.361259
1777.000000	0.361589
1778.000000	0.361800
1779.000000	0.362000
1780.000000	0.362108
1781.000000	0.362127
1782.000000	0.362073
1783.000000	0.361870
1784.000000	0.362077
1785.000000	0.362244
1786.000000	0.362458
1787.000000	0.362878
1788.000000	0.363206
1789.000000	0.363256
1790.000000	0.363562
1791.000000	0.363685
1792.000000	0.363570
1793.000000	0.363708
1794.000000	0.364086
1795.000000	0.364276
1796.000000	0.364480
1797.000000	0.364687
1798.000000	0.364716
1799.000000	0.364753
1800.000000	0.364910
1801.000000	0.365110
1802.000000	0.364825
1803.000000	0.364444
1804.000000	0.364697
1805.000000	0.365566
1806.000000	0.366260
1807.000000	0.367637
1808.000000	0.368264
1809.000000	0.368348
1810.000000	0.368827
1811.000000	0.368965
1812.000000	0.368687
1813.000000	0.368458
1814.000000	0.368090
1815.000000	0.368075
1816.000000	0.368303
1817.000000	0.368091
1818.000000	0.368216
1819.000000	0.367742
1820.000000	0.367649
1821.000000	0.367558
1822.000000	0.367450
1823.000000	0.367889
1824.000000	0.367655
1825.000000	0.366335
1826.000000	0.366063
1827.000000	0.365942
1828.000000	0.365916
1829.000000	0.366227
1830.000000	0.367203
1831.000000	0.367448
1832.000000	0.367301
1833.000000	0.367349
1834.000000	0.367286
1835.000000	0.367160
1836.000000	0.366983
1837.000000	0.366882
1838.000000	0.366709
1839.000000	0.366209
1840.000000	0.365912
1841.000000	0.365893
1842.000000	0.365558
1843.000000	0.365009
1844.000000	0.364720
1845.000000	0.364202
1846.000000	0.363746
1847.000000	0.363131
1848.000000	0.363092
1849.000000	0.362250
1850.000000	0.361476
1851.000000	0.360917
1852.000000	0.359991
1853.000000	0.359368
1854.000000	0.359233
1855.000000	0.358565
1856.000000	0.357585
1857.000000	0.356747
1858.000000	0.355388
1859.000000	0.353844
1860.000000	0.352751
1861.000000	0.351727
1862.000000	0.350372
1863.000000	0.349038
1864.000000	0.347934
1865.000000	0.346732
1866.000000	0.345439
1867.000000	0.344689
1868.000000	0.343265
1869.000000	0.340870
1870.000000	0.337998
1871.000000	0.334979
1872.000000	0.332596
1873.000000	0.330206
1874.000000	0.327951
1875.000000	0.325754
1876.000000	0.323873
1877.000000	0.320820
1878.000000	0.317601
1879.000000	0.314920
1880.000000	0.311613
1881.000000	0.308350
1882.000000	0.304741
1883.000000	0.301068
1884.000000	0.297589
1885.000000	0.293836
1886.000000	0.289985
1887.000000	0.286392
1888.000000	0.282081
1889.000000	0.277803
1890.000000	0.273868
1891.000000	0.269865
1892.000000	0.266317
1893.000000	0.262251
1894.000000	0.257807
1895.000000	0.253229
1896.000000	0.248436
1897.000000	0.243655
1898.000000	0.239262
1899.000000	0.234966
1900.000000	0.230789
1901.000000	0.226665
1902.000000	0.221876
1903.000000	0.217389
1904.000000	0.213605
1905.000000	0.209605
1906.000000	0.205766
1907.000000	0.202354
1908.000000	0.199069
1909.000000	0.195536
1910.000000	0.191868
1911.000000	0.188615
1912.000000	0.185557
1913.000000	0.182149
1914.000000	0.179317
1915.000000	0.177012
1916.000000	0.175225
1917.000000	0.173408
1918.000000	0.172164
1919.000000	0.170839
1920.000000	0.169207
1921.000000	0.166933
1922.000000	0.164712
1923.000000	0.163149
1924.000000	0.161941
1925.000000	0.161548
1926.000000	0.161386
1927.000000	0.160955
1928.000000	0.160693
1929.000000	0.160590
1930.000000	0.160294
1931.000000	0.159944
1932.000000	0.160042
1933.000000	0.160235
1934.000000	0.160289
1935.000000	0.160216
1936.000000	0.160055
1937.000000	0.160042
1938.000000	0.159724
1939.000000	0.159439
1940.000000	0.159198
1941.000000	0.159294
1942.000000	0.159228
1943.000000	0.159033
1944.000000	0.159211
1945.000000	0.159250
1946.000000	0.158568
1947.000000	0.158154
1948.000000	0.157644
1949.000000	0.157012
1950.000000	0.156606
1951.000000	0.155953
1952.000000	0.155134
1953.000000	0.154401
1954.000000	0.153820
1955.000000	0.153433
1956.000000	0.152913
1957.000000	0.152020
1958.000000	0.151209
1959.000000	0.150256
1960.000000	0.149650
1961.000000	0.149771
1962.000000	0.149772
1963.000000	0.150053
1964.000000	0.149984
1965.000000	0.150176
1966.000000	0.150265
1967.000000	0.149875
1968.000000	0.149993
1969.000000	0.150225
1970.000000	0.150411
1971.000000	0.150800
1972.000000	0.151314
1973.000000	0.151527
1974.000000	0.151545
1975.000000	0.151622
1976.000000	0.151535
1977.000000	0.151647
1978.000000	0.151996
1979.000000	0.151975
1980.000000	0.152255
1981.000000	0.152360
1982.000000	0.152327
1983.000000	0.152731
1984.000000	0.153298
1985.000000	0.154153
1986.000000	0.155034
1987.000000	0.156290
1988.000000	0.157377
1989.000000	0.157740
1990.000000	0.158208
1991.000000	0.158368
1992.000000	0.158568
1993.000000	0.159704
1994.000000	0.160574
1995.000000	0.161620
1996.000000	0.162906
1997.000000	0.164013
1998.000000	0.165363
1999.000000	0.166390
2000.000000	0.167313
2001.000000	0.167757
2002.000000	0.168320
2003.000000	0.168632
2004.000000	0.169217
2005.000000	0.169926
2006.000000	0.170267
2007.000000	0.171004
2008.000000	0.172010
2009.000000	0.173298
2010.000000	0.174424
2011.000000	0.175587
2012.000000	0.176844
2013.000000	0.177999
2014.000000	0.179125
2015.000000	0.180766
2016.000000	0.182288
2017.000000	0.183078
2018.000000	0.183609
2019.000000	0.183973
2020.000000	0.184759
2021.000000	0.185692
2022.000000	0.187090
2023.000000	0.188195
2024.000000	0.189154
2025.000000	0.190196
2026.000000	0.191325
2027.000000	0.192009
2028.000000	0.192599
2029.000000	0.194080
2030.000000	0.195446
2031.000000	0.197071
2032.000000	0.198972
2033.000000	0.200824
2034.000000	0.202292
2035.000000	0.203573
2036.000000	0.204521
2037.000000	0.205101
2038.000000	0.205800
2039.000000	0.206208
2040.000000	0.207132
2041.000000	0.207807
2042.000000	0.208591
2043.000000	0.209529
2044.000000	0.210247
2045.000000	0.211228
2046.000000	0.212465
2047.000000	0.213497
2048.000000	0.214279
2049.000000	0.215496
2050.000000	0.216662
2051.000000	0.217739
2052.000000	0.219117
2053.000000	0.220150
2054.000000	0.221099
2055.000000	0.221854
2056.000000	0.222914
2057.000000	0.223859
2058.000000	0.224540
2059.000000	0.225872
2060.000000	0.226907
2061.000000	0.227884
2062.000000	0.228806
2063.000000	0.229875
2064.000000	0.230347
2065.000000	0.230601
2066.000000	0.230898
2067.000000	0.231085
2068.000000	0.231340
2069.000000	0.231781
2070.000000	0.232640
2071.000000	0.233706
2072.000000	0.235217
2073.000000	0.237239
2074.000000	0.238496
2075.000000	0.239675
2076.000000	0.240715
2077.000000	0.241523
2078.000000	0.241842
2079.000000	0.242609
2080.000000	0.243525
2081.000000	0.244248
2082.000000	0.245087
2083.000000	0.245655
2084.000000	0.246313
2085.000000	0.247107
2086.000000	0.248719
2087.000000	0.250154
2088.000000	0.251244
2089.000000	0.252269
2090.000000	0.252980
2091.000000	0.252949
2092.000000	0.253778
2093.000000	0.254997
2094.000000	0.255873
2095.000000	0.257182
2096.000000	0.258062
2097.000000	0.258461
2098.000000	0.258684
2099.000000	0.259247
2100.000000	0.260103
2101.000000	0.261306
2102.000000	0.262962
2103.000000	0.264228
2104.000000	0.264756
2105.000000	0.265418
2106.000000	0.265341
2107.000000	0.266019
2108.000000	0.267243
2109.000000	0.268159
2110.000000	0.269049
2111.000000	0.269849
2112.000000	0.270448
2113.000000	0.270791
2114.000000	0.271094
2115.000000	0.271622
2116.000000	0.272261
2117.000000	0.273145
2118.000000	0.274100
2119.000000	0.275310
2120.000000	0.275991
2121.000000	0.276139
2122.000000	0.276385
2123.000000	0.276486
2124.000000	0.276477
2125.000000	0.276411
2126.000000	0.276498
2127.000000	0.276420
2128.000000	0.276633
2129.000000	0.277133
2130.000000	0.277290
2131.000000	0.277621
2132.000000	0.277567
2133.000000	0.277857
2134.000000	0.278716
2135.000000	0.279210
2136.000000	0.280289
2137.000000	0.280982
2138.000000	0.281406
2139.000000	0.281917
2140.000000	0.282537
2141.000000	0.282836
2142.000000	0.283036
2143.000000	0.283023
2144.000000	0.282588
2145.000000	0.282641
2146.000000	0.283061
2147.000000	0.283590
2148.000000	0.283323
2149.000000	0.283725
2150.000000	0.284092
2151.000000	0.283369
2152.000000	0.283137
2153.000000	0.282996
2154.000000	0.283121
2155.000000	0.283371
2156.000000	0.283782
2157.000000	0.284883
2158.000000	0.285379
2159.000000	0.285288
2160.000000	0.285504
2161.000000	0.285621
2162.000000	0.285980
2163.000000	0.286896
2164.000000	0.287346
2165.000000	0.287503
2166.000000	0.287932
2167.000000	0.287898
2168.000000	0.287001
2169.000000	0.287036
2170.000000	0.286628
2171.000000	0.285814
2172.000000	0.284530
2173.000000	0.283972
2174.000000	0.283034
2175.000000	0.282932
2176.000000	0.284449
2177.000000	0.284723
2178.000000	0.284077
2179.000000	0.284252
2180.000000	0.284480
2181.000000	0.284609
2182.000000	0.284134
2183.000000	0.285130
2184.000000	0.285459
2185.000000	0.285816
2186.000000	0.286124
2187.000000	0.285925
2188.000000	0.285231
2189.000000	0.284325
2190.000000	0.284916
2191.000000	0.286808
2192.000000	0.287112
2193.000000	0.287592
2194.000000	0.286689
2195.000000	0.282603
2196.000000	0.281837
2197.000000	0.281981
2198.000000	0.282517
2199.000000	0.287284
2200.000000	0.288399
2201.000000	0.286644
2202.000000	0.285969
2203.000000	0.283573
2204.000000	0.281589
2205.000000	0.281731
2206.000000	0.283330
2207.000000	0.283373
2208.000000	0.283747
2209.000000	0.284929
2210.000000	0.285689
2211.000000	0.287058
2212.000000	0.288047
2213.000000	0.287479
2214.000000	0.283977
2215.000000	0.282705
2216.000000	0.280743
2217.000000	0.281417
2218.000000	0.284945
2219.000000	0.286447
2220.000000	0.288681
2221.000000	0.290086
2222.000000	0.290372
2223.000000	0.290386
2224.000000	0.289616
2225.000000	0.290418
2226.000000	0.290726
2227.000000	0.288601
2228.000000	0.290662
2229.000000	0.292126
2230.000000	0.291709
2231.000000	0.294018
2232.000000	0.293807
2233.000000	0.291351
2234.000000	0.288836
2235.000000	0.284654
2236.000000	0.282824
2237.000000	0.280630
2238.000000	0.281725
2239.000000	0.286749
2240.000000	0.289626
2241.000000	0.294088
2242.000000	0.295850
2243.000000	0.296165
2244.000000	0.295162
2245.000000	0.290743
2246.000000	0.289119
2247.000000	0.287078
2248.000000	0.286132
2249.000000	0.286890
2250.000000	0.290363
2251.000000	0.287471
2252.000000	0.286394
2253.000000	0.285904
2254.000000	0.283519
2255.000000	0.285945
2256.000000	0.287142
2257.000000	0.287469
2258.000000	0.288633
2259.000000	0.287880
2260.000000	0.288193
2261.000000	0.287433
2262.000000	0.285758
2263.000000	0.284254
2264.000000	0.281655
2265.000000	0.280948
2266.000000	0.281545
2267.000000	0.281835
2268.000000	0.283173
2269.000000	0.283814
2270.000000	0.283486
2271.000000	0.283131
2272.000000	0.284043
2273.000000	0.283215
2274.000000	0.280025
2275.000000	0.279246
2276.000000	0.279510
2277.000000	0.277856
2278.000000	0.276439
2279.000000	0.277587
2280.000000	0.275745
2281.000000	0.272717
2282.000000	0.272045
2283.000000	0.270056
2284.000000	0.268150
2285.000000	0.266743
2286.000000	0.266134
2287.000000	0.265384
2288.000000	0.264274
2289.000000	0.264393
2290.000000	0.264092
2291.000000	0.263923
2292.000000	0.265535
2293.000000	0.267174
2294.000000	0.268472
2295.000000	0.271070
2296.000000	0.271082
2297.000000	0.268601
2298.000000	0.268082
2299.000000	0.266498
2300.000000	0.265895
2301.000000	0.268014
2302.000000	0.267911
2303.000000	0.266563
2304.000000	0.265485
2305.000000	0.263385
2306.000000	0.261803
2307.000000	0.260394
2308.000000	0.259058
2309.000000	0.257922
2310.000000	0.257391
2311.000000	0.256338
2312.000000	0.254832
2313.000000	0.254177
2314.000000	0.253016
2315.000000	0.250609
2316.000000	0.249169
2317.000000	0.246945
2318.000000	0.244951
2319.000000	0.246308
2320.000000	0.245717
2321.000000	0.242711
2322.000000	0.241200
2323.000000	0.239224
2324.000000	0.238840
2325.000000	0.240827
2326.000000	0.240523
2327.000000	0.239082
2328.000000	0.237357
2329.000000	0.236440
2330.000000	0.237439
2331.000000	0.237159
2332.000000	0.236125
2333.000000	0.233237
2334.000000	0.229124
2335.000000	0.227523
2336.000000	0.226950
2337.000000	0.225596
2338.000000	0.225774
2339.000000	0.224462
2340.000000	0.220928
2341.000000	0.219795
2342.000000	0.220915
2343.000000	0.220097
2344.000000	0.218655
2345.000000	0.217672
2346.000000	0.215867
2347.000000	0.213625
2348.000000	0.211317
2349.000000	0.210758
2350.000000	0.209129
2351.000000	0.206863
2352.000000	0.207556
2353.000000	0.207776
2354.000000	0.208089
2355.000000	0.207475
2356.000000	0.208638
2357.000000	0.210196
2358.000000	0.204885
2359.000000	0.202806
2360.000000	0.200477
2361.000000	0.193851
2362.000000	0.195938
2363.000000	0.198969
2364.000000	0.197734
2365.000000	0.198988
2366.000000	0.193128
2367.000000	0.187746
2368.000000	0.186099
2369.000000	0.183079
2370.000000	0.185292
2371.000000	0.186305
2372.000000	0.185548
2373.000000	0.184284
2374.000000	0.183747
2375.000000	0.186503
2376.000000	0.190551
2377.000000	0.192728
2378.000000	0.193275
2379.000000	0.191548
2380.000000	0.185401
2381.000000	0.184926
2382.000000	0.184544
2383.000000	0.179870
2384.000000	0.180695
2385.000000	0.179497
2386.000000	0.178121
2387.000000	0.184830
2388.000000	0.187647
2389.000000	0.185480
2390.000000	0.184809
2391.000000	0.175799
2392.000000	0.167451
2393.000000	0.171654
2394.000000	0.175228
2395.000000	0.174720
2396.000000	0.173423
2397.000000	0.165179
2398.000000	0.155946
2399.000000	0.154891
2400.000000	0.155611
2401.000000	0.158070
2402.000000	0.159923
2403.000000	0.161508
2404.000000	0.165388
2405.000000	0.168065
2406.000000	0.175320
2407.000000	0.179220
2408.000000	0.177806
2409.000000	0.173564
2410.000000	0.164811
2411.000000	0.160301
2412.000000	0.152021
2413.000000	0.143902
2414.000000	0.147421
2415.000000	0.147153
2416.000000	0.149810
2417.000000	0.165704
2418.000000	0.167456
2419.000000	0.161143
2420.000000	0.162482
2421.000000	0.151739
2422.000000	0.141847
2423.000000	0.141459
2424.000000	0.130178
2425.000000	0.124226
2426.000000	0.127621
2427.000000	0.129611
2428.000000	0.141409
2429.000000	0.157642
2430.000000	0.161623
2431.000000	0.159014
2432.000000	0.157783
2433.000000	0.146624
2434.000000	0.142049
2435.000000	0.142666
2436.000000	0.135318
2437.000000	0.136776
2438.000000	0.141060
2439.000000	0.134923
2440.000000	0.133703
2441.000000	0.131004
2442.000000	0.121170
2443.000000	0.120435
2444.000000	0.128299
2445.000000	0.136036
2446.000000	0.132595
2447.000000	0.136353
2448.000000	0.137559
2449.000000	0.132749
2450.000000	0.145329
2451.000000	0.153376
2452.000000	0.156687
2453.000000	0.167060
2454.000000	0.167642
2455.000000	0.161728
2456.000000	0.150248
2457.000000	0.130779
2458.000000	0.130756
2459.000000	0.124784
2460.000000	0.126890
2461.000000	0.147067
2462.000000	0.148138
2463.000000	0.162858
2464.000000	0.162084
2465.000000	0.136694
2466.000000	0.120693
2467.000000	0.105521
2468.000000	0.098353
2469.000000	0.119989
2470.000000	0.144216
2471.000000	0.149176
2472.000000	0.172251
2473.000000	0.169116
2474.000000	0.153885
2475.000000	0.145473
2476.000000	0.118332
2477.000000	0.126575
2478.000000	0.128827
2479.000000	0.139535
2480.000000	0.170869
2481.000000	0.169696
2482.000000	0.152729
2483.000000	0.124467
2484.000000	0.117236
2485.000000	0.103997
2486.000000	0.115647
2487.000000	0.171646
2488.000000	0.147087
2489.000000	0.125995
2490.000000	0.107112
2491.000000	0.056804
2492.000000	0.033614
2493.000000	0.016492
2494.000000	-0.001185
2495.000000	-0.034776
2496.000000	-0.039342
2497.000000	0.000375
2498.000000	0.018475
2499.000000	0.026392
2500.000000	0.066451
