# Wavelength	NAu-2-30_HEX-50_FV7-20_000000001.asd.rts.txt
350.000000	0.175126
351.000000	0.174373
352.000000	0.172880
353.000000	0.167697
354.000000	0.160721
355.000000	0.159508
356.000000	0.159884
357.000000	0.161823
358.000000	0.165566
359.000000	0.166060
360.000000	0.163253
361.000000	0.158956
362.000000	0.160181
363.000000	0.162758
364.000000	0.163063
365.000000	0.161827
366.000000	0.161328
367.000000	0.161265
368.000000	0.159391
369.000000	0.161644
370.000000	0.165096
371.000000	0.164781
372.000000	0.163161
373.000000	0.161935
374.000000	0.162371
375.000000	0.164092
376.000000	0.165168
377.000000	0.165080
378.000000	0.164829
379.000000	0.163933
380.000000	0.163888
381.000000	0.166544
382.000000	0.165807
383.000000	0.164371
384.000000	0.164648
385.000000	0.164656
386.000000	0.165282
387.000000	0.166358
388.000000	0.166163
389.000000	0.167566
390.000000	0.169312
391.000000	0.168783
392.000000	0.168158
393.000000	0.167722
394.000000	0.167517
395.000000	0.167787
396.000000	0.168339
397.000000	0.168806
398.000000	0.168538
399.000000	0.168589
400.000000	0.169036
401.000000	0.169439
402.000000	0.169500
403.000000	0.169344
404.000000	0.169318
405.000000	0.169848
406.000000	0.170348
407.000000	0.170614
408.000000	0.171025
409.000000	0.171313
410.000000	0.171513
411.000000	0.171799
412.000000	0.171849
413.000000	0.172021
414.000000	0.172642
415.000000	0.172878
416.000000	0.173036
417.000000	0.173382
418.000000	0.174001
419.000000	0.174173
420.000000	0.174037
421.000000	0.174478
422.000000	0.174968
423.000000	0.175244
424.000000	0.175253
425.000000	0.175677
426.000000	0.176130
427.000000	0.176316
428.000000	0.176692
429.000000	0.177064
430.000000	0.177396
431.000000	0.177871
432.000000	0.178193
433.000000	0.178384
434.000000	0.178679
435.000000	0.178997
436.000000	0.179294
437.000000	0.179536
438.000000	0.179790
439.000000	0.180125
440.000000	0.180549
441.000000	0.180687
442.000000	0.180907
443.000000	0.181222
444.000000	0.181530
445.000000	0.181667
446.000000	0.181911
447.000000	0.182448
448.000000	0.182896
449.000000	0.183160
450.000000	0.183322
451.000000	0.183822
452.000000	0.184316
453.000000	0.184671
454.000000	0.185143
455.000000	0.185567
456.000000	0.185952
457.000000	0.186246
458.000000	0.186496
459.000000	0.186818
460.000000	0.187304
461.000000	0.187771
462.000000	0.188198
463.000000	0.188490
464.000000	0.188778
465.000000	0.189088
466.000000	0.189376
467.000000	0.189640
468.000000	0.190064
469.000000	0.190465
470.000000	0.190729
471.000000	0.190940
472.000000	0.191238
473.000000	0.191669
474.000000	0.191944
475.000000	0.192219
476.000000	0.192613
477.000000	0.192961
478.000000	0.193203
479.000000	0.193537
480.000000	0.193981
481.000000	0.194259
482.000000	0.194510
483.000000	0.194749
484.000000	0.195076
485.000000	0.195368
486.000000	0.195658
487.000000	0.195823
488.000000	0.196057
489.000000	0.196392
490.000000	0.196732
491.000000	0.196868
492.000000	0.196962
493.000000	0.197141
494.000000	0.197277
495.000000	0.197458
496.000000	0.197684
497.000000	0.197791
498.000000	0.197889
499.000000	0.198072
500.000000	0.198279
501.000000	0.198435
502.000000	0.198584
503.000000	0.198764
504.000000	0.199003
505.000000	0.199222
506.000000	0.199367
507.000000	0.199596
508.000000	0.199886
509.000000	0.200185
510.000000	0.200516
511.000000	0.200836
512.000000	0.201159
513.000000	0.201494
514.000000	0.201900
515.000000	0.202340
516.000000	0.202705
517.000000	0.203086
518.000000	0.203483
519.000000	0.203838
520.000000	0.204237
521.000000	0.204655
522.000000	0.205097
523.000000	0.205607
524.000000	0.206157
525.000000	0.206750
526.000000	0.207442
527.000000	0.208157
528.000000	0.208927
529.000000	0.209823
530.000000	0.210698
531.000000	0.211655
532.000000	0.212684
533.000000	0.213743
534.000000	0.214835
535.000000	0.215949
536.000000	0.217089
537.000000	0.218209
538.000000	0.219306
539.000000	0.220386
540.000000	0.221452
541.000000	0.222449
542.000000	0.223373
543.000000	0.224287
544.000000	0.225178
545.000000	0.226014
546.000000	0.226928
547.000000	0.227860
548.000000	0.228812
549.000000	0.229747
550.000000	0.230766
551.000000	0.231890
552.000000	0.233066
553.000000	0.234235
554.000000	0.235509
555.000000	0.236935
556.000000	0.238317
557.000000	0.239687
558.000000	0.241158
559.000000	0.242646
560.000000	0.244142
561.000000	0.245687
562.000000	0.247212
563.000000	0.248654
564.000000	0.250076
565.000000	0.251454
566.000000	0.252775
567.000000	0.254046
568.000000	0.255237
569.000000	0.256294
570.000000	0.257300
571.000000	0.258260
572.000000	0.259127
573.000000	0.259938
574.000000	0.260650
575.000000	0.261260
576.000000	0.261865
577.000000	0.262393
578.000000	0.262833
579.000000	0.263203
580.000000	0.263520
581.000000	0.263784
582.000000	0.263975
583.000000	0.264143
584.000000	0.264283
585.000000	0.264363
586.000000	0.264392
587.000000	0.264367
588.000000	0.264293
589.000000	0.264228
590.000000	0.264105
591.000000	0.263889
592.000000	0.263641
593.000000	0.263397
594.000000	0.263150
595.000000	0.262859
596.000000	0.262532
597.000000	0.262224
598.000000	0.261910
599.000000	0.261531
600.000000	0.261144
601.000000	0.260737
602.000000	0.260326
603.000000	0.259928
604.000000	0.259541
605.000000	0.259103
606.000000	0.258661
607.000000	0.258226
608.000000	0.257784
609.000000	0.257348
610.000000	0.256957
611.000000	0.256629
612.000000	0.256204
613.000000	0.255769
614.000000	0.255403
615.000000	0.254994
616.000000	0.254554
617.000000	0.254085
618.000000	0.253676
619.000000	0.253278
620.000000	0.252864
621.000000	0.252467
622.000000	0.252092
623.000000	0.251756
624.000000	0.251461
625.000000	0.251156
626.000000	0.250900
627.000000	0.250707
628.000000	0.250504
629.000000	0.250348
630.000000	0.250133
631.000000	0.249912
632.000000	0.249722
633.000000	0.249550
634.000000	0.249367
635.000000	0.249205
636.000000	0.249101
637.000000	0.249048
638.000000	0.249010
639.000000	0.249008
640.000000	0.249063
641.000000	0.249063
642.000000	0.249100
643.000000	0.249175
644.000000	0.249262
645.000000	0.249343
646.000000	0.249440
647.000000	0.249546
648.000000	0.249641
649.000000	0.249788
650.000000	0.249976
651.000000	0.250156
652.000000	0.250324
653.000000	0.250528
654.000000	0.250771
655.000000	0.251045
656.000000	0.251370
657.000000	0.251713
658.000000	0.252058
659.000000	0.252430
660.000000	0.252822
661.000000	0.253221
662.000000	0.253630
663.000000	0.254084
664.000000	0.254555
665.000000	0.255026
666.000000	0.255528
667.000000	0.256072
668.000000	0.256664
669.000000	0.257288
670.000000	0.257932
671.000000	0.258584
672.000000	0.259260
673.000000	0.259952
674.000000	0.260658
675.000000	0.261382
676.000000	0.262145
677.000000	0.262983
678.000000	0.263837
679.000000	0.264700
680.000000	0.265588
681.000000	0.266516
682.000000	0.267492
683.000000	0.268465
684.000000	0.269521
685.000000	0.270567
686.000000	0.271618
687.000000	0.272679
688.000000	0.273777
689.000000	0.274888
690.000000	0.276028
691.000000	0.277203
692.000000	0.278378
693.000000	0.279613
694.000000	0.280927
695.000000	0.282246
696.000000	0.283569
697.000000	0.284924
698.000000	0.286280
699.000000	0.287660
700.000000	0.289082
701.000000	0.290479
702.000000	0.291888
703.000000	0.293316
704.000000	0.294778
705.000000	0.296295
706.000000	0.297830
707.000000	0.299406
708.000000	0.300970
709.000000	0.302521
710.000000	0.304089
711.000000	0.305698
712.000000	0.307337
713.000000	0.308997
714.000000	0.310608
715.000000	0.312198
716.000000	0.313803
717.000000	0.315435
718.000000	0.317080
719.000000	0.318729
720.000000	0.320387
721.000000	0.322029
722.000000	0.323643
723.000000	0.325295
724.000000	0.326968
725.000000	0.328613
726.000000	0.330300
727.000000	0.331964
728.000000	0.333566
729.000000	0.335134
730.000000	0.336650
731.000000	0.338174
732.000000	0.339692
733.000000	0.341234
734.000000	0.342760
735.000000	0.344244
736.000000	0.345786
737.000000	0.347251
738.000000	0.348660
739.000000	0.350082
740.000000	0.351393
741.000000	0.352743
742.000000	0.354098
743.000000	0.355389
744.000000	0.356602
745.000000	0.357817
746.000000	0.359064
747.000000	0.360239
748.000000	0.361416
749.000000	0.362590
750.000000	0.363707
751.000000	0.364753
752.000000	0.365738
753.000000	0.366704
754.000000	0.367697
755.000000	0.368664
756.000000	0.369599
757.000000	0.370460
758.000000	0.371314
759.000000	0.372175
760.000000	0.372967
761.000000	0.373770
762.000000	0.374533
763.000000	0.375236
764.000000	0.375969
765.000000	0.376676
766.000000	0.377362
767.000000	0.378024
768.000000	0.378628
769.000000	0.379188
770.000000	0.379716
771.000000	0.380205
772.000000	0.380716
773.000000	0.381174
774.000000	0.381618
775.000000	0.382053
776.000000	0.382510
777.000000	0.382972
778.000000	0.383348
779.000000	0.383694
780.000000	0.384044
781.000000	0.384387
782.000000	0.384650
783.000000	0.384959
784.000000	0.385233
785.000000	0.385413
786.000000	0.385581
787.000000	0.385784
788.000000	0.386013
789.000000	0.386256
790.000000	0.386476
791.000000	0.386679
792.000000	0.386875
793.000000	0.387038
794.000000	0.387166
795.000000	0.387293
796.000000	0.387406
797.000000	0.387512
798.000000	0.387649
799.000000	0.387712
800.000000	0.387756
801.000000	0.387867
802.000000	0.387971
803.000000	0.388031
804.000000	0.388093
805.000000	0.388200
806.000000	0.388176
807.000000	0.388146
808.000000	0.388174
809.000000	0.388137
810.000000	0.388119
811.000000	0.388149
812.000000	0.388072
813.000000	0.387993
814.000000	0.387939
815.000000	0.387896
816.000000	0.387834
817.000000	0.387775
818.000000	0.387660
819.000000	0.387644
820.000000	0.387643
821.000000	0.387566
822.000000	0.387523
823.000000	0.387472
824.000000	0.387347
825.000000	0.387239
826.000000	0.387150
827.000000	0.387047
828.000000	0.386974
829.000000	0.386964
830.000000	0.386900
831.000000	0.386823
832.000000	0.386656
833.000000	0.386512
834.000000	0.386391
835.000000	0.386307
836.000000	0.386185
837.000000	0.386063
838.000000	0.385951
839.000000	0.385783
840.000000	0.385640
841.000000	0.385528
842.000000	0.385395
843.000000	0.385316
844.000000	0.385253
845.000000	0.385125
846.000000	0.384914
847.000000	0.384712
848.000000	0.384515
849.000000	0.384340
850.000000	0.384199
851.000000	0.384012
852.000000	0.383807
853.000000	0.383622
854.000000	0.383391
855.000000	0.383251
856.000000	0.383140
857.000000	0.383002
858.000000	0.382937
859.000000	0.382862
860.000000	0.382678
861.000000	0.382466
862.000000	0.382277
863.000000	0.382045
864.000000	0.381769
865.000000	0.381511
866.000000	0.381324
867.000000	0.381130
868.000000	0.380977
869.000000	0.380766
870.000000	0.380498
871.000000	0.380207
872.000000	0.379918
873.000000	0.379611
874.000000	0.379470
875.000000	0.379207
876.000000	0.378876
877.000000	0.378584
878.000000	0.378285
879.000000	0.378087
880.000000	0.377866
881.000000	0.377652
882.000000	0.377448
883.000000	0.377251
884.000000	0.376982
885.000000	0.376717
886.000000	0.376425
887.000000	0.376147
888.000000	0.375971
889.000000	0.375778
890.000000	0.375479
891.000000	0.375268
892.000000	0.374976
893.000000	0.374599
894.000000	0.374312
895.000000	0.374079
896.000000	0.373828
897.000000	0.373575
898.000000	0.373358
899.000000	0.373165
900.000000	0.372954
901.000000	0.372678
902.000000	0.372443
903.000000	0.372187
904.000000	0.371966
905.000000	0.371733
906.000000	0.371602
907.000000	0.371388
908.000000	0.371106
909.000000	0.370777
910.000000	0.370404
911.000000	0.370067
912.000000	0.369830
913.000000	0.369536
914.000000	0.369213
915.000000	0.368942
916.000000	0.368641
917.000000	0.368360
918.000000	0.368155
919.000000	0.368014
920.000000	0.367884
921.000000	0.367689
922.000000	0.367443
923.000000	0.367181
924.000000	0.366904
925.000000	0.366650
926.000000	0.366443
927.000000	0.366131
928.000000	0.365796
929.000000	0.365468
930.000000	0.365163
931.000000	0.364863
932.000000	0.364581
933.000000	0.364364
934.000000	0.364159
935.000000	0.363915
936.000000	0.363652
937.000000	0.363297
938.000000	0.362986
939.000000	0.362732
940.000000	0.362448
941.000000	0.362182
942.000000	0.361866
943.000000	0.361646
944.000000	0.361432
945.000000	0.361174
946.000000	0.360835
947.000000	0.360571
948.000000	0.360430
949.000000	0.360087
950.000000	0.359820
951.000000	0.359604
952.000000	0.359262
953.000000	0.359019
954.000000	0.358808
955.000000	0.358495
956.000000	0.358271
957.000000	0.358064
958.000000	0.357818
959.000000	0.357626
960.000000	0.357386
961.000000	0.357181
962.000000	0.356978
963.000000	0.356671
964.000000	0.356418
965.000000	0.356220
966.000000	0.355929
967.000000	0.355672
968.000000	0.355490
969.000000	0.355313
970.000000	0.355155
971.000000	0.354870
972.000000	0.354641
973.000000	0.354491
974.000000	0.354428
975.000000	0.354320
976.000000	0.354164
977.000000	0.353991
978.000000	0.353870
979.000000	0.353812
980.000000	0.353572
981.000000	0.353395
982.000000	0.353276
983.000000	0.353111
984.000000	0.352903
985.000000	0.352605
986.000000	0.352419
987.000000	0.352270
988.000000	0.352018
989.000000	0.352011
990.000000	0.351945
991.000000	0.351750
992.000000	0.351560
993.000000	0.351756
994.000000	0.351683
995.000000	0.351536
996.000000	0.351625
997.000000	0.351446
998.000000	0.351286
999.000000	0.351393
1000.000000	0.351513
1001.000000	0.351924
1002.000000	0.351396
1003.000000	0.350873
1004.000000	0.350623
1005.000000	0.350517
1006.000000	0.350349
1007.000000	0.350391
1008.000000	0.350408
1009.000000	0.350327
1010.000000	0.350068
1011.000000	0.350257
1012.000000	0.350733
1013.000000	0.350746
1014.000000	0.350769
1015.000000	0.350656
1016.000000	0.350514
1017.000000	0.350404
1018.000000	0.350259
1019.000000	0.350305
1020.000000	0.350658
1021.000000	0.350421
1022.000000	0.350341
1023.000000	0.350522
1024.000000	0.350447
1025.000000	0.350307
1026.000000	0.350579
1027.000000	0.350580
1028.000000	0.350520
1029.000000	0.350818
1030.000000	0.351047
1031.000000	0.350986
1032.000000	0.351021
1033.000000	0.351216
1034.000000	0.351371
1035.000000	0.351688
1036.000000	0.351798
1037.000000	0.351758
1038.000000	0.351701
1039.000000	0.351604
1040.000000	0.351658
1041.000000	0.351761
1042.000000	0.351954
1043.000000	0.352227
1044.000000	0.352544
1045.000000	0.352820
1046.000000	0.352904
1047.000000	0.353146
1048.000000	0.353363
1049.000000	0.353474
1050.000000	0.353571
1051.000000	0.353755
1052.000000	0.353778
1053.000000	0.353856
1054.000000	0.354408
1055.000000	0.354706
1056.000000	0.354872
1057.000000	0.355017
1058.000000	0.355277
1059.000000	0.355302
1060.000000	0.355535
1061.000000	0.355949
1062.000000	0.355988
1063.000000	0.356032
1064.000000	0.356238
1065.000000	0.356374
1066.000000	0.356595
1067.000000	0.356996
1068.000000	0.357270
1069.000000	0.357426
1070.000000	0.357582
1071.000000	0.357796
1072.000000	0.357986
1073.000000	0.358078
1074.000000	0.358463
1075.000000	0.358761
1076.000000	0.359028
1077.000000	0.359269
1078.000000	0.359288
1079.000000	0.359475
1080.000000	0.359738
1081.000000	0.359903
1082.000000	0.360180
1083.000000	0.360407
1084.000000	0.360561
1085.000000	0.360796
1086.000000	0.361084
1087.000000	0.361387
1088.000000	0.361624
1089.000000	0.361799
1090.000000	0.361936
1091.000000	0.362004
1092.000000	0.362091
1093.000000	0.362458
1094.000000	0.362662
1095.000000	0.362785
1096.000000	0.363121
1097.000000	0.363595
1098.000000	0.363832
1099.000000	0.364009
1100.000000	0.364319
1101.000000	0.364460
1102.000000	0.364609
1103.000000	0.364868
1104.000000	0.365151
1105.000000	0.365297
1106.000000	0.365506
1107.000000	0.365813
1108.000000	0.366070
1109.000000	0.366375
1110.000000	0.366586
1111.000000	0.366813
1112.000000	0.367076
1113.000000	0.367322
1114.000000	0.367548
1115.000000	0.367728
1116.000000	0.367889
1117.000000	0.368091
1118.000000	0.368223
1119.000000	0.368366
1120.000000	0.368644
1121.000000	0.368772
1122.000000	0.368852
1123.000000	0.369186
1124.000000	0.369342
1125.000000	0.369507
1126.000000	0.369629
1127.000000	0.369747
1128.000000	0.369840
1129.000000	0.369885
1130.000000	0.370045
1131.000000	0.370309
1132.000000	0.370454
1133.000000	0.370668
1134.000000	0.370827
1135.000000	0.370849
1136.000000	0.370924
1137.000000	0.371026
1138.000000	0.371029
1139.000000	0.371040
1140.000000	0.371187
1141.000000	0.371286
1142.000000	0.371411
1143.000000	0.371603
1144.000000	0.371829
1145.000000	0.371875
1146.000000	0.371768
1147.000000	0.371780
1148.000000	0.371654
1149.000000	0.371659
1150.000000	0.371763
1151.000000	0.371864
1152.000000	0.371931
1153.000000	0.372030
1154.000000	0.372132
1155.000000	0.372179
1156.000000	0.372227
1157.000000	0.372267
1158.000000	0.372186
1159.000000	0.372177
1160.000000	0.372178
1161.000000	0.372175
1162.000000	0.372248
1163.000000	0.372473
1164.000000	0.372517
1165.000000	0.372563
1166.000000	0.372655
1167.000000	0.372711
1168.000000	0.372691
1169.000000	0.372679
1170.000000	0.372731
1171.000000	0.372784
1172.000000	0.372884
1173.000000	0.373039
1174.000000	0.373153
1175.000000	0.373208
1176.000000	0.373229
1177.000000	0.373350
1178.000000	0.373428
1179.000000	0.373444
1180.000000	0.373408
1181.000000	0.373418
1182.000000	0.373446
1183.000000	0.373509
1184.000000	0.373647
1185.000000	0.373751
1186.000000	0.373919
1187.000000	0.373967
1188.000000	0.373943
1189.000000	0.373926
1190.000000	0.373927
1191.000000	0.373929
1192.000000	0.374021
1193.000000	0.374199
1194.000000	0.374271
1195.000000	0.374376
1196.000000	0.374481
1197.000000	0.374564
1198.000000	0.374665
1199.000000	0.374739
1200.000000	0.374740
1201.000000	0.374825
1202.000000	0.374920
1203.000000	0.374981
1204.000000	0.375085
1205.000000	0.375235
1206.000000	0.375246
1207.000000	0.375297
1208.000000	0.375280
1209.000000	0.375219
1210.000000	0.375219
1211.000000	0.375245
1212.000000	0.375236
1213.000000	0.375283
1214.000000	0.375335
1215.000000	0.375338
1216.000000	0.375365
1217.000000	0.375372
1218.000000	0.375385
1219.000000	0.375420
1220.000000	0.375532
1221.000000	0.375609
1222.000000	0.375677
1223.000000	0.375743
1224.000000	0.375785
1225.000000	0.375837
1226.000000	0.375962
1227.000000	0.375995
1228.000000	0.376067
1229.000000	0.376092
1230.000000	0.376033
1231.000000	0.376005
1232.000000	0.376135
1233.000000	0.376285
1234.000000	0.376458
1235.000000	0.376546
1236.000000	0.376459
1237.000000	0.376549
1238.000000	0.376640
1239.000000	0.376684
1240.000000	0.376783
1241.000000	0.376860
1242.000000	0.376870
1243.000000	0.376931
1244.000000	0.377023
1245.000000	0.377214
1246.000000	0.377344
1247.000000	0.377491
1248.000000	0.377663
1249.000000	0.377770
1250.000000	0.377868
1251.000000	0.377986
1252.000000	0.378057
1253.000000	0.378136
1254.000000	0.378222
1255.000000	0.378266
1256.000000	0.378338
1257.000000	0.378489
1258.000000	0.378614
1259.000000	0.378645
1260.000000	0.378756
1261.000000	0.378805
1262.000000	0.378861
1263.000000	0.378965
1264.000000	0.379045
1265.000000	0.379122
1266.000000	0.379192
1267.000000	0.379251
1268.000000	0.379284
1269.000000	0.379272
1270.000000	0.379380
1271.000000	0.379437
1272.000000	0.379498
1273.000000	0.379655
1274.000000	0.379704
1275.000000	0.379734
1276.000000	0.379794
1277.000000	0.379923
1278.000000	0.379932
1279.000000	0.379947
1280.000000	0.379904
1281.000000	0.379891
1282.000000	0.379896
1283.000000	0.380024
1284.000000	0.380219
1285.000000	0.380339
1286.000000	0.380431
1287.000000	0.380459
1288.000000	0.380549
1289.000000	0.380586
1290.000000	0.380517
1291.000000	0.380491
1292.000000	0.380502
1293.000000	0.380518
1294.000000	0.380585
1295.000000	0.380718
1296.000000	0.380755
1297.000000	0.380772
1298.000000	0.380893
1299.000000	0.380930
1300.000000	0.380961
1301.000000	0.381003
1302.000000	0.380936
1303.000000	0.380905
1304.000000	0.380834
1305.000000	0.380821
1306.000000	0.380767
1307.000000	0.380757
1308.000000	0.380756
1309.000000	0.380724
1310.000000	0.380710
1311.000000	0.380742
1312.000000	0.380706
1313.000000	0.380727
1314.000000	0.380730
1315.000000	0.380629
1316.000000	0.380649
1317.000000	0.380674
1318.000000	0.380604
1319.000000	0.380500
1320.000000	0.380437
1321.000000	0.380320
1322.000000	0.380202
1323.000000	0.380178
1324.000000	0.380137
1325.000000	0.380006
1326.000000	0.379852
1327.000000	0.379710
1328.000000	0.379668
1329.000000	0.379533
1330.000000	0.379396
1331.000000	0.379315
1332.000000	0.379299
1333.000000	0.379193
1334.000000	0.379199
1335.000000	0.379145
1336.000000	0.378972
1337.000000	0.378846
1338.000000	0.378689
1339.000000	0.378477
1340.000000	0.378283
1341.000000	0.378121
1342.000000	0.377961
1343.000000	0.377806
1344.000000	0.377645
1345.000000	0.377471
1346.000000	0.377400
1347.000000	0.377202
1348.000000	0.377038
1349.000000	0.376852
1350.000000	0.376643
1351.000000	0.376422
1352.000000	0.376200
1353.000000	0.375933
1354.000000	0.375674
1355.000000	0.375404
1356.000000	0.375206
1357.000000	0.374989
1358.000000	0.374746
1359.000000	0.374525
1360.000000	0.374303
1361.000000	0.374100
1362.000000	0.373886
1363.000000	0.373663
1364.000000	0.373479
1365.000000	0.373263
1366.000000	0.373092
1367.000000	0.372975
1368.000000	0.372778
1369.000000	0.372663
1370.000000	0.372402
1371.000000	0.372041
1372.000000	0.371668
1373.000000	0.371288
1374.000000	0.370945
1375.000000	0.370558
1376.000000	0.370235
1377.000000	0.369892
1378.000000	0.369472
1379.000000	0.368926
1380.000000	0.368372
1381.000000	0.367770
1382.000000	0.367025
1383.000000	0.366331
1384.000000	0.365549
1385.000000	0.364693
1386.000000	0.363910
1387.000000	0.363119
1388.000000	0.362206
1389.000000	0.361191
1390.000000	0.360180
1391.000000	0.359013
1392.000000	0.357839
1393.000000	0.356562
1394.000000	0.355227
1395.000000	0.353854
1396.000000	0.352438
1397.000000	0.350887
1398.000000	0.349206
1399.000000	0.347585
1400.000000	0.345846
1401.000000	0.344174
1402.000000	0.342608
1403.000000	0.340972
1404.000000	0.339438
1405.000000	0.337900
1406.000000	0.336367
1407.000000	0.334982
1408.000000	0.333554
1409.000000	0.332220
1410.000000	0.331030
1411.000000	0.329789
1412.000000	0.328579
1413.000000	0.327443
1414.000000	0.326318
1415.000000	0.325301
1416.000000	0.324299
1417.000000	0.323314
1418.000000	0.322301
1419.000000	0.321295
1420.000000	0.320257
1421.000000	0.319294
1422.000000	0.318360
1423.000000	0.317512
1424.000000	0.316604
1425.000000	0.315718
1426.000000	0.314832
1427.000000	0.313940
1428.000000	0.313145
1429.000000	0.312396
1430.000000	0.311671
1431.000000	0.310988
1432.000000	0.310280
1433.000000	0.309587
1434.000000	0.308912
1435.000000	0.308298
1436.000000	0.307729
1437.000000	0.307181
1438.000000	0.306658
1439.000000	0.306204
1440.000000	0.305811
1441.000000	0.305473
1442.000000	0.305217
1443.000000	0.304970
1444.000000	0.304785
1445.000000	0.304686
1446.000000	0.304610
1447.000000	0.304587
1448.000000	0.304617
1449.000000	0.304620
1450.000000	0.304635
1451.000000	0.304667
1452.000000	0.304654
1453.000000	0.304670
1454.000000	0.304663
1455.000000	0.304666
1456.000000	0.304773
1457.000000	0.304870
1458.000000	0.304909
1459.000000	0.304900
1460.000000	0.304854
1461.000000	0.304821
1462.000000	0.304828
1463.000000	0.304817
1464.000000	0.304829
1465.000000	0.304893
1466.000000	0.304943
1467.000000	0.305056
1468.000000	0.305189
1469.000000	0.305326
1470.000000	0.305437
1471.000000	0.305613
1472.000000	0.305814
1473.000000	0.306122
1474.000000	0.306433
1475.000000	0.306724
1476.000000	0.307066
1477.000000	0.307421
1478.000000	0.307783
1479.000000	0.308215
1480.000000	0.308672
1481.000000	0.309101
1482.000000	0.309587
1483.000000	0.310091
1484.000000	0.310582
1485.000000	0.311078
1486.000000	0.311578
1487.000000	0.312097
1488.000000	0.312652
1489.000000	0.313213
1490.000000	0.313692
1491.000000	0.314176
1492.000000	0.314590
1493.000000	0.315051
1494.000000	0.315465
1495.000000	0.315918
1496.000000	0.316418
1497.000000	0.316886
1498.000000	0.317378
1499.000000	0.317843
1500.000000	0.318273
1501.000000	0.318644
1502.000000	0.318999
1503.000000	0.319433
1504.000000	0.319875
1505.000000	0.320285
1506.000000	0.320708
1507.000000	0.321053
1508.000000	0.321400
1509.000000	0.321777
1510.000000	0.322119
1511.000000	0.322494
1512.000000	0.322833
1513.000000	0.323148
1514.000000	0.323522
1515.000000	0.323803
1516.000000	0.324058
1517.000000	0.324317
1518.000000	0.324542
1519.000000	0.324691
1520.000000	0.324881
1521.000000	0.325060
1522.000000	0.325273
1523.000000	0.325543
1524.000000	0.325766
1525.000000	0.326013
1526.000000	0.326181
1527.000000	0.326346
1528.000000	0.326582
1529.000000	0.326743
1530.000000	0.326842
1531.000000	0.326994
1532.000000	0.327092
1533.000000	0.327185
1534.000000	0.327324
1535.000000	0.327445
1536.000000	0.327530
1537.000000	0.327665
1538.000000	0.327814
1539.000000	0.327898
1540.000000	0.327990
1541.000000	0.328120
1542.000000	0.328217
1543.000000	0.328296
1544.000000	0.328358
1545.000000	0.328444
1546.000000	0.328541
1547.000000	0.328677
1548.000000	0.328800
1549.000000	0.328873
1550.000000	0.328931
1551.000000	0.328957
1552.000000	0.329016
1553.000000	0.329101
1554.000000	0.329189
1555.000000	0.329270
1556.000000	0.329364
1557.000000	0.329408
1558.000000	0.329450
1559.000000	0.329411
1560.000000	0.329398
1561.000000	0.329400
1562.000000	0.329400
1563.000000	0.329456
1564.000000	0.329477
1565.000000	0.329494
1566.000000	0.329417
1567.000000	0.329370
1568.000000	0.329319
1569.000000	0.329306
1570.000000	0.329289
1571.000000	0.329261
1572.000000	0.329248
1573.000000	0.329235
1574.000000	0.329231
1575.000000	0.329280
1576.000000	0.329305
1577.000000	0.329305
1578.000000	0.329303
1579.000000	0.329355
1580.000000	0.329379
1581.000000	0.329461
1582.000000	0.329503
1583.000000	0.329508
1584.000000	0.329498
1585.000000	0.329565
1586.000000	0.329618
1587.000000	0.329664
1588.000000	0.329692
1589.000000	0.329720
1590.000000	0.329740
1591.000000	0.329757
1592.000000	0.329778
1593.000000	0.329846
1594.000000	0.329854
1595.000000	0.329884
1596.000000	0.329908
1597.000000	0.329926
1598.000000	0.329933
1599.000000	0.329983
1600.000000	0.329973
1601.000000	0.330004
1602.000000	0.330019
1603.000000	0.330032
1604.000000	0.330056
1605.000000	0.330112
1606.000000	0.330148
1607.000000	0.330234
1608.000000	0.330280
1609.000000	0.330349
1610.000000	0.330422
1611.000000	0.330506
1612.000000	0.330607
1613.000000	0.330835
1614.000000	0.330991
1615.000000	0.331192
1616.000000	0.331400
1617.000000	0.331547
1618.000000	0.331688
1619.000000	0.331808
1620.000000	0.331958
1621.000000	0.332127
1622.000000	0.332353
1623.000000	0.332596
1624.000000	0.332806
1625.000000	0.332864
1626.000000	0.332984
1627.000000	0.333153
1628.000000	0.333339
1629.000000	0.333542
1630.000000	0.333756
1631.000000	0.333906
1632.000000	0.334036
1633.000000	0.334171
1634.000000	0.334344
1635.000000	0.334575
1636.000000	0.334726
1637.000000	0.334913
1638.000000	0.335031
1639.000000	0.335098
1640.000000	0.335203
1641.000000	0.335371
1642.000000	0.335536
1643.000000	0.335746
1644.000000	0.335932
1645.000000	0.336123
1646.000000	0.336264
1647.000000	0.336419
1648.000000	0.336541
1649.000000	0.336715
1650.000000	0.336925
1651.000000	0.337173
1652.000000	0.337436
1653.000000	0.337700
1654.000000	0.337951
1655.000000	0.338128
1656.000000	0.338239
1657.000000	0.338385
1658.000000	0.338555
1659.000000	0.338825
1660.000000	0.339090
1661.000000	0.339283
1662.000000	0.339512
1663.000000	0.339715
1664.000000	0.339915
1665.000000	0.340154
1666.000000	0.340411
1667.000000	0.340556
1668.000000	0.340737
1669.000000	0.340933
1670.000000	0.341030
1671.000000	0.341186
1672.000000	0.341372
1673.000000	0.341467
1674.000000	0.341704
1675.000000	0.342003
1676.000000	0.342232
1677.000000	0.342457
1678.000000	0.342579
1679.000000	0.342663
1680.000000	0.342757
1681.000000	0.342870
1682.000000	0.343007
1683.000000	0.343171
1684.000000	0.343332
1685.000000	0.343484
1686.000000	0.343570
1687.000000	0.343667
1688.000000	0.343732
1689.000000	0.343824
1690.000000	0.343900
1691.000000	0.344013
1692.000000	0.344121
1693.000000	0.344184
1694.000000	0.344258
1695.000000	0.344426
1696.000000	0.344477
1697.000000	0.344464
1698.000000	0.344425
1699.000000	0.344448
1700.000000	0.344459
1701.000000	0.344572
1702.000000	0.344571
1703.000000	0.344579
1704.000000	0.344731
1705.000000	0.344825
1706.000000	0.344925
1707.000000	0.345068
1708.000000	0.345211
1709.000000	0.345250
1710.000000	0.345397
1711.000000	0.345503
1712.000000	0.345515
1713.000000	0.345571
1714.000000	0.345682
1715.000000	0.345823
1716.000000	0.346035
1717.000000	0.346168
1718.000000	0.346250
1719.000000	0.346352
1720.000000	0.346467
1721.000000	0.346575
1722.000000	0.346723
1723.000000	0.346850
1724.000000	0.346964
1725.000000	0.347110
1726.000000	0.347186
1727.000000	0.347297
1728.000000	0.347373
1729.000000	0.347366
1730.000000	0.347472
1731.000000	0.347553
1732.000000	0.347582
1733.000000	0.347726
1734.000000	0.347811
1735.000000	0.347881
1736.000000	0.347920
1737.000000	0.347975
1738.000000	0.348025
1739.000000	0.348117
1740.000000	0.348232
1741.000000	0.348300
1742.000000	0.348367
1743.000000	0.348517
1744.000000	0.348677
1745.000000	0.348735
1746.000000	0.348790
1747.000000	0.348796
1748.000000	0.348764
1749.000000	0.348782
1750.000000	0.348771
1751.000000	0.348825
1752.000000	0.348994
1753.000000	0.349108
1754.000000	0.349205
1755.000000	0.349256
1756.000000	0.349313
1757.000000	0.349349
1758.000000	0.349425
1759.000000	0.349533
1760.000000	0.349608
1761.000000	0.349625
1762.000000	0.349655
1763.000000	0.349704
1764.000000	0.349739
1765.000000	0.349699
1766.000000	0.349767
1767.000000	0.349811
1768.000000	0.349803
1769.000000	0.349930
1770.000000	0.350066
1771.000000	0.350096
1772.000000	0.350192
1773.000000	0.350312
1774.000000	0.350427
1775.000000	0.350624
1776.000000	0.350737
1777.000000	0.350805
1778.000000	0.350840
1779.000000	0.350776
1780.000000	0.350810
1781.000000	0.350840
1782.000000	0.350857
1783.000000	0.350923
1784.000000	0.351055
1785.000000	0.351117
1786.000000	0.351264
1787.000000	0.351546
1788.000000	0.351699
1789.000000	0.351748
1790.000000	0.351804
1791.000000	0.351801
1792.000000	0.351885
1793.000000	0.351922
1794.000000	0.351877
1795.000000	0.351942
1796.000000	0.352072
1797.000000	0.352127
1798.000000	0.352163
1799.000000	0.352228
1800.000000	0.352323
1801.000000	0.352250
1802.000000	0.352403
1803.000000	0.352060
1804.000000	0.352039
1805.000000	0.352104
1806.000000	0.352120
1807.000000	0.352039
1808.000000	0.352104
1809.000000	0.352376
1810.000000	0.352269
1811.000000	0.352501
1812.000000	0.352985
1813.000000	0.353228
1814.000000	0.353665
1815.000000	0.353801
1816.000000	0.353592
1817.000000	0.353415
1818.000000	0.353161
1819.000000	0.353065
1820.000000	0.353066
1821.000000	0.353032
1822.000000	0.352917
1823.000000	0.352660
1824.000000	0.352463
1825.000000	0.352001
1826.000000	0.351946
1827.000000	0.351988
1828.000000	0.352083
1829.000000	0.352322
1830.000000	0.352428
1831.000000	0.352353
1832.000000	0.351963
1833.000000	0.351854
1834.000000	0.351824
1835.000000	0.351683
1836.000000	0.351557
1837.000000	0.351411
1838.000000	0.351119
1839.000000	0.350592
1840.000000	0.350054
1841.000000	0.349557
1842.000000	0.349167
1843.000000	0.348576
1844.000000	0.348332
1845.000000	0.348430
1846.000000	0.348299
1847.000000	0.347944
1848.000000	0.347730
1849.000000	0.347433
1850.000000	0.346976
1851.000000	0.346663
1852.000000	0.346477
1853.000000	0.346004
1854.000000	0.345149
1855.000000	0.344415
1856.000000	0.343503
1857.000000	0.342518
1858.000000	0.341664
1859.000000	0.341228
1860.000000	0.340391
1861.000000	0.339321
1862.000000	0.338117
1863.000000	0.336702
1864.000000	0.335312
1865.000000	0.333749
1866.000000	0.332322
1867.000000	0.331017
1868.000000	0.329445
1869.000000	0.327682
1870.000000	0.325990
1871.000000	0.323922
1872.000000	0.321639
1873.000000	0.319392
1874.000000	0.317068
1875.000000	0.314664
1876.000000	0.312055
1877.000000	0.309049
1878.000000	0.306050
1879.000000	0.302783
1880.000000	0.299433
1881.000000	0.296214
1882.000000	0.292808
1883.000000	0.289395
1884.000000	0.285855
1885.000000	0.282033
1886.000000	0.278033
1887.000000	0.273945
1888.000000	0.269367
1889.000000	0.264595
1890.000000	0.260019
1891.000000	0.255405
1892.000000	0.250582
1893.000000	0.245841
1894.000000	0.241068
1895.000000	0.236091
1896.000000	0.230945
1897.000000	0.226134
1898.000000	0.221381
1899.000000	0.216857
1900.000000	0.212952
1901.000000	0.209134
1902.000000	0.205304
1903.000000	0.201731
1904.000000	0.198388
1905.000000	0.195357
1906.000000	0.192511
1907.000000	0.189965
1908.000000	0.187829
1909.000000	0.185969
1910.000000	0.184062
1911.000000	0.182537
1912.000000	0.181242
1913.000000	0.179905
1914.000000	0.178737
1915.000000	0.177665
1916.000000	0.176647
1917.000000	0.175745
1918.000000	0.174978
1919.000000	0.174513
1920.000000	0.173969
1921.000000	0.173371
1922.000000	0.172923
1923.000000	0.172235
1924.000000	0.171584
1925.000000	0.171398
1926.000000	0.171319
1927.000000	0.171412
1928.000000	0.171460
1929.000000	0.171763
1930.000000	0.171810
1931.000000	0.171753
1932.000000	0.171829
1933.000000	0.171931
1934.000000	0.172084
1935.000000	0.172369
1936.000000	0.172525
1937.000000	0.172778
1938.000000	0.173268
1939.000000	0.173589
1940.000000	0.173901
1941.000000	0.174146
1942.000000	0.174253
1943.000000	0.173965
1944.000000	0.173569
1945.000000	0.173302
1946.000000	0.172962
1947.000000	0.172689
1948.000000	0.172431
1949.000000	0.172021
1950.000000	0.171700
1951.000000	0.171383
1952.000000	0.171122
1953.000000	0.170851
1954.000000	0.170667
1955.000000	0.170404
1956.000000	0.170147
1957.000000	0.169799
1958.000000	0.169334
1959.000000	0.169134
1960.000000	0.168850
1961.000000	0.168583
1962.000000	0.168493
1963.000000	0.168688
1964.000000	0.168685
1965.000000	0.168710
1966.000000	0.168824
1967.000000	0.168681
1968.000000	0.168718
1969.000000	0.168780
1970.000000	0.168860
1971.000000	0.169065
1972.000000	0.169038
1973.000000	0.169035
1974.000000	0.168951
1975.000000	0.169094
1976.000000	0.169295
1977.000000	0.169815
1978.000000	0.170104
1979.000000	0.170558
1980.000000	0.171094
1981.000000	0.171405
1982.000000	0.171954
1983.000000	0.172594
1984.000000	0.173093
1985.000000	0.173519
1986.000000	0.173979
1987.000000	0.174447
1988.000000	0.174958
1989.000000	0.175449
1990.000000	0.175901
1991.000000	0.176454
1992.000000	0.177020
1993.000000	0.177721
1994.000000	0.178564
1995.000000	0.179319
1996.000000	0.180175
1997.000000	0.181042
1998.000000	0.181943
1999.000000	0.182919
2000.000000	0.184055
2001.000000	0.184950
2002.000000	0.186016
2003.000000	0.187088
2004.000000	0.187855
2005.000000	0.188538
2006.000000	0.189282
2007.000000	0.190015
2008.000000	0.190887
2009.000000	0.191943
2010.000000	0.193023
2011.000000	0.194105
2012.000000	0.195127
2013.000000	0.196070
2014.000000	0.197098
2015.000000	0.198315
2016.000000	0.199259
2017.000000	0.200290
2018.000000	0.201304
2019.000000	0.201965
2020.000000	0.202715
2021.000000	0.203612
2022.000000	0.204530
2023.000000	0.205520
2024.000000	0.206764
2025.000000	0.207878
2026.000000	0.208916
2027.000000	0.209809
2028.000000	0.210818
2029.000000	0.211744
2030.000000	0.212550
2031.000000	0.213653
2032.000000	0.214701
2033.000000	0.215750
2034.000000	0.216676
2035.000000	0.217634
2036.000000	0.218399
2037.000000	0.219034
2038.000000	0.219870
2039.000000	0.220798
2040.000000	0.221769
2041.000000	0.222813
2042.000000	0.223651
2043.000000	0.224319
2044.000000	0.225103
2045.000000	0.225868
2046.000000	0.226555
2047.000000	0.227395
2048.000000	0.228301
2049.000000	0.229353
2050.000000	0.230422
2051.000000	0.231202
2052.000000	0.231750
2053.000000	0.232301
2054.000000	0.232712
2055.000000	0.233452
2056.000000	0.234448
2057.000000	0.235504
2058.000000	0.236474
2059.000000	0.237329
2060.000000	0.238100
2061.000000	0.238762
2062.000000	0.239344
2063.000000	0.239881
2064.000000	0.240282
2065.000000	0.240492
2066.000000	0.240978
2067.000000	0.241776
2068.000000	0.242634
2069.000000	0.243591
2070.000000	0.244768
2071.000000	0.245555
2072.000000	0.246304
2073.000000	0.247047
2074.000000	0.247661
2075.000000	0.248365
2076.000000	0.249092
2077.000000	0.249854
2078.000000	0.250692
2079.000000	0.251349
2080.000000	0.251920
2081.000000	0.252600
2082.000000	0.253286
2083.000000	0.253966
2084.000000	0.254540
2085.000000	0.255193
2086.000000	0.255609
2087.000000	0.256205
2088.000000	0.257128
2089.000000	0.258070
2090.000000	0.259044
2091.000000	0.260259
2092.000000	0.261244
2093.000000	0.262301
2094.000000	0.263097
2095.000000	0.263627
2096.000000	0.264313
2097.000000	0.264886
2098.000000	0.265328
2099.000000	0.265984
2100.000000	0.266720
2101.000000	0.267144
2102.000000	0.267587
2103.000000	0.268130
2104.000000	0.268628
2105.000000	0.269078
2106.000000	0.269493
2107.000000	0.270068
2108.000000	0.270550
2109.000000	0.271211
2110.000000	0.272077
2111.000000	0.272766
2112.000000	0.273323
2113.000000	0.273730
2114.000000	0.274231
2115.000000	0.274811
2116.000000	0.275380
2117.000000	0.275613
2118.000000	0.276175
2119.000000	0.276622
2120.000000	0.277028
2121.000000	0.277519
2122.000000	0.278010
2123.000000	0.278334
2124.000000	0.278790
2125.000000	0.279406
2126.000000	0.279829
2127.000000	0.280245
2128.000000	0.280642
2129.000000	0.280803
2130.000000	0.281237
2131.000000	0.281345
2132.000000	0.281258
2133.000000	0.281140
2134.000000	0.281218
2135.000000	0.281574
2136.000000	0.281813
2137.000000	0.282128
2138.000000	0.282641
2139.000000	0.283045
2140.000000	0.283476
2141.000000	0.283724
2142.000000	0.283852
2143.000000	0.283752
2144.000000	0.283418
2145.000000	0.283486
2146.000000	0.283735
2147.000000	0.284340
2148.000000	0.284745
2149.000000	0.285318
2150.000000	0.285321
2151.000000	0.285291
2152.000000	0.285380
2153.000000	0.285088
2154.000000	0.285125
2155.000000	0.285367
2156.000000	0.285516
2157.000000	0.285875
2158.000000	0.286023
2159.000000	0.286172
2160.000000	0.286191
2161.000000	0.285925
2162.000000	0.285911
2163.000000	0.285756
2164.000000	0.285749
2165.000000	0.286029
2166.000000	0.286057
2167.000000	0.286032
2168.000000	0.286112
2169.000000	0.286260
2170.000000	0.286626
2171.000000	0.286913
2172.000000	0.287509
2173.000000	0.287595
2174.000000	0.287230
2175.000000	0.287223
2176.000000	0.287243
2177.000000	0.287297
2178.000000	0.287616
2179.000000	0.287850
2180.000000	0.287938
2181.000000	0.288171
2182.000000	0.287909
2183.000000	0.287872
2184.000000	0.287683
2185.000000	0.287239
2186.000000	0.286839
2187.000000	0.286819
2188.000000	0.287076
2189.000000	0.286835
2190.000000	0.286862
2191.000000	0.287240
2192.000000	0.287197
2193.000000	0.287027
2194.000000	0.286842
2195.000000	0.286325
2196.000000	0.286153
2197.000000	0.286082
2198.000000	0.285852
2199.000000	0.285794
2200.000000	0.285772
2201.000000	0.285533
2202.000000	0.285685
2203.000000	0.286065
2204.000000	0.286334
2205.000000	0.286470
2206.000000	0.286872
2207.000000	0.286884
2208.000000	0.287112
2209.000000	0.287858
2210.000000	0.288019
2211.000000	0.287159
2212.000000	0.287298
2213.000000	0.287411
2214.000000	0.287112
2215.000000	0.287107
2216.000000	0.288087
2217.000000	0.288003
2218.000000	0.286989
2219.000000	0.287022
2220.000000	0.287272
2221.000000	0.287558
2222.000000	0.288299
2223.000000	0.288726
2224.000000	0.289126
2225.000000	0.289303
2226.000000	0.289120
2227.000000	0.288991
2228.000000	0.289059
2229.000000	0.288426
2230.000000	0.287656
2231.000000	0.287418
2232.000000	0.286494
2233.000000	0.285929
2234.000000	0.285508
2235.000000	0.285363
2236.000000	0.285189
2237.000000	0.285060
2238.000000	0.284770
2239.000000	0.284449
2240.000000	0.284231
2241.000000	0.284208
2242.000000	0.283850
2243.000000	0.282966
2244.000000	0.282802
2245.000000	0.282729
2246.000000	0.282562
2247.000000	0.283001
2248.000000	0.283323
2249.000000	0.283660
2250.000000	0.283460
2251.000000	0.283344
2252.000000	0.283144
2253.000000	0.281815
2254.000000	0.281132
2255.000000	0.281339
2256.000000	0.281582
2257.000000	0.282264
2258.000000	0.282998
2259.000000	0.283031
2260.000000	0.281890
2261.000000	0.280960
2262.000000	0.279579
2263.000000	0.278474
2264.000000	0.277255
2265.000000	0.276928
2266.000000	0.277067
2267.000000	0.276879
2268.000000	0.277084
2269.000000	0.276897
2270.000000	0.276588
2271.000000	0.275823
2272.000000	0.274946
2273.000000	0.274043
2274.000000	0.271846
2275.000000	0.270959
2276.000000	0.271242
2277.000000	0.270756
2278.000000	0.269614
2279.000000	0.269192
2280.000000	0.267089
2281.000000	0.264095
2282.000000	0.262264
2283.000000	0.260667
2284.000000	0.258880
2285.000000	0.257780
2286.000000	0.257308
2287.000000	0.255959
2288.000000	0.255366
2289.000000	0.255164
2290.000000	0.253489
2291.000000	0.252533
2292.000000	0.251768
2293.000000	0.250533
2294.000000	0.249299
2295.000000	0.247782
2296.000000	0.246951
2297.000000	0.246219
2298.000000	0.245822
2299.000000	0.246270
2300.000000	0.246267
2301.000000	0.245647
2302.000000	0.245707
2303.000000	0.246352
2304.000000	0.246712
2305.000000	0.247614
2306.000000	0.247950
2307.000000	0.247748
2308.000000	0.247655
2309.000000	0.247225
2310.000000	0.246638
2311.000000	0.246343
2312.000000	0.246100
2313.000000	0.246218
2314.000000	0.246419
2315.000000	0.246569
2316.000000	0.246789
2317.000000	0.246727
2318.000000	0.247063
2319.000000	0.247137
2320.000000	0.246201
2321.000000	0.246303
2322.000000	0.245919
2323.000000	0.244943
2324.000000	0.244766
2325.000000	0.243076
2326.000000	0.241059
2327.000000	0.239293
2328.000000	0.237992
2329.000000	0.238392
2330.000000	0.238613
2331.000000	0.239518
2332.000000	0.241047
2333.000000	0.240916
2334.000000	0.239708
2335.000000	0.239102
2336.000000	0.237360
2337.000000	0.236170
2338.000000	0.235955
2339.000000	0.234859
2340.000000	0.232952
2341.000000	0.231654
2342.000000	0.230227
2343.000000	0.229086
2344.000000	0.228685
2345.000000	0.227574
2346.000000	0.226160
2347.000000	0.224531
2348.000000	0.222406
2349.000000	0.220742
2350.000000	0.219329
2351.000000	0.217710
2352.000000	0.217574
2353.000000	0.218262
2354.000000	0.217721
2355.000000	0.217618
2356.000000	0.216273
2357.000000	0.213701
2358.000000	0.211828
2359.000000	0.209887
2360.000000	0.207966
2361.000000	0.206305
2362.000000	0.204878
2363.000000	0.204442
2364.000000	0.203437
2365.000000	0.201491
2366.000000	0.198904
2367.000000	0.196627
2368.000000	0.196100
2369.000000	0.195124
2370.000000	0.194990
2371.000000	0.194977
2372.000000	0.193719
2373.000000	0.194493
2374.000000	0.193580
2375.000000	0.190742
2376.000000	0.189198
2377.000000	0.187096
2378.000000	0.187361
2379.000000	0.189257
2380.000000	0.189185
2381.000000	0.188414
2382.000000	0.185648
2383.000000	0.182145
2384.000000	0.180020
2385.000000	0.179084
2386.000000	0.178584
2387.000000	0.177142
2388.000000	0.177738
2389.000000	0.179543
2390.000000	0.180618
2391.000000	0.183199
2392.000000	0.184045
2393.000000	0.181846
2394.000000	0.178759
2395.000000	0.176627
2396.000000	0.175323
2397.000000	0.173898
2398.000000	0.174343
2399.000000	0.175489
2400.000000	0.174346
2401.000000	0.172562
2402.000000	0.172607
2403.000000	0.172203
2404.000000	0.172085
2405.000000	0.170955
2406.000000	0.168223
2407.000000	0.164706
2408.000000	0.161143
2409.000000	0.161223
2410.000000	0.161891
2411.000000	0.163602
2412.000000	0.165470
2413.000000	0.164224
2414.000000	0.163871
2415.000000	0.163912
2416.000000	0.161316
2417.000000	0.161571
2418.000000	0.163649
2419.000000	0.161362
2420.000000	0.160617
2421.000000	0.159237
2422.000000	0.155165
2423.000000	0.156006
2424.000000	0.158232
2425.000000	0.160169
2426.000000	0.162551
2427.000000	0.160293
2428.000000	0.158126
2429.000000	0.158513
2430.000000	0.159372
2431.000000	0.161770
2432.000000	0.161547
2433.000000	0.159697
2434.000000	0.158512
2435.000000	0.156425
2436.000000	0.157545
2437.000000	0.159991
2438.000000	0.157932
2439.000000	0.155165
2440.000000	0.154551
2441.000000	0.154894
2442.000000	0.156447
2443.000000	0.157835
2444.000000	0.155753
2445.000000	0.150766
2446.000000	0.147895
2447.000000	0.148502
2448.000000	0.151340
2449.000000	0.156312
2450.000000	0.156700
2451.000000	0.157110
2452.000000	0.158536
2453.000000	0.154617
2454.000000	0.157783
2455.000000	0.160450
2456.000000	0.157706
2457.000000	0.159824
2458.000000	0.158296
2459.000000	0.153672
2460.000000	0.153036
2461.000000	0.156532
2462.000000	0.159306
2463.000000	0.157494
2464.000000	0.154821
2465.000000	0.151485
2466.000000	0.145825
2467.000000	0.144494
2468.000000	0.148711
2469.000000	0.142487
2470.000000	0.136908
2471.000000	0.133024
2472.000000	0.120904
2473.000000	0.118879
2474.000000	0.115884
2475.000000	0.114047
2476.000000	0.123636
2477.000000	0.124791
2478.000000	0.132962
2479.000000	0.143455
2480.000000	0.145585
2481.000000	0.156913
2482.000000	0.155045
2483.000000	0.141309
2484.000000	0.134088
2485.000000	0.128987
2486.000000	0.129471
2487.000000	0.135060
2488.000000	0.144430
2489.000000	0.140317
2490.000000	0.136320
2491.000000	0.152366
2492.000000	0.148476
2493.000000	0.138391
2494.000000	0.134615
2495.000000	0.116255
2496.000000	0.106319
2497.000000	0.110637
2498.000000	0.107347
2499.000000	0.104328
2500.000000	0.099573
