# Wavelength	Nau-1_40_FV7_60_00000.asd.rts.txt
350.000000	0.134669
351.000000	0.166838
352.000000	0.159230
353.000000	0.150589
354.000000	0.159673
355.000000	0.155868
356.000000	0.149958
357.000000	0.149585
358.000000	0.158673
359.000000	0.162189
360.000000	0.158461
361.000000	0.150754
362.000000	0.153944
363.000000	0.152092
364.000000	0.140690
365.000000	0.151401
366.000000	0.158896
367.000000	0.156152
368.000000	0.151068
369.000000	0.155099
370.000000	0.159874
371.000000	0.154185
372.000000	0.159198
373.000000	0.162902
374.000000	0.158086
375.000000	0.155940
376.000000	0.159453
377.000000	0.165405
378.000000	0.164840
379.000000	0.162580
380.000000	0.161345
381.000000	0.163192
382.000000	0.163282
383.000000	0.163111
384.000000	0.164347
385.000000	0.166686
386.000000	0.167803
387.000000	0.167812
388.000000	0.168923
389.000000	0.171820
390.000000	0.174204
391.000000	0.173079
392.000000	0.173879
393.000000	0.174872
394.000000	0.174558
395.000000	0.175519
396.000000	0.177074
397.000000	0.178426
398.000000	0.178404
399.000000	0.180221
400.000000	0.182742
401.000000	0.183050
402.000000	0.184058
403.000000	0.185203
404.000000	0.185879
405.000000	0.187298
406.000000	0.188441
407.000000	0.189082
408.000000	0.190275
409.000000	0.191642
410.000000	0.192946
411.000000	0.193963
412.000000	0.194562
413.000000	0.194929
414.000000	0.195433
415.000000	0.197013
416.000000	0.197902
417.000000	0.197436
418.000000	0.197632
419.000000	0.197722
420.000000	0.197868
421.000000	0.199024
422.000000	0.199313
423.000000	0.199211
424.000000	0.199827
425.000000	0.199814
426.000000	0.199704
427.000000	0.199973
428.000000	0.200288
429.000000	0.200655
430.000000	0.200929
431.000000	0.200678
432.000000	0.200509
433.000000	0.200595
434.000000	0.200976
435.000000	0.201121
436.000000	0.200943
437.000000	0.200577
438.000000	0.200836
439.000000	0.200790
440.000000	0.200230
441.000000	0.200195
442.000000	0.200157
443.000000	0.199902
444.000000	0.199518
445.000000	0.199400
446.000000	0.199762
447.000000	0.200488
448.000000	0.200811
449.000000	0.201246
450.000000	0.202197
451.000000	0.203395
452.000000	0.204715
453.000000	0.206006
454.000000	0.207215
455.000000	0.209082
456.000000	0.211099
457.000000	0.212201
458.000000	0.214074
459.000000	0.216150
460.000000	0.217688
461.000000	0.218611
462.000000	0.219580
463.000000	0.220702
464.000000	0.221552
465.000000	0.222298
466.000000	0.223034
467.000000	0.223958
468.000000	0.224827
469.000000	0.225460
470.000000	0.225912
471.000000	0.226542
472.000000	0.227012
473.000000	0.227221
474.000000	0.227764
475.000000	0.228148
476.000000	0.228462
477.000000	0.229132
478.000000	0.229467
479.000000	0.229803
480.000000	0.230501
481.000000	0.230771
482.000000	0.231153
483.000000	0.231899
484.000000	0.232264
485.000000	0.232359
486.000000	0.232524
487.000000	0.232939
488.000000	0.233477
489.000000	0.234045
490.000000	0.234530
491.000000	0.235021
492.000000	0.235571
493.000000	0.236079
494.000000	0.236519
495.000000	0.236966
496.000000	0.237438
497.000000	0.237928
498.000000	0.238402
499.000000	0.238929
500.000000	0.239548
501.000000	0.240075
502.000000	0.240512
503.000000	0.240874
504.000000	0.241347
505.000000	0.241903
506.000000	0.242485
507.000000	0.243113
508.000000	0.243707
509.000000	0.244217
510.000000	0.244785
511.000000	0.245425
512.000000	0.246066
513.000000	0.246486
514.000000	0.247010
515.000000	0.247678
516.000000	0.248361
517.000000	0.248928
518.000000	0.249504
519.000000	0.250144
520.000000	0.250969
521.000000	0.251712
522.000000	0.252289
523.000000	0.252850
524.000000	0.253427
525.000000	0.254024
526.000000	0.254671
527.000000	0.255396
528.000000	0.256121
529.000000	0.256811
530.000000	0.257521
531.000000	0.258286
532.000000	0.259014
533.000000	0.259616
534.000000	0.260284
535.000000	0.261054
536.000000	0.261854
537.000000	0.262603
538.000000	0.263315
539.000000	0.264035
540.000000	0.264821
541.000000	0.265551
542.000000	0.266178
543.000000	0.266908
544.000000	0.267630
545.000000	0.268263
546.000000	0.269043
547.000000	0.269797
548.000000	0.270521
549.000000	0.271223
550.000000	0.271949
551.000000	0.272690
552.000000	0.273371
553.000000	0.274012
554.000000	0.274743
555.000000	0.275610
556.000000	0.276341
557.000000	0.277051
558.000000	0.277854
559.000000	0.278477
560.000000	0.279088
561.000000	0.279758
562.000000	0.280376
563.000000	0.281062
564.000000	0.281733
565.000000	0.282217
566.000000	0.282829
567.000000	0.283438
568.000000	0.283961
569.000000	0.284556
570.000000	0.285085
571.000000	0.285554
572.000000	0.286129
573.000000	0.286637
574.000000	0.287091
575.000000	0.287608
576.000000	0.288014
577.000000	0.288405
578.000000	0.288909
579.000000	0.289308
580.000000	0.289688
581.000000	0.290080
582.000000	0.290434
583.000000	0.290728
584.000000	0.290989
585.000000	0.291283
586.000000	0.291666
587.000000	0.292040
588.000000	0.292302
589.000000	0.292585
590.000000	0.292889
591.000000	0.293173
592.000000	0.293306
593.000000	0.293529
594.000000	0.293867
595.000000	0.294136
596.000000	0.294296
597.000000	0.294418
598.000000	0.294525
599.000000	0.294641
600.000000	0.294839
601.000000	0.295065
602.000000	0.295213
603.000000	0.295322
604.000000	0.295427
605.000000	0.295519
606.000000	0.295578
607.000000	0.295638
608.000000	0.295768
609.000000	0.295881
610.000000	0.295985
611.000000	0.296102
612.000000	0.296202
613.000000	0.296310
614.000000	0.296455
615.000000	0.296510
616.000000	0.296582
617.000000	0.296693
618.000000	0.296902
619.000000	0.296994
620.000000	0.297025
621.000000	0.297203
622.000000	0.297353
623.000000	0.297445
624.000000	0.297498
625.000000	0.297634
626.000000	0.297797
627.000000	0.297933
628.000000	0.297966
629.000000	0.298125
630.000000	0.298287
631.000000	0.298422
632.000000	0.298488
633.000000	0.298554
634.000000	0.298675
635.000000	0.298764
636.000000	0.298857
637.000000	0.298970
638.000000	0.299140
639.000000	0.299275
640.000000	0.299416
641.000000	0.299555
642.000000	0.299709
643.000000	0.299853
644.000000	0.299963
645.000000	0.300157
646.000000	0.300327
647.000000	0.300386
648.000000	0.300506
649.000000	0.300684
650.000000	0.300869
651.000000	0.301003
652.000000	0.301140
653.000000	0.301313
654.000000	0.301464
655.000000	0.301618
656.000000	0.301788
657.000000	0.301930
658.000000	0.302101
659.000000	0.302328
660.000000	0.302580
661.000000	0.302774
662.000000	0.302972
663.000000	0.303204
664.000000	0.303377
665.000000	0.303586
666.000000	0.303830
667.000000	0.304058
668.000000	0.304308
669.000000	0.304584
670.000000	0.304872
671.000000	0.305106
672.000000	0.305298
673.000000	0.305481
674.000000	0.305736
675.000000	0.305901
676.000000	0.306050
677.000000	0.306316
678.000000	0.306566
679.000000	0.306764
680.000000	0.306930
681.000000	0.307154
682.000000	0.307453
683.000000	0.307732
684.000000	0.308007
685.000000	0.308258
686.000000	0.308515
687.000000	0.308772
688.000000	0.309019
689.000000	0.309288
690.000000	0.309630
691.000000	0.309987
692.000000	0.310280
693.000000	0.310561
694.000000	0.310863
695.000000	0.311145
696.000000	0.311409
697.000000	0.311682
698.000000	0.312002
699.000000	0.312344
700.000000	0.312688
701.000000	0.313029
702.000000	0.313361
703.000000	0.313661
704.000000	0.313935
705.000000	0.314204
706.000000	0.314434
707.000000	0.314667
708.000000	0.314931
709.000000	0.315246
710.000000	0.315624
711.000000	0.315957
712.000000	0.316293
713.000000	0.316661
714.000000	0.316984
715.000000	0.317298
716.000000	0.317624
717.000000	0.317952
718.000000	0.318212
719.000000	0.318485
720.000000	0.318845
721.000000	0.319153
722.000000	0.319431
723.000000	0.319755
724.000000	0.320079
725.000000	0.320312
726.000000	0.320547
727.000000	0.320787
728.000000	0.321018
729.000000	0.321242
730.000000	0.321413
731.000000	0.321590
732.000000	0.321827
733.000000	0.322149
734.000000	0.322427
735.000000	0.322730
736.000000	0.323105
737.000000	0.323328
738.000000	0.323479
739.000000	0.323683
740.000000	0.323843
741.000000	0.323992
742.000000	0.324157
743.000000	0.324312
744.000000	0.324467
745.000000	0.324633
746.000000	0.324833
747.000000	0.324991
748.000000	0.325229
749.000000	0.325450
750.000000	0.325564
751.000000	0.325684
752.000000	0.325878
753.000000	0.326097
754.000000	0.326157
755.000000	0.326295
756.000000	0.326456
757.000000	0.326488
758.000000	0.326565
759.000000	0.326658
760.000000	0.326695
761.000000	0.326851
762.000000	0.327014
763.000000	0.327104
764.000000	0.327147
765.000000	0.327157
766.000000	0.327158
767.000000	0.327161
768.000000	0.327153
769.000000	0.327170
770.000000	0.327207
771.000000	0.327174
772.000000	0.327209
773.000000	0.327208
774.000000	0.327134
775.000000	0.327142
776.000000	0.327166
777.000000	0.327136
778.000000	0.327139
779.000000	0.327094
780.000000	0.327008
781.000000	0.326942
782.000000	0.326880
783.000000	0.326901
784.000000	0.326906
785.000000	0.326917
786.000000	0.326935
787.000000	0.326956
788.000000	0.326998
789.000000	0.326981
790.000000	0.326897
791.000000	0.326827
792.000000	0.326670
793.000000	0.326558
794.000000	0.326578
795.000000	0.326533
796.000000	0.326437
797.000000	0.326318
798.000000	0.326229
799.000000	0.326094
800.000000	0.325938
801.000000	0.325806
802.000000	0.325633
803.000000	0.325497
804.000000	0.325443
805.000000	0.325301
806.000000	0.325147
807.000000	0.325084
808.000000	0.325051
809.000000	0.324861
810.000000	0.324629
811.000000	0.324460
812.000000	0.324355
813.000000	0.324224
814.000000	0.324082
815.000000	0.324060
816.000000	0.323947
817.000000	0.323806
818.000000	0.323659
819.000000	0.323576
820.000000	0.323433
821.000000	0.323199
822.000000	0.323159
823.000000	0.323121
824.000000	0.322991
825.000000	0.322827
826.000000	0.322525
827.000000	0.322190
828.000000	0.321935
829.000000	0.321678
830.000000	0.321403
831.000000	0.321199
832.000000	0.321030
833.000000	0.320852
834.000000	0.320699
835.000000	0.320614
836.000000	0.320490
837.000000	0.320345
838.000000	0.320225
839.000000	0.320145
840.000000	0.319987
841.000000	0.319802
842.000000	0.319615
843.000000	0.319396
844.000000	0.319218
845.000000	0.319062
846.000000	0.318903
847.000000	0.318726
848.000000	0.318541
849.000000	0.318397
850.000000	0.318281
851.000000	0.318138
852.000000	0.317986
853.000000	0.317832
854.000000	0.317655
855.000000	0.317534
856.000000	0.317362
857.000000	0.317063
858.000000	0.316830
859.000000	0.316667
860.000000	0.316502
861.000000	0.316355
862.000000	0.316230
863.000000	0.316047
864.000000	0.315821
865.000000	0.315616
866.000000	0.315484
867.000000	0.315386
868.000000	0.315109
869.000000	0.314718
870.000000	0.314498
871.000000	0.314321
872.000000	0.314129
873.000000	0.313860
874.000000	0.313652
875.000000	0.313454
876.000000	0.313233
877.000000	0.312920
878.000000	0.312811
879.000000	0.312711
880.000000	0.312401
881.000000	0.312245
882.000000	0.312116
883.000000	0.311970
884.000000	0.311736
885.000000	0.311561
886.000000	0.311407
887.000000	0.311242
888.000000	0.310981
889.000000	0.310662
890.000000	0.310246
891.000000	0.309914
892.000000	0.309715
893.000000	0.309586
894.000000	0.309562
895.000000	0.309447
896.000000	0.309150
897.000000	0.308817
898.000000	0.308655
899.000000	0.308591
900.000000	0.308492
901.000000	0.308273
902.000000	0.308051
903.000000	0.307928
904.000000	0.307775
905.000000	0.307386
906.000000	0.307242
907.000000	0.307006
908.000000	0.306687
909.000000	0.306502
910.000000	0.306234
911.000000	0.305977
912.000000	0.305849
913.000000	0.305718
914.000000	0.305436
915.000000	0.305161
916.000000	0.305092
917.000000	0.304827
918.000000	0.304513
919.000000	0.304277
920.000000	0.304003
921.000000	0.303807
922.000000	0.303691
923.000000	0.303576
924.000000	0.303567
925.000000	0.303504
926.000000	0.303317
927.000000	0.303009
928.000000	0.302786
929.000000	0.302566
930.000000	0.302225
931.000000	0.302052
932.000000	0.301743
933.000000	0.301377
934.000000	0.301348
935.000000	0.301206
936.000000	0.301003
937.000000	0.300778
938.000000	0.300640
939.000000	0.300531
940.000000	0.300387
941.000000	0.300301
942.000000	0.300251
943.000000	0.300119
944.000000	0.299792
945.000000	0.299605
946.000000	0.299517
947.000000	0.299437
948.000000	0.299206
949.000000	0.298914
950.000000	0.298534
951.000000	0.298147
952.000000	0.298043
953.000000	0.297876
954.000000	0.297734
955.000000	0.297643
956.000000	0.297543
957.000000	0.297448
958.000000	0.297305
959.000000	0.297157
960.000000	0.296916
961.000000	0.296766
962.000000	0.296719
963.000000	0.296625
964.000000	0.296332
965.000000	0.296080
966.000000	0.295966
967.000000	0.295908
968.000000	0.295891
969.000000	0.295793
970.000000	0.295602
971.000000	0.295355
972.000000	0.295268
973.000000	0.295304
974.000000	0.295280
975.000000	0.294816
976.000000	0.294438
977.000000	0.294489
978.000000	0.294206
979.000000	0.294180
980.000000	0.294199
981.000000	0.294191
982.000000	0.294040
983.000000	0.293813
984.000000	0.293722
985.000000	0.293913
986.000000	0.293886
987.000000	0.293894
988.000000	0.293912
989.000000	0.293377
990.000000	0.292836
991.000000	0.292744
992.000000	0.293241
993.000000	0.293033
994.000000	0.292975
995.000000	0.293213
996.000000	0.292991
997.000000	0.292972
998.000000	0.293216
999.000000	0.293536
1000.000000	0.293277
1001.000000	0.292690
1002.000000	0.293410
1003.000000	0.293929
1004.000000	0.293563
1005.000000	0.291972
1006.000000	0.291683
1007.000000	0.291607
1008.000000	0.291070
1009.000000	0.291453
1010.000000	0.291658
1011.000000	0.291183
1012.000000	0.290971
1013.000000	0.290960
1014.000000	0.290990
1015.000000	0.291319
1016.000000	0.291992
1017.000000	0.292351
1018.000000	0.292642
1019.000000	0.292677
1020.000000	0.292192
1021.000000	0.291935
1022.000000	0.291952
1023.000000	0.291974
1024.000000	0.291945
1025.000000	0.292087
1026.000000	0.292014
1027.000000	0.291773
1028.000000	0.291813
1029.000000	0.291847
1030.000000	0.291519
1031.000000	0.291631
1032.000000	0.291835
1033.000000	0.291879
1034.000000	0.292232
1035.000000	0.293024
1036.000000	0.293418
1037.000000	0.293998
1038.000000	0.294182
1039.000000	0.294133
1040.000000	0.294098
1041.000000	0.293995
1042.000000	0.293632
1043.000000	0.293911
1044.000000	0.294152
1045.000000	0.293955
1046.000000	0.294455
1047.000000	0.294984
1048.000000	0.295582
1049.000000	0.295769
1050.000000	0.296138
1051.000000	0.296206
1052.000000	0.295481
1053.000000	0.295485
1054.000000	0.296013
1055.000000	0.296572
1056.000000	0.297515
1057.000000	0.298241
1058.000000	0.298810
1059.000000	0.298532
1060.000000	0.297867
1061.000000	0.297620
1062.000000	0.297783
1063.000000	0.298469
1064.000000	0.298979
1065.000000	0.299929
1066.000000	0.300369
1067.000000	0.300409
1068.000000	0.300640
1069.000000	0.300726
1070.000000	0.301030
1071.000000	0.301771
1072.000000	0.301899
1073.000000	0.301744
1074.000000	0.301787
1075.000000	0.301501
1076.000000	0.301867
1077.000000	0.302247
1078.000000	0.302366
1079.000000	0.302801
1080.000000	0.303225
1081.000000	0.303544
1082.000000	0.304332
1083.000000	0.304723
1084.000000	0.304468
1085.000000	0.304903
1086.000000	0.305868
1087.000000	0.306351
1088.000000	0.306711
1089.000000	0.307173
1090.000000	0.307445
1091.000000	0.307565
1092.000000	0.308046
1093.000000	0.308535
1094.000000	0.309012
1095.000000	0.309393
1096.000000	0.309734
1097.000000	0.310318
1098.000000	0.310403
1099.000000	0.309662
1100.000000	0.309908
1101.000000	0.310432
1102.000000	0.310827
1103.000000	0.311818
1104.000000	0.312431
1105.000000	0.312680
1106.000000	0.312907
1107.000000	0.312922
1108.000000	0.313153
1109.000000	0.313416
1110.000000	0.313679
1111.000000	0.314071
1112.000000	0.314776
1113.000000	0.315176
1114.000000	0.315549
1115.000000	0.315734
1116.000000	0.315774
1117.000000	0.315830
1118.000000	0.315554
1119.000000	0.315638
1120.000000	0.315934
1121.000000	0.316167
1122.000000	0.316639
1123.000000	0.317193
1124.000000	0.317451
1125.000000	0.317878
1126.000000	0.318647
1127.000000	0.318949
1128.000000	0.319058
1129.000000	0.319010
1130.000000	0.319107
1131.000000	0.318892
1132.000000	0.319012
1133.000000	0.319512
1134.000000	0.319790
1135.000000	0.319869
1136.000000	0.320174
1137.000000	0.320720
1138.000000	0.320920
1139.000000	0.321080
1140.000000	0.321387
1141.000000	0.321502
1142.000000	0.321670
1143.000000	0.321949
1144.000000	0.322283
1145.000000	0.322368
1146.000000	0.322413
1147.000000	0.322618
1148.000000	0.322838
1149.000000	0.323069
1150.000000	0.323376
1151.000000	0.323668
1152.000000	0.324009
1153.000000	0.324178
1154.000000	0.324227
1155.000000	0.324275
1156.000000	0.324101
1157.000000	0.324134
1158.000000	0.324269
1159.000000	0.324367
1160.000000	0.324520
1161.000000	0.324651
1162.000000	0.324816
1163.000000	0.325067
1164.000000	0.325283
1165.000000	0.325389
1166.000000	0.325459
1167.000000	0.325301
1168.000000	0.325433
1169.000000	0.325722
1170.000000	0.325892
1171.000000	0.326210
1172.000000	0.326458
1173.000000	0.326525
1174.000000	0.326684
1175.000000	0.327022
1176.000000	0.327092
1177.000000	0.327029
1178.000000	0.327021
1179.000000	0.326822
1180.000000	0.326751
1181.000000	0.326854
1182.000000	0.327044
1183.000000	0.327147
1184.000000	0.327271
1185.000000	0.327395
1186.000000	0.327466
1187.000000	0.327571
1188.000000	0.327748
1189.000000	0.327815
1190.000000	0.327886
1191.000000	0.327957
1192.000000	0.328061
1193.000000	0.328265
1194.000000	0.328406
1195.000000	0.328534
1196.000000	0.328601
1197.000000	0.328729
1198.000000	0.328891
1199.000000	0.329048
1200.000000	0.329205
1201.000000	0.329436
1202.000000	0.329619
1203.000000	0.329742
1204.000000	0.329684
1205.000000	0.329616
1206.000000	0.329637
1207.000000	0.329724
1208.000000	0.329775
1209.000000	0.329972
1210.000000	0.330133
1211.000000	0.330250
1212.000000	0.330318
1213.000000	0.330483
1214.000000	0.330603
1215.000000	0.330622
1216.000000	0.330633
1217.000000	0.330589
1218.000000	0.330574
1219.000000	0.330521
1220.000000	0.330560
1221.000000	0.330676
1222.000000	0.330727
1223.000000	0.330784
1224.000000	0.330775
1225.000000	0.330697
1226.000000	0.330674
1227.000000	0.330620
1228.000000	0.330723
1229.000000	0.330739
1230.000000	0.330760
1231.000000	0.330722
1232.000000	0.330714
1233.000000	0.330862
1234.000000	0.331111
1235.000000	0.331205
1236.000000	0.331243
1237.000000	0.331278
1238.000000	0.331170
1239.000000	0.331091
1240.000000	0.331043
1241.000000	0.330895
1242.000000	0.330858
1243.000000	0.330794
1244.000000	0.330908
1245.000000	0.331070
1246.000000	0.331010
1247.000000	0.331077
1248.000000	0.331176
1249.000000	0.331202
1250.000000	0.331272
1251.000000	0.331474
1252.000000	0.331538
1253.000000	0.331517
1254.000000	0.331550
1255.000000	0.331545
1256.000000	0.331560
1257.000000	0.331626
1258.000000	0.331724
1259.000000	0.331833
1260.000000	0.331938
1261.000000	0.331954
1262.000000	0.331969
1263.000000	0.332058
1264.000000	0.331957
1265.000000	0.331866
1266.000000	0.331865
1267.000000	0.331749
1268.000000	0.331690
1269.000000	0.331600
1270.000000	0.331529
1271.000000	0.331442
1272.000000	0.331346
1273.000000	0.331495
1274.000000	0.331610
1275.000000	0.331636
1276.000000	0.331795
1277.000000	0.331865
1278.000000	0.331631
1279.000000	0.331573
1280.000000	0.331557
1281.000000	0.331469
1282.000000	0.331357
1283.000000	0.331400
1284.000000	0.331441
1285.000000	0.331473
1286.000000	0.331503
1287.000000	0.331676
1288.000000	0.331771
1289.000000	0.331818
1290.000000	0.331855
1291.000000	0.331793
1292.000000	0.331717
1293.000000	0.331603
1294.000000	0.331521
1295.000000	0.331603
1296.000000	0.331619
1297.000000	0.331617
1298.000000	0.331826
1299.000000	0.331928
1300.000000	0.331976
1301.000000	0.331936
1302.000000	0.331810
1303.000000	0.331599
1304.000000	0.331472
1305.000000	0.331417
1306.000000	0.331432
1307.000000	0.331546
1308.000000	0.331617
1309.000000	0.331851
1310.000000	0.331870
1311.000000	0.331780
1312.000000	0.331611
1313.000000	0.331577
1314.000000	0.331576
1315.000000	0.331608
1316.000000	0.331825
1317.000000	0.331730
1318.000000	0.331481
1319.000000	0.331399
1320.000000	0.331278
1321.000000	0.331265
1322.000000	0.331378
1323.000000	0.331512
1324.000000	0.331558
1325.000000	0.331483
1326.000000	0.331497
1327.000000	0.331347
1328.000000	0.331237
1329.000000	0.331102
1330.000000	0.330924
1331.000000	0.330843
1332.000000	0.330903
1333.000000	0.330875
1334.000000	0.330894
1335.000000	0.330944
1336.000000	0.330933
1337.000000	0.330964
1338.000000	0.330997
1339.000000	0.331181
1340.000000	0.331063
1341.000000	0.330920
1342.000000	0.330784
1343.000000	0.330573
1344.000000	0.330591
1345.000000	0.330723
1346.000000	0.330992
1347.000000	0.331083
1348.000000	0.330984
1349.000000	0.330798
1350.000000	0.330535
1351.000000	0.330278
1352.000000	0.330180
1353.000000	0.330066
1354.000000	0.330050
1355.000000	0.330038
1356.000000	0.329908
1357.000000	0.329915
1358.000000	0.329963
1359.000000	0.329868
1360.000000	0.329786
1361.000000	0.329715
1362.000000	0.329702
1363.000000	0.329721
1364.000000	0.329678
1365.000000	0.329669
1366.000000	0.329653
1367.000000	0.329566
1368.000000	0.329356
1369.000000	0.329391
1370.000000	0.329344
1371.000000	0.329090
1372.000000	0.328781
1373.000000	0.328503
1374.000000	0.328234
1375.000000	0.327921
1376.000000	0.327800
1377.000000	0.327743
1378.000000	0.327517
1379.000000	0.327162
1380.000000	0.326879
1381.000000	0.326570
1382.000000	0.326289
1383.000000	0.326227
1384.000000	0.326017
1385.000000	0.325739
1386.000000	0.325457
1387.000000	0.325026
1388.000000	0.324676
1389.000000	0.324279
1390.000000	0.323834
1391.000000	0.323517
1392.000000	0.323082
1393.000000	0.322643
1394.000000	0.322232
1395.000000	0.321933
1396.000000	0.321676
1397.000000	0.321345
1398.000000	0.321042
1399.000000	0.320618
1400.000000	0.320015
1401.000000	0.319484
1402.000000	0.318981
1403.000000	0.318554
1404.000000	0.318171
1405.000000	0.317772
1406.000000	0.317445
1407.000000	0.317043
1408.000000	0.316488
1409.000000	0.316011
1410.000000	0.315641
1411.000000	0.315253
1412.000000	0.314806
1413.000000	0.314518
1414.000000	0.314282
1415.000000	0.314102
1416.000000	0.314117
1417.000000	0.314130
1418.000000	0.314033
1419.000000	0.314070
1420.000000	0.314077
1421.000000	0.314191
1422.000000	0.314404
1423.000000	0.314398
1424.000000	0.314245
1425.000000	0.314215
1426.000000	0.314134
1427.000000	0.314148
1428.000000	0.314118
1429.000000	0.313949
1430.000000	0.313804
1431.000000	0.313641
1432.000000	0.313564
1433.000000	0.313588
1434.000000	0.313745
1435.000000	0.314116
1436.000000	0.314418
1437.000000	0.314786
1438.000000	0.315118
1439.000000	0.315446
1440.000000	0.315816
1441.000000	0.316253
1442.000000	0.316750
1443.000000	0.317217
1444.000000	0.317677
1445.000000	0.318251
1446.000000	0.318847
1447.000000	0.319373
1448.000000	0.319860
1449.000000	0.320268
1450.000000	0.320580
1451.000000	0.320847
1452.000000	0.321039
1453.000000	0.321150
1454.000000	0.321166
1455.000000	0.321321
1456.000000	0.321547
1457.000000	0.321653
1458.000000	0.321835
1459.000000	0.321893
1460.000000	0.321831
1461.000000	0.321886
1462.000000	0.321927
1463.000000	0.321937
1464.000000	0.321986
1465.000000	0.322041
1466.000000	0.322059
1467.000000	0.322134
1468.000000	0.322167
1469.000000	0.322226
1470.000000	0.322372
1471.000000	0.322504
1472.000000	0.322648
1473.000000	0.322921
1474.000000	0.323084
1475.000000	0.323238
1476.000000	0.323401
1477.000000	0.323517
1478.000000	0.323632
1479.000000	0.323720
1480.000000	0.323846
1481.000000	0.323912
1482.000000	0.324010
1483.000000	0.324053
1484.000000	0.324004
1485.000000	0.324019
1486.000000	0.323993
1487.000000	0.324075
1488.000000	0.324317
1489.000000	0.324452
1490.000000	0.324459
1491.000000	0.324527
1492.000000	0.324504
1493.000000	0.324540
1494.000000	0.324582
1495.000000	0.324628
1496.000000	0.324628
1497.000000	0.324697
1498.000000	0.324847
1499.000000	0.324993
1500.000000	0.325140
1501.000000	0.325321
1502.000000	0.325447
1503.000000	0.325578
1504.000000	0.325762
1505.000000	0.325915
1506.000000	0.326083
1507.000000	0.326229
1508.000000	0.326355
1509.000000	0.326473
1510.000000	0.326549
1511.000000	0.326627
1512.000000	0.326594
1513.000000	0.326566
1514.000000	0.326672
1515.000000	0.326737
1516.000000	0.326848
1517.000000	0.326952
1518.000000	0.326957
1519.000000	0.326933
1520.000000	0.326980
1521.000000	0.326928
1522.000000	0.327002
1523.000000	0.327160
1524.000000	0.327149
1525.000000	0.327261
1526.000000	0.327322
1527.000000	0.327328
1528.000000	0.327472
1529.000000	0.327509
1530.000000	0.327464
1531.000000	0.327533
1532.000000	0.327505
1533.000000	0.327481
1534.000000	0.327548
1535.000000	0.327529
1536.000000	0.327488
1537.000000	0.327527
1538.000000	0.327481
1539.000000	0.327383
1540.000000	0.327408
1541.000000	0.327515
1542.000000	0.327582
1543.000000	0.327556
1544.000000	0.327516
1545.000000	0.327568
1546.000000	0.327607
1547.000000	0.327749
1548.000000	0.327882
1549.000000	0.327840
1550.000000	0.327801
1551.000000	0.327821
1552.000000	0.327855
1553.000000	0.327809
1554.000000	0.327802
1555.000000	0.327846
1556.000000	0.327836
1557.000000	0.327798
1558.000000	0.327806
1559.000000	0.327798
1560.000000	0.327718
1561.000000	0.327619
1562.000000	0.327633
1563.000000	0.327692
1564.000000	0.327725
1565.000000	0.327844
1566.000000	0.327820
1567.000000	0.327793
1568.000000	0.327817
1569.000000	0.327950
1570.000000	0.327997
1571.000000	0.327950
1572.000000	0.327958
1573.000000	0.327965
1574.000000	0.328033
1575.000000	0.328286
1576.000000	0.328330
1577.000000	0.328245
1578.000000	0.328188
1579.000000	0.328040
1580.000000	0.327965
1581.000000	0.328058
1582.000000	0.328081
1583.000000	0.328039
1584.000000	0.328091
1585.000000	0.328285
1586.000000	0.328407
1587.000000	0.328584
1588.000000	0.328674
1589.000000	0.328687
1590.000000	0.328729
1591.000000	0.328765
1592.000000	0.328810
1593.000000	0.328930
1594.000000	0.328987
1595.000000	0.329041
1596.000000	0.329126
1597.000000	0.329261
1598.000000	0.329229
1599.000000	0.329185
1600.000000	0.329105
1601.000000	0.328892
1602.000000	0.328886
1603.000000	0.329101
1604.000000	0.329096
1605.000000	0.329149
1606.000000	0.329113
1607.000000	0.328937
1608.000000	0.328805
1609.000000	0.328731
1610.000000	0.328608
1611.000000	0.328421
1612.000000	0.328337
1613.000000	0.328483
1614.000000	0.328415
1615.000000	0.328310
1616.000000	0.328293
1617.000000	0.328197
1618.000000	0.328087
1619.000000	0.328001
1620.000000	0.327957
1621.000000	0.327853
1622.000000	0.327907
1623.000000	0.328110
1624.000000	0.328217
1625.000000	0.328227
1626.000000	0.328156
1627.000000	0.328020
1628.000000	0.327938
1629.000000	0.327771
1630.000000	0.327740
1631.000000	0.327719
1632.000000	0.327686
1633.000000	0.327784
1634.000000	0.327755
1635.000000	0.327661
1636.000000	0.327645
1637.000000	0.327662
1638.000000	0.327600
1639.000000	0.327578
1640.000000	0.327545
1641.000000	0.327488
1642.000000	0.327490
1643.000000	0.327713
1644.000000	0.327657
1645.000000	0.327433
1646.000000	0.327292
1647.000000	0.327072
1648.000000	0.326841
1649.000000	0.326782
1650.000000	0.326646
1651.000000	0.326400
1652.000000	0.326313
1653.000000	0.326264
1654.000000	0.326243
1655.000000	0.326213
1656.000000	0.326170
1657.000000	0.326224
1658.000000	0.326239
1659.000000	0.326430
1660.000000	0.326460
1661.000000	0.326278
1662.000000	0.326264
1663.000000	0.326206
1664.000000	0.326152
1665.000000	0.326156
1666.000000	0.326325
1667.000000	0.326452
1668.000000	0.326534
1669.000000	0.326763
1670.000000	0.326709
1671.000000	0.326487
1672.000000	0.326542
1673.000000	0.326641
1674.000000	0.326776
1675.000000	0.326881
1676.000000	0.326828
1677.000000	0.326738
1678.000000	0.326793
1679.000000	0.326843
1680.000000	0.326816
1681.000000	0.326859
1682.000000	0.326881
1683.000000	0.326839
1684.000000	0.326808
1685.000000	0.326911
1686.000000	0.326988
1687.000000	0.327115
1688.000000	0.327262
1689.000000	0.327211
1690.000000	0.327016
1691.000000	0.326837
1692.000000	0.326594
1693.000000	0.326482
1694.000000	0.326542
1695.000000	0.326579
1696.000000	0.326603
1697.000000	0.326568
1698.000000	0.326435
1699.000000	0.326402
1700.000000	0.326441
1701.000000	0.326538
1702.000000	0.326551
1703.000000	0.326516
1704.000000	0.326552
1705.000000	0.326529
1706.000000	0.326416
1707.000000	0.326426
1708.000000	0.326492
1709.000000	0.326488
1710.000000	0.326709
1711.000000	0.326734
1712.000000	0.326596
1713.000000	0.326509
1714.000000	0.326325
1715.000000	0.326327
1716.000000	0.326490
1717.000000	0.326567
1718.000000	0.326721
1719.000000	0.326726
1720.000000	0.326643
1721.000000	0.326622
1722.000000	0.326552
1723.000000	0.326560
1724.000000	0.326768
1725.000000	0.326706
1726.000000	0.326356
1727.000000	0.326259
1728.000000	0.326106
1729.000000	0.325827
1730.000000	0.325750
1731.000000	0.325674
1732.000000	0.325460
1733.000000	0.325367
1734.000000	0.325346
1735.000000	0.325261
1736.000000	0.324971
1737.000000	0.324913
1738.000000	0.325050
1739.000000	0.325088
1740.000000	0.325136
1741.000000	0.325138
1742.000000	0.325071
1743.000000	0.325259
1744.000000	0.325573
1745.000000	0.325630
1746.000000	0.325718
1747.000000	0.325726
1748.000000	0.325619
1749.000000	0.325510
1750.000000	0.325467
1751.000000	0.325435
1752.000000	0.325526
1753.000000	0.325710
1754.000000	0.325828
1755.000000	0.325891
1756.000000	0.325870
1757.000000	0.325791
1758.000000	0.325731
1759.000000	0.325529
1760.000000	0.325430
1761.000000	0.325319
1762.000000	0.325307
1763.000000	0.325469
1764.000000	0.325519
1765.000000	0.325566
1766.000000	0.325586
1767.000000	0.325519
1768.000000	0.325279
1769.000000	0.324974
1770.000000	0.324835
1771.000000	0.324558
1772.000000	0.324381
1773.000000	0.324308
1774.000000	0.324294
1775.000000	0.324370
1776.000000	0.324365
1777.000000	0.324411
1778.000000	0.324424
1779.000000	0.324270
1780.000000	0.324323
1781.000000	0.324528
1782.000000	0.324539
1783.000000	0.324583
1784.000000	0.324516
1785.000000	0.324360
1786.000000	0.324049
1787.000000	0.323947
1788.000000	0.324208
1789.000000	0.324347
1790.000000	0.324279
1791.000000	0.324283
1792.000000	0.324064
1793.000000	0.323973
1794.000000	0.324294
1795.000000	0.324410
1796.000000	0.324217
1797.000000	0.324244
1798.000000	0.324535
1799.000000	0.324442
1800.000000	0.324094
1801.000000	0.324586
1802.000000	0.324423
1803.000000	0.324062
1804.000000	0.324310
1805.000000	0.324805
1806.000000	0.325110
1807.000000	0.326217
1808.000000	0.326461
1809.000000	0.325919
1810.000000	0.325618
1811.000000	0.325168
1812.000000	0.324371
1813.000000	0.323802
1814.000000	0.322959
1815.000000	0.322936
1816.000000	0.323693
1817.000000	0.323696
1818.000000	0.323798
1819.000000	0.324189
1820.000000	0.324242
1821.000000	0.323486
1822.000000	0.323435
1823.000000	0.323874
1824.000000	0.323763
1825.000000	0.323240
1826.000000	0.323384
1827.000000	0.323419
1828.000000	0.323847
1829.000000	0.324975
1830.000000	0.324932
1831.000000	0.325148
1832.000000	0.325179
1833.000000	0.325275
1834.000000	0.325551
1835.000000	0.325512
1836.000000	0.325077
1837.000000	0.324882
1838.000000	0.324516
1839.000000	0.323894
1840.000000	0.323956
1841.000000	0.323447
1842.000000	0.322960
1843.000000	0.322056
1844.000000	0.321623
1845.000000	0.321132
1846.000000	0.321107
1847.000000	0.321272
1848.000000	0.321510
1849.000000	0.322199
1850.000000	0.322576
1851.000000	0.322926
1852.000000	0.323236
1853.000000	0.323610
1854.000000	0.323787
1855.000000	0.323695
1856.000000	0.323130
1857.000000	0.323178
1858.000000	0.323552
1859.000000	0.323937
1860.000000	0.324159
1861.000000	0.324199
1862.000000	0.323632
1863.000000	0.321748
1864.000000	0.320973
1865.000000	0.320365
1866.000000	0.319903
1867.000000	0.319777
1868.000000	0.319981
1869.000000	0.319465
1870.000000	0.318627
1871.000000	0.317470
1872.000000	0.316789
1873.000000	0.316322
1874.000000	0.316294
1875.000000	0.316120
1876.000000	0.316314
1877.000000	0.314958
1878.000000	0.313776
1879.000000	0.313135
1880.000000	0.312623
1881.000000	0.312223
1882.000000	0.311724
1883.000000	0.310556
1884.000000	0.309366
1885.000000	0.307167
1886.000000	0.305927
1887.000000	0.305118
1888.000000	0.304056
1889.000000	0.302875
1890.000000	0.301603
1891.000000	0.300059
1892.000000	0.298098
1893.000000	0.296205
1894.000000	0.294415
1895.000000	0.292322
1896.000000	0.289986
1897.000000	0.287787
1898.000000	0.285922
1899.000000	0.284276
1900.000000	0.282956
1901.000000	0.282390
1902.000000	0.281338
1903.000000	0.280286
1904.000000	0.279661
1905.000000	0.278353
1906.000000	0.277486
1907.000000	0.276850
1908.000000	0.276816
1909.000000	0.276318
1910.000000	0.276325
1911.000000	0.276814
1912.000000	0.276797
1913.000000	0.277464
1914.000000	0.277880
1915.000000	0.277784
1916.000000	0.278459
1917.000000	0.278902
1918.000000	0.279269
1919.000000	0.280101
1920.000000	0.281068
1921.000000	0.281236
1922.000000	0.281484
1923.000000	0.281880
1924.000000	0.281964
1925.000000	0.282525
1926.000000	0.283362
1927.000000	0.283969
1928.000000	0.284525
1929.000000	0.285294
1930.000000	0.285800
1931.000000	0.286067
1932.000000	0.286114
1933.000000	0.286007
1934.000000	0.285780
1935.000000	0.285888
1936.000000	0.286460
1937.000000	0.286845
1938.000000	0.287210
1939.000000	0.287481
1940.000000	0.287434
1941.000000	0.287645
1942.000000	0.287970
1943.000000	0.288226
1944.000000	0.289025
1945.000000	0.288955
1946.000000	0.289268
1947.000000	0.290022
1948.000000	0.289648
1949.000000	0.289933
1950.000000	0.290150
1951.000000	0.289945
1952.000000	0.289210
1953.000000	0.289438
1954.000000	0.289547
1955.000000	0.289574
1956.000000	0.290258
1957.000000	0.290859
1958.000000	0.291412
1959.000000	0.291925
1960.000000	0.292080
1961.000000	0.292207
1962.000000	0.292487
1963.000000	0.292761
1964.000000	0.293177
1965.000000	0.293496
1966.000000	0.293847
1967.000000	0.294400
1968.000000	0.294799
1969.000000	0.295548
1970.000000	0.296261
1971.000000	0.296156
1972.000000	0.295577
1973.000000	0.295151
1974.000000	0.294438
1975.000000	0.294434
1976.000000	0.294761
1977.000000	0.295305
1978.000000	0.296193
1979.000000	0.296372
1980.000000	0.296915
1981.000000	0.297514
1982.000000	0.297706
1983.000000	0.298392
1984.000000	0.298854
1985.000000	0.299377
1986.000000	0.299343
1987.000000	0.299127
1988.000000	0.298870
1989.000000	0.298605
1990.000000	0.298962
1991.000000	0.299700
1992.000000	0.300337
1993.000000	0.300927
1994.000000	0.301246
1995.000000	0.302077
1996.000000	0.302707
1997.000000	0.302983
1998.000000	0.303268
1999.000000	0.303183
2000.000000	0.302474
2001.000000	0.301915
2002.000000	0.301669
2003.000000	0.301266
2004.000000	0.301466
2005.000000	0.301946
2006.000000	0.302417
2007.000000	0.302751
2008.000000	0.302907
2009.000000	0.302757
2010.000000	0.302899
2011.000000	0.302694
2012.000000	0.302964
2013.000000	0.303699
2014.000000	0.303793
2015.000000	0.304212
2016.000000	0.304627
2017.000000	0.304579
2018.000000	0.304656
2019.000000	0.304529
2020.000000	0.304288
2021.000000	0.304231
2022.000000	0.304052
2023.000000	0.304100
2024.000000	0.304468
2025.000000	0.304729
2026.000000	0.304816
2027.000000	0.305021
2028.000000	0.305406
2029.000000	0.305822
2030.000000	0.306221
2031.000000	0.306715
2032.000000	0.307025
2033.000000	0.307409
2034.000000	0.307558
2035.000000	0.307894
2036.000000	0.307570
2037.000000	0.306629
2038.000000	0.306192
2039.000000	0.305612
2040.000000	0.305423
2041.000000	0.305629
2042.000000	0.306138
2043.000000	0.306609
2044.000000	0.306589
2045.000000	0.306459
2046.000000	0.306463
2047.000000	0.306777
2048.000000	0.307182
2049.000000	0.307880
2050.000000	0.308849
2051.000000	0.309402
2052.000000	0.310042
2053.000000	0.310022
2054.000000	0.309567
2055.000000	0.309395
2056.000000	0.309173
2057.000000	0.308352
2058.000000	0.308629
2059.000000	0.308863
2060.000000	0.308934
2061.000000	0.309256
2062.000000	0.309309
2063.000000	0.309120
2064.000000	0.308920
2065.000000	0.308857
2066.000000	0.308684
2067.000000	0.308733
2068.000000	0.308638
2069.000000	0.308907
2070.000000	0.309206
2071.000000	0.309475
2072.000000	0.309532
2073.000000	0.309219
2074.000000	0.309213
2075.000000	0.309002
2076.000000	0.308678
2077.000000	0.308520
2078.000000	0.308089
2079.000000	0.307894
2080.000000	0.307954
2081.000000	0.308145
2082.000000	0.308505
2083.000000	0.309315
2084.000000	0.309497
2085.000000	0.309004
2086.000000	0.307821
2087.000000	0.307048
2088.000000	0.306858
2089.000000	0.306979
2090.000000	0.307286
2091.000000	0.308343
2092.000000	0.308779
2093.000000	0.309308
2094.000000	0.309559
2095.000000	0.309589
2096.000000	0.309618
2097.000000	0.309565
2098.000000	0.308839
2099.000000	0.308327
2100.000000	0.308496
2101.000000	0.308844
2102.000000	0.309507
2103.000000	0.309906
2104.000000	0.309995
2105.000000	0.309924
2106.000000	0.309002
2107.000000	0.309004
2108.000000	0.309330
2109.000000	0.309743
2110.000000	0.310751
2111.000000	0.311141
2112.000000	0.311243
2113.000000	0.310989
2114.000000	0.310674
2115.000000	0.310521
2116.000000	0.310796
2117.000000	0.310403
2118.000000	0.310231
2119.000000	0.309715
2120.000000	0.309623
2121.000000	0.309762
2122.000000	0.309863
2123.000000	0.310425
2124.000000	0.310394
2125.000000	0.309913
2126.000000	0.309465
2127.000000	0.308476
2128.000000	0.308173
2129.000000	0.307807
2130.000000	0.308188
2131.000000	0.308654
2132.000000	0.309296
2133.000000	0.310891
2134.000000	0.311794
2135.000000	0.311877
2136.000000	0.312220
2137.000000	0.312125
2138.000000	0.310695
2139.000000	0.310497
2140.000000	0.311192
2141.000000	0.311190
2142.000000	0.310941
2143.000000	0.310975
2144.000000	0.311435
2145.000000	0.311402
2146.000000	0.311655
2147.000000	0.311557
2148.000000	0.311349
2149.000000	0.310395
2150.000000	0.309532
2151.000000	0.309882
2152.000000	0.309736
2153.000000	0.309712
2154.000000	0.309248
2155.000000	0.308487
2156.000000	0.308172
2157.000000	0.307418
2158.000000	0.307450
2159.000000	0.308853
2160.000000	0.309145
2161.000000	0.309088
2162.000000	0.309120
2163.000000	0.308506
2164.000000	0.308199
2165.000000	0.308030
2166.000000	0.308086
2167.000000	0.308454
2168.000000	0.307557
2169.000000	0.306826
2170.000000	0.307143
2171.000000	0.307047
2172.000000	0.306841
2173.000000	0.307132
2174.000000	0.307828
2175.000000	0.307847
2176.000000	0.307772
2177.000000	0.307812
2178.000000	0.307608
2179.000000	0.307555
2180.000000	0.307907
2181.000000	0.308195
2182.000000	0.307954
2183.000000	0.307161
2184.000000	0.306507
2185.000000	0.305806
2186.000000	0.304440
2187.000000	0.303666
2188.000000	0.304266
2189.000000	0.303737
2190.000000	0.302738
2191.000000	0.304107
2192.000000	0.305241
2193.000000	0.306372
2194.000000	0.307783
2195.000000	0.311632
2196.000000	0.312524
2197.000000	0.311463
2198.000000	0.310645
2199.000000	0.308220
2200.000000	0.305961
2201.000000	0.302736
2202.000000	0.301103
2203.000000	0.299165
2204.000000	0.298592
2205.000000	0.301213
2206.000000	0.303416
2207.000000	0.304525
2208.000000	0.304793
2209.000000	0.302042
2210.000000	0.300131
2211.000000	0.298551
2212.000000	0.296493
2213.000000	0.296506
2214.000000	0.298038
2215.000000	0.298449
2216.000000	0.299713
2217.000000	0.301936
2218.000000	0.303215
2219.000000	0.306145
2220.000000	0.312658
2221.000000	0.315360
2222.000000	0.317706
2223.000000	0.318338
2224.000000	0.316273
2225.000000	0.314558
2226.000000	0.311913
2227.000000	0.309443
2228.000000	0.311277
2229.000000	0.310363
2230.000000	0.310151
2231.000000	0.311489
2232.000000	0.308375
2233.000000	0.306559
2234.000000	0.305046
2235.000000	0.303381
2236.000000	0.302839
2237.000000	0.303782
2238.000000	0.303488
2239.000000	0.302934
2240.000000	0.302401
2241.000000	0.301687
2242.000000	0.300903
2243.000000	0.299904
2244.000000	0.300140
2245.000000	0.300126
2246.000000	0.300720
2247.000000	0.302966
2248.000000	0.304054
2249.000000	0.304712
2250.000000	0.306301
2251.000000	0.305288
2252.000000	0.306253
2253.000000	0.306295
2254.000000	0.304299
2255.000000	0.304813
2256.000000	0.303770
2257.000000	0.304474
2258.000000	0.307530
2259.000000	0.306730
2260.000000	0.306134
2261.000000	0.304656
2262.000000	0.300567
2263.000000	0.298191
2264.000000	0.296189
2265.000000	0.295302
2266.000000	0.294580
2267.000000	0.294463
2268.000000	0.296513
2269.000000	0.296594
2270.000000	0.297349
2271.000000	0.295644
2272.000000	0.290784
2273.000000	0.288046
2274.000000	0.283271
2275.000000	0.281443
2276.000000	0.281799
2277.000000	0.283598
2278.000000	0.284328
2279.000000	0.286114
2280.000000	0.288219
2281.000000	0.287276
2282.000000	0.284738
2283.000000	0.282075
2284.000000	0.280924
2285.000000	0.280428
2286.000000	0.280941
2287.000000	0.283115
2288.000000	0.283175
2289.000000	0.283607
2290.000000	0.285456
2291.000000	0.286367
2292.000000	0.286359
2293.000000	0.285100
2294.000000	0.284883
2295.000000	0.283947
2296.000000	0.284784
2297.000000	0.287804
2298.000000	0.289009
2299.000000	0.290345
2300.000000	0.291254
2301.000000	0.290428
2302.000000	0.291432
2303.000000	0.293884
2304.000000	0.294915
2305.000000	0.295825
2306.000000	0.296398
2307.000000	0.296040
2308.000000	0.296187
2309.000000	0.295328
2310.000000	0.295481
2311.000000	0.294715
2312.000000	0.294721
2313.000000	0.295818
2314.000000	0.295385
2315.000000	0.295923
2316.000000	0.295177
2317.000000	0.294176
2318.000000	0.294809
2319.000000	0.293055
2320.000000	0.291766
2321.000000	0.292088
2322.000000	0.291832
2323.000000	0.293170
2324.000000	0.294307
2325.000000	0.294195
2326.000000	0.293660
2327.000000	0.293502
2328.000000	0.293081
2329.000000	0.292555
2330.000000	0.294705
2331.000000	0.296927
2332.000000	0.299296
2333.000000	0.301618
2334.000000	0.300657
2335.000000	0.300547
2336.000000	0.298867
2337.000000	0.297067
2338.000000	0.295289
2339.000000	0.293572
2340.000000	0.290470
2341.000000	0.290686
2342.000000	0.292597
2343.000000	0.294750
2344.000000	0.299880
2345.000000	0.300730
2346.000000	0.300151
2347.000000	0.298359
2348.000000	0.293101
2349.000000	0.290861
2350.000000	0.290448
2351.000000	0.291457
2352.000000	0.294656
2353.000000	0.297013
2354.000000	0.298088
2355.000000	0.300344
2356.000000	0.302641
2357.000000	0.302396
2358.000000	0.301421
2359.000000	0.298392
2360.000000	0.295253
2361.000000	0.294741
2362.000000	0.291836
2363.000000	0.291665
2364.000000	0.293431
2365.000000	0.293412
2366.000000	0.293514
2367.000000	0.292938
2368.000000	0.292347
2369.000000	0.292623
2370.000000	0.294778
2371.000000	0.297561
2372.000000	0.298979
2373.000000	0.298598
2374.000000	0.297130
2375.000000	0.293138
2376.000000	0.289909
2377.000000	0.287417
2378.000000	0.283328
2379.000000	0.284842
2380.000000	0.286912
2381.000000	0.286099
2382.000000	0.286541
2383.000000	0.284065
2384.000000	0.281050
2385.000000	0.280427
2386.000000	0.279399
2387.000000	0.278436
2388.000000	0.279599
2389.000000	0.276517
2390.000000	0.273490
2391.000000	0.278166
2392.000000	0.277050
2393.000000	0.277890
2394.000000	0.283401
2395.000000	0.280474
2396.000000	0.282230
2397.000000	0.284813
2398.000000	0.282426
2399.000000	0.285254
2400.000000	0.286048
2401.000000	0.286056
2402.000000	0.285590
2403.000000	0.273817
2404.000000	0.260589
2405.000000	0.251583
2406.000000	0.247561
2407.000000	0.250064
2408.000000	0.254266
2409.000000	0.255005
2410.000000	0.252140
2411.000000	0.256366
2412.000000	0.260105
2413.000000	0.263059
2414.000000	0.270257
2415.000000	0.270849
2416.000000	0.271103
2417.000000	0.271921
2418.000000	0.267260
2419.000000	0.263531
2420.000000	0.255321
2421.000000	0.248195
2422.000000	0.251927
2423.000000	0.257832
2424.000000	0.272498
2425.000000	0.287998
2426.000000	0.294026
2427.000000	0.293296
2428.000000	0.290109
2429.000000	0.281606
2430.000000	0.270329
2431.000000	0.277196
2432.000000	0.283472
2433.000000	0.297310
2434.000000	0.310450
2435.000000	0.299051
2436.000000	0.292001
2437.000000	0.274639
2438.000000	0.258816
2439.000000	0.258257
2440.000000	0.250719
2441.000000	0.246973
2442.000000	0.248135
2443.000000	0.251498
2444.000000	0.254971
2445.000000	0.255965
2446.000000	0.264441
2447.000000	0.270136
2448.000000	0.273988
2449.000000	0.282979
2450.000000	0.276345
2451.000000	0.266361
2452.000000	0.269796
2453.000000	0.271843
2454.000000	0.272964
2455.000000	0.277491
2456.000000	0.278577
2457.000000	0.260865
2458.000000	0.246055
2459.000000	0.241020
2460.000000	0.223745
2461.000000	0.230920
2462.000000	0.245162
2463.000000	0.229511
2464.000000	0.220540
2465.000000	0.214986
2466.000000	0.214002
2467.000000	0.242516
2468.000000	0.272213
2469.000000	0.288580
2470.000000	0.309017
2471.000000	0.311834
2472.000000	0.301761
2473.000000	0.293949
2474.000000	0.259998
2475.000000	0.248990
2476.000000	0.260066
2477.000000	0.260912
2478.000000	0.282762
2479.000000	0.276126
2480.000000	0.254522
2481.000000	0.237019
2482.000000	0.236112
2483.000000	0.277206
2484.000000	0.308420
2485.000000	0.334720
2486.000000	0.333315
2487.000000	0.296114
2488.000000	0.262192
2489.000000	0.224241
2490.000000	0.192806
2491.000000	0.216786
2492.000000	0.208098
2493.000000	0.224850
2494.000000	0.228468
2495.000000	0.150592
2496.000000	0.148295
2497.000000	0.184030
2498.000000	0.225079
2499.000000	0.379835
2500.000000	0.467249
