# Wavelength	NAu-1-40_HEX-40_FV7-20_00001.asd.rts.txt
350.000000	0.148908
351.000000	0.167398
352.000000	0.166548
353.000000	0.154557
354.000000	0.143548
355.000000	0.143539
356.000000	0.146290
357.000000	0.150410
358.000000	0.156600
359.000000	0.158710
360.000000	0.156540
361.000000	0.152268
362.000000	0.152055
363.000000	0.157602
364.000000	0.164514
365.000000	0.154534
366.000000	0.147884
367.000000	0.148875
368.000000	0.149653
369.000000	0.150692
370.000000	0.151003
371.000000	0.149989
372.000000	0.151621
373.000000	0.155225
374.000000	0.158577
375.000000	0.154836
376.000000	0.153558
377.000000	0.156372
378.000000	0.157822
379.000000	0.158753
380.000000	0.159869
381.000000	0.162084
382.000000	0.160898
383.000000	0.158794
384.000000	0.158292
385.000000	0.159278
386.000000	0.160984
387.000000	0.162953
388.000000	0.164660
389.000000	0.166970
390.000000	0.168968
391.000000	0.169175
392.000000	0.170305
393.000000	0.170798
394.000000	0.170189
395.000000	0.173893
396.000000	0.176518
397.000000	0.176395
398.000000	0.176355
399.000000	0.177772
400.000000	0.180385
401.000000	0.182953
402.000000	0.185083
403.000000	0.186212
404.000000	0.186426
405.000000	0.187498
406.000000	0.189112
407.000000	0.190856
408.000000	0.192216
409.000000	0.192848
410.000000	0.193387
411.000000	0.195037
412.000000	0.196555
413.000000	0.197262
414.000000	0.197058
415.000000	0.198070
416.000000	0.199163
417.000000	0.199625
418.000000	0.200143
419.000000	0.200645
420.000000	0.201101
421.000000	0.201463
422.000000	0.202586
423.000000	0.203524
424.000000	0.203100
425.000000	0.203058
426.000000	0.203356
427.000000	0.203713
428.000000	0.204042
429.000000	0.203843
430.000000	0.203245
431.000000	0.203177
432.000000	0.203492
433.000000	0.203856
434.000000	0.203882
435.000000	0.203752
436.000000	0.203441
437.000000	0.202986
438.000000	0.202979
439.000000	0.202773
440.000000	0.202248
441.000000	0.202136
442.000000	0.201929
443.000000	0.201469
444.000000	0.200939
445.000000	0.200822
446.000000	0.201156
447.000000	0.201699
448.000000	0.202538
449.000000	0.203666
450.000000	0.205005
451.000000	0.206230
452.000000	0.207731
453.000000	0.209619
454.000000	0.211917
455.000000	0.214524
456.000000	0.217236
457.000000	0.219675
458.000000	0.222180
459.000000	0.224555
460.000000	0.226633
461.000000	0.228442
462.000000	0.230335
463.000000	0.232287
464.000000	0.234172
465.000000	0.235297
466.000000	0.235873
467.000000	0.236863
468.000000	0.237926
469.000000	0.238917
470.000000	0.239864
471.000000	0.240543
472.000000	0.241132
473.000000	0.241819
474.000000	0.242654
475.000000	0.243334
476.000000	0.243886
477.000000	0.244335
478.000000	0.244824
479.000000	0.245490
480.000000	0.246115
481.000000	0.246562
482.000000	0.247086
483.000000	0.247693
484.000000	0.248257
485.000000	0.248876
486.000000	0.249650
487.000000	0.250061
488.000000	0.250526
489.000000	0.251185
490.000000	0.251994
491.000000	0.252535
492.000000	0.253013
493.000000	0.253633
494.000000	0.254303
495.000000	0.254957
496.000000	0.255572
497.000000	0.256430
498.000000	0.257297
499.000000	0.258076
500.000000	0.258600
501.000000	0.259232
502.000000	0.260004
503.000000	0.260719
504.000000	0.261463
505.000000	0.262197
506.000000	0.262900
507.000000	0.263664
508.000000	0.264490
509.000000	0.265303
510.000000	0.266007
511.000000	0.266784
512.000000	0.267653
513.000000	0.268446
514.000000	0.269249
515.000000	0.270169
516.000000	0.271208
517.000000	0.272044
518.000000	0.272863
519.000000	0.273748
520.000000	0.274627
521.000000	0.275569
522.000000	0.276567
523.000000	0.277475
524.000000	0.278461
525.000000	0.279514
526.000000	0.280579
527.000000	0.281642
528.000000	0.282610
529.000000	0.283489
530.000000	0.284560
531.000000	0.285696
532.000000	0.286723
533.000000	0.287805
534.000000	0.288930
535.000000	0.290059
536.000000	0.291155
537.000000	0.292280
538.000000	0.293390
539.000000	0.294411
540.000000	0.295561
541.000000	0.296706
542.000000	0.297759
543.000000	0.298888
544.000000	0.299975
545.000000	0.300956
546.000000	0.302156
547.000000	0.303334
548.000000	0.304470
549.000000	0.305575
550.000000	0.306596
551.000000	0.307655
552.000000	0.308835
553.000000	0.310022
554.000000	0.311149
555.000000	0.312201
556.000000	0.313252
557.000000	0.314237
558.000000	0.315262
559.000000	0.316236
560.000000	0.317154
561.000000	0.318146
562.000000	0.319228
563.000000	0.320143
564.000000	0.321000
565.000000	0.321839
566.000000	0.322717
567.000000	0.323546
568.000000	0.324287
569.000000	0.325145
570.000000	0.325889
571.000000	0.326519
572.000000	0.327270
573.000000	0.327967
574.000000	0.328597
575.000000	0.329257
576.000000	0.329831
577.000000	0.330400
578.000000	0.331072
579.000000	0.331594
580.000000	0.332107
581.000000	0.332653
582.000000	0.333124
583.000000	0.333520
584.000000	0.333882
585.000000	0.334284
586.000000	0.334644
587.000000	0.335009
588.000000	0.335423
589.000000	0.335707
590.000000	0.335964
591.000000	0.336257
592.000000	0.336482
593.000000	0.336717
594.000000	0.336968
595.000000	0.337180
596.000000	0.337365
597.000000	0.337565
598.000000	0.337716
599.000000	0.337824
600.000000	0.337952
601.000000	0.338062
602.000000	0.338175
603.000000	0.338293
604.000000	0.338422
605.000000	0.338519
606.000000	0.338624
607.000000	0.338726
608.000000	0.338789
609.000000	0.338949
610.000000	0.339120
611.000000	0.339184
612.000000	0.339258
613.000000	0.339293
614.000000	0.339297
615.000000	0.339282
616.000000	0.339330
617.000000	0.339399
618.000000	0.339438
619.000000	0.339481
620.000000	0.339542
621.000000	0.339684
622.000000	0.339673
623.000000	0.339620
624.000000	0.339642
625.000000	0.339672
626.000000	0.339736
627.000000	0.339852
628.000000	0.340024
629.000000	0.340229
630.000000	0.340331
631.000000	0.340465
632.000000	0.340590
633.000000	0.340744
634.000000	0.340941
635.000000	0.341107
636.000000	0.341311
637.000000	0.341545
638.000000	0.341685
639.000000	0.341839
640.000000	0.342038
641.000000	0.342057
642.000000	0.342187
643.000000	0.342391
644.000000	0.342540
645.000000	0.342670
646.000000	0.342822
647.000000	0.342984
648.000000	0.343112
649.000000	0.343290
650.000000	0.343499
651.000000	0.343658
652.000000	0.343782
653.000000	0.343950
654.000000	0.344177
655.000000	0.344460
656.000000	0.344712
657.000000	0.344834
658.000000	0.345109
659.000000	0.345365
660.000000	0.345542
661.000000	0.345877
662.000000	0.346124
663.000000	0.346337
664.000000	0.346616
665.000000	0.346876
666.000000	0.347170
667.000000	0.347511
668.000000	0.347768
669.000000	0.348041
670.000000	0.348371
671.000000	0.348596
672.000000	0.348908
673.000000	0.349292
674.000000	0.349592
675.000000	0.349882
676.000000	0.350220
677.000000	0.350657
678.000000	0.350999
679.000000	0.351312
680.000000	0.351675
681.000000	0.352100
682.000000	0.352540
683.000000	0.352900
684.000000	0.353289
685.000000	0.353623
686.000000	0.353984
687.000000	0.354425
688.000000	0.354832
689.000000	0.355213
690.000000	0.355637
691.000000	0.356109
692.000000	0.356560
693.000000	0.357038
694.000000	0.357530
695.000000	0.357965
696.000000	0.358397
697.000000	0.358919
698.000000	0.359349
699.000000	0.359750
700.000000	0.360201
701.000000	0.360671
702.000000	0.361136
703.000000	0.361574
704.000000	0.362030
705.000000	0.362538
706.000000	0.363017
707.000000	0.363456
708.000000	0.363905
709.000000	0.364350
710.000000	0.364808
711.000000	0.365362
712.000000	0.365889
713.000000	0.366357
714.000000	0.366787
715.000000	0.367279
716.000000	0.367793
717.000000	0.368201
718.000000	0.368666
719.000000	0.369107
720.000000	0.369482
721.000000	0.369982
722.000000	0.370405
723.000000	0.370772
724.000000	0.371191
725.000000	0.371639
726.000000	0.372152
727.000000	0.372585
728.000000	0.373059
729.000000	0.373515
730.000000	0.373852
731.000000	0.374254
732.000000	0.374633
733.000000	0.375002
734.000000	0.375354
735.000000	0.375701
736.000000	0.376116
737.000000	0.376388
738.000000	0.376627
739.000000	0.376969
740.000000	0.377295
741.000000	0.377691
742.000000	0.378036
743.000000	0.378313
744.000000	0.378734
745.000000	0.378974
746.000000	0.379160
747.000000	0.379434
748.000000	0.379807
749.000000	0.380145
750.000000	0.380344
751.000000	0.380586
752.000000	0.380823
753.000000	0.381043
754.000000	0.381222
755.000000	0.381406
756.000000	0.381617
757.000000	0.381802
758.000000	0.381969
759.000000	0.382115
760.000000	0.382177
761.000000	0.382322
762.000000	0.382426
763.000000	0.382476
764.000000	0.382614
765.000000	0.382691
766.000000	0.382725
767.000000	0.382763
768.000000	0.382883
769.000000	0.382976
770.000000	0.382996
771.000000	0.382964
772.000000	0.383012
773.000000	0.383007
774.000000	0.382894
775.000000	0.382835
776.000000	0.382826
777.000000	0.382820
778.000000	0.382809
779.000000	0.382828
780.000000	0.382828
781.000000	0.382656
782.000000	0.382508
783.000000	0.382431
784.000000	0.382233
785.000000	0.382142
786.000000	0.382013
787.000000	0.381786
788.000000	0.381621
789.000000	0.381544
790.000000	0.381464
791.000000	0.381286
792.000000	0.381139
793.000000	0.380975
794.000000	0.380747
795.000000	0.380454
796.000000	0.380270
797.000000	0.380187
798.000000	0.380012
799.000000	0.379787
800.000000	0.379552
801.000000	0.379360
802.000000	0.379242
803.000000	0.379077
804.000000	0.378853
805.000000	0.378621
806.000000	0.378344
807.000000	0.378102
808.000000	0.377834
809.000000	0.377545
810.000000	0.377248
811.000000	0.376936
812.000000	0.376609
813.000000	0.376342
814.000000	0.376130
815.000000	0.375924
816.000000	0.375589
817.000000	0.375221
818.000000	0.374871
819.000000	0.374709
820.000000	0.374539
821.000000	0.374218
822.000000	0.373870
823.000000	0.373653
824.000000	0.373440
825.000000	0.373163
826.000000	0.372896
827.000000	0.372616
828.000000	0.372353
829.000000	0.372078
830.000000	0.371757
831.000000	0.371457
832.000000	0.371106
833.000000	0.370873
834.000000	0.370663
835.000000	0.370423
836.000000	0.370194
837.000000	0.369906
838.000000	0.369584
839.000000	0.369269
840.000000	0.368861
841.000000	0.368438
842.000000	0.368060
843.000000	0.367826
844.000000	0.367586
845.000000	0.367286
846.000000	0.367074
847.000000	0.366732
848.000000	0.366377
849.000000	0.366195
850.000000	0.365951
851.000000	0.365714
852.000000	0.365539
853.000000	0.365316
854.000000	0.364987
855.000000	0.364704
856.000000	0.364436
857.000000	0.364136
858.000000	0.363856
859.000000	0.363564
860.000000	0.363384
861.000000	0.363162
862.000000	0.362859
863.000000	0.362431
864.000000	0.362234
865.000000	0.362079
866.000000	0.361856
867.000000	0.361579
868.000000	0.361328
869.000000	0.361036
870.000000	0.360726
871.000000	0.360462
872.000000	0.360288
873.000000	0.360106
874.000000	0.359806
875.000000	0.359426
876.000000	0.359124
877.000000	0.358981
878.000000	0.358661
879.000000	0.358368
880.000000	0.358079
881.000000	0.357800
882.000000	0.357543
883.000000	0.357342
884.000000	0.357151
885.000000	0.356993
886.000000	0.356797
887.000000	0.356566
888.000000	0.356327
889.000000	0.356177
890.000000	0.355933
891.000000	0.355617
892.000000	0.355451
893.000000	0.355282
894.000000	0.355118
895.000000	0.354814
896.000000	0.354642
897.000000	0.354509
898.000000	0.354242
899.000000	0.354065
900.000000	0.353942
901.000000	0.353804
902.000000	0.353725
903.000000	0.353403
904.000000	0.353040
905.000000	0.352798
906.000000	0.352622
907.000000	0.352480
908.000000	0.352378
909.000000	0.352163
910.000000	0.352099
911.000000	0.352037
912.000000	0.351833
913.000000	0.351607
914.000000	0.351391
915.000000	0.351227
916.000000	0.350975
917.000000	0.350789
918.000000	0.350688
919.000000	0.350595
920.000000	0.350322
921.000000	0.350166
922.000000	0.350105
923.000000	0.349931
924.000000	0.349738
925.000000	0.349573
926.000000	0.349477
927.000000	0.349361
928.000000	0.349129
929.000000	0.348915
930.000000	0.348881
931.000000	0.348804
932.000000	0.348740
933.000000	0.348728
934.000000	0.348650
935.000000	0.348408
936.000000	0.348246
937.000000	0.348208
938.000000	0.348007
939.000000	0.347802
940.000000	0.347588
941.000000	0.347455
942.000000	0.347326
943.000000	0.347331
944.000000	0.347369
945.000000	0.347385
946.000000	0.347298
947.000000	0.347223
948.000000	0.347205
949.000000	0.347064
950.000000	0.346997
951.000000	0.346913
952.000000	0.346602
953.000000	0.346496
954.000000	0.346406
955.000000	0.346161
956.000000	0.346328
957.000000	0.346312
958.000000	0.346072
959.000000	0.345939
960.000000	0.345843
961.000000	0.345817
962.000000	0.345766
963.000000	0.345524
964.000000	0.345579
965.000000	0.345720
966.000000	0.345576
967.000000	0.345405
968.000000	0.345270
969.000000	0.345202
970.000000	0.345290
971.000000	0.345000
972.000000	0.345012
973.000000	0.345348
974.000000	0.345349
975.000000	0.345269
976.000000	0.345242
977.000000	0.345254
978.000000	0.344909
979.000000	0.345033
980.000000	0.345294
981.000000	0.345431
982.000000	0.345376
983.000000	0.345246
984.000000	0.345220
985.000000	0.345326
986.000000	0.345466
987.000000	0.345467
988.000000	0.345263
989.000000	0.345583
990.000000	0.345513
991.000000	0.345524
992.000000	0.346203
993.000000	0.345969
994.000000	0.345772
995.000000	0.345894
996.000000	0.345683
997.000000	0.346105
998.000000	0.346435
999.000000	0.346456
1000.000000	0.346690
1001.000000	0.346117
1002.000000	0.346647
1003.000000	0.346817
1004.000000	0.347222
1005.000000	0.348668
1006.000000	0.348845
1007.000000	0.348175
1008.000000	0.348045
1009.000000	0.348406
1010.000000	0.348056
1011.000000	0.348480
1012.000000	0.349703
1013.000000	0.349233
1014.000000	0.348709
1015.000000	0.349184
1016.000000	0.348808
1017.000000	0.348640
1018.000000	0.349716
1019.000000	0.350122
1020.000000	0.349936
1021.000000	0.349711
1022.000000	0.349915
1023.000000	0.350042
1024.000000	0.349303
1025.000000	0.349966
1026.000000	0.351239
1027.000000	0.351348
1028.000000	0.351735
1029.000000	0.351984
1030.000000	0.351355
1031.000000	0.351513
1032.000000	0.352042
1033.000000	0.351797
1034.000000	0.352047
1035.000000	0.352625
1036.000000	0.352915
1037.000000	0.353391
1038.000000	0.353705
1039.000000	0.354108
1040.000000	0.353958
1041.000000	0.354213
1042.000000	0.354463
1043.000000	0.354017
1044.000000	0.354144
1045.000000	0.354894
1046.000000	0.355026
1047.000000	0.355638
1048.000000	0.357118
1049.000000	0.357664
1050.000000	0.357883
1051.000000	0.358078
1052.000000	0.357643
1053.000000	0.357753
1054.000000	0.358261
1055.000000	0.358645
1056.000000	0.359167
1057.000000	0.359929
1058.000000	0.360654
1059.000000	0.360929
1060.000000	0.361210
1061.000000	0.361788
1062.000000	0.362225
1063.000000	0.362627
1064.000000	0.363090
1065.000000	0.363816
1066.000000	0.364187
1067.000000	0.364065
1068.000000	0.364378
1069.000000	0.364741
1070.000000	0.365122
1071.000000	0.365846
1072.000000	0.366488
1073.000000	0.367368
1074.000000	0.367793
1075.000000	0.367836
1076.000000	0.367861
1077.000000	0.367968
1078.000000	0.368232
1079.000000	0.368563
1080.000000	0.369513
1081.000000	0.369911
1082.000000	0.369884
1083.000000	0.370335
1084.000000	0.371104
1085.000000	0.371649
1086.000000	0.372239
1087.000000	0.372836
1088.000000	0.373174
1089.000000	0.373577
1090.000000	0.374102
1091.000000	0.374510
1092.000000	0.374860
1093.000000	0.375323
1094.000000	0.375629
1095.000000	0.375720
1096.000000	0.376186
1097.000000	0.376854
1098.000000	0.377209
1099.000000	0.377427
1100.000000	0.377989
1101.000000	0.378286
1102.000000	0.378883
1103.000000	0.380225
1104.000000	0.380979
1105.000000	0.381321
1106.000000	0.381835
1107.000000	0.382205
1108.000000	0.382553
1109.000000	0.382842
1110.000000	0.383483
1111.000000	0.383978
1112.000000	0.384334
1113.000000	0.384950
1114.000000	0.385947
1115.000000	0.386405
1116.000000	0.386709
1117.000000	0.387040
1118.000000	0.387004
1119.000000	0.387172
1120.000000	0.387453
1121.000000	0.387803
1122.000000	0.388396
1123.000000	0.388985
1124.000000	0.389384
1125.000000	0.389816
1126.000000	0.390082
1127.000000	0.390283
1128.000000	0.390453
1129.000000	0.390587
1130.000000	0.391005
1131.000000	0.391590
1132.000000	0.391853
1133.000000	0.392231
1134.000000	0.392613
1135.000000	0.392719
1136.000000	0.392866
1137.000000	0.393079
1138.000000	0.393332
1139.000000	0.393584
1140.000000	0.393929
1141.000000	0.394407
1142.000000	0.394850
1143.000000	0.395141
1144.000000	0.395570
1145.000000	0.395863
1146.000000	0.396151
1147.000000	0.396458
1148.000000	0.396581
1149.000000	0.396879
1150.000000	0.397362
1151.000000	0.397672
1152.000000	0.397871
1153.000000	0.398129
1154.000000	0.398292
1155.000000	0.398449
1156.000000	0.398618
1157.000000	0.398806
1158.000000	0.398854
1159.000000	0.399030
1160.000000	0.399283
1161.000000	0.399544
1162.000000	0.400019
1163.000000	0.400434
1164.000000	0.400826
1165.000000	0.401075
1166.000000	0.401289
1167.000000	0.401284
1168.000000	0.401492
1169.000000	0.401784
1170.000000	0.402064
1171.000000	0.402547
1172.000000	0.402848
1173.000000	0.402954
1174.000000	0.403144
1175.000000	0.403280
1176.000000	0.403395
1177.000000	0.403588
1178.000000	0.403807
1179.000000	0.404091
1180.000000	0.404214
1181.000000	0.404409
1182.000000	0.404512
1183.000000	0.404693
1184.000000	0.404910
1185.000000	0.405144
1186.000000	0.405511
1187.000000	0.405720
1188.000000	0.405878
1189.000000	0.405957
1190.000000	0.406061
1191.000000	0.406090
1192.000000	0.406006
1193.000000	0.406253
1194.000000	0.406531
1195.000000	0.406718
1196.000000	0.406981
1197.000000	0.407181
1198.000000	0.407212
1199.000000	0.407345
1200.000000	0.407486
1201.000000	0.407758
1202.000000	0.408060
1203.000000	0.408355
1204.000000	0.408541
1205.000000	0.408610
1206.000000	0.408655
1207.000000	0.408601
1208.000000	0.408699
1209.000000	0.409008
1210.000000	0.409186
1211.000000	0.409380
1212.000000	0.409491
1213.000000	0.409548
1214.000000	0.409680
1215.000000	0.409776
1216.000000	0.409904
1217.000000	0.410029
1218.000000	0.410129
1219.000000	0.410261
1220.000000	0.410440
1221.000000	0.410479
1222.000000	0.410696
1223.000000	0.410884
1224.000000	0.410919
1225.000000	0.411099
1226.000000	0.411285
1227.000000	0.411237
1228.000000	0.411368
1229.000000	0.411473
1230.000000	0.411548
1231.000000	0.411542
1232.000000	0.411706
1233.000000	0.411887
1234.000000	0.411929
1235.000000	0.412053
1236.000000	0.412183
1237.000000	0.412389
1238.000000	0.412639
1239.000000	0.412732
1240.000000	0.412726
1241.000000	0.412834
1242.000000	0.412902
1243.000000	0.412883
1244.000000	0.412986
1245.000000	0.413248
1246.000000	0.413472
1247.000000	0.413582
1248.000000	0.413787
1249.000000	0.413935
1250.000000	0.413815
1251.000000	0.413868
1252.000000	0.413908
1253.000000	0.413972
1254.000000	0.414024
1255.000000	0.414129
1256.000000	0.414182
1257.000000	0.414251
1258.000000	0.414357
1259.000000	0.414388
1260.000000	0.414450
1261.000000	0.414412
1262.000000	0.414419
1263.000000	0.414389
1264.000000	0.414502
1265.000000	0.414816
1266.000000	0.414990
1267.000000	0.415038
1268.000000	0.415023
1269.000000	0.414863
1270.000000	0.414841
1271.000000	0.414891
1272.000000	0.415011
1273.000000	0.415074
1274.000000	0.415138
1275.000000	0.415155
1276.000000	0.415159
1277.000000	0.415240
1278.000000	0.415176
1279.000000	0.415190
1280.000000	0.415262
1281.000000	0.415219
1282.000000	0.415156
1283.000000	0.415259
1284.000000	0.415300
1285.000000	0.415325
1286.000000	0.415362
1287.000000	0.415479
1288.000000	0.415537
1289.000000	0.415532
1290.000000	0.415650
1291.000000	0.415697
1292.000000	0.415683
1293.000000	0.415746
1294.000000	0.415676
1295.000000	0.415703
1296.000000	0.415759
1297.000000	0.415674
1298.000000	0.415845
1299.000000	0.415944
1300.000000	0.415892
1301.000000	0.416016
1302.000000	0.415946
1303.000000	0.415798
1304.000000	0.415695
1305.000000	0.415737
1306.000000	0.415690
1307.000000	0.415800
1308.000000	0.415800
1309.000000	0.415525
1310.000000	0.415450
1311.000000	0.415508
1312.000000	0.415423
1313.000000	0.415391
1314.000000	0.415545
1315.000000	0.415322
1316.000000	0.415106
1317.000000	0.415074
1318.000000	0.414926
1319.000000	0.414761
1320.000000	0.414703
1321.000000	0.414542
1322.000000	0.414253
1323.000000	0.414099
1324.000000	0.414085
1325.000000	0.413916
1326.000000	0.413691
1327.000000	0.413520
1328.000000	0.413367
1329.000000	0.413129
1330.000000	0.412855
1331.000000	0.412729
1332.000000	0.412773
1333.000000	0.412599
1334.000000	0.412445
1335.000000	0.412374
1336.000000	0.412232
1337.000000	0.411985
1338.000000	0.411689
1339.000000	0.411442
1340.000000	0.411075
1341.000000	0.410852
1342.000000	0.410683
1343.000000	0.410525
1344.000000	0.410301
1345.000000	0.409915
1346.000000	0.409844
1347.000000	0.409751
1348.000000	0.409525
1349.000000	0.409256
1350.000000	0.409012
1351.000000	0.408710
1352.000000	0.408447
1353.000000	0.408262
1354.000000	0.408077
1355.000000	0.407813
1356.000000	0.407625
1357.000000	0.407547
1358.000000	0.407441
1359.000000	0.407185
1360.000000	0.406979
1361.000000	0.406846
1362.000000	0.406607
1363.000000	0.406256
1364.000000	0.406024
1365.000000	0.405764
1366.000000	0.405553
1367.000000	0.405397
1368.000000	0.405234
1369.000000	0.405127
1370.000000	0.404687
1371.000000	0.404103
1372.000000	0.403642
1373.000000	0.403141
1374.000000	0.402648
1375.000000	0.402291
1376.000000	0.401875
1377.000000	0.401221
1378.000000	0.400642
1379.000000	0.399960
1380.000000	0.399277
1381.000000	0.398706
1382.000000	0.397986
1383.000000	0.397272
1384.000000	0.396451
1385.000000	0.395552
1386.000000	0.394655
1387.000000	0.393753
1388.000000	0.392703
1389.000000	0.391382
1390.000000	0.390226
1391.000000	0.388984
1392.000000	0.387527
1393.000000	0.386043
1394.000000	0.384560
1395.000000	0.383135
1396.000000	0.381697
1397.000000	0.380123
1398.000000	0.378543
1399.000000	0.376950
1400.000000	0.375132
1401.000000	0.373445
1402.000000	0.371963
1403.000000	0.370300
1404.000000	0.368578
1405.000000	0.366956
1406.000000	0.365351
1407.000000	0.363784
1408.000000	0.362241
1409.000000	0.360636
1410.000000	0.359011
1411.000000	0.357407
1412.000000	0.355864
1413.000000	0.354543
1414.000000	0.353362
1415.000000	0.352271
1416.000000	0.351225
1417.000000	0.350269
1418.000000	0.349334
1419.000000	0.348571
1420.000000	0.347849
1421.000000	0.347113
1422.000000	0.346414
1423.000000	0.345685
1424.000000	0.344758
1425.000000	0.343963
1426.000000	0.342995
1427.000000	0.341890
1428.000000	0.340922
1429.000000	0.339789
1430.000000	0.338705
1431.000000	0.337933
1432.000000	0.337214
1433.000000	0.336634
1434.000000	0.336156
1435.000000	0.335856
1436.000000	0.335647
1437.000000	0.335583
1438.000000	0.335583
1439.000000	0.335716
1440.000000	0.335950
1441.000000	0.336268
1442.000000	0.336732
1443.000000	0.337282
1444.000000	0.337970
1445.000000	0.338556
1446.000000	0.338981
1447.000000	0.339407
1448.000000	0.339648
1449.000000	0.339922
1450.000000	0.340285
1451.000000	0.340438
1452.000000	0.340496
1453.000000	0.340590
1454.000000	0.340570
1455.000000	0.340539
1456.000000	0.340643
1457.000000	0.340631
1458.000000	0.340460
1459.000000	0.340315
1460.000000	0.340070
1461.000000	0.339828
1462.000000	0.339792
1463.000000	0.339683
1464.000000	0.339627
1465.000000	0.339652
1466.000000	0.339485
1467.000000	0.339460
1468.000000	0.339526
1469.000000	0.339673
1470.000000	0.339862
1471.000000	0.339991
1472.000000	0.340224
1473.000000	0.340571
1474.000000	0.340863
1475.000000	0.341302
1476.000000	0.341758
1477.000000	0.342156
1478.000000	0.342682
1479.000000	0.343176
1480.000000	0.343612
1481.000000	0.344063
1482.000000	0.344520
1483.000000	0.345024
1484.000000	0.345591
1485.000000	0.346139
1486.000000	0.346757
1487.000000	0.347295
1488.000000	0.347731
1489.000000	0.348280
1490.000000	0.348680
1491.000000	0.349156
1492.000000	0.349751
1493.000000	0.350276
1494.000000	0.350671
1495.000000	0.351158
1496.000000	0.351684
1497.000000	0.352136
1498.000000	0.352584
1499.000000	0.353109
1500.000000	0.353546
1501.000000	0.353983
1502.000000	0.354444
1503.000000	0.354889
1504.000000	0.355342
1505.000000	0.355684
1506.000000	0.356090
1507.000000	0.356475
1508.000000	0.356852
1509.000000	0.357271
1510.000000	0.357515
1511.000000	0.357825
1512.000000	0.358094
1513.000000	0.358233
1514.000000	0.358522
1515.000000	0.358760
1516.000000	0.359048
1517.000000	0.359418
1518.000000	0.359781
1519.000000	0.360106
1520.000000	0.360298
1521.000000	0.360442
1522.000000	0.360661
1523.000000	0.360833
1524.000000	0.361066
1525.000000	0.361405
1526.000000	0.361580
1527.000000	0.361736
1528.000000	0.361926
1529.000000	0.362025
1530.000000	0.362053
1531.000000	0.362187
1532.000000	0.362529
1533.000000	0.362784
1534.000000	0.362966
1535.000000	0.363221
1536.000000	0.363220
1537.000000	0.363287
1538.000000	0.363447
1539.000000	0.363468
1540.000000	0.363564
1541.000000	0.363713
1542.000000	0.363844
1543.000000	0.364053
1544.000000	0.364179
1545.000000	0.364230
1546.000000	0.364486
1547.000000	0.364809
1548.000000	0.364958
1549.000000	0.365082
1550.000000	0.365137
1551.000000	0.365088
1552.000000	0.365263
1553.000000	0.365458
1554.000000	0.365528
1555.000000	0.365677
1556.000000	0.365779
1557.000000	0.365829
1558.000000	0.365897
1559.000000	0.365891
1560.000000	0.365882
1561.000000	0.365917
1562.000000	0.365946
1563.000000	0.365963
1564.000000	0.366024
1565.000000	0.366170
1566.000000	0.366084
1567.000000	0.366016
1568.000000	0.366029
1569.000000	0.366018
1570.000000	0.366010
1571.000000	0.366134
1572.000000	0.366092
1573.000000	0.365890
1574.000000	0.365869
1575.000000	0.365882
1576.000000	0.365917
1577.000000	0.366089
1578.000000	0.366082
1579.000000	0.366053
1580.000000	0.366025
1581.000000	0.365970
1582.000000	0.365965
1583.000000	0.365981
1584.000000	0.365994
1585.000000	0.366104
1586.000000	0.366250
1587.000000	0.366474
1588.000000	0.366524
1589.000000	0.366578
1590.000000	0.366564
1591.000000	0.366359
1592.000000	0.366373
1593.000000	0.366579
1594.000000	0.366589
1595.000000	0.366625
1596.000000	0.366610
1597.000000	0.366481
1598.000000	0.366422
1599.000000	0.366469
1600.000000	0.366465
1601.000000	0.366473
1602.000000	0.366547
1603.000000	0.366719
1604.000000	0.366836
1605.000000	0.367027
1606.000000	0.367141
1607.000000	0.367259
1608.000000	0.367338
1609.000000	0.367401
1610.000000	0.367509
1611.000000	0.367641
1612.000000	0.367802
1613.000000	0.368195
1614.000000	0.368331
1615.000000	0.368419
1616.000000	0.368551
1617.000000	0.368502
1618.000000	0.368557
1619.000000	0.368685
1620.000000	0.368762
1621.000000	0.368789
1622.000000	0.369004
1623.000000	0.369329
1624.000000	0.369494
1625.000000	0.369529
1626.000000	0.369550
1627.000000	0.369429
1628.000000	0.369560
1629.000000	0.369802
1630.000000	0.370024
1631.000000	0.370288
1632.000000	0.370448
1633.000000	0.370564
1634.000000	0.370782
1635.000000	0.371077
1636.000000	0.371254
1637.000000	0.371496
1638.000000	0.371576
1639.000000	0.371547
1640.000000	0.371580
1641.000000	0.371630
1642.000000	0.371720
1643.000000	0.371844
1644.000000	0.372073
1645.000000	0.372398
1646.000000	0.372571
1647.000000	0.372816
1648.000000	0.372995
1649.000000	0.373137
1650.000000	0.373385
1651.000000	0.373826
1652.000000	0.374036
1653.000000	0.374050
1654.000000	0.374248
1655.000000	0.374342
1656.000000	0.374378
1657.000000	0.374620
1658.000000	0.374677
1659.000000	0.374629
1660.000000	0.374771
1661.000000	0.374884
1662.000000	0.375044
1663.000000	0.375266
1664.000000	0.375433
1665.000000	0.375551
1666.000000	0.375809
1667.000000	0.376031
1668.000000	0.376274
1669.000000	0.376602
1670.000000	0.376692
1671.000000	0.376756
1672.000000	0.376985
1673.000000	0.377142
1674.000000	0.377415
1675.000000	0.377691
1676.000000	0.377870
1677.000000	0.378029
1678.000000	0.378078
1679.000000	0.378165
1680.000000	0.378233
1681.000000	0.378297
1682.000000	0.378486
1683.000000	0.378594
1684.000000	0.378553
1685.000000	0.378530
1686.000000	0.378572
1687.000000	0.378754
1688.000000	0.378788
1689.000000	0.378885
1690.000000	0.379066
1691.000000	0.379102
1692.000000	0.379093
1693.000000	0.379182
1694.000000	0.379093
1695.000000	0.379116
1696.000000	0.379354
1697.000000	0.379449
1698.000000	0.379596
1699.000000	0.379746
1700.000000	0.379907
1701.000000	0.380075
1702.000000	0.379977
1703.000000	0.379909
1704.000000	0.379844
1705.000000	0.379865
1706.000000	0.380098
1707.000000	0.380210
1708.000000	0.380229
1709.000000	0.380261
1710.000000	0.380332
1711.000000	0.380447
1712.000000	0.380758
1713.000000	0.380827
1714.000000	0.380783
1715.000000	0.380822
1716.000000	0.380786
1717.000000	0.380806
1718.000000	0.380913
1719.000000	0.380902
1720.000000	0.380830
1721.000000	0.380844
1722.000000	0.380820
1723.000000	0.380937
1724.000000	0.381311
1725.000000	0.381453
1726.000000	0.381462
1727.000000	0.381456
1728.000000	0.381202
1729.000000	0.381031
1730.000000	0.381009
1731.000000	0.381065
1732.000000	0.381233
1733.000000	0.381313
1734.000000	0.381231
1735.000000	0.381350
1736.000000	0.381372
1737.000000	0.381576
1738.000000	0.382135
1739.000000	0.382334
1740.000000	0.382375
1741.000000	0.382447
1742.000000	0.382416
1743.000000	0.382524
1744.000000	0.382697
1745.000000	0.382716
1746.000000	0.382658
1747.000000	0.382765
1748.000000	0.382759
1749.000000	0.382885
1750.000000	0.382856
1751.000000	0.382681
1752.000000	0.382768
1753.000000	0.382796
1754.000000	0.382845
1755.000000	0.383022
1756.000000	0.383082
1757.000000	0.383047
1758.000000	0.383057
1759.000000	0.383000
1760.000000	0.383008
1761.000000	0.382997
1762.000000	0.383022
1763.000000	0.383131
1764.000000	0.383232
1765.000000	0.383367
1766.000000	0.383414
1767.000000	0.383354
1768.000000	0.383208
1769.000000	0.382975
1770.000000	0.382981
1771.000000	0.382998
1772.000000	0.383044
1773.000000	0.383234
1774.000000	0.383259
1775.000000	0.383219
1776.000000	0.383296
1777.000000	0.383309
1778.000000	0.383401
1779.000000	0.383635
1780.000000	0.383686
1781.000000	0.383640
1782.000000	0.383616
1783.000000	0.383514
1784.000000	0.383630
1785.000000	0.383758
1786.000000	0.383955
1787.000000	0.384351
1788.000000	0.384624
1789.000000	0.384614
1790.000000	0.384752
1791.000000	0.384710
1792.000000	0.384569
1793.000000	0.384592
1794.000000	0.384567
1795.000000	0.384676
1796.000000	0.385105
1797.000000	0.385336
1798.000000	0.385487
1799.000000	0.385545
1800.000000	0.385425
1801.000000	0.385228
1802.000000	0.385664
1803.000000	0.385566
1804.000000	0.385622
1805.000000	0.385686
1806.000000	0.385389
1807.000000	0.384678
1808.000000	0.384227
1809.000000	0.383425
1810.000000	0.382655
1811.000000	0.382760
1812.000000	0.383608
1813.000000	0.384137
1814.000000	0.385722
1815.000000	0.385896
1816.000000	0.384827
1817.000000	0.384482
1818.000000	0.383633
1819.000000	0.383703
1820.000000	0.383946
1821.000000	0.384389
1822.000000	0.384595
1823.000000	0.384443
1824.000000	0.384213
1825.000000	0.383952
1826.000000	0.383922
1827.000000	0.383399
1828.000000	0.383472
1829.000000	0.384014
1830.000000	0.383894
1831.000000	0.384120
1832.000000	0.384764
1833.000000	0.384430
1834.000000	0.383700
1835.000000	0.383227
1836.000000	0.381492
1837.000000	0.381158
1838.000000	0.381987
1839.000000	0.382114
1840.000000	0.382306
1841.000000	0.382346
1842.000000	0.382219
1843.000000	0.381399
1844.000000	0.380924
1845.000000	0.380667
1846.000000	0.380342
1847.000000	0.379599
1848.000000	0.379125
1849.000000	0.378839
1850.000000	0.377952
1851.000000	0.377416
1852.000000	0.376807
1853.000000	0.376477
1854.000000	0.376352
1855.000000	0.375718
1856.000000	0.374861
1857.000000	0.373851
1858.000000	0.372990
1859.000000	0.372227
1860.000000	0.371064
1861.000000	0.370355
1862.000000	0.369450
1863.000000	0.368112
1864.000000	0.367140
1865.000000	0.366943
1866.000000	0.365855
1867.000000	0.364392
1868.000000	0.362915
1869.000000	0.360600
1870.000000	0.357477
1871.000000	0.354799
1872.000000	0.352498
1873.000000	0.350429
1874.000000	0.349230
1875.000000	0.347290
1876.000000	0.345004
1877.000000	0.342334
1878.000000	0.339348
1879.000000	0.336266
1880.000000	0.333583
1881.000000	0.330182
1882.000000	0.326323
1883.000000	0.322509
1884.000000	0.318658
1885.000000	0.314230
1886.000000	0.309993
1887.000000	0.305801
1888.000000	0.301480
1889.000000	0.297144
1890.000000	0.293037
1891.000000	0.289031
1892.000000	0.284844
1893.000000	0.279892
1894.000000	0.274350
1895.000000	0.269048
1896.000000	0.263586
1897.000000	0.258329
1898.000000	0.253049
1899.000000	0.248576
1900.000000	0.244549
1901.000000	0.239830
1902.000000	0.235731
1903.000000	0.231742
1904.000000	0.227825
1905.000000	0.224873
1906.000000	0.221773
1907.000000	0.218821
1908.000000	0.216678
1909.000000	0.214633
1910.000000	0.212278
1911.000000	0.210596
1912.000000	0.208557
1913.000000	0.206728
1914.000000	0.205109
1915.000000	0.203579
1916.000000	0.203079
1917.000000	0.202294
1918.000000	0.201739
1919.000000	0.201188
1920.000000	0.200992
1921.000000	0.199990
1922.000000	0.199142
1923.000000	0.198651
1924.000000	0.197828
1925.000000	0.197340
1926.000000	0.196999
1927.000000	0.196819
1928.000000	0.196779
1929.000000	0.196868
1930.000000	0.197167
1931.000000	0.197622
1932.000000	0.198514
1933.000000	0.199344
1934.000000	0.199952
1935.000000	0.200747
1936.000000	0.200795
1937.000000	0.200991
1938.000000	0.201524
1939.000000	0.201753
1940.000000	0.201810
1941.000000	0.202203
1942.000000	0.202497
1943.000000	0.202172
1944.000000	0.202297
1945.000000	0.202550
1946.000000	0.202073
1947.000000	0.201959
1948.000000	0.202040
1949.000000	0.201522
1950.000000	0.201354
1951.000000	0.201293
1952.000000	0.201581
1953.000000	0.201127
1954.000000	0.200693
1955.000000	0.200663
1956.000000	0.200206
1957.000000	0.199577
1958.000000	0.199464
1959.000000	0.199445
1960.000000	0.199743
1961.000000	0.200100
1962.000000	0.200180
1963.000000	0.200347
1964.000000	0.200470
1965.000000	0.199642
1966.000000	0.199467
1967.000000	0.199992
1968.000000	0.200019
1969.000000	0.200453
1970.000000	0.200820
1971.000000	0.201008
1972.000000	0.201243
1973.000000	0.201404
1974.000000	0.201938
1975.000000	0.202046
1976.000000	0.201676
1977.000000	0.201747
1978.000000	0.202204
1979.000000	0.202279
1980.000000	0.202754
1981.000000	0.203555
1982.000000	0.203874
1983.000000	0.204686
1984.000000	0.205289
1985.000000	0.205883
1986.000000	0.206358
1987.000000	0.206808
1988.000000	0.207185
1989.000000	0.207842
1990.000000	0.208628
1991.000000	0.209091
1992.000000	0.209921
1993.000000	0.210399
1994.000000	0.211044
1995.000000	0.212105
1996.000000	0.212906
1997.000000	0.214048
1998.000000	0.215792
1999.000000	0.217047
2000.000000	0.218291
2001.000000	0.219447
2002.000000	0.220137
2003.000000	0.220660
2004.000000	0.221401
2005.000000	0.222254
2006.000000	0.223221
2007.000000	0.224305
2008.000000	0.225430
2009.000000	0.226621
2010.000000	0.227675
2011.000000	0.228598
2012.000000	0.229629
2013.000000	0.230557
2014.000000	0.231597
2015.000000	0.232495
2016.000000	0.233624
2017.000000	0.234176
2018.000000	0.234935
2019.000000	0.236502
2020.000000	0.237460
2021.000000	0.238435
2022.000000	0.239518
2023.000000	0.240505
2024.000000	0.241209
2025.000000	0.242194
2026.000000	0.243209
2027.000000	0.244399
2028.000000	0.245590
2029.000000	0.246436
2030.000000	0.247664
2031.000000	0.248924
2032.000000	0.249846
2033.000000	0.250825
2034.000000	0.251574
2035.000000	0.251901
2036.000000	0.252623
2037.000000	0.253486
2038.000000	0.254634
2039.000000	0.256164
2040.000000	0.257816
2041.000000	0.259414
2042.000000	0.260780
2043.000000	0.261771
2044.000000	0.262527
2045.000000	0.263221
2046.000000	0.263688
2047.000000	0.264142
2048.000000	0.264426
2049.000000	0.264965
2050.000000	0.264914
2051.000000	0.265393
2052.000000	0.266226
2053.000000	0.267091
2054.000000	0.268356
2055.000000	0.269765
2056.000000	0.271483
2057.000000	0.272298
2058.000000	0.273120
2059.000000	0.274223
2060.000000	0.274959
2061.000000	0.275636
2062.000000	0.276100
2063.000000	0.276219
2064.000000	0.276438
2065.000000	0.276288
2066.000000	0.276592
2067.000000	0.277417
2068.000000	0.278531
2069.000000	0.279538
2070.000000	0.280996
2071.000000	0.282151
2072.000000	0.283346
2073.000000	0.284242
2074.000000	0.285081
2075.000000	0.285915
2076.000000	0.286514
2077.000000	0.287137
2078.000000	0.288074
2079.000000	0.288475
2080.000000	0.288167
2081.000000	0.288519
2082.000000	0.288783
2083.000000	0.289464
2084.000000	0.290751
2085.000000	0.292157
2086.000000	0.292787
2087.000000	0.292886
2088.000000	0.293642
2089.000000	0.294287
2090.000000	0.295279
2091.000000	0.297565
2092.000000	0.298643
2093.000000	0.299112
2094.000000	0.299767
2095.000000	0.299813
2096.000000	0.300199
2097.000000	0.300771
2098.000000	0.301258
2099.000000	0.301417
2100.000000	0.302377
2101.000000	0.303163
2102.000000	0.303675
2103.000000	0.304577
2104.000000	0.304768
2105.000000	0.304910
2106.000000	0.304433
2107.000000	0.304845
2108.000000	0.305480
2109.000000	0.306285
2110.000000	0.307852
2111.000000	0.308470
2112.000000	0.308740
2113.000000	0.308062
2114.000000	0.308104
2115.000000	0.308797
2116.000000	0.309281
2117.000000	0.310271
2118.000000	0.310627
2119.000000	0.310554
2120.000000	0.310951
2121.000000	0.311624
2122.000000	0.312173
2123.000000	0.312905
2124.000000	0.313405
2125.000000	0.313587
2126.000000	0.313902
2127.000000	0.314557
2128.000000	0.314821
2129.000000	0.314556
2130.000000	0.314885
2131.000000	0.314963
2132.000000	0.314597
2133.000000	0.315463
2134.000000	0.316711
2135.000000	0.317334
2136.000000	0.318280
2137.000000	0.318628
2138.000000	0.318354
2139.000000	0.318178
2140.000000	0.317534
2141.000000	0.317292
2142.000000	0.317003
2143.000000	0.316769
2144.000000	0.317193
2145.000000	0.317532
2146.000000	0.318042
2147.000000	0.318611
2148.000000	0.318668
2149.000000	0.317929
2150.000000	0.317619
2151.000000	0.316594
2152.000000	0.316379
2153.000000	0.317268
2154.000000	0.317074
2155.000000	0.316469
2156.000000	0.316644
2157.000000	0.316565
2158.000000	0.316611
2159.000000	0.317722
2160.000000	0.318044
2161.000000	0.317796
2162.000000	0.317910
2163.000000	0.317872
2164.000000	0.317633
2165.000000	0.317451
2166.000000	0.316894
2167.000000	0.316038
2168.000000	0.315624
2169.000000	0.314838
2170.000000	0.313918
2171.000000	0.313791
2172.000000	0.314263
2173.000000	0.314185
2174.000000	0.314228
2175.000000	0.314758
2176.000000	0.315021
2177.000000	0.315917
2178.000000	0.318611
2179.000000	0.319725
2180.000000	0.320015
2181.000000	0.320405
2182.000000	0.320060
2183.000000	0.318536
2184.000000	0.317179
2185.000000	0.316480
2186.000000	0.315619
2187.000000	0.315460
2188.000000	0.316020
2189.000000	0.316487
2190.000000	0.316674
2191.000000	0.316439
2192.000000	0.316455
2193.000000	0.316159
2194.000000	0.316109
2195.000000	0.316613
2196.000000	0.317074
2197.000000	0.317791
2198.000000	0.317807
2199.000000	0.317271
2200.000000	0.317201
2201.000000	0.316790
2202.000000	0.316102
2203.000000	0.315376
2204.000000	0.314634
2205.000000	0.314415
2206.000000	0.316310
2207.000000	0.317281
2208.000000	0.318250
2209.000000	0.316777
2210.000000	0.315188
2211.000000	0.315785
2212.000000	0.316801
2213.000000	0.317949
2214.000000	0.320799
2215.000000	0.321064
2216.000000	0.319463
2217.000000	0.320116
2218.000000	0.321160
2219.000000	0.321156
2220.000000	0.322729
2221.000000	0.322246
2222.000000	0.318709
2223.000000	0.317084
2224.000000	0.315987
2225.000000	0.314501
2226.000000	0.313138
2227.000000	0.313413
2228.000000	0.314117
2229.000000	0.314323
2230.000000	0.314666
2231.000000	0.315231
2232.000000	0.315649
2233.000000	0.315229
2234.000000	0.314449
2235.000000	0.314504
2236.000000	0.314907
2237.000000	0.315468
2238.000000	0.315580
2239.000000	0.316113
2240.000000	0.316225
2241.000000	0.315821
2242.000000	0.315515
2243.000000	0.315154
2244.000000	0.315271
2245.000000	0.314431
2246.000000	0.314930
2247.000000	0.317650
2248.000000	0.319422
2249.000000	0.322436
2250.000000	0.322169
2251.000000	0.323556
2252.000000	0.320357
2253.000000	0.316874
2254.000000	0.316463
2255.000000	0.313070
2256.000000	0.311607
2257.000000	0.310571
2258.000000	0.310084
2259.000000	0.310340
2260.000000	0.310032
2261.000000	0.308687
2262.000000	0.305012
2263.000000	0.304601
2264.000000	0.305161
2265.000000	0.305297
2266.000000	0.308545
2267.000000	0.307974
2268.000000	0.304609
2269.000000	0.302519
2270.000000	0.299125
2271.000000	0.297296
2272.000000	0.296986
2273.000000	0.295724
2274.000000	0.294008
2275.000000	0.292130
2276.000000	0.290476
2277.000000	0.287522
2278.000000	0.282940
2279.000000	0.282027
2280.000000	0.280612
2281.000000	0.279267
2282.000000	0.280610
2283.000000	0.281935
2284.000000	0.280526
2285.000000	0.278353
2286.000000	0.279103
2287.000000	0.277644
2288.000000	0.276909
2289.000000	0.278357
2290.000000	0.276081
2291.000000	0.275466
2292.000000	0.276850
2293.000000	0.277271
2294.000000	0.278459
2295.000000	0.280979
2296.000000	0.281406
2297.000000	0.280785
2298.000000	0.281016
2299.000000	0.281052
2300.000000	0.281388
2301.000000	0.281904
2302.000000	0.282887
2303.000000	0.284729
2304.000000	0.284748
2305.000000	0.284273
2306.000000	0.283436
2307.000000	0.280933
2308.000000	0.278680
2309.000000	0.279127
2310.000000	0.281476
2311.000000	0.284167
2312.000000	0.284108
2313.000000	0.282307
2314.000000	0.280332
2315.000000	0.278030
2316.000000	0.278016
2317.000000	0.278739
2318.000000	0.279894
2319.000000	0.281524
2320.000000	0.282817
2321.000000	0.284156
2322.000000	0.283229
2323.000000	0.281835
2324.000000	0.280680
2325.000000	0.278126
2326.000000	0.278187
2327.000000	0.277838
2328.000000	0.275711
2329.000000	0.274518
2330.000000	0.270650
2331.000000	0.267199
2332.000000	0.265782
2333.000000	0.262972
2334.000000	0.262111
2335.000000	0.261464
2336.000000	0.260714
2337.000000	0.259342
2338.000000	0.257670
2339.000000	0.257239
2340.000000	0.257578
2341.000000	0.257952
2342.000000	0.260248
2343.000000	0.260002
2344.000000	0.257361
2345.000000	0.255610
2346.000000	0.252695
2347.000000	0.251362
2348.000000	0.251084
2349.000000	0.252035
2350.000000	0.249878
2351.000000	0.248349
2352.000000	0.245214
2353.000000	0.241151
2354.000000	0.240197
2355.000000	0.239605
2356.000000	0.241825
2357.000000	0.241662
2358.000000	0.238376
2359.000000	0.241215
2360.000000	0.240478
2361.000000	0.238269
2362.000000	0.240012
2363.000000	0.235893
2364.000000	0.230360
2365.000000	0.227254
2366.000000	0.226134
2367.000000	0.225278
2368.000000	0.224806
2369.000000	0.225642
2370.000000	0.220047
2371.000000	0.217447
2372.000000	0.220784
2373.000000	0.222829
2374.000000	0.226433
2375.000000	0.225179
2376.000000	0.220478
2377.000000	0.215100
2378.000000	0.209382
2379.000000	0.208534
2380.000000	0.204115
2381.000000	0.201067
2382.000000	0.202882
2383.000000	0.201976
2384.000000	0.208014
2385.000000	0.212387
2386.000000	0.210268
2387.000000	0.211308
2388.000000	0.206331
2389.000000	0.199415
2390.000000	0.197718
2391.000000	0.199923
2392.000000	0.203670
2393.000000	0.206588
2394.000000	0.209626
2395.000000	0.205576
2396.000000	0.199506
2397.000000	0.200869
2398.000000	0.202762
2399.000000	0.203507
2400.000000	0.205723
2401.000000	0.203824
2402.000000	0.203705
2403.000000	0.209514
2404.000000	0.208534
2405.000000	0.201721
2406.000000	0.190657
2407.000000	0.179762
2408.000000	0.176273
2409.000000	0.173149
2410.000000	0.175767
2411.000000	0.176126
2412.000000	0.164762
2413.000000	0.165423
2414.000000	0.172331
2415.000000	0.170696
2416.000000	0.179605
2417.000000	0.186199
2418.000000	0.183377
2419.000000	0.182712
2420.000000	0.180523
2421.000000	0.182740
2422.000000	0.181745
2423.000000	0.179788
2424.000000	0.181199
2425.000000	0.177057
2426.000000	0.173158
2427.000000	0.179709
2428.000000	0.190827
2429.000000	0.191529
2430.000000	0.193528
2431.000000	0.193963
2432.000000	0.186814
2433.000000	0.188680
2434.000000	0.189759
2435.000000	0.184460
2436.000000	0.184076
2437.000000	0.193162
2438.000000	0.200518
2439.000000	0.207165
2440.000000	0.204234
2441.000000	0.196711
2442.000000	0.194768
2443.000000	0.184310
2444.000000	0.183595
2445.000000	0.178125
2446.000000	0.161650
2447.000000	0.152747
2448.000000	0.152190
2449.000000	0.156024
2450.000000	0.167228
2451.000000	0.179129
2452.000000	0.180549
2453.000000	0.193163
2454.000000	0.196642
2455.000000	0.203804
2456.000000	0.223828
2457.000000	0.214520
2458.000000	0.204895
2459.000000	0.194215
2460.000000	0.172799
2461.000000	0.162190
2462.000000	0.164594
2463.000000	0.176424
2464.000000	0.180779
2465.000000	0.175284
2466.000000	0.157215
2467.000000	0.128544
2468.000000	0.105248
2469.000000	0.115022
2470.000000	0.125505
2471.000000	0.116708
2472.000000	0.125457
2473.000000	0.116147
2474.000000	0.111466
2475.000000	0.147011
2476.000000	0.167893
2477.000000	0.179486
2478.000000	0.185289
2479.000000	0.165774
2480.000000	0.147229
2481.000000	0.129416
2482.000000	0.128503
2483.000000	0.139778
2484.000000	0.137748
2485.000000	0.138185
2486.000000	0.131460
2487.000000	0.089013
2488.000000	0.071131
2489.000000	0.102758
2490.000000	0.111774
2491.000000	0.146662
2492.000000	0.166965
2493.000000	0.149135
2494.000000	0.176980
2495.000000	0.258015
2496.000000	0.287755
2497.000000	0.299714
2498.000000	0.320138
2499.000000	0.317465
2500.000000	0.327879
