# Wavelength	NAu-1-30_HEX-60_FV7-10_00001.asd.rts.txt
350.000000	0.166245
351.000000	0.165903
352.000000	0.176022
353.000000	0.181986
354.000000	0.178593
355.000000	0.170334
356.000000	0.159248
357.000000	0.154180
358.000000	0.167520
359.000000	0.170499
360.000000	0.168994
361.000000	0.174185
362.000000	0.179657
363.000000	0.176410
364.000000	0.165022
365.000000	0.170646
366.000000	0.180072
367.000000	0.184458
368.000000	0.177680
369.000000	0.174900
370.000000	0.176412
371.000000	0.177407
372.000000	0.172830
373.000000	0.170918
374.000000	0.175872
375.000000	0.176741
376.000000	0.178113
377.000000	0.180314
378.000000	0.179939
379.000000	0.181274
380.000000	0.181622
381.000000	0.178372
382.000000	0.184085
383.000000	0.190326
384.000000	0.190663
385.000000	0.189038
386.000000	0.190582
387.000000	0.194888
388.000000	0.195316
389.000000	0.195921
390.000000	0.197092
391.000000	0.197920
392.000000	0.199289
393.000000	0.199430
394.000000	0.198142
395.000000	0.201601
396.000000	0.204460
397.000000	0.205148
398.000000	0.207022
399.000000	0.208279
400.000000	0.209714
401.000000	0.212801
402.000000	0.214688
403.000000	0.215918
404.000000	0.217523
405.000000	0.219241
406.000000	0.221036
407.000000	0.222774
408.000000	0.223955
409.000000	0.225001
410.000000	0.226036
411.000000	0.226991
412.000000	0.227929
413.000000	0.228740
414.000000	0.229433
415.000000	0.230810
416.000000	0.232218
417.000000	0.233164
418.000000	0.233641
419.000000	0.233678
420.000000	0.233801
421.000000	0.235046
422.000000	0.235802
423.000000	0.236069
424.000000	0.236380
425.000000	0.236246
426.000000	0.236052
427.000000	0.236133
428.000000	0.236495
429.000000	0.236933
430.000000	0.237128
431.000000	0.236420
432.000000	0.236368
433.000000	0.236693
434.000000	0.236409
435.000000	0.236371
436.000000	0.236340
437.000000	0.236040
438.000000	0.236138
439.000000	0.235863
440.000000	0.235123
441.000000	0.234994
442.000000	0.234530
443.000000	0.233743
444.000000	0.233442
445.000000	0.233317
446.000000	0.233720
447.000000	0.234785
448.000000	0.235246
449.000000	0.236021
450.000000	0.237701
451.000000	0.239328
452.000000	0.241309
453.000000	0.243613
454.000000	0.245946
455.000000	0.248549
456.000000	0.251443
457.000000	0.254380
458.000000	0.257262
459.000000	0.260081
460.000000	0.262812
461.000000	0.264932
462.000000	0.267110
463.000000	0.269342
464.000000	0.270873
465.000000	0.272317
466.000000	0.273654
467.000000	0.274636
468.000000	0.275727
469.000000	0.276782
470.000000	0.277712
471.000000	0.278525
472.000000	0.279183
473.000000	0.279779
474.000000	0.280665
475.000000	0.281489
476.000000	0.282283
477.000000	0.283101
478.000000	0.283744
479.000000	0.284398
480.000000	0.285007
481.000000	0.285450
482.000000	0.286234
483.000000	0.287377
484.000000	0.287879
485.000000	0.288271
486.000000	0.288970
487.000000	0.289426
488.000000	0.289968
489.000000	0.290668
490.000000	0.291418
491.000000	0.292174
492.000000	0.292845
493.000000	0.293261
494.000000	0.294066
495.000000	0.294993
496.000000	0.295722
497.000000	0.296226
498.000000	0.296940
499.000000	0.297972
500.000000	0.298838
501.000000	0.299516
502.000000	0.300223
503.000000	0.301184
504.000000	0.302043
505.000000	0.302856
506.000000	0.303742
507.000000	0.304679
508.000000	0.305562
509.000000	0.306347
510.000000	0.307303
511.000000	0.308162
512.000000	0.308948
513.000000	0.309849
514.000000	0.310928
515.000000	0.312010
516.000000	0.312816
517.000000	0.313797
518.000000	0.314841
519.000000	0.315756
520.000000	0.316826
521.000000	0.317999
522.000000	0.319199
523.000000	0.320276
524.000000	0.321274
525.000000	0.322309
526.000000	0.323599
527.000000	0.324757
528.000000	0.325843
529.000000	0.327043
530.000000	0.328146
531.000000	0.329391
532.000000	0.330774
533.000000	0.332069
534.000000	0.333295
535.000000	0.334508
536.000000	0.335882
537.000000	0.337144
538.000000	0.338391
539.000000	0.339817
540.000000	0.341106
541.000000	0.342355
542.000000	0.343709
543.000000	0.344962
544.000000	0.346264
545.000000	0.347614
546.000000	0.349030
547.000000	0.350369
548.000000	0.351664
549.000000	0.352961
550.000000	0.354229
551.000000	0.355499
552.000000	0.356748
553.000000	0.358010
554.000000	0.359269
555.000000	0.360510
556.000000	0.361706
557.000000	0.362820
558.000000	0.364011
559.000000	0.365217
560.000000	0.366351
561.000000	0.367487
562.000000	0.368581
563.000000	0.369670
564.000000	0.370762
565.000000	0.371726
566.000000	0.372728
567.000000	0.373706
568.000000	0.374602
569.000000	0.375512
570.000000	0.376378
571.000000	0.377197
572.000000	0.378046
573.000000	0.378810
574.000000	0.379468
575.000000	0.380115
576.000000	0.380828
577.000000	0.381444
578.000000	0.381954
579.000000	0.382599
580.000000	0.383226
581.000000	0.383749
582.000000	0.384175
583.000000	0.384625
584.000000	0.385122
585.000000	0.385635
586.000000	0.386015
587.000000	0.386316
588.000000	0.386636
589.000000	0.386962
590.000000	0.387323
591.000000	0.387701
592.000000	0.387953
593.000000	0.388205
594.000000	0.388462
595.000000	0.388607
596.000000	0.388777
597.000000	0.389028
598.000000	0.389235
599.000000	0.389219
600.000000	0.389289
601.000000	0.389578
602.000000	0.389771
603.000000	0.389927
604.000000	0.390082
605.000000	0.390163
606.000000	0.390188
607.000000	0.390183
608.000000	0.390182
609.000000	0.390276
610.000000	0.390403
611.000000	0.390468
612.000000	0.390467
613.000000	0.390553
614.000000	0.390797
615.000000	0.390848
616.000000	0.390865
617.000000	0.390872
618.000000	0.390903
619.000000	0.391015
620.000000	0.391105
621.000000	0.391100
622.000000	0.391038
623.000000	0.390981
624.000000	0.390989
625.000000	0.391117
626.000000	0.391244
627.000000	0.391327
628.000000	0.391443
629.000000	0.391634
630.000000	0.391736
631.000000	0.391848
632.000000	0.391964
633.000000	0.392050
634.000000	0.392064
635.000000	0.392102
636.000000	0.392236
637.000000	0.392446
638.000000	0.392616
639.000000	0.392739
640.000000	0.392896
641.000000	0.393040
642.000000	0.393206
643.000000	0.393392
644.000000	0.393579
645.000000	0.393613
646.000000	0.393705
647.000000	0.393965
648.000000	0.394249
649.000000	0.394456
650.000000	0.394573
651.000000	0.394784
652.000000	0.395026
653.000000	0.395316
654.000000	0.395591
655.000000	0.395942
656.000000	0.396268
657.000000	0.396435
658.000000	0.396723
659.000000	0.397021
660.000000	0.397250
661.000000	0.397468
662.000000	0.397733
663.000000	0.398066
664.000000	0.398321
665.000000	0.398650
666.000000	0.398988
667.000000	0.399217
668.000000	0.399514
669.000000	0.399828
670.000000	0.400141
671.000000	0.400514
672.000000	0.400888
673.000000	0.401255
674.000000	0.401670
675.000000	0.401995
676.000000	0.402304
677.000000	0.402731
678.000000	0.403142
679.000000	0.403543
680.000000	0.403959
681.000000	0.404371
682.000000	0.404834
683.000000	0.405262
684.000000	0.405725
685.000000	0.406193
686.000000	0.406677
687.000000	0.407131
688.000000	0.407595
689.000000	0.408062
690.000000	0.408564
691.000000	0.409068
692.000000	0.409487
693.000000	0.409908
694.000000	0.410383
695.000000	0.410882
696.000000	0.411401
697.000000	0.411944
698.000000	0.412445
699.000000	0.412969
700.000000	0.413564
701.000000	0.414088
702.000000	0.414611
703.000000	0.415142
704.000000	0.415680
705.000000	0.416251
706.000000	0.416786
707.000000	0.417308
708.000000	0.417873
709.000000	0.418421
710.000000	0.418943
711.000000	0.419555
712.000000	0.420165
713.000000	0.420743
714.000000	0.421262
715.000000	0.421762
716.000000	0.422257
717.000000	0.422723
718.000000	0.423285
719.000000	0.423844
720.000000	0.424342
721.000000	0.424930
722.000000	0.425509
723.000000	0.426098
724.000000	0.426615
725.000000	0.427052
726.000000	0.427548
727.000000	0.428069
728.000000	0.428595
729.000000	0.429096
730.000000	0.429500
731.000000	0.429996
732.000000	0.430460
733.000000	0.430908
734.000000	0.431365
735.000000	0.431752
736.000000	0.432240
737.000000	0.432725
738.000000	0.433122
739.000000	0.433551
740.000000	0.433881
741.000000	0.434254
742.000000	0.434627
743.000000	0.434973
744.000000	0.435408
745.000000	0.435775
746.000000	0.436094
747.000000	0.436309
748.000000	0.436514
749.000000	0.436783
750.000000	0.437085
751.000000	0.437330
752.000000	0.437583
753.000000	0.437867
754.000000	0.438140
755.000000	0.438422
756.000000	0.438689
757.000000	0.438850
758.000000	0.439006
759.000000	0.439172
760.000000	0.439261
761.000000	0.439380
762.000000	0.439435
763.000000	0.439470
764.000000	0.439712
765.000000	0.439821
766.000000	0.439902
767.000000	0.440077
768.000000	0.440180
769.000000	0.440249
770.000000	0.440298
771.000000	0.440272
772.000000	0.440263
773.000000	0.440181
774.000000	0.440060
775.000000	0.439920
776.000000	0.439808
777.000000	0.439731
778.000000	0.439681
779.000000	0.439644
780.000000	0.439618
781.000000	0.439572
782.000000	0.439427
783.000000	0.439328
784.000000	0.439196
785.000000	0.439042
786.000000	0.438876
787.000000	0.438700
788.000000	0.438525
789.000000	0.438323
790.000000	0.438078
791.000000	0.437855
792.000000	0.437723
793.000000	0.437587
794.000000	0.437374
795.000000	0.437134
796.000000	0.436901
797.000000	0.436649
798.000000	0.436298
799.000000	0.436074
800.000000	0.435910
801.000000	0.435663
802.000000	0.435334
803.000000	0.435003
804.000000	0.434746
805.000000	0.434435
806.000000	0.434069
807.000000	0.433753
808.000000	0.433428
809.000000	0.433123
810.000000	0.432827
811.000000	0.432505
812.000000	0.432136
813.000000	0.431800
814.000000	0.431505
815.000000	0.431226
816.000000	0.430917
817.000000	0.430591
818.000000	0.430181
819.000000	0.429926
820.000000	0.429663
821.000000	0.429273
822.000000	0.428942
823.000000	0.428480
824.000000	0.427984
825.000000	0.427777
826.000000	0.427539
827.000000	0.427255
828.000000	0.426981
829.000000	0.426619
830.000000	0.426247
831.000000	0.425934
832.000000	0.425520
833.000000	0.425157
834.000000	0.424783
835.000000	0.424399
836.000000	0.424119
837.000000	0.423768
838.000000	0.423372
839.000000	0.423054
840.000000	0.422777
841.000000	0.422512
842.000000	0.422197
843.000000	0.421965
844.000000	0.421673
845.000000	0.421277
846.000000	0.420958
847.000000	0.420568
848.000000	0.420121
849.000000	0.419712
850.000000	0.419337
851.000000	0.418939
852.000000	0.418597
853.000000	0.418429
854.000000	0.418162
855.000000	0.417916
856.000000	0.417660
857.000000	0.417346
858.000000	0.417150
859.000000	0.416979
860.000000	0.416600
861.000000	0.416228
862.000000	0.415927
863.000000	0.415593
864.000000	0.415228
865.000000	0.414927
866.000000	0.414718
867.000000	0.414367
868.000000	0.414090
869.000000	0.413839
870.000000	0.413617
871.000000	0.413405
872.000000	0.413172
873.000000	0.412858
874.000000	0.412644
875.000000	0.412308
876.000000	0.411915
877.000000	0.411543
878.000000	0.411151
879.000000	0.410910
880.000000	0.410693
881.000000	0.410447
882.000000	0.410190
883.000000	0.409936
884.000000	0.409624
885.000000	0.409420
886.000000	0.409160
887.000000	0.408860
888.000000	0.408814
889.000000	0.408715
890.000000	0.408418
891.000000	0.408168
892.000000	0.408034
893.000000	0.407783
894.000000	0.407506
895.000000	0.407346
896.000000	0.406980
897.000000	0.406574
898.000000	0.406402
899.000000	0.406245
900.000000	0.406126
901.000000	0.406028
902.000000	0.406046
903.000000	0.405816
904.000000	0.405552
905.000000	0.405422
906.000000	0.405391
907.000000	0.405343
908.000000	0.405237
909.000000	0.404893
910.000000	0.404637
911.000000	0.404507
912.000000	0.404468
913.000000	0.404399
914.000000	0.404363
915.000000	0.404370
916.000000	0.404171
917.000000	0.403891
918.000000	0.403784
919.000000	0.403887
920.000000	0.403746
921.000000	0.403650
922.000000	0.403604
923.000000	0.403452
924.000000	0.403389
925.000000	0.403314
926.000000	0.403215
927.000000	0.403149
928.000000	0.402988
929.000000	0.402760
930.000000	0.402573
931.000000	0.402616
932.000000	0.402519
933.000000	0.402291
934.000000	0.402233
935.000000	0.402038
936.000000	0.401841
937.000000	0.401684
938.000000	0.401616
939.000000	0.401629
940.000000	0.401615
941.000000	0.401618
942.000000	0.401403
943.000000	0.401269
944.000000	0.401200
945.000000	0.401069
946.000000	0.400913
947.000000	0.400899
948.000000	0.401024
949.000000	0.400791
950.000000	0.400649
951.000000	0.400672
952.000000	0.400688
953.000000	0.400568
954.000000	0.400429
955.000000	0.400326
956.000000	0.400419
957.000000	0.400454
958.000000	0.400439
959.000000	0.400599
960.000000	0.400460
961.000000	0.400347
962.000000	0.400379
963.000000	0.400437
964.000000	0.400332
965.000000	0.400219
966.000000	0.400123
967.000000	0.400169
968.000000	0.400057
969.000000	0.399903
970.000000	0.400134
971.000000	0.400349
972.000000	0.400600
973.000000	0.400762
974.000000	0.400726
975.000000	0.400665
976.000000	0.400608
977.000000	0.400530
978.000000	0.400357
979.000000	0.400522
980.000000	0.400582
981.000000	0.400486
982.000000	0.400743
983.000000	0.401007
984.000000	0.401131
985.000000	0.401063
986.000000	0.401199
987.000000	0.401293
988.000000	0.401145
989.000000	0.401557
990.000000	0.401772
991.000000	0.401759
992.000000	0.401798
993.000000	0.401923
994.000000	0.402137
995.000000	0.402552
996.000000	0.402809
997.000000	0.402895
998.000000	0.403008
999.000000	0.403291
1000.000000	0.403410
1001.000000	0.403708
1002.000000	0.403253
1003.000000	0.402748
1004.000000	0.402907
1005.000000	0.403000
1006.000000	0.403313
1007.000000	0.404472
1008.000000	0.405498
1009.000000	0.405648
1010.000000	0.405354
1011.000000	0.405131
1012.000000	0.405457
1013.000000	0.405548
1014.000000	0.405805
1015.000000	0.406589
1016.000000	0.406810
1017.000000	0.406752
1018.000000	0.407078
1019.000000	0.407481
1020.000000	0.408147
1021.000000	0.408203
1022.000000	0.408674
1023.000000	0.409127
1024.000000	0.409052
1025.000000	0.408830
1026.000000	0.409581
1027.000000	0.409977
1028.000000	0.410525
1029.000000	0.411271
1030.000000	0.411167
1031.000000	0.410957
1032.000000	0.410876
1033.000000	0.410796
1034.000000	0.411003
1035.000000	0.411418
1036.000000	0.411940
1037.000000	0.413059
1038.000000	0.413459
1039.000000	0.413579
1040.000000	0.414347
1041.000000	0.414722
1042.000000	0.414381
1043.000000	0.415067
1044.000000	0.415828
1045.000000	0.415700
1046.000000	0.416148
1047.000000	0.416757
1048.000000	0.417346
1049.000000	0.417549
1050.000000	0.418094
1051.000000	0.418162
1052.000000	0.417168
1053.000000	0.417388
1054.000000	0.418272
1055.000000	0.419158
1056.000000	0.420844
1057.000000	0.422094
1058.000000	0.422507
1059.000000	0.423356
1060.000000	0.423978
1061.000000	0.424001
1062.000000	0.424209
1063.000000	0.424541
1064.000000	0.424817
1065.000000	0.424801
1066.000000	0.425217
1067.000000	0.425906
1068.000000	0.426309
1069.000000	0.426651
1070.000000	0.427108
1071.000000	0.427657
1072.000000	0.428050
1073.000000	0.428310
1074.000000	0.429084
1075.000000	0.429734
1076.000000	0.430157
1077.000000	0.430489
1078.000000	0.430822
1079.000000	0.431246
1080.000000	0.431407
1081.000000	0.431848
1082.000000	0.432965
1083.000000	0.433469
1084.000000	0.433553
1085.000000	0.434137
1086.000000	0.434894
1087.000000	0.435332
1088.000000	0.435568
1089.000000	0.436110
1090.000000	0.436526
1091.000000	0.436919
1092.000000	0.437642
1093.000000	0.438480
1094.000000	0.438960
1095.000000	0.438918
1096.000000	0.439312
1097.000000	0.439799
1098.000000	0.440308
1099.000000	0.440701
1100.000000	0.441473
1101.000000	0.442651
1102.000000	0.443272
1103.000000	0.443728
1104.000000	0.444356
1105.000000	0.444637
1106.000000	0.445090
1107.000000	0.445788
1108.000000	0.446401
1109.000000	0.447187
1110.000000	0.447626
1111.000000	0.447990
1112.000000	0.448268
1113.000000	0.448720
1114.000000	0.448953
1115.000000	0.449475
1116.000000	0.450515
1117.000000	0.450993
1118.000000	0.451200
1119.000000	0.451428
1120.000000	0.451205
1121.000000	0.451504
1122.000000	0.452293
1123.000000	0.453106
1124.000000	0.454000
1125.000000	0.454658
1126.000000	0.455038
1127.000000	0.455310
1128.000000	0.455460
1129.000000	0.455325
1130.000000	0.455779
1131.000000	0.456472
1132.000000	0.456886
1133.000000	0.457636
1134.000000	0.458145
1135.000000	0.458270
1136.000000	0.458486
1137.000000	0.458670
1138.000000	0.458959
1139.000000	0.459335
1140.000000	0.459780
1141.000000	0.460518
1142.000000	0.460903
1143.000000	0.460744
1144.000000	0.461084
1145.000000	0.461340
1146.000000	0.461495
1147.000000	0.461603
1148.000000	0.461689
1149.000000	0.461835
1150.000000	0.461786
1151.000000	0.462035
1152.000000	0.462476
1153.000000	0.462870
1154.000000	0.463306
1155.000000	0.463600
1156.000000	0.463940
1157.000000	0.464151
1158.000000	0.464007
1159.000000	0.464124
1160.000000	0.464334
1161.000000	0.464489
1162.000000	0.464742
1163.000000	0.465282
1164.000000	0.465620
1165.000000	0.465689
1166.000000	0.465997
1167.000000	0.466361
1168.000000	0.466532
1169.000000	0.466669
1170.000000	0.466937
1171.000000	0.467237
1172.000000	0.467508
1173.000000	0.467850
1174.000000	0.468096
1175.000000	0.468099
1176.000000	0.468257
1177.000000	0.468639
1178.000000	0.468931
1179.000000	0.469271
1180.000000	0.469444
1181.000000	0.469577
1182.000000	0.469777
1183.000000	0.470044
1184.000000	0.470410
1185.000000	0.470562
1186.000000	0.470620
1187.000000	0.470766
1188.000000	0.470774
1189.000000	0.470891
1190.000000	0.471267
1191.000000	0.471538
1192.000000	0.471941
1193.000000	0.472307
1194.000000	0.472499
1195.000000	0.472678
1196.000000	0.472640
1197.000000	0.472746
1198.000000	0.472892
1199.000000	0.473110
1200.000000	0.473402
1201.000000	0.473705
1202.000000	0.473986
1203.000000	0.474346
1204.000000	0.474562
1205.000000	0.474789
1206.000000	0.474950
1207.000000	0.475202
1208.000000	0.475304
1209.000000	0.475411
1210.000000	0.475513
1211.000000	0.475519
1212.000000	0.475598
1213.000000	0.475808
1214.000000	0.475980
1215.000000	0.476134
1216.000000	0.476248
1217.000000	0.476234
1218.000000	0.476290
1219.000000	0.476341
1220.000000	0.476566
1221.000000	0.476778
1222.000000	0.477058
1223.000000	0.477363
1224.000000	0.477573
1225.000000	0.477763
1226.000000	0.477895
1227.000000	0.477846
1228.000000	0.477913
1229.000000	0.477933
1230.000000	0.477873
1231.000000	0.477861
1232.000000	0.478077
1233.000000	0.478292
1234.000000	0.478494
1235.000000	0.478649
1236.000000	0.478653
1237.000000	0.478815
1238.000000	0.478997
1239.000000	0.479091
1240.000000	0.479201
1241.000000	0.479267
1242.000000	0.479296
1243.000000	0.479399
1244.000000	0.479597
1245.000000	0.479930
1246.000000	0.480130
1247.000000	0.480262
1248.000000	0.480446
1249.000000	0.480592
1250.000000	0.480839
1251.000000	0.481126
1252.000000	0.481211
1253.000000	0.481201
1254.000000	0.481296
1255.000000	0.481295
1256.000000	0.481334
1257.000000	0.481544
1258.000000	0.481679
1259.000000	0.481520
1260.000000	0.481670
1261.000000	0.481938
1262.000000	0.482125
1263.000000	0.482408
1264.000000	0.482721
1265.000000	0.482852
1266.000000	0.482689
1267.000000	0.482670
1268.000000	0.482695
1269.000000	0.482520
1270.000000	0.482768
1271.000000	0.483135
1272.000000	0.483299
1273.000000	0.483507
1274.000000	0.483648
1275.000000	0.483646
1276.000000	0.483388
1277.000000	0.483446
1278.000000	0.483494
1279.000000	0.483449
1280.000000	0.483278
1281.000000	0.483202
1282.000000	0.483202
1283.000000	0.483307
1284.000000	0.483472
1285.000000	0.483589
1286.000000	0.483622
1287.000000	0.483662
1288.000000	0.483843
1289.000000	0.484050
1290.000000	0.484032
1291.000000	0.483850
1292.000000	0.483799
1293.000000	0.483761
1294.000000	0.483732
1295.000000	0.483812
1296.000000	0.483742
1297.000000	0.483550
1298.000000	0.483640
1299.000000	0.483738
1300.000000	0.483767
1301.000000	0.483771
1302.000000	0.483630
1303.000000	0.483479
1304.000000	0.483350
1305.000000	0.483366
1306.000000	0.483229
1307.000000	0.483071
1308.000000	0.482958
1309.000000	0.482758
1310.000000	0.482649
1311.000000	0.482715
1312.000000	0.482609
1313.000000	0.482377
1314.000000	0.482085
1315.000000	0.481721
1316.000000	0.481711
1317.000000	0.481885
1318.000000	0.481824
1319.000000	0.481580
1320.000000	0.481165
1321.000000	0.480615
1322.000000	0.480228
1323.000000	0.480046
1324.000000	0.480031
1325.000000	0.479828
1326.000000	0.479434
1327.000000	0.479205
1328.000000	0.479089
1329.000000	0.478811
1330.000000	0.478637
1331.000000	0.478427
1332.000000	0.478167
1333.000000	0.477838
1334.000000	0.477636
1335.000000	0.477393
1336.000000	0.476970
1337.000000	0.476611
1338.000000	0.476240
1339.000000	0.475819
1340.000000	0.475385
1341.000000	0.475030
1342.000000	0.474499
1343.000000	0.474027
1344.000000	0.473684
1345.000000	0.473299
1346.000000	0.473116
1347.000000	0.472708
1348.000000	0.472139
1349.000000	0.471540
1350.000000	0.471047
1351.000000	0.470642
1352.000000	0.470203
1353.000000	0.469675
1354.000000	0.469143
1355.000000	0.468550
1356.000000	0.468103
1357.000000	0.467754
1358.000000	0.467431
1359.000000	0.467075
1360.000000	0.466714
1361.000000	0.466494
1362.000000	0.466031
1363.000000	0.465360
1364.000000	0.464864
1365.000000	0.464265
1366.000000	0.463815
1367.000000	0.463529
1368.000000	0.463051
1369.000000	0.462757
1370.000000	0.462218
1371.000000	0.461506
1372.000000	0.460829
1373.000000	0.460068
1374.000000	0.459286
1375.000000	0.458543
1376.000000	0.458052
1377.000000	0.457484
1378.000000	0.456795
1379.000000	0.455847
1380.000000	0.454629
1381.000000	0.453428
1382.000000	0.452210
1383.000000	0.450971
1384.000000	0.449533
1385.000000	0.448057
1386.000000	0.446504
1387.000000	0.444874
1388.000000	0.443326
1389.000000	0.441510
1390.000000	0.439654
1391.000000	0.437631
1392.000000	0.435503
1393.000000	0.433480
1394.000000	0.431577
1395.000000	0.429549
1396.000000	0.427625
1397.000000	0.425408
1398.000000	0.422875
1399.000000	0.420555
1400.000000	0.418244
1401.000000	0.415839
1402.000000	0.413538
1403.000000	0.411074
1404.000000	0.408746
1405.000000	0.406126
1406.000000	0.403524
1407.000000	0.401173
1408.000000	0.398423
1409.000000	0.395779
1410.000000	0.393425
1411.000000	0.390886
1412.000000	0.388475
1413.000000	0.386344
1414.000000	0.384273
1415.000000	0.382430
1416.000000	0.380742
1417.000000	0.379038
1418.000000	0.377245
1419.000000	0.375567
1420.000000	0.373860
1421.000000	0.372214
1422.000000	0.370676
1423.000000	0.369182
1424.000000	0.367525
1425.000000	0.365927
1426.000000	0.364281
1427.000000	0.362467
1428.000000	0.360764
1429.000000	0.359149
1430.000000	0.357600
1431.000000	0.356256
1432.000000	0.354952
1433.000000	0.353730
1434.000000	0.352661
1435.000000	0.351754
1436.000000	0.350988
1437.000000	0.350359
1438.000000	0.349869
1439.000000	0.349618
1440.000000	0.349394
1441.000000	0.349354
1442.000000	0.349341
1443.000000	0.349295
1444.000000	0.349315
1445.000000	0.349428
1446.000000	0.349489
1447.000000	0.349557
1448.000000	0.349600
1449.000000	0.349546
1450.000000	0.349407
1451.000000	0.349283
1452.000000	0.349072
1453.000000	0.348853
1454.000000	0.348708
1455.000000	0.348497
1456.000000	0.348406
1457.000000	0.348353
1458.000000	0.348110
1459.000000	0.347825
1460.000000	0.347429
1461.000000	0.347016
1462.000000	0.346794
1463.000000	0.346591
1464.000000	0.346472
1465.000000	0.346392
1466.000000	0.346153
1467.000000	0.345956
1468.000000	0.345932
1469.000000	0.346108
1470.000000	0.346269
1471.000000	0.346478
1472.000000	0.346715
1473.000000	0.347049
1474.000000	0.347442
1475.000000	0.347900
1476.000000	0.348358
1477.000000	0.348774
1478.000000	0.349312
1479.000000	0.349906
1480.000000	0.350474
1481.000000	0.351084
1482.000000	0.351784
1483.000000	0.352461
1484.000000	0.353177
1485.000000	0.353893
1486.000000	0.354501
1487.000000	0.355263
1488.000000	0.356196
1489.000000	0.357033
1490.000000	0.357813
1491.000000	0.358586
1492.000000	0.359165
1493.000000	0.359865
1494.000000	0.360630
1495.000000	0.361330
1496.000000	0.361965
1497.000000	0.362721
1498.000000	0.363603
1499.000000	0.364277
1500.000000	0.364949
1501.000000	0.365689
1502.000000	0.366244
1503.000000	0.366791
1504.000000	0.367513
1505.000000	0.368211
1506.000000	0.368892
1507.000000	0.369573
1508.000000	0.370143
1509.000000	0.370603
1510.000000	0.371016
1511.000000	0.371484
1512.000000	0.371978
1513.000000	0.372433
1514.000000	0.372861
1515.000000	0.373264
1516.000000	0.373695
1517.000000	0.374125
1518.000000	0.374558
1519.000000	0.374871
1520.000000	0.375148
1521.000000	0.375322
1522.000000	0.375529
1523.000000	0.375916
1524.000000	0.376232
1525.000000	0.376501
1526.000000	0.376770
1527.000000	0.376944
1528.000000	0.377094
1529.000000	0.377368
1530.000000	0.377598
1531.000000	0.377720
1532.000000	0.377868
1533.000000	0.378057
1534.000000	0.378240
1535.000000	0.378533
1536.000000	0.378797
1537.000000	0.379012
1538.000000	0.379191
1539.000000	0.379301
1540.000000	0.379444
1541.000000	0.379729
1542.000000	0.380071
1543.000000	0.380322
1544.000000	0.380514
1545.000000	0.380603
1546.000000	0.380608
1547.000000	0.380779
1548.000000	0.381005
1549.000000	0.381185
1550.000000	0.381370
1551.000000	0.381488
1552.000000	0.381622
1553.000000	0.381691
1554.000000	0.381674
1555.000000	0.381791
1556.000000	0.381898
1557.000000	0.381934
1558.000000	0.382001
1559.000000	0.382046
1560.000000	0.382016
1561.000000	0.381966
1562.000000	0.381914
1563.000000	0.381882
1564.000000	0.381907
1565.000000	0.381949
1566.000000	0.381884
1567.000000	0.381942
1568.000000	0.381909
1569.000000	0.381821
1570.000000	0.381846
1571.000000	0.381935
1572.000000	0.381930
1573.000000	0.381971
1574.000000	0.381934
1575.000000	0.381776
1576.000000	0.381732
1577.000000	0.381677
1578.000000	0.381684
1579.000000	0.381863
1580.000000	0.381907
1581.000000	0.381990
1582.000000	0.382061
1583.000000	0.382095
1584.000000	0.382100
1585.000000	0.382251
1586.000000	0.382295
1587.000000	0.382121
1588.000000	0.382158
1589.000000	0.382353
1590.000000	0.382411
1591.000000	0.382508
1592.000000	0.382645
1593.000000	0.382780
1594.000000	0.382851
1595.000000	0.383061
1596.000000	0.383169
1597.000000	0.383108
1598.000000	0.383107
1599.000000	0.383191
1600.000000	0.383252
1601.000000	0.383402
1602.000000	0.383532
1603.000000	0.383688
1604.000000	0.383849
1605.000000	0.384073
1606.000000	0.384181
1607.000000	0.384328
1608.000000	0.384437
1609.000000	0.384478
1610.000000	0.384578
1611.000000	0.384784
1612.000000	0.384926
1613.000000	0.385151
1614.000000	0.385290
1615.000000	0.385409
1616.000000	0.385631
1617.000000	0.385865
1618.000000	0.386006
1619.000000	0.386133
1620.000000	0.386344
1621.000000	0.386455
1622.000000	0.386759
1623.000000	0.387299
1624.000000	0.387596
1625.000000	0.387654
1626.000000	0.387828
1627.000000	0.387943
1628.000000	0.388161
1629.000000	0.388462
1630.000000	0.388761
1631.000000	0.389013
1632.000000	0.389254
1633.000000	0.389522
1634.000000	0.389789
1635.000000	0.390063
1636.000000	0.390383
1637.000000	0.390777
1638.000000	0.391122
1639.000000	0.391579
1640.000000	0.391896
1641.000000	0.392227
1642.000000	0.392523
1643.000000	0.392754
1644.000000	0.393063
1645.000000	0.393377
1646.000000	0.393649
1647.000000	0.393968
1648.000000	0.394288
1649.000000	0.394721
1650.000000	0.395129
1651.000000	0.395664
1652.000000	0.396039
1653.000000	0.396182
1654.000000	0.396529
1655.000000	0.396827
1656.000000	0.397087
1657.000000	0.397612
1658.000000	0.397818
1659.000000	0.397863
1660.000000	0.398179
1661.000000	0.398383
1662.000000	0.398698
1663.000000	0.399209
1664.000000	0.399527
1665.000000	0.399723
1666.000000	0.400072
1667.000000	0.400360
1668.000000	0.400658
1669.000000	0.400967
1670.000000	0.401207
1671.000000	0.401496
1672.000000	0.401930
1673.000000	0.402415
1674.000000	0.402841
1675.000000	0.403257
1676.000000	0.403524
1677.000000	0.403758
1678.000000	0.404081
1679.000000	0.404448
1680.000000	0.404771
1681.000000	0.405051
1682.000000	0.405234
1683.000000	0.405458
1684.000000	0.405711
1685.000000	0.405932
1686.000000	0.406095
1687.000000	0.406339
1688.000000	0.406586
1689.000000	0.406675
1690.000000	0.406742
1691.000000	0.406991
1692.000000	0.407168
1693.000000	0.407347
1694.000000	0.407385
1695.000000	0.407518
1696.000000	0.407661
1697.000000	0.407715
1698.000000	0.407950
1699.000000	0.408158
1700.000000	0.408224
1701.000000	0.408455
1702.000000	0.408626
1703.000000	0.408712
1704.000000	0.408784
1705.000000	0.408973
1706.000000	0.409311
1707.000000	0.409556
1708.000000	0.409780
1709.000000	0.409976
1710.000000	0.410213
1711.000000	0.410477
1712.000000	0.410940
1713.000000	0.411135
1714.000000	0.411153
1715.000000	0.411288
1716.000000	0.411321
1717.000000	0.411459
1718.000000	0.411694
1719.000000	0.411899
1720.000000	0.412226
1721.000000	0.412408
1722.000000	0.412588
1723.000000	0.412686
1724.000000	0.412633
1725.000000	0.412716
1726.000000	0.412719
1727.000000	0.412769
1728.000000	0.412789
1729.000000	0.412772
1730.000000	0.412869
1731.000000	0.413051
1732.000000	0.413351
1733.000000	0.413616
1734.000000	0.413757
1735.000000	0.413963
1736.000000	0.414095
1737.000000	0.414271
1738.000000	0.414489
1739.000000	0.414849
1740.000000	0.415286
1741.000000	0.415543
1742.000000	0.415887
1743.000000	0.416177
1744.000000	0.416257
1745.000000	0.416398
1746.000000	0.416620
1747.000000	0.416695
1748.000000	0.416728
1749.000000	0.416758
1750.000000	0.416821
1751.000000	0.417136
1752.000000	0.417379
1753.000000	0.417445
1754.000000	0.417513
1755.000000	0.417367
1756.000000	0.417276
1757.000000	0.417164
1758.000000	0.417209
1759.000000	0.417357
1760.000000	0.417439
1761.000000	0.417503
1762.000000	0.417649
1763.000000	0.417817
1764.000000	0.417987
1765.000000	0.418219
1766.000000	0.418477
1767.000000	0.418659
1768.000000	0.418709
1769.000000	0.418914
1770.000000	0.419011
1771.000000	0.418753
1772.000000	0.418805
1773.000000	0.418949
1774.000000	0.419054
1775.000000	0.419294
1776.000000	0.419578
1777.000000	0.419914
1778.000000	0.419983
1779.000000	0.419977
1780.000000	0.420079
1781.000000	0.419875
1782.000000	0.420037
1783.000000	0.420638
1784.000000	0.420877
1785.000000	0.420939
1786.000000	0.420966
1787.000000	0.421148
1788.000000	0.421455
1789.000000	0.421749
1790.000000	0.422160
1791.000000	0.422418
1792.000000	0.422790
1793.000000	0.423002
1794.000000	0.422976
1795.000000	0.423150
1796.000000	0.423315
1797.000000	0.423485
1798.000000	0.423774
1799.000000	0.424043
1800.000000	0.424437
1801.000000	0.423881
1802.000000	0.424042
1803.000000	0.424331
1804.000000	0.425031
1805.000000	0.426429
1806.000000	0.427193
1807.000000	0.428276
1808.000000	0.428844
1809.000000	0.428781
1810.000000	0.428448
1811.000000	0.428796
1812.000000	0.429282
1813.000000	0.429889
1814.000000	0.431674
1815.000000	0.431841
1816.000000	0.430943
1817.000000	0.430452
1818.000000	0.429569
1819.000000	0.428388
1820.000000	0.428123
1821.000000	0.429342
1822.000000	0.429390
1823.000000	0.429373
1824.000000	0.429004
1825.000000	0.427416
1826.000000	0.427051
1827.000000	0.426568
1828.000000	0.427131
1829.000000	0.428268
1830.000000	0.429288
1831.000000	0.429687
1832.000000	0.430195
1833.000000	0.429810
1834.000000	0.428210
1835.000000	0.427443
1836.000000	0.426236
1837.000000	0.425385
1838.000000	0.424474
1839.000000	0.424640
1840.000000	0.424124
1841.000000	0.423634
1842.000000	0.423200
1843.000000	0.422656
1844.000000	0.422076
1845.000000	0.421371
1846.000000	0.421004
1847.000000	0.420390
1848.000000	0.420332
1849.000000	0.420194
1850.000000	0.419293
1851.000000	0.418824
1852.000000	0.418316
1853.000000	0.417436
1854.000000	0.416260
1855.000000	0.415326
1856.000000	0.414129
1857.000000	0.412652
1858.000000	0.411726
1859.000000	0.410481
1860.000000	0.408738
1861.000000	0.407319
1862.000000	0.405641
1863.000000	0.404069
1864.000000	0.402346
1865.000000	0.400601
1866.000000	0.398418
1867.000000	0.396295
1868.000000	0.393413
1869.000000	0.389491
1870.000000	0.385552
1871.000000	0.381759
1872.000000	0.377916
1873.000000	0.374658
1874.000000	0.372600
1875.000000	0.369379
1876.000000	0.365614
1877.000000	0.361542
1878.000000	0.357386
1879.000000	0.353163
1880.000000	0.348967
1881.000000	0.344681
1882.000000	0.339754
1883.000000	0.333890
1884.000000	0.328434
1885.000000	0.322360
1886.000000	0.316730
1887.000000	0.311100
1888.000000	0.306139
1889.000000	0.300730
1890.000000	0.295392
1891.000000	0.289989
1892.000000	0.283511
1893.000000	0.277383
1894.000000	0.271124
1895.000000	0.264888
1896.000000	0.258714
1897.000000	0.253271
1898.000000	0.246691
1899.000000	0.240728
1900.000000	0.235289
1901.000000	0.229160
1902.000000	0.223880
1903.000000	0.219092
1904.000000	0.214510
1905.000000	0.209742
1906.000000	0.205635
1907.000000	0.202103
1908.000000	0.199034
1909.000000	0.195305
1910.000000	0.192405
1911.000000	0.189658
1912.000000	0.186729
1913.000000	0.183930
1914.000000	0.181412
1915.000000	0.179072
1916.000000	0.176406
1917.000000	0.174499
1918.000000	0.173440
1919.000000	0.172686
1920.000000	0.171482
1921.000000	0.170707
1922.000000	0.170074
1923.000000	0.169485
1924.000000	0.169039
1925.000000	0.168996
1926.000000	0.168898
1927.000000	0.168559
1928.000000	0.168378
1929.000000	0.168401
1930.000000	0.168316
1931.000000	0.168072
1932.000000	0.168473
1933.000000	0.169281
1934.000000	0.169849
1935.000000	0.170338
1936.000000	0.170390
1937.000000	0.170218
1938.000000	0.169937
1939.000000	0.169698
1940.000000	0.169487
1941.000000	0.169657
1942.000000	0.169462
1943.000000	0.169383
1944.000000	0.169679
1945.000000	0.169541
1946.000000	0.169457
1947.000000	0.169099
1948.000000	0.168595
1949.000000	0.168143
1950.000000	0.167485
1951.000000	0.166933
1952.000000	0.166662
1953.000000	0.165725
1954.000000	0.164936
1955.000000	0.164838
1956.000000	0.164681
1957.000000	0.165002
1958.000000	0.165221
1959.000000	0.165152
1960.000000	0.164825
1961.000000	0.164441
1962.000000	0.164211
1963.000000	0.164218
1964.000000	0.164135
1965.000000	0.163717
1966.000000	0.163279
1967.000000	0.163023
1968.000000	0.162682
1969.000000	0.162986
1970.000000	0.163599
1971.000000	0.164037
1972.000000	0.165055
1973.000000	0.165425
1974.000000	0.165581
1975.000000	0.165583
1976.000000	0.165297
1977.000000	0.164592
1978.000000	0.164574
1979.000000	0.164811
1980.000000	0.165398
1981.000000	0.166302
1982.000000	0.167262
1983.000000	0.168045
1984.000000	0.168645
1985.000000	0.169264
1986.000000	0.169814
1987.000000	0.170082
1988.000000	0.170449
1989.000000	0.171396
1990.000000	0.172530
1991.000000	0.173236
1992.000000	0.174294
1993.000000	0.175179
1994.000000	0.175494
1995.000000	0.176358
1996.000000	0.177319
1997.000000	0.178318
1998.000000	0.179475
1999.000000	0.180742
2000.000000	0.182140
2001.000000	0.183554
2002.000000	0.184709
2003.000000	0.185839
2004.000000	0.186911
2005.000000	0.187669
2006.000000	0.188874
2007.000000	0.190507
2008.000000	0.191966
2009.000000	0.193609
2010.000000	0.194904
2011.000000	0.195800
2012.000000	0.196991
2013.000000	0.198089
2014.000000	0.199183
2015.000000	0.200558
2016.000000	0.202055
2017.000000	0.203246
2018.000000	0.204839
2019.000000	0.206484
2020.000000	0.207554
2021.000000	0.208600
2022.000000	0.209186
2023.000000	0.210098
2024.000000	0.211130
2025.000000	0.212262
2026.000000	0.213254
2027.000000	0.214621
2028.000000	0.216438
2029.000000	0.217903
2030.000000	0.219759
2031.000000	0.221301
2032.000000	0.222428
2033.000000	0.223541
2034.000000	0.224506
2035.000000	0.225356
2036.000000	0.226275
2037.000000	0.227006
2038.000000	0.228242
2039.000000	0.229812
2040.000000	0.231241
2041.000000	0.233666
2042.000000	0.235403
2043.000000	0.236329
2044.000000	0.237397
2045.000000	0.237910
2046.000000	0.238783
2047.000000	0.239750
2048.000000	0.240953
2049.000000	0.242429
2050.000000	0.243886
2051.000000	0.244966
2052.000000	0.246339
2053.000000	0.247159
2054.000000	0.247325
2055.000000	0.248051
2056.000000	0.248929
2057.000000	0.249627
2058.000000	0.251486
2059.000000	0.252840
2060.000000	0.254023
2061.000000	0.255560
2062.000000	0.256653
2063.000000	0.256885
2064.000000	0.257821
2065.000000	0.259541
2066.000000	0.260227
2067.000000	0.260840
2068.000000	0.261578
2069.000000	0.261669
2070.000000	0.261981
2071.000000	0.262495
2072.000000	0.263530
2073.000000	0.264832
2074.000000	0.265838
2075.000000	0.267254
2076.000000	0.269288
2077.000000	0.270742
2078.000000	0.272094
2079.000000	0.273421
2080.000000	0.274588
2081.000000	0.275766
2082.000000	0.276831
2083.000000	0.278295
2084.000000	0.279177
2085.000000	0.279854
2086.000000	0.281564
2087.000000	0.282516
2088.000000	0.283589
2089.000000	0.284928
2090.000000	0.285487
2091.000000	0.284860
2092.000000	0.285486
2093.000000	0.286186
2094.000000	0.287323
2095.000000	0.289574
2096.000000	0.291312
2097.000000	0.293372
2098.000000	0.294417
2099.000000	0.294948
2100.000000	0.295449
2101.000000	0.295324
2102.000000	0.295383
2103.000000	0.296114
2104.000000	0.297016
2105.000000	0.298086
2106.000000	0.299565
2107.000000	0.300847
2108.000000	0.302415
2109.000000	0.303471
2110.000000	0.304114
2111.000000	0.304727
2112.000000	0.304894
2113.000000	0.304923
2114.000000	0.305496
2115.000000	0.306275
2116.000000	0.307677
2117.000000	0.308942
2118.000000	0.310065
2119.000000	0.311029
2120.000000	0.311724
2121.000000	0.311893
2122.000000	0.312653
2123.000000	0.313621
2124.000000	0.314189
2125.000000	0.314817
2126.000000	0.315327
2127.000000	0.315401
2128.000000	0.315863
2129.000000	0.316765
2130.000000	0.317124
2131.000000	0.316822
2132.000000	0.317189
2133.000000	0.317493
2134.000000	0.317496
2135.000000	0.318199
2136.000000	0.317834
2137.000000	0.317510
2138.000000	0.316731
2139.000000	0.316405
2140.000000	0.315902
2141.000000	0.315782
2142.000000	0.316161
2143.000000	0.315987
2144.000000	0.315854
2145.000000	0.315874
2146.000000	0.315962
2147.000000	0.316009
2148.000000	0.315746
2149.000000	0.316421
2150.000000	0.317691
2151.000000	0.318102
2152.000000	0.318792
2153.000000	0.319043
2154.000000	0.319324
2155.000000	0.318802
2156.000000	0.319230
2157.000000	0.321147
2158.000000	0.321282
2159.000000	0.320551
2160.000000	0.320287
2161.000000	0.318895
2162.000000	0.318239
2163.000000	0.318178
2164.000000	0.318132
2165.000000	0.317893
2166.000000	0.318227
2167.000000	0.319434
2168.000000	0.320094
2169.000000	0.320643
2170.000000	0.320133
2171.000000	0.319936
2172.000000	0.318961
2173.000000	0.319077
2174.000000	0.319977
2175.000000	0.320308
2176.000000	0.320775
2177.000000	0.321113
2178.000000	0.320934
2179.000000	0.321601
2180.000000	0.322889
2181.000000	0.323819
2182.000000	0.324317
2183.000000	0.325287
2184.000000	0.324547
2185.000000	0.324034
2186.000000	0.323629
2187.000000	0.321309
2188.000000	0.320383
2189.000000	0.319572
2190.000000	0.319443
2191.000000	0.321941
2192.000000	0.323266
2193.000000	0.326125
2194.000000	0.326150
2195.000000	0.324443
2196.000000	0.322990
2197.000000	0.318725
2198.000000	0.317092
2199.000000	0.316883
2200.000000	0.316218
2201.000000	0.316760
2202.000000	0.316886
2203.000000	0.315913
2204.000000	0.317503
2205.000000	0.316994
2206.000000	0.315543
2207.000000	0.313888
2208.000000	0.310841
2209.000000	0.311011
2210.000000	0.313796
2211.000000	0.313715
2212.000000	0.313562
2213.000000	0.314050
2214.000000	0.312470
2215.000000	0.312875
2216.000000	0.316065
2217.000000	0.317507
2218.000000	0.317222
2219.000000	0.318630
2220.000000	0.322364
2221.000000	0.323440
2222.000000	0.323387
2223.000000	0.324180
2224.000000	0.324331
2225.000000	0.323315
2226.000000	0.323303
2227.000000	0.324191
2228.000000	0.323965
2229.000000	0.323095
2230.000000	0.322447
2231.000000	0.321316
2232.000000	0.320899
2233.000000	0.321636
2234.000000	0.322592
2235.000000	0.323789
2236.000000	0.324167
2237.000000	0.323044
2238.000000	0.323334
2239.000000	0.325132
2240.000000	0.324957
2241.000000	0.323113
2242.000000	0.323540
2243.000000	0.323542
2244.000000	0.323889
2245.000000	0.328290
2246.000000	0.328841
2247.000000	0.325362
2248.000000	0.324479
2249.000000	0.324024
2250.000000	0.322045
2251.000000	0.322638
2252.000000	0.324490
2253.000000	0.323023
2254.000000	0.321524
2255.000000	0.319559
2256.000000	0.316550
2257.000000	0.317004
2258.000000	0.317304
2259.000000	0.316941
2260.000000	0.318868
2261.000000	0.319124
2262.000000	0.318520
2263.000000	0.317898
2264.000000	0.317577
2265.000000	0.315324
2266.000000	0.311606
2267.000000	0.308300
2268.000000	0.302848
2269.000000	0.300056
2270.000000	0.298770
2271.000000	0.297919
2272.000000	0.298833
2273.000000	0.299494
2274.000000	0.300482
2275.000000	0.300558
2276.000000	0.301812
2277.000000	0.299370
2278.000000	0.295469
2279.000000	0.294105
2280.000000	0.290603
2281.000000	0.288380
2282.000000	0.288330
2283.000000	0.284943
2284.000000	0.281613
2285.000000	0.279620
2286.000000	0.278939
2287.000000	0.279596
2288.000000	0.280663
2289.000000	0.283406
2290.000000	0.284183
2291.000000	0.283729
2292.000000	0.281966
2293.000000	0.279614
2294.000000	0.278948
2295.000000	0.278348
2296.000000	0.277946
2297.000000	0.279859
2298.000000	0.279612
2299.000000	0.278007
2300.000000	0.277738
2301.000000	0.277860
2302.000000	0.276616
2303.000000	0.273871
2304.000000	0.273125
2305.000000	0.272548
2306.000000	0.272417
2307.000000	0.272906
2308.000000	0.276187
2309.000000	0.279213
2310.000000	0.278837
2311.000000	0.279804
2312.000000	0.279170
2313.000000	0.277093
2314.000000	0.276866
2315.000000	0.277325
2316.000000	0.278521
2317.000000	0.277878
2318.000000	0.276474
2319.000000	0.274937
2320.000000	0.271684
2321.000000	0.268213
2322.000000	0.266129
2323.000000	0.262921
2324.000000	0.260549
2325.000000	0.259496
2326.000000	0.257582
2327.000000	0.258428
2328.000000	0.259040
2329.000000	0.258300
2330.000000	0.257685
2331.000000	0.255327
2332.000000	0.253130
2333.000000	0.252858
2334.000000	0.250494
2335.000000	0.249623
2336.000000	0.250001
2337.000000	0.249453
2338.000000	0.249570
2339.000000	0.248285
2340.000000	0.244791
2341.000000	0.242894
2342.000000	0.240745
2343.000000	0.239215
2344.000000	0.239553
2345.000000	0.237542
2346.000000	0.234042
2347.000000	0.231194
2348.000000	0.226793
2349.000000	0.225745
2350.000000	0.226986
2351.000000	0.228252
2352.000000	0.230269
2353.000000	0.231115
2354.000000	0.229441
2355.000000	0.227444
2356.000000	0.224840
2357.000000	0.223119
2358.000000	0.221219
2359.000000	0.215397
2360.000000	0.213284
2361.000000	0.213004
2362.000000	0.210459
2363.000000	0.213768
2364.000000	0.213032
2365.000000	0.207670
2366.000000	0.204879
2367.000000	0.203864
2368.000000	0.206427
2369.000000	0.208036
2370.000000	0.208363
2371.000000	0.207095
2372.000000	0.203381
2373.000000	0.199718
2374.000000	0.197981
2375.000000	0.195991
2376.000000	0.191439
2377.000000	0.186893
2378.000000	0.183860
2379.000000	0.180028
2380.000000	0.174940
2381.000000	0.175970
2382.000000	0.178006
2383.000000	0.176974
2384.000000	0.179855
2385.000000	0.182228
2386.000000	0.179868
2387.000000	0.180647
2388.000000	0.180132
2389.000000	0.178160
2390.000000	0.179706
2391.000000	0.170549
2392.000000	0.166248
2393.000000	0.166443
2394.000000	0.162659
2395.000000	0.167813
2396.000000	0.172131
2397.000000	0.173584
2398.000000	0.172805
2399.000000	0.174189
2400.000000	0.174065
2401.000000	0.171795
2402.000000	0.175837
2403.000000	0.179154
2404.000000	0.178072
2405.000000	0.175904
2406.000000	0.180804
2407.000000	0.185963
2408.000000	0.193748
2409.000000	0.197312
2410.000000	0.184453
2411.000000	0.174329
2412.000000	0.160300
2413.000000	0.151391
2414.000000	0.160901
2415.000000	0.161024
2416.000000	0.165694
2417.000000	0.173844
2418.000000	0.166510
2419.000000	0.164766
2420.000000	0.164035
2421.000000	0.163741
2422.000000	0.167643
2423.000000	0.162691
2424.000000	0.151673
2425.000000	0.146993
2426.000000	0.141072
2427.000000	0.139303
2428.000000	0.154620
2429.000000	0.161412
2430.000000	0.167468
2431.000000	0.177704
2432.000000	0.172684
2433.000000	0.167628
2434.000000	0.158728
2435.000000	0.147053
2436.000000	0.146154
2437.000000	0.144261
2438.000000	0.149836
2439.000000	0.160900
2440.000000	0.169181
2441.000000	0.180060
2442.000000	0.172513
2443.000000	0.161381
2444.000000	0.153571
2445.000000	0.122086
2446.000000	0.111522
2447.000000	0.109116
2448.000000	0.090773
2449.000000	0.106175
2450.000000	0.120212
2451.000000	0.118282
2452.000000	0.128137
2453.000000	0.118221
2454.000000	0.099990
2455.000000	0.089724
2456.000000	0.080617
2457.000000	0.089727
2458.000000	0.108880
2459.000000	0.123585
2460.000000	0.144991
2461.000000	0.156370
2462.000000	0.146169
2463.000000	0.141628
2464.000000	0.129422
2465.000000	0.107276
2466.000000	0.100201
2467.000000	0.091011
2468.000000	0.076152
2469.000000	0.068241
2470.000000	0.061418
2471.000000	0.051654
2472.000000	0.045155
2473.000000	0.052097
2474.000000	0.066882
2475.000000	0.087155
2476.000000	0.109775
2477.000000	0.110905
2478.000000	0.116208
2479.000000	0.134534
2480.000000	0.146011
2481.000000	0.143009
2482.000000	0.111897
2483.000000	0.069731
2484.000000	0.056731
2485.000000	0.082493
2486.000000	0.110751
2487.000000	0.140737
2488.000000	0.115807
2489.000000	0.071827
2490.000000	0.082797
2491.000000	0.059372
2492.000000	0.045026
2493.000000	-0.008828
2494.000000	-0.014249
2495.000000	0.038136
2496.000000	0.057667
2497.000000	0.132690
2498.000000	0.163696
2499.000000	0.107423
2500.000000	0.098233
