# Wavelength	NAu-2-40_HEX-50_FV7-10_00001.asd.rts.txt
350.000000	0.146345
351.000000	0.142368
352.000000	0.142174
353.000000	0.149119
354.000000	0.159460
355.000000	0.152690
356.000000	0.139532
357.000000	0.131885
358.000000	0.142523
359.000000	0.145526
360.000000	0.146594
361.000000	0.155183
362.000000	0.151650
363.000000	0.143399
364.000000	0.138689
365.000000	0.145667
366.000000	0.146533
367.000000	0.141014
368.000000	0.144039
369.000000	0.140524
370.000000	0.137891
371.000000	0.146667
372.000000	0.146973
373.000000	0.145327
374.000000	0.147313
375.000000	0.147774
376.000000	0.146031
377.000000	0.144215
378.000000	0.147915
379.000000	0.145967
380.000000	0.141394
381.000000	0.141611
382.000000	0.143767
383.000000	0.144701
384.000000	0.143499
385.000000	0.144537
386.000000	0.145208
387.000000	0.144743
388.000000	0.143979
389.000000	0.142818
390.000000	0.142898
391.000000	0.145723
392.000000	0.146121
393.000000	0.146408
394.000000	0.148130
395.000000	0.146605
396.000000	0.146085
397.000000	0.147411
398.000000	0.146996
399.000000	0.146783
400.000000	0.146660
401.000000	0.145808
402.000000	0.146743
403.000000	0.146937
404.000000	0.144700
405.000000	0.144544
406.000000	0.145747
407.000000	0.147015
408.000000	0.146069
409.000000	0.146018
410.000000	0.146929
411.000000	0.147171
412.000000	0.147385
413.000000	0.148028
414.000000	0.149197
415.000000	0.148995
416.000000	0.148766
417.000000	0.149334
418.000000	0.150012
419.000000	0.150552
420.000000	0.150863
421.000000	0.150985
422.000000	0.151262
423.000000	0.151587
424.000000	0.151786
425.000000	0.151980
426.000000	0.152599
427.000000	0.153591
428.000000	0.153257
429.000000	0.153318
430.000000	0.154136
431.000000	0.154294
432.000000	0.154359
433.000000	0.154485
434.000000	0.154762
435.000000	0.155129
436.000000	0.155432
437.000000	0.155588
438.000000	0.155961
439.000000	0.156352
440.000000	0.156692
441.000000	0.156994
442.000000	0.157168
443.000000	0.157371
444.000000	0.158052
445.000000	0.158197
446.000000	0.158319
447.000000	0.159036
448.000000	0.159212
449.000000	0.159499
450.000000	0.160293
451.000000	0.160853
452.000000	0.160951
453.000000	0.160888
454.000000	0.161837
455.000000	0.162114
456.000000	0.162187
457.000000	0.163166
458.000000	0.163532
459.000000	0.163881
460.000000	0.164783
461.000000	0.164967
462.000000	0.165103
463.000000	0.165421
464.000000	0.165585
465.000000	0.166005
466.000000	0.166648
467.000000	0.167280
468.000000	0.167558
469.000000	0.167831
470.000000	0.168551
471.000000	0.168551
472.000000	0.168525
473.000000	0.168974
474.000000	0.169383
475.000000	0.169824
476.000000	0.170304
477.000000	0.170515
478.000000	0.170737
479.000000	0.171061
480.000000	0.171295
481.000000	0.171730
482.000000	0.172271
483.000000	0.172639
484.000000	0.172900
485.000000	0.173099
486.000000	0.173371
487.000000	0.173651
488.000000	0.173834
489.000000	0.174045
490.000000	0.174554
491.000000	0.174642
492.000000	0.174627
493.000000	0.174914
494.000000	0.175030
495.000000	0.175001
496.000000	0.174908
497.000000	0.174949
498.000000	0.175064
499.000000	0.175239
500.000000	0.175388
501.000000	0.175445
502.000000	0.175514
503.000000	0.175718
504.000000	0.175890
505.000000	0.176054
506.000000	0.176270
507.000000	0.176588
508.000000	0.176947
509.000000	0.177305
510.000000	0.177772
511.000000	0.178198
512.000000	0.178559
513.000000	0.178881
514.000000	0.179191
515.000000	0.179561
516.000000	0.180011
517.000000	0.180421
518.000000	0.180767
519.000000	0.181048
520.000000	0.181584
521.000000	0.182063
522.000000	0.182468
523.000000	0.183247
524.000000	0.183885
525.000000	0.184454
526.000000	0.185352
527.000000	0.186280
528.000000	0.187267
529.000000	0.188426
530.000000	0.189691
531.000000	0.190987
532.000000	0.192247
533.000000	0.193670
534.000000	0.195104
535.000000	0.196504
536.000000	0.197955
537.000000	0.199405
538.000000	0.200796
539.000000	0.202062
540.000000	0.203340
541.000000	0.204561
542.000000	0.205685
543.000000	0.206805
544.000000	0.207907
545.000000	0.208964
546.000000	0.210125
547.000000	0.211295
548.000000	0.212496
549.000000	0.213754
550.000000	0.215093
551.000000	0.216530
552.000000	0.218033
553.000000	0.219581
554.000000	0.221242
555.000000	0.223043
556.000000	0.224879
557.000000	0.226673
558.000000	0.228542
559.000000	0.230559
560.000000	0.232663
561.000000	0.234777
562.000000	0.236690
563.000000	0.238572
564.000000	0.240442
565.000000	0.242203
566.000000	0.243963
567.000000	0.245609
568.000000	0.247067
569.000000	0.248428
570.000000	0.249713
571.000000	0.250910
572.000000	0.251998
573.000000	0.252967
574.000000	0.253801
575.000000	0.254528
576.000000	0.255128
577.000000	0.255669
578.000000	0.256234
579.000000	0.256657
580.000000	0.256966
581.000000	0.257172
582.000000	0.257252
583.000000	0.257380
584.000000	0.257489
585.000000	0.257369
586.000000	0.257205
587.000000	0.257048
588.000000	0.256890
589.000000	0.256553
590.000000	0.256197
591.000000	0.255888
592.000000	0.255368
593.000000	0.254861
594.000000	0.254404
595.000000	0.253860
596.000000	0.253230
597.000000	0.252614
598.000000	0.252053
599.000000	0.251381
600.000000	0.250678
601.000000	0.249982
602.000000	0.249376
603.000000	0.248711
604.000000	0.247953
605.000000	0.247233
606.000000	0.246550
607.000000	0.245884
608.000000	0.245187
609.000000	0.244473
610.000000	0.243790
611.000000	0.243177
612.000000	0.242534
613.000000	0.241872
614.000000	0.241233
615.000000	0.240608
616.000000	0.239971
617.000000	0.239312
618.000000	0.238710
619.000000	0.238242
620.000000	0.237784
621.000000	0.237195
622.000000	0.236615
623.000000	0.236123
624.000000	0.235731
625.000000	0.235259
626.000000	0.234782
627.000000	0.234351
628.000000	0.233967
629.000000	0.233680
630.000000	0.233371
631.000000	0.233055
632.000000	0.232807
633.000000	0.232594
634.000000	0.232359
635.000000	0.232118
636.000000	0.231918
637.000000	0.231761
638.000000	0.231602
639.000000	0.231476
640.000000	0.231414
641.000000	0.231316
642.000000	0.231265
643.000000	0.231279
644.000000	0.231350
645.000000	0.231327
646.000000	0.231368
647.000000	0.231544
648.000000	0.231637
649.000000	0.231789
650.000000	0.232025
651.000000	0.232275
652.000000	0.232528
653.000000	0.232811
654.000000	0.233108
655.000000	0.233454
656.000000	0.233822
657.000000	0.234157
658.000000	0.234579
659.000000	0.235058
660.000000	0.235560
661.000000	0.236110
662.000000	0.236641
663.000000	0.237191
664.000000	0.237781
665.000000	0.238429
666.000000	0.239134
667.000000	0.239859
668.000000	0.240600
669.000000	0.241361
670.000000	0.242167
671.000000	0.243076
672.000000	0.243983
673.000000	0.244875
674.000000	0.245821
675.000000	0.246853
676.000000	0.247923
677.000000	0.248981
678.000000	0.250042
679.000000	0.251147
680.000000	0.252328
681.000000	0.253574
682.000000	0.254840
683.000000	0.256077
684.000000	0.257425
685.000000	0.258805
686.000000	0.260227
687.000000	0.261690
688.000000	0.263246
689.000000	0.264805
690.000000	0.266355
691.000000	0.268012
692.000000	0.269700
693.000000	0.271446
694.000000	0.273237
695.000000	0.275015
696.000000	0.276798
697.000000	0.278637
698.000000	0.280514
699.000000	0.282461
700.000000	0.284487
701.000000	0.286472
702.000000	0.288476
703.000000	0.290517
704.000000	0.292604
705.000000	0.294767
706.000000	0.296984
707.000000	0.299290
708.000000	0.301539
709.000000	0.303778
710.000000	0.306083
711.000000	0.308432
712.000000	0.310763
713.000000	0.313100
714.000000	0.315529
715.000000	0.317965
716.000000	0.320413
717.000000	0.322891
718.000000	0.325340
719.000000	0.327799
720.000000	0.330317
721.000000	0.332833
722.000000	0.335279
723.000000	0.337718
724.000000	0.340199
725.000000	0.342697
726.000000	0.345231
727.000000	0.347659
728.000000	0.350126
729.000000	0.352647
730.000000	0.355149
731.000000	0.357672
732.000000	0.360132
733.000000	0.362545
734.000000	0.364918
735.000000	0.367225
736.000000	0.369590
737.000000	0.371885
738.000000	0.374090
739.000000	0.376355
740.000000	0.378566
741.000000	0.380713
742.000000	0.382868
743.000000	0.384998
744.000000	0.387060
745.000000	0.389050
746.000000	0.391019
747.000000	0.392918
748.000000	0.394835
749.000000	0.396685
750.000000	0.398391
751.000000	0.400125
752.000000	0.401848
753.000000	0.403550
754.000000	0.405205
755.000000	0.406866
756.000000	0.408484
757.000000	0.409950
758.000000	0.411432
759.000000	0.412933
760.000000	0.414335
761.000000	0.415659
762.000000	0.416965
763.000000	0.418217
764.000000	0.419427
765.000000	0.420600
766.000000	0.421715
767.000000	0.422746
768.000000	0.423705
769.000000	0.424643
770.000000	0.425591
771.000000	0.426546
772.000000	0.427426
773.000000	0.428198
774.000000	0.429029
775.000000	0.429751
776.000000	0.430411
777.000000	0.431036
778.000000	0.431614
779.000000	0.432202
780.000000	0.432810
781.000000	0.433372
782.000000	0.433820
783.000000	0.434338
784.000000	0.434898
785.000000	0.435511
786.000000	0.436033
787.000000	0.436403
788.000000	0.436751
789.000000	0.437107
790.000000	0.437433
791.000000	0.437713
792.000000	0.437931
793.000000	0.438094
794.000000	0.438243
795.000000	0.438485
796.000000	0.438696
797.000000	0.438843
798.000000	0.438991
799.000000	0.439137
800.000000	0.439229
801.000000	0.439242
802.000000	0.439363
803.000000	0.439496
804.000000	0.439612
805.000000	0.439660
806.000000	0.439620
807.000000	0.439646
808.000000	0.439743
809.000000	0.439846
810.000000	0.439911
811.000000	0.439888
812.000000	0.439763
813.000000	0.439692
814.000000	0.439685
815.000000	0.439655
816.000000	0.439604
817.000000	0.439561
818.000000	0.439455
819.000000	0.439490
820.000000	0.439452
821.000000	0.439236
822.000000	0.439132
823.000000	0.439025
824.000000	0.438816
825.000000	0.438595
826.000000	0.438392
827.000000	0.438157
828.000000	0.437966
829.000000	0.437999
830.000000	0.437913
831.000000	0.437724
832.000000	0.437415
833.000000	0.437162
834.000000	0.436992
835.000000	0.436900
836.000000	0.436684
837.000000	0.436394
838.000000	0.436099
839.000000	0.435823
840.000000	0.435530
841.000000	0.435270
842.000000	0.435045
843.000000	0.434901
844.000000	0.434735
845.000000	0.434518
846.000000	0.434406
847.000000	0.434164
848.000000	0.433850
849.000000	0.433613
850.000000	0.433304
851.000000	0.432911
852.000000	0.432545
853.000000	0.432320
854.000000	0.432011
855.000000	0.431766
856.000000	0.431537
857.000000	0.431086
858.000000	0.430796
859.000000	0.430662
860.000000	0.430318
861.000000	0.430036
862.000000	0.429832
863.000000	0.429534
864.000000	0.429191
865.000000	0.428904
866.000000	0.428705
867.000000	0.428385
868.000000	0.428088
869.000000	0.427720
870.000000	0.427288
871.000000	0.427023
872.000000	0.426755
873.000000	0.426328
874.000000	0.425988
875.000000	0.425606
876.000000	0.425226
877.000000	0.424846
878.000000	0.424407
879.000000	0.424057
880.000000	0.423717
881.000000	0.423548
882.000000	0.423275
883.000000	0.422896
884.000000	0.422461
885.000000	0.422204
886.000000	0.421940
887.000000	0.421560
888.000000	0.421027
889.000000	0.420690
890.000000	0.420360
891.000000	0.419977
892.000000	0.419646
893.000000	0.419321
894.000000	0.419109
895.000000	0.418849
896.000000	0.418611
897.000000	0.418290
898.000000	0.417790
899.000000	0.417400
900.000000	0.417077
901.000000	0.416717
902.000000	0.416347
903.000000	0.416033
904.000000	0.415780
905.000000	0.415452
906.000000	0.415262
907.000000	0.415036
908.000000	0.414752
909.000000	0.414330
910.000000	0.413957
911.000000	0.413676
912.000000	0.413465
913.000000	0.413122
914.000000	0.412705
915.000000	0.412405
916.000000	0.412257
917.000000	0.411938
918.000000	0.411554
919.000000	0.411211
920.000000	0.410925
921.000000	0.410683
922.000000	0.410436
923.000000	0.410087
924.000000	0.409641
925.000000	0.409134
926.000000	0.408731
927.000000	0.408659
928.000000	0.408483
929.000000	0.408159
930.000000	0.407798
931.000000	0.407472
932.000000	0.407199
933.000000	0.407001
934.000000	0.406771
935.000000	0.406444
936.000000	0.406163
937.000000	0.405895
938.000000	0.405476
939.000000	0.405295
940.000000	0.405155
941.000000	0.404765
942.000000	0.404466
943.000000	0.404333
944.000000	0.404160
945.000000	0.403878
946.000000	0.403388
947.000000	0.403012
948.000000	0.402961
949.000000	0.402769
950.000000	0.402406
951.000000	0.401990
952.000000	0.401891
953.000000	0.401593
954.000000	0.401275
955.000000	0.400999
956.000000	0.400558
957.000000	0.400192
958.000000	0.399913
959.000000	0.399780
960.000000	0.399627
961.000000	0.399475
962.000000	0.399266
963.000000	0.398928
964.000000	0.398815
965.000000	0.398717
966.000000	0.398314
967.000000	0.398036
968.000000	0.397970
969.000000	0.397922
970.000000	0.397751
971.000000	0.397492
972.000000	0.397470
973.000000	0.397536
974.000000	0.397222
975.000000	0.397291
976.000000	0.397281
977.000000	0.396800
978.000000	0.396433
979.000000	0.396279
980.000000	0.396028
981.000000	0.395860
982.000000	0.395881
983.000000	0.395699
984.000000	0.395507
985.000000	0.395861
986.000000	0.395607
987.000000	0.395267
988.000000	0.395188
989.000000	0.395157
990.000000	0.395143
991.000000	0.395327
992.000000	0.395814
993.000000	0.395679
994.000000	0.395400
995.000000	0.395395
996.000000	0.395423
997.000000	0.395282
998.000000	0.395092
999.000000	0.395031
1000.000000	0.394940
1001.000000	0.394964
1002.000000	0.394869
1003.000000	0.395230
1004.000000	0.395086
1005.000000	0.393825
1006.000000	0.393208
1007.000000	0.392971
1008.000000	0.392761
1009.000000	0.392311
1010.000000	0.392243
1011.000000	0.392841
1012.000000	0.393006
1013.000000	0.392326
1014.000000	0.392426
1015.000000	0.392837
1016.000000	0.392727
1017.000000	0.393115
1018.000000	0.393833
1019.000000	0.393941
1020.000000	0.393410
1021.000000	0.393193
1022.000000	0.393334
1023.000000	0.393281
1024.000000	0.392831
1025.000000	0.393323
1026.000000	0.393331
1027.000000	0.392864
1028.000000	0.393243
1029.000000	0.393926
1030.000000	0.394421
1031.000000	0.394504
1032.000000	0.394590
1033.000000	0.394458
1034.000000	0.394614
1035.000000	0.395095
1036.000000	0.395416
1037.000000	0.395929
1038.000000	0.395969
1039.000000	0.395685
1040.000000	0.395541
1041.000000	0.395748
1042.000000	0.395659
1043.000000	0.396475
1044.000000	0.397356
1045.000000	0.397157
1046.000000	0.397077
1047.000000	0.397215
1048.000000	0.396842
1049.000000	0.396874
1050.000000	0.397570
1051.000000	0.397854
1052.000000	0.397780
1053.000000	0.397885
1054.000000	0.398562
1055.000000	0.398686
1056.000000	0.398499
1057.000000	0.398355
1058.000000	0.398681
1059.000000	0.398676
1060.000000	0.399000
1061.000000	0.399693
1062.000000	0.399401
1063.000000	0.399501
1064.000000	0.399935
1065.000000	0.400802
1066.000000	0.401184
1067.000000	0.401667
1068.000000	0.401879
1069.000000	0.401363
1070.000000	0.401507
1071.000000	0.402387
1072.000000	0.402580
1073.000000	0.402650
1074.000000	0.402772
1075.000000	0.402583
1076.000000	0.402594
1077.000000	0.403241
1078.000000	0.403978
1079.000000	0.404248
1080.000000	0.404321
1081.000000	0.404483
1082.000000	0.404480
1083.000000	0.404627
1084.000000	0.405079
1085.000000	0.405346
1086.000000	0.405345
1087.000000	0.405537
1088.000000	0.405564
1089.000000	0.405854
1090.000000	0.406450
1091.000000	0.406871
1092.000000	0.407019
1093.000000	0.407407
1094.000000	0.407633
1095.000000	0.407421
1096.000000	0.407653
1097.000000	0.408241
1098.000000	0.408443
1099.000000	0.408376
1100.000000	0.408665
1101.000000	0.408994
1102.000000	0.409193
1103.000000	0.409447
1104.000000	0.409725
1105.000000	0.409851
1106.000000	0.410062
1107.000000	0.410342
1108.000000	0.410635
1109.000000	0.411132
1110.000000	0.411287
1111.000000	0.411541
1112.000000	0.411826
1113.000000	0.412119
1114.000000	0.412262
1115.000000	0.412663
1116.000000	0.413380
1117.000000	0.413749
1118.000000	0.414202
1119.000000	0.414249
1120.000000	0.413787
1121.000000	0.413665
1122.000000	0.413463
1123.000000	0.413735
1124.000000	0.414301
1125.000000	0.414563
1126.000000	0.414667
1127.000000	0.414773
1128.000000	0.414796
1129.000000	0.414608
1130.000000	0.414677
1131.000000	0.414942
1132.000000	0.414989
1133.000000	0.415022
1134.000000	0.415156
1135.000000	0.415122
1136.000000	0.415275
1137.000000	0.415626
1138.000000	0.415815
1139.000000	0.416297
1140.000000	0.416479
1141.000000	0.416286
1142.000000	0.416271
1143.000000	0.416060
1144.000000	0.416046
1145.000000	0.415975
1146.000000	0.415804
1147.000000	0.415863
1148.000000	0.415849
1149.000000	0.415916
1150.000000	0.416232
1151.000000	0.416383
1152.000000	0.416343
1153.000000	0.416419
1154.000000	0.416470
1155.000000	0.416552
1156.000000	0.416739
1157.000000	0.416768
1158.000000	0.416602
1159.000000	0.416603
1160.000000	0.416502
1161.000000	0.416532
1162.000000	0.416842
1163.000000	0.417277
1164.000000	0.417386
1165.000000	0.417524
1166.000000	0.417652
1167.000000	0.417581
1168.000000	0.417657
1169.000000	0.417890
1170.000000	0.418031
1171.000000	0.418273
1172.000000	0.418399
1173.000000	0.418292
1174.000000	0.418396
1175.000000	0.418521
1176.000000	0.418595
1177.000000	0.418941
1178.000000	0.419122
1179.000000	0.419118
1180.000000	0.419105
1181.000000	0.419168
1182.000000	0.419189
1183.000000	0.419252
1184.000000	0.419479
1185.000000	0.419582
1186.000000	0.419678
1187.000000	0.419744
1188.000000	0.419763
1189.000000	0.419784
1190.000000	0.419859
1191.000000	0.419945
1192.000000	0.420129
1193.000000	0.420408
1194.000000	0.420648
1195.000000	0.420818
1196.000000	0.420902
1197.000000	0.420991
1198.000000	0.420978
1199.000000	0.421110
1200.000000	0.421354
1201.000000	0.421556
1202.000000	0.421667
1203.000000	0.421783
1204.000000	0.421742
1205.000000	0.421755
1206.000000	0.421831
1207.000000	0.422146
1208.000000	0.422278
1209.000000	0.422470
1210.000000	0.422626
1211.000000	0.422724
1212.000000	0.422801
1213.000000	0.422947
1214.000000	0.423056
1215.000000	0.423013
1216.000000	0.423144
1217.000000	0.423341
1218.000000	0.423450
1219.000000	0.423621
1220.000000	0.423862
1221.000000	0.423942
1222.000000	0.424064
1223.000000	0.424323
1224.000000	0.424556
1225.000000	0.424716
1226.000000	0.424964
1227.000000	0.425092
1228.000000	0.425252
1229.000000	0.425396
1230.000000	0.425542
1231.000000	0.425588
1232.000000	0.425713
1233.000000	0.425959
1234.000000	0.426212
1235.000000	0.426430
1236.000000	0.426585
1237.000000	0.426833
1238.000000	0.427014
1239.000000	0.427149
1240.000000	0.427304
1241.000000	0.427506
1242.000000	0.427535
1243.000000	0.427611
1244.000000	0.427775
1245.000000	0.427964
1246.000000	0.428198
1247.000000	0.428533
1248.000000	0.428662
1249.000000	0.428843
1250.000000	0.429200
1251.000000	0.429417
1252.000000	0.429634
1253.000000	0.430009
1254.000000	0.430269
1255.000000	0.430405
1256.000000	0.430539
1257.000000	0.430759
1258.000000	0.430936
1259.000000	0.430823
1260.000000	0.430977
1261.000000	0.431165
1262.000000	0.431364
1263.000000	0.431639
1264.000000	0.432038
1265.000000	0.432364
1266.000000	0.432434
1267.000000	0.432607
1268.000000	0.432661
1269.000000	0.432502
1270.000000	0.432702
1271.000000	0.432914
1272.000000	0.433054
1273.000000	0.433328
1274.000000	0.433594
1275.000000	0.433753
1276.000000	0.433773
1277.000000	0.434005
1278.000000	0.434226
1279.000000	0.434401
1280.000000	0.434527
1281.000000	0.434653
1282.000000	0.434783
1283.000000	0.434984
1284.000000	0.435157
1285.000000	0.435378
1286.000000	0.435618
1287.000000	0.435768
1288.000000	0.436021
1289.000000	0.436186
1290.000000	0.436150
1291.000000	0.436230
1292.000000	0.436300
1293.000000	0.436313
1294.000000	0.436498
1295.000000	0.436749
1296.000000	0.436847
1297.000000	0.437008
1298.000000	0.437209
1299.000000	0.437146
1300.000000	0.437194
1301.000000	0.437286
1302.000000	0.437238
1303.000000	0.437245
1304.000000	0.437237
1305.000000	0.437347
1306.000000	0.437342
1307.000000	0.437300
1308.000000	0.437332
1309.000000	0.437357
1310.000000	0.437358
1311.000000	0.437388
1312.000000	0.437513
1313.000000	0.437565
1314.000000	0.437494
1315.000000	0.437324
1316.000000	0.437360
1317.000000	0.437421
1318.000000	0.437246
1319.000000	0.437088
1320.000000	0.437014
1321.000000	0.436800
1322.000000	0.436675
1323.000000	0.436668
1324.000000	0.436576
1325.000000	0.436512
1326.000000	0.436432
1327.000000	0.436385
1328.000000	0.436481
1329.000000	0.436369
1330.000000	0.436139
1331.000000	0.436028
1332.000000	0.435920
1333.000000	0.435856
1334.000000	0.436031
1335.000000	0.436070
1336.000000	0.436130
1337.000000	0.435959
1338.000000	0.435530
1339.000000	0.435130
1340.000000	0.434793
1341.000000	0.434540
1342.000000	0.434508
1343.000000	0.434411
1344.000000	0.434195
1345.000000	0.433981
1346.000000	0.433860
1347.000000	0.433628
1348.000000	0.433328
1349.000000	0.432985
1350.000000	0.432731
1351.000000	0.432490
1352.000000	0.432380
1353.000000	0.432221
1354.000000	0.431902
1355.000000	0.431591
1356.000000	0.431365
1357.000000	0.430981
1358.000000	0.430648
1359.000000	0.430400
1360.000000	0.430133
1361.000000	0.429924
1362.000000	0.429655
1363.000000	0.429368
1364.000000	0.429101
1365.000000	0.428755
1366.000000	0.428483
1367.000000	0.428341
1368.000000	0.427892
1369.000000	0.427499
1370.000000	0.427057
1371.000000	0.426531
1372.000000	0.426013
1373.000000	0.425534
1374.000000	0.425040
1375.000000	0.424380
1376.000000	0.423881
1377.000000	0.423391
1378.000000	0.422706
1379.000000	0.421976
1380.000000	0.421108
1381.000000	0.419955
1382.000000	0.418805
1383.000000	0.417721
1384.000000	0.416522
1385.000000	0.415333
1386.000000	0.414058
1387.000000	0.412657
1388.000000	0.410989
1389.000000	0.409102
1390.000000	0.407335
1391.000000	0.405360
1392.000000	0.403232
1393.000000	0.401114
1394.000000	0.399206
1395.000000	0.396852
1396.000000	0.394221
1397.000000	0.391622
1398.000000	0.388714
1399.000000	0.385928
1400.000000	0.383132
1401.000000	0.380449
1402.000000	0.377864
1403.000000	0.375241
1404.000000	0.372723
1405.000000	0.370252
1406.000000	0.367768
1407.000000	0.365486
1408.000000	0.363363
1409.000000	0.361415
1410.000000	0.359582
1411.000000	0.357687
1412.000000	0.355911
1413.000000	0.354209
1414.000000	0.352530
1415.000000	0.351081
1416.000000	0.349721
1417.000000	0.348585
1418.000000	0.347412
1419.000000	0.346034
1420.000000	0.344716
1421.000000	0.343429
1422.000000	0.342121
1423.000000	0.341108
1424.000000	0.339981
1425.000000	0.338698
1426.000000	0.337467
1427.000000	0.336400
1428.000000	0.335424
1429.000000	0.334571
1430.000000	0.333640
1431.000000	0.332574
1432.000000	0.331637
1433.000000	0.330689
1434.000000	0.329779
1435.000000	0.329109
1436.000000	0.328384
1437.000000	0.327565
1438.000000	0.326868
1439.000000	0.326270
1440.000000	0.325796
1441.000000	0.325377
1442.000000	0.325124
1443.000000	0.324957
1444.000000	0.324907
1445.000000	0.324917
1446.000000	0.325042
1447.000000	0.325299
1448.000000	0.325541
1449.000000	0.325781
1450.000000	0.326068
1451.000000	0.326311
1452.000000	0.326454
1453.000000	0.326641
1454.000000	0.326830
1455.000000	0.327004
1456.000000	0.327203
1457.000000	0.327327
1458.000000	0.327379
1459.000000	0.327379
1460.000000	0.327380
1461.000000	0.327455
1462.000000	0.327589
1463.000000	0.327733
1464.000000	0.327910
1465.000000	0.328115
1466.000000	0.328281
1467.000000	0.328454
1468.000000	0.328713
1469.000000	0.329000
1470.000000	0.329222
1471.000000	0.329622
1472.000000	0.330059
1473.000000	0.330567
1474.000000	0.331110
1475.000000	0.331641
1476.000000	0.332101
1477.000000	0.332632
1478.000000	0.333229
1479.000000	0.333757
1480.000000	0.334424
1481.000000	0.335061
1482.000000	0.335708
1483.000000	0.336450
1484.000000	0.337297
1485.000000	0.338042
1486.000000	0.338786
1487.000000	0.339496
1488.000000	0.340131
1489.000000	0.340904
1490.000000	0.341594
1491.000000	0.342376
1492.000000	0.343266
1493.000000	0.344018
1494.000000	0.344613
1495.000000	0.345330
1496.000000	0.346090
1497.000000	0.346783
1498.000000	0.347511
1499.000000	0.348278
1500.000000	0.348845
1501.000000	0.349351
1502.000000	0.349966
1503.000000	0.350648
1504.000000	0.351367
1505.000000	0.352007
1506.000000	0.352613
1507.000000	0.353150
1508.000000	0.353706
1509.000000	0.354269
1510.000000	0.354770
1511.000000	0.355383
1512.000000	0.355946
1513.000000	0.356426
1514.000000	0.356992
1515.000000	0.357402
1516.000000	0.357767
1517.000000	0.358220
1518.000000	0.358582
1519.000000	0.358821
1520.000000	0.359132
1521.000000	0.359380
1522.000000	0.359669
1523.000000	0.360013
1524.000000	0.360269
1525.000000	0.360448
1526.000000	0.360517
1527.000000	0.360745
1528.000000	0.361110
1529.000000	0.361327
1530.000000	0.361501
1531.000000	0.361829
1532.000000	0.362028
1533.000000	0.362235
1534.000000	0.362705
1535.000000	0.363028
1536.000000	0.363110
1537.000000	0.363485
1538.000000	0.363926
1539.000000	0.364125
1540.000000	0.364402
1541.000000	0.364760
1542.000000	0.364984
1543.000000	0.365198
1544.000000	0.365407
1545.000000	0.365542
1546.000000	0.365673
1547.000000	0.365844
1548.000000	0.365970
1549.000000	0.365970
1550.000000	0.365865
1551.000000	0.365751
1552.000000	0.365774
1553.000000	0.365940
1554.000000	0.366179
1555.000000	0.366445
1556.000000	0.366606
1557.000000	0.366658
1558.000000	0.366808
1559.000000	0.366858
1560.000000	0.366940
1561.000000	0.367197
1562.000000	0.367277
1563.000000	0.367286
1564.000000	0.367364
1565.000000	0.367405
1566.000000	0.367370
1567.000000	0.367426
1568.000000	0.367440
1569.000000	0.367495
1570.000000	0.367550
1571.000000	0.367555
1572.000000	0.367638
1573.000000	0.367809
1574.000000	0.367827
1575.000000	0.367874
1576.000000	0.367937
1577.000000	0.367850
1578.000000	0.367819
1579.000000	0.367925
1580.000000	0.367925
1581.000000	0.367961
1582.000000	0.367967
1583.000000	0.367887
1584.000000	0.367885
1585.000000	0.367994
1586.000000	0.368133
1587.000000	0.368390
1588.000000	0.368523
1589.000000	0.368620
1590.000000	0.368670
1591.000000	0.368639
1592.000000	0.368736
1593.000000	0.368916
1594.000000	0.369036
1595.000000	0.369288
1596.000000	0.369426
1597.000000	0.369531
1598.000000	0.369580
1599.000000	0.369530
1600.000000	0.369583
1601.000000	0.369776
1602.000000	0.369861
1603.000000	0.370037
1604.000000	0.370103
1605.000000	0.370030
1606.000000	0.370049
1607.000000	0.370108
1608.000000	0.370230
1609.000000	0.370502
1610.000000	0.370664
1611.000000	0.370897
1612.000000	0.371020
1613.000000	0.371098
1614.000000	0.371238
1615.000000	0.371490
1616.000000	0.371715
1617.000000	0.371891
1618.000000	0.372057
1619.000000	0.372123
1620.000000	0.372310
1621.000000	0.372652
1622.000000	0.372945
1623.000000	0.373197
1624.000000	0.373468
1625.000000	0.373544
1626.000000	0.373671
1627.000000	0.373848
1628.000000	0.374125
1629.000000	0.374465
1630.000000	0.374785
1631.000000	0.375142
1632.000000	0.375333
1633.000000	0.375309
1634.000000	0.375572
1635.000000	0.376002
1636.000000	0.376329
1637.000000	0.376804
1638.000000	0.377125
1639.000000	0.377311
1640.000000	0.377646
1641.000000	0.378197
1642.000000	0.378566
1643.000000	0.378940
1644.000000	0.379220
1645.000000	0.379305
1646.000000	0.379525
1647.000000	0.379897
1648.000000	0.380078
1649.000000	0.380287
1650.000000	0.380580
1651.000000	0.380829
1652.000000	0.381194
1653.000000	0.381677
1654.000000	0.382061
1655.000000	0.382342
1656.000000	0.382520
1657.000000	0.382721
1658.000000	0.382965
1659.000000	0.383306
1660.000000	0.383621
1661.000000	0.383811
1662.000000	0.384161
1663.000000	0.384534
1664.000000	0.384809
1665.000000	0.385203
1666.000000	0.385542
1667.000000	0.385580
1668.000000	0.385861
1669.000000	0.386215
1670.000000	0.386543
1671.000000	0.387095
1672.000000	0.387537
1673.000000	0.387958
1674.000000	0.388201
1675.000000	0.388447
1676.000000	0.388768
1677.000000	0.389052
1678.000000	0.389236
1679.000000	0.389434
1680.000000	0.389621
1681.000000	0.389816
1682.000000	0.390086
1683.000000	0.390285
1684.000000	0.390368
1685.000000	0.390567
1686.000000	0.390788
1687.000000	0.390989
1688.000000	0.391052
1689.000000	0.391084
1690.000000	0.391131
1691.000000	0.391284
1692.000000	0.391498
1693.000000	0.391686
1694.000000	0.391839
1695.000000	0.392112
1696.000000	0.392105
1697.000000	0.392187
1698.000000	0.392360
1699.000000	0.392507
1700.000000	0.392714
1701.000000	0.393038
1702.000000	0.393156
1703.000000	0.393223
1704.000000	0.393482
1705.000000	0.393655
1706.000000	0.393780
1707.000000	0.393877
1708.000000	0.393764
1709.000000	0.393869
1710.000000	0.394234
1711.000000	0.394516
1712.000000	0.395078
1713.000000	0.395356
1714.000000	0.395390
1715.000000	0.395538
1716.000000	0.395635
1717.000000	0.395814
1718.000000	0.396033
1719.000000	0.396216
1720.000000	0.396500
1721.000000	0.396715
1722.000000	0.396903
1723.000000	0.397085
1724.000000	0.397252
1725.000000	0.397475
1726.000000	0.397571
1727.000000	0.397784
1728.000000	0.398044
1729.000000	0.398154
1730.000000	0.398407
1731.000000	0.398602
1732.000000	0.398696
1733.000000	0.398963
1734.000000	0.399186
1735.000000	0.399353
1736.000000	0.399555
1737.000000	0.399539
1738.000000	0.399293
1739.000000	0.399402
1740.000000	0.399541
1741.000000	0.399631
1742.000000	0.399928
1743.000000	0.400163
1744.000000	0.400272
1745.000000	0.400275
1746.000000	0.400277
1747.000000	0.400364
1748.000000	0.400388
1749.000000	0.400757
1750.000000	0.400882
1751.000000	0.400858
1752.000000	0.400987
1753.000000	0.400924
1754.000000	0.400931
1755.000000	0.400939
1756.000000	0.400934
1757.000000	0.400951
1758.000000	0.400981
1759.000000	0.400967
1760.000000	0.401002
1761.000000	0.401058
1762.000000	0.401050
1763.000000	0.401005
1764.000000	0.401058
1765.000000	0.401055
1766.000000	0.401142
1767.000000	0.401324
1768.000000	0.401333
1769.000000	0.401333
1770.000000	0.401479
1771.000000	0.401556
1772.000000	0.401704
1773.000000	0.401930
1774.000000	0.402122
1775.000000	0.402443
1776.000000	0.402549
1777.000000	0.402458
1778.000000	0.402576
1779.000000	0.402633
1780.000000	0.402758
1781.000000	0.403059
1782.000000	0.403195
1783.000000	0.403232
1784.000000	0.403454
1785.000000	0.403552
1786.000000	0.403624
1787.000000	0.403942
1788.000000	0.404328
1789.000000	0.404540
1790.000000	0.404890
1791.000000	0.405012
1792.000000	0.404955
1793.000000	0.405029
1794.000000	0.405169
1795.000000	0.405217
1796.000000	0.405187
1797.000000	0.405286
1798.000000	0.405303
1799.000000	0.405401
1800.000000	0.405751
1801.000000	0.405394
1802.000000	0.405575
1803.000000	0.405487
1804.000000	0.405604
1805.000000	0.406120
1806.000000	0.406368
1807.000000	0.406293
1808.000000	0.406440
1809.000000	0.406555
1810.000000	0.407181
1811.000000	0.407140
1812.000000	0.407004
1813.000000	0.406786
1814.000000	0.405965
1815.000000	0.405749
1816.000000	0.405587
1817.000000	0.405584
1818.000000	0.405830
1819.000000	0.406853
1820.000000	0.407022
1821.000000	0.407211
1822.000000	0.407054
1823.000000	0.406169
1824.000000	0.405504
1825.000000	0.404027
1826.000000	0.403991
1827.000000	0.404495
1828.000000	0.405080
1829.000000	0.406303
1830.000000	0.407451
1831.000000	0.407423
1832.000000	0.406162
1833.000000	0.405639
1834.000000	0.404593
1835.000000	0.404148
1836.000000	0.404448
1837.000000	0.404045
1838.000000	0.403193
1839.000000	0.402249
1840.000000	0.401821
1841.000000	0.401440
1842.000000	0.401021
1843.000000	0.401136
1844.000000	0.400811
1845.000000	0.399868
1846.000000	0.399260
1847.000000	0.398376
1848.000000	0.398155
1849.000000	0.397955
1850.000000	0.396846
1851.000000	0.396071
1852.000000	0.395224
1853.000000	0.394487
1854.000000	0.393550
1855.000000	0.392710
1856.000000	0.392055
1857.000000	0.390941
1858.000000	0.389688
1859.000000	0.388216
1860.000000	0.386706
1861.000000	0.384582
1862.000000	0.382582
1863.000000	0.380830
1864.000000	0.378680
1865.000000	0.376220
1866.000000	0.373736
1867.000000	0.371157
1868.000000	0.367950
1869.000000	0.364842
1870.000000	0.361860
1871.000000	0.358666
1872.000000	0.355718
1873.000000	0.352780
1874.000000	0.350206
1875.000000	0.346832
1876.000000	0.343199
1877.000000	0.338690
1878.000000	0.333702
1879.000000	0.328937
1880.000000	0.324280
1881.000000	0.319005
1882.000000	0.313861
1883.000000	0.308351
1884.000000	0.302710
1885.000000	0.296803
1886.000000	0.290881
1887.000000	0.284764
1888.000000	0.278291
1889.000000	0.271600
1890.000000	0.264665
1891.000000	0.257763
1892.000000	0.250580
1893.000000	0.243802
1894.000000	0.236509
1895.000000	0.229526
1896.000000	0.222446
1897.000000	0.216236
1898.000000	0.209991
1899.000000	0.205464
1900.000000	0.201675
1901.000000	0.197189
1902.000000	0.192998
1903.000000	0.189117
1904.000000	0.185399
1905.000000	0.181744
1906.000000	0.178512
1907.000000	0.175834
1908.000000	0.173145
1909.000000	0.170749
1910.000000	0.169220
1911.000000	0.167520
1912.000000	0.165944
1913.000000	0.164510
1914.000000	0.163171
1915.000000	0.162608
1916.000000	0.162309
1917.000000	0.161830
1918.000000	0.161558
1919.000000	0.161320
1920.000000	0.161082
1921.000000	0.160695
1922.000000	0.160006
1923.000000	0.159422
1924.000000	0.158612
1925.000000	0.158009
1926.000000	0.157947
1927.000000	0.158077
1928.000000	0.158481
1929.000000	0.159192
1930.000000	0.160029
1931.000000	0.161177
1932.000000	0.162294
1933.000000	0.162599
1934.000000	0.162683
1935.000000	0.162765
1936.000000	0.162552
1937.000000	0.162620
1938.000000	0.163082
1939.000000	0.163188
1940.000000	0.163048
1941.000000	0.162939
1942.000000	0.162934
1943.000000	0.162161
1944.000000	0.161840
1945.000000	0.161810
1946.000000	0.161576
1947.000000	0.161909
1948.000000	0.162057
1949.000000	0.162000
1950.000000	0.161820
1951.000000	0.161321
1952.000000	0.160519
1953.000000	0.159521
1954.000000	0.158820
1955.000000	0.158470
1956.000000	0.158355
1957.000000	0.158820
1958.000000	0.158952
1959.000000	0.158904
1960.000000	0.158760
1961.000000	0.157908
1962.000000	0.157424
1963.000000	0.156979
1964.000000	0.156459
1965.000000	0.156048
1966.000000	0.156715
1967.000000	0.157073
1968.000000	0.157308
1969.000000	0.158193
1970.000000	0.158197
1971.000000	0.157915
1972.000000	0.158228
1973.000000	0.158192
1974.000000	0.157711
1975.000000	0.157861
1976.000000	0.158429
1977.000000	0.158525
1978.000000	0.158954
1979.000000	0.159609
1980.000000	0.160233
1981.000000	0.161590
1982.000000	0.162619
1983.000000	0.163291
1984.000000	0.164024
1985.000000	0.164420
1986.000000	0.164778
1987.000000	0.165122
1988.000000	0.165931
1989.000000	0.166033
1990.000000	0.166298
1991.000000	0.166729
1992.000000	0.167073
1993.000000	0.167857
1994.000000	0.168844
1995.000000	0.169980
1996.000000	0.171012
1997.000000	0.172195
1998.000000	0.173919
1999.000000	0.175033
2000.000000	0.175912
2001.000000	0.176693
2002.000000	0.177407
2003.000000	0.177434
2004.000000	0.178217
2005.000000	0.179701
2006.000000	0.181014
2007.000000	0.183111
2008.000000	0.184739
2009.000000	0.186066
2010.000000	0.187485
2011.000000	0.188837
2012.000000	0.190165
2013.000000	0.191232
2014.000000	0.192951
2015.000000	0.194809
2016.000000	0.196296
2017.000000	0.198051
2018.000000	0.199813
2019.000000	0.200725
2020.000000	0.201546
2021.000000	0.202356
2022.000000	0.202315
2023.000000	0.203278
2024.000000	0.204875
2025.000000	0.206272
2026.000000	0.207836
2027.000000	0.209808
2028.000000	0.210840
2029.000000	0.211869
2030.000000	0.213027
2031.000000	0.214077
2032.000000	0.215372
2033.000000	0.216572
2034.000000	0.217760
2035.000000	0.218848
2036.000000	0.220020
2037.000000	0.221584
2038.000000	0.222727
2039.000000	0.223765
2040.000000	0.224703
2041.000000	0.225386
2042.000000	0.226267
2043.000000	0.227131
2044.000000	0.228071
2045.000000	0.229247
2046.000000	0.229835
2047.000000	0.230884
2048.000000	0.232417
2049.000000	0.233426
2050.000000	0.234285
2051.000000	0.234716
2052.000000	0.233853
2053.000000	0.234153
2054.000000	0.234659
2055.000000	0.236030
2056.000000	0.237663
2057.000000	0.239734
2058.000000	0.241433
2059.000000	0.242411
2060.000000	0.243397
2061.000000	0.244152
2062.000000	0.244977
2063.000000	0.245648
2064.000000	0.246328
2065.000000	0.247282
2066.000000	0.248005
2067.000000	0.248765
2068.000000	0.249448
2069.000000	0.250424
2070.000000	0.251954
2071.000000	0.253192
2072.000000	0.254371
2073.000000	0.254979
2074.000000	0.255374
2075.000000	0.256154
2076.000000	0.256906
2077.000000	0.257857
2078.000000	0.259055
2079.000000	0.260283
2080.000000	0.261879
2081.000000	0.263211
2082.000000	0.264464
2083.000000	0.265889
2084.000000	0.267464
2085.000000	0.268098
2086.000000	0.268876
2087.000000	0.269497
2088.000000	0.269126
2089.000000	0.269233
2090.000000	0.269919
2091.000000	0.270991
2092.000000	0.272166
2093.000000	0.274246
2094.000000	0.275714
2095.000000	0.277139
2096.000000	0.278325
2097.000000	0.279533
2098.000000	0.279799
2099.000000	0.280367
2100.000000	0.280916
2101.000000	0.281478
2102.000000	0.283252
2103.000000	0.283762
2104.000000	0.283957
2105.000000	0.284701
2106.000000	0.284943
2107.000000	0.285829
2108.000000	0.287664
2109.000000	0.289190
2110.000000	0.290784
2111.000000	0.292065
2112.000000	0.293255
2113.000000	0.294090
2114.000000	0.294906
2115.000000	0.295528
2116.000000	0.296351
2117.000000	0.296870
2118.000000	0.297141
2119.000000	0.297091
2120.000000	0.296948
2121.000000	0.296641
2122.000000	0.296373
2123.000000	0.295448
2124.000000	0.295473
2125.000000	0.295838
2126.000000	0.296313
2127.000000	0.297552
2128.000000	0.298759
2129.000000	0.300212
2130.000000	0.301174
2131.000000	0.302236
2132.000000	0.303277
2133.000000	0.303674
2134.000000	0.303758
2135.000000	0.303635
2136.000000	0.303224
2137.000000	0.303204
2138.000000	0.303334
2139.000000	0.303483
2140.000000	0.303992
2141.000000	0.304176
2142.000000	0.303788
2143.000000	0.303940
2144.000000	0.304716
2145.000000	0.305102
2146.000000	0.305547
2147.000000	0.306688
2148.000000	0.306915
2149.000000	0.306740
2150.000000	0.307180
2151.000000	0.307430
2152.000000	0.307966
2153.000000	0.308859
2154.000000	0.309115
2155.000000	0.309261
2156.000000	0.309161
2157.000000	0.308375
2158.000000	0.308066
2159.000000	0.307812
2160.000000	0.307891
2161.000000	0.308296
2162.000000	0.308729
2163.000000	0.309535
2164.000000	0.309730
2165.000000	0.309613
2166.000000	0.309395
2167.000000	0.308883
2168.000000	0.308709
2169.000000	0.309585
2170.000000	0.310440
2171.000000	0.310945
2172.000000	0.311747
2173.000000	0.312373
2174.000000	0.312652
2175.000000	0.312728
2176.000000	0.312922
2177.000000	0.312869
2178.000000	0.311829
2179.000000	0.311831
2180.000000	0.312841
2181.000000	0.313232
2182.000000	0.312836
2183.000000	0.313100
2184.000000	0.313088
2185.000000	0.311685
2186.000000	0.310453
2187.000000	0.309193
2188.000000	0.308713
2189.000000	0.308347
2190.000000	0.309039
2191.000000	0.311776
2192.000000	0.312117
2193.000000	0.311171
2194.000000	0.310923
2195.000000	0.309507
2196.000000	0.308940
2197.000000	0.309535
2198.000000	0.309270
2199.000000	0.308564
2200.000000	0.307924
2201.000000	0.306307
2202.000000	0.305907
2203.000000	0.305539
2204.000000	0.306796
2205.000000	0.308320
2206.000000	0.310481
2207.000000	0.311390
2208.000000	0.312138
2209.000000	0.313251
2210.000000	0.314118
2211.000000	0.314432
2212.000000	0.314892
2213.000000	0.314802
2214.000000	0.313326
2215.000000	0.312110
2216.000000	0.310920
2217.000000	0.310408
2218.000000	0.310154
2219.000000	0.309382
2220.000000	0.307971
2221.000000	0.308213
2222.000000	0.310032
2223.000000	0.309746
2224.000000	0.309549
2225.000000	0.309864
2226.000000	0.306577
2227.000000	0.303293
2228.000000	0.303805
2229.000000	0.301922
2230.000000	0.302438
2231.000000	0.303216
2232.000000	0.303468
2233.000000	0.306594
2234.000000	0.307354
2235.000000	0.308319
2236.000000	0.308180
2237.000000	0.306613
2238.000000	0.305039
2239.000000	0.302206
2240.000000	0.300589
2241.000000	0.299013
2242.000000	0.298170
2243.000000	0.298147
2244.000000	0.298824
2245.000000	0.300180
2246.000000	0.301607
2247.000000	0.305042
2248.000000	0.305541
2249.000000	0.304640
2250.000000	0.303042
2251.000000	0.300932
2252.000000	0.301026
2253.000000	0.301574
2254.000000	0.301790
2255.000000	0.299325
2256.000000	0.296623
2257.000000	0.299308
2258.000000	0.301283
2259.000000	0.302944
2260.000000	0.305553
2261.000000	0.304835
2262.000000	0.298960
2263.000000	0.297218
2264.000000	0.296261
2265.000000	0.295453
2266.000000	0.297403
2267.000000	0.295826
2268.000000	0.291672
2269.000000	0.289321
2270.000000	0.285135
2271.000000	0.283586
2272.000000	0.284854
2273.000000	0.285120
2274.000000	0.286341
2275.000000	0.286223
2276.000000	0.285533
2277.000000	0.284282
2278.000000	0.283103
2279.000000	0.280481
2280.000000	0.277200
2281.000000	0.273207
2282.000000	0.268441
2283.000000	0.265536
2284.000000	0.264461
2285.000000	0.265208
2286.000000	0.265858
2287.000000	0.264701
2288.000000	0.263648
2289.000000	0.261086
2290.000000	0.260212
2291.000000	0.261256
2292.000000	0.257943
2293.000000	0.254220
2294.000000	0.250463
2295.000000	0.243003
2296.000000	0.240692
2297.000000	0.240740
2298.000000	0.241251
2299.000000	0.244561
2300.000000	0.246008
2301.000000	0.248856
2302.000000	0.249511
2303.000000	0.247543
2304.000000	0.248029
2305.000000	0.248183
2306.000000	0.248814
2307.000000	0.251410
2308.000000	0.253547
2309.000000	0.252387
2310.000000	0.249112
2311.000000	0.247204
2312.000000	0.245311
2313.000000	0.244695
2314.000000	0.247807
2315.000000	0.248450
2316.000000	0.249864
2317.000000	0.254393
2318.000000	0.255469
2319.000000	0.256182
2320.000000	0.257475
2321.000000	0.255957
2322.000000	0.252730
2323.000000	0.250283
2324.000000	0.247110
2325.000000	0.244826
2326.000000	0.245536
2327.000000	0.246125
2328.000000	0.248311
2329.000000	0.248311
2330.000000	0.244844
2331.000000	0.243475
2332.000000	0.241045
2333.000000	0.240388
2334.000000	0.242620
2335.000000	0.242962
2336.000000	0.243265
2337.000000	0.242953
2338.000000	0.240072
2339.000000	0.238089
2340.000000	0.236403
2341.000000	0.234594
2342.000000	0.233604
2343.000000	0.232153
2344.000000	0.230029
2345.000000	0.228839
2346.000000	0.227798
2347.000000	0.226266
2348.000000	0.225631
2349.000000	0.223639
2350.000000	0.221725
2351.000000	0.221785
2352.000000	0.222335
2353.000000	0.222359
2354.000000	0.220650
2355.000000	0.216913
2356.000000	0.214551
2357.000000	0.211712
2358.000000	0.207813
2359.000000	0.205078
2360.000000	0.200619
2361.000000	0.199217
2362.000000	0.197398
2363.000000	0.195598
2364.000000	0.195877
2365.000000	0.193995
2366.000000	0.193609
2367.000000	0.192136
2368.000000	0.192040
2369.000000	0.194322
2370.000000	0.193433
2371.000000	0.195562
2372.000000	0.196784
2373.000000	0.191838
2374.000000	0.189535
2375.000000	0.185181
2376.000000	0.180723
2377.000000	0.179617
2378.000000	0.176297
2379.000000	0.174512
2380.000000	0.173107
2381.000000	0.171288
2382.000000	0.171208
2383.000000	0.173896
2384.000000	0.177269
2385.000000	0.178438
2386.000000	0.182235
2387.000000	0.183948
2388.000000	0.180339
2389.000000	0.181023
2390.000000	0.178518
2391.000000	0.172521
2392.000000	0.169355
2393.000000	0.161947
2394.000000	0.158256
2395.000000	0.159132
2396.000000	0.157251
2397.000000	0.157770
2398.000000	0.158960
2399.000000	0.162956
2400.000000	0.168329
2401.000000	0.171050
2402.000000	0.173579
2403.000000	0.169455
2404.000000	0.162537
2405.000000	0.160062
2406.000000	0.154911
2407.000000	0.152843
2408.000000	0.157133
2409.000000	0.158936
2410.000000	0.164730
2411.000000	0.168733
2412.000000	0.165275
2413.000000	0.166122
2414.000000	0.164006
2415.000000	0.155408
2416.000000	0.154798
2417.000000	0.151461
2418.000000	0.151981
2419.000000	0.161823
2420.000000	0.157058
2421.000000	0.157226
2422.000000	0.150386
2423.000000	0.137205
2424.000000	0.138311
2425.000000	0.129503
2426.000000	0.125681
2427.000000	0.130469
2428.000000	0.128555
2429.000000	0.129841
2430.000000	0.128480
2431.000000	0.120238
2432.000000	0.113854
2433.000000	0.114333
2434.000000	0.123991
2435.000000	0.132633
2436.000000	0.139553
2437.000000	0.135924
2438.000000	0.121717
2439.000000	0.125086
2440.000000	0.136004
2441.000000	0.153261
2442.000000	0.171656
2443.000000	0.172197
2444.000000	0.166500
2445.000000	0.162540
2446.000000	0.165296
2447.000000	0.170990
2448.000000	0.180564
2449.000000	0.170308
2450.000000	0.152451
2451.000000	0.142928
2452.000000	0.122824
2453.000000	0.130118
2454.000000	0.140529
2455.000000	0.132892
2456.000000	0.134188
2457.000000	0.120055
2458.000000	0.103749
2459.000000	0.114013
2460.000000	0.118278
2461.000000	0.126921
2462.000000	0.137648
2463.000000	0.120939
2464.000000	0.111817
2465.000000	0.108727
2466.000000	0.111696
2467.000000	0.123013
2468.000000	0.129527
2469.000000	0.144541
2470.000000	0.155519
2471.000000	0.157339
2472.000000	0.155781
2473.000000	0.129927
2474.000000	0.093902
2475.000000	0.085796
2476.000000	0.098526
2477.000000	0.123056
2478.000000	0.146509
2479.000000	0.156878
2480.000000	0.141751
2481.000000	0.097829
2482.000000	0.059558
2483.000000	0.028327
2484.000000	0.002677
2485.000000	-0.000292
2486.000000	0.010758
2487.000000	0.021399
2488.000000	0.034173
2489.000000	0.094342
2490.000000	0.146619
2491.000000	0.155717
2492.000000	0.163846
2493.000000	0.147101
2494.000000	0.142934
2495.000000	0.137815
2496.000000	0.144041
2497.000000	0.169206
2498.000000	0.173014
2499.000000	0.192861
2500.000000	0.206237
