# Wavelength	NAu-2-70_HEX-20_FV7-10_00002.asd.rts.txt
350.000000	0.080725
351.000000	0.084057
352.000000	0.074488
353.000000	0.070352
354.000000	0.076604
355.000000	0.070963
356.000000	0.074362
357.000000	0.085280
358.000000	0.086694
359.000000	0.080881
360.000000	0.077820
361.000000	0.085586
362.000000	0.088119
363.000000	0.081468
364.000000	0.069359
365.000000	0.071540
366.000000	0.072986
367.000000	0.071428
368.000000	0.075420
369.000000	0.079242
370.000000	0.077917
371.000000	0.068971
372.000000	0.068449
373.000000	0.070934
374.000000	0.072173
375.000000	0.077486
376.000000	0.081027
377.000000	0.081578
378.000000	0.082601
379.000000	0.079243
380.000000	0.074866
381.000000	0.075101
382.000000	0.078234
383.000000	0.079088
384.000000	0.075972
385.000000	0.076867
386.000000	0.077413
387.000000	0.077116
388.000000	0.079612
389.000000	0.081144
390.000000	0.080179
391.000000	0.076527
392.000000	0.077503
393.000000	0.080016
394.000000	0.080821
395.000000	0.081182
396.000000	0.080292
397.000000	0.078734
398.000000	0.079008
399.000000	0.080748
400.000000	0.081983
401.000000	0.080230
402.000000	0.080928
403.000000	0.082028
404.000000	0.081265
405.000000	0.080734
406.000000	0.080691
407.000000	0.081100
408.000000	0.081684
409.000000	0.081800
410.000000	0.081882
411.000000	0.082990
412.000000	0.083237
413.000000	0.083195
414.000000	0.083733
415.000000	0.083841
416.000000	0.084105
417.000000	0.084800
418.000000	0.085393
419.000000	0.085507
420.000000	0.085389
421.000000	0.085881
422.000000	0.085854
423.000000	0.085597
424.000000	0.085832
425.000000	0.086711
426.000000	0.087147
427.000000	0.086673
428.000000	0.087101
429.000000	0.087776
430.000000	0.088367
431.000000	0.088991
432.000000	0.089168
433.000000	0.089090
434.000000	0.089299
435.000000	0.089644
436.000000	0.090205
437.000000	0.090893
438.000000	0.090706
439.000000	0.090777
440.000000	0.091522
441.000000	0.091692
442.000000	0.092113
443.000000	0.092647
444.000000	0.092568
445.000000	0.092744
446.000000	0.093116
447.000000	0.093341
448.000000	0.093568
449.000000	0.094038
450.000000	0.094801
451.000000	0.095376
452.000000	0.095925
453.000000	0.096435
454.000000	0.096771
455.000000	0.097233
456.000000	0.097843
457.000000	0.098434
458.000000	0.099030
459.000000	0.099365
460.000000	0.099368
461.000000	0.099782
462.000000	0.100338
463.000000	0.100718
464.000000	0.100695
465.000000	0.100875
466.000000	0.101377
467.000000	0.102064
468.000000	0.102203
469.000000	0.102144
470.000000	0.102525
471.000000	0.103150
472.000000	0.103600
473.000000	0.103762
474.000000	0.104308
475.000000	0.104859
476.000000	0.105312
477.000000	0.105700
478.000000	0.105944
479.000000	0.106159
480.000000	0.106390
481.000000	0.106568
482.000000	0.106902
483.000000	0.107425
484.000000	0.107808
485.000000	0.108213
486.000000	0.108672
487.000000	0.108669
488.000000	0.108692
489.000000	0.108850
490.000000	0.109018
491.000000	0.109246
492.000000	0.109460
493.000000	0.109526
494.000000	0.109570
495.000000	0.109751
496.000000	0.110063
497.000000	0.110125
498.000000	0.110092
499.000000	0.110132
500.000000	0.110403
501.000000	0.110444
502.000000	0.110373
503.000000	0.110519
504.000000	0.110635
505.000000	0.110807
506.000000	0.111125
507.000000	0.111395
508.000000	0.111718
509.000000	0.112114
510.000000	0.112453
511.000000	0.112806
512.000000	0.113189
513.000000	0.113560
514.000000	0.113879
515.000000	0.114223
516.000000	0.114661
517.000000	0.115102
518.000000	0.115493
519.000000	0.115817
520.000000	0.116336
521.000000	0.116811
522.000000	0.117247
523.000000	0.118026
524.000000	0.118840
525.000000	0.119608
526.000000	0.120377
527.000000	0.121406
528.000000	0.122579
529.000000	0.123753
530.000000	0.125078
531.000000	0.126508
532.000000	0.127969
533.000000	0.129539
534.000000	0.131085
535.000000	0.132607
536.000000	0.134264
537.000000	0.135837
538.000000	0.137289
539.000000	0.138654
540.000000	0.140035
541.000000	0.141420
542.000000	0.142778
543.000000	0.143982
544.000000	0.145180
545.000000	0.146421
546.000000	0.147687
547.000000	0.149001
548.000000	0.150389
549.000000	0.151831
550.000000	0.153338
551.000000	0.154958
552.000000	0.156702
553.000000	0.158453
554.000000	0.160332
555.000000	0.162421
556.000000	0.164633
557.000000	0.166870
558.000000	0.169132
559.000000	0.171308
560.000000	0.173560
561.000000	0.175899
562.000000	0.178174
563.000000	0.180414
564.000000	0.182588
565.000000	0.184605
566.000000	0.186567
567.000000	0.188396
568.000000	0.190053
569.000000	0.191675
570.000000	0.193161
571.000000	0.194472
572.000000	0.195632
573.000000	0.196718
574.000000	0.197718
575.000000	0.198611
576.000000	0.199259
577.000000	0.199818
578.000000	0.200429
579.000000	0.200830
580.000000	0.201062
581.000000	0.201182
582.000000	0.201270
583.000000	0.201309
584.000000	0.201256
585.000000	0.201053
586.000000	0.200831
587.000000	0.200553
588.000000	0.200170
589.000000	0.199797
590.000000	0.199331
591.000000	0.198735
592.000000	0.198179
593.000000	0.197524
594.000000	0.196785
595.000000	0.196142
596.000000	0.195453
597.000000	0.194718
598.000000	0.193913
599.000000	0.192921
600.000000	0.191982
601.000000	0.191218
602.000000	0.190346
603.000000	0.189412
604.000000	0.188460
605.000000	0.187486
606.000000	0.186615
607.000000	0.185802
608.000000	0.184885
609.000000	0.184067
610.000000	0.183239
611.000000	0.182277
612.000000	0.181559
613.000000	0.180840
614.000000	0.179989
615.000000	0.179211
616.000000	0.178491
617.000000	0.177788
618.000000	0.177085
619.000000	0.176357
620.000000	0.175618
621.000000	0.174929
622.000000	0.174260
623.000000	0.173664
624.000000	0.173166
625.000000	0.172663
626.000000	0.172152
627.000000	0.171647
628.000000	0.171176
629.000000	0.170803
630.000000	0.170424
631.000000	0.170006
632.000000	0.169588
633.000000	0.169216
634.000000	0.168916
635.000000	0.168644
636.000000	0.168418
637.000000	0.168242
638.000000	0.168132
639.000000	0.167962
640.000000	0.167780
641.000000	0.167693
642.000000	0.167634
643.000000	0.167613
644.000000	0.167655
645.000000	0.167666
646.000000	0.167713
647.000000	0.167821
648.000000	0.167907
649.000000	0.168063
650.000000	0.168268
651.000000	0.168368
652.000000	0.168546
653.000000	0.168820
654.000000	0.169099
655.000000	0.169461
656.000000	0.169880
657.000000	0.170286
658.000000	0.170693
659.000000	0.171169
660.000000	0.171734
661.000000	0.172364
662.000000	0.172989
663.000000	0.173644
664.000000	0.174369
665.000000	0.175105
666.000000	0.175840
667.000000	0.176577
668.000000	0.177447
669.000000	0.178369
670.000000	0.179310
671.000000	0.180381
672.000000	0.181464
673.000000	0.182517
674.000000	0.183572
675.000000	0.184682
676.000000	0.185845
677.000000	0.187059
678.000000	0.188350
679.000000	0.189674
680.000000	0.191020
681.000000	0.192467
682.000000	0.193962
683.000000	0.195457
684.000000	0.197048
685.000000	0.198714
686.000000	0.200406
687.000000	0.202053
688.000000	0.203813
689.000000	0.205675
690.000000	0.207616
691.000000	0.209548
692.000000	0.211477
693.000000	0.213474
694.000000	0.215571
695.000000	0.217751
696.000000	0.219979
697.000000	0.222216
698.000000	0.224530
699.000000	0.226894
700.000000	0.229284
701.000000	0.231722
702.000000	0.234212
703.000000	0.236726
704.000000	0.239227
705.000000	0.241849
706.000000	0.244572
707.000000	0.247366
708.000000	0.250107
709.000000	0.252875
710.000000	0.255754
711.000000	0.258647
712.000000	0.261606
713.000000	0.264655
714.000000	0.267736
715.000000	0.270816
716.000000	0.273891
717.000000	0.276965
718.000000	0.280116
719.000000	0.283291
720.000000	0.286471
721.000000	0.289763
722.000000	0.293019
723.000000	0.296238
724.000000	0.299467
725.000000	0.302670
726.000000	0.305934
727.000000	0.309235
728.000000	0.312553
729.000000	0.315881
730.000000	0.319172
731.000000	0.322510
732.000000	0.325795
733.000000	0.329063
734.000000	0.332414
735.000000	0.335627
736.000000	0.338824
737.000000	0.341987
738.000000	0.345173
739.000000	0.348376
740.000000	0.351411
741.000000	0.354497
742.000000	0.357530
743.000000	0.360469
744.000000	0.363450
745.000000	0.366311
746.000000	0.369124
747.000000	0.371915
748.000000	0.374640
749.000000	0.377350
750.000000	0.380021
751.000000	0.382564
752.000000	0.385075
753.000000	0.387588
754.000000	0.390066
755.000000	0.392539
756.000000	0.394904
757.000000	0.397018
758.000000	0.399209
759.000000	0.401299
760.000000	0.403151
761.000000	0.405124
762.000000	0.407098
763.000000	0.408988
764.000000	0.410819
765.000000	0.412574
766.000000	0.414344
767.000000	0.416144
768.000000	0.417659
769.000000	0.419070
770.000000	0.420465
771.000000	0.421756
772.000000	0.423089
773.000000	0.424351
774.000000	0.425515
775.000000	0.426672
776.000000	0.427802
777.000000	0.428857
778.000000	0.429870
779.000000	0.430771
780.000000	0.431650
781.000000	0.432721
782.000000	0.433610
783.000000	0.434484
784.000000	0.435330
785.000000	0.435844
786.000000	0.436357
787.000000	0.437004
788.000000	0.437494
789.000000	0.438039
790.000000	0.438603
791.000000	0.439098
792.000000	0.439526
793.000000	0.439825
794.000000	0.440020
795.000000	0.440437
796.000000	0.440841
797.000000	0.441107
798.000000	0.441232
799.000000	0.441369
800.000000	0.441590
801.000000	0.441897
802.000000	0.442034
803.000000	0.442121
804.000000	0.442280
805.000000	0.442413
806.000000	0.442473
807.000000	0.442532
808.000000	0.442505
809.000000	0.442383
810.000000	0.442288
811.000000	0.442267
812.000000	0.442168
813.000000	0.442142
814.000000	0.442156
815.000000	0.442050
816.000000	0.441795
817.000000	0.441611
818.000000	0.441558
819.000000	0.441355
820.000000	0.441239
821.000000	0.441170
822.000000	0.440904
823.000000	0.440677
824.000000	0.440388
825.000000	0.440033
826.000000	0.439842
827.000000	0.439618
828.000000	0.439342
829.000000	0.439263
830.000000	0.439049
831.000000	0.438732
832.000000	0.438308
833.000000	0.437939
834.000000	0.437592
835.000000	0.437271
836.000000	0.436998
837.000000	0.436655
838.000000	0.436268
839.000000	0.435915
840.000000	0.435557
841.000000	0.435245
842.000000	0.434945
843.000000	0.434556
844.000000	0.434084
845.000000	0.433542
846.000000	0.433062
847.000000	0.432735
848.000000	0.432470
849.000000	0.432176
850.000000	0.431786
851.000000	0.431358
852.000000	0.430985
853.000000	0.430639
854.000000	0.430194
855.000000	0.429812
856.000000	0.429443
857.000000	0.428967
858.000000	0.428575
859.000000	0.428218
860.000000	0.427767
861.000000	0.427378
862.000000	0.427008
863.000000	0.426472
864.000000	0.426059
865.000000	0.425618
866.000000	0.425119
867.000000	0.424712
868.000000	0.424227
869.000000	0.423684
870.000000	0.423314
871.000000	0.422913
872.000000	0.422505
873.000000	0.422050
874.000000	0.421628
875.000000	0.421087
876.000000	0.420478
877.000000	0.419847
878.000000	0.419240
879.000000	0.418870
880.000000	0.418575
881.000000	0.418157
882.000000	0.417633
883.000000	0.417038
884.000000	0.416362
885.000000	0.415850
886.000000	0.415434
887.000000	0.415067
888.000000	0.414696
889.000000	0.414248
890.000000	0.413645
891.000000	0.413139
892.000000	0.412722
893.000000	0.412342
894.000000	0.412075
895.000000	0.411691
896.000000	0.411172
897.000000	0.410654
898.000000	0.410288
899.000000	0.409875
900.000000	0.409423
901.000000	0.408934
902.000000	0.408557
903.000000	0.408235
904.000000	0.407916
905.000000	0.407438
906.000000	0.407033
907.000000	0.406620
908.000000	0.406236
909.000000	0.405816
910.000000	0.405368
911.000000	0.405009
912.000000	0.404792
913.000000	0.404363
914.000000	0.403912
915.000000	0.403528
916.000000	0.403005
917.000000	0.402505
918.000000	0.402126
919.000000	0.401879
920.000000	0.401723
921.000000	0.401569
922.000000	0.401281
923.000000	0.400718
924.000000	0.400211
925.000000	0.399723
926.000000	0.399297
927.000000	0.399022
928.000000	0.398790
929.000000	0.398497
930.000000	0.398093
931.000000	0.397746
932.000000	0.397417
933.000000	0.397152
934.000000	0.396962
935.000000	0.396582
936.000000	0.396216
937.000000	0.395914
938.000000	0.395498
939.000000	0.395180
940.000000	0.394962
941.000000	0.394885
942.000000	0.394518
943.000000	0.394138
944.000000	0.393837
945.000000	0.393780
946.000000	0.393454
947.000000	0.393076
948.000000	0.392900
949.000000	0.392550
950.000000	0.392229
951.000000	0.391961
952.000000	0.391736
953.000000	0.391542
954.000000	0.391453
955.000000	0.391328
956.000000	0.390793
957.000000	0.390485
958.000000	0.390274
959.000000	0.389949
960.000000	0.389949
961.000000	0.389858
962.000000	0.389512
963.000000	0.389191
964.000000	0.388788
965.000000	0.388607
966.000000	0.388616
967.000000	0.388261
968.000000	0.388003
969.000000	0.387911
970.000000	0.387977
971.000000	0.387804
972.000000	0.387689
973.000000	0.387691
974.000000	0.387746
975.000000	0.387548
976.000000	0.387435
977.000000	0.387569
978.000000	0.387215
979.000000	0.386951
980.000000	0.386743
981.000000	0.386840
982.000000	0.386620
983.000000	0.386369
984.000000	0.386346
985.000000	0.386484
986.000000	0.386498
987.000000	0.386598
988.000000	0.386680
989.000000	0.386199
990.000000	0.386226
991.000000	0.386418
992.000000	0.386242
993.000000	0.386534
994.000000	0.386640
995.000000	0.386724
996.000000	0.387006
997.000000	0.387080
998.000000	0.386831
999.000000	0.386576
1000.000000	0.386837
1001.000000	0.386624
1002.000000	0.386685
1003.000000	0.386936
1004.000000	0.387313
1005.000000	0.387607
1006.000000	0.387681
1007.000000	0.387936
1008.000000	0.388273
1009.000000	0.388166
1010.000000	0.387455
1011.000000	0.387033
1012.000000	0.387357
1013.000000	0.387441
1014.000000	0.387455
1015.000000	0.388038
1016.000000	0.388437
1017.000000	0.387902
1018.000000	0.387519
1019.000000	0.387454
1020.000000	0.387167
1021.000000	0.386878
1022.000000	0.387503
1023.000000	0.388103
1024.000000	0.388320
1025.000000	0.388961
1026.000000	0.389702
1027.000000	0.389452
1028.000000	0.389731
1029.000000	0.390190
1030.000000	0.390120
1031.000000	0.390787
1032.000000	0.391410
1033.000000	0.390786
1034.000000	0.390522
1035.000000	0.390146
1036.000000	0.390273
1037.000000	0.390515
1038.000000	0.390768
1039.000000	0.391873
1040.000000	0.392071
1041.000000	0.391894
1042.000000	0.391947
1043.000000	0.391971
1044.000000	0.392842
1045.000000	0.393759
1046.000000	0.394358
1047.000000	0.394866
1048.000000	0.395275
1049.000000	0.395307
1050.000000	0.394799
1051.000000	0.394844
1052.000000	0.395077
1053.000000	0.395102
1054.000000	0.395594
1055.000000	0.395910
1056.000000	0.396001
1057.000000	0.395871
1058.000000	0.396482
1059.000000	0.396719
1060.000000	0.397076
1061.000000	0.397247
1062.000000	0.397472
1063.000000	0.398127
1064.000000	0.398468
1065.000000	0.399063
1066.000000	0.399227
1067.000000	0.398722
1068.000000	0.398696
1069.000000	0.398439
1070.000000	0.398662
1071.000000	0.399654
1072.000000	0.400147
1073.000000	0.400567
1074.000000	0.401342
1075.000000	0.401814
1076.000000	0.401723
1077.000000	0.401441
1078.000000	0.401720
1079.000000	0.402139
1080.000000	0.402777
1081.000000	0.403102
1082.000000	0.403959
1083.000000	0.404245
1084.000000	0.403789
1085.000000	0.403991
1086.000000	0.404394
1087.000000	0.404670
1088.000000	0.405106
1089.000000	0.405378
1090.000000	0.405451
1091.000000	0.405446
1092.000000	0.405767
1093.000000	0.406031
1094.000000	0.406126
1095.000000	0.405886
1096.000000	0.406415
1097.000000	0.407278
1098.000000	0.407798
1099.000000	0.408739
1100.000000	0.409299
1101.000000	0.409125
1102.000000	0.409332
1103.000000	0.409841
1104.000000	0.410132
1105.000000	0.410097
1106.000000	0.410432
1107.000000	0.410993
1108.000000	0.411289
1109.000000	0.411762
1110.000000	0.412075
1111.000000	0.412418
1112.000000	0.412533
1113.000000	0.412828
1114.000000	0.413425
1115.000000	0.413577
1116.000000	0.413420
1117.000000	0.413487
1118.000000	0.413386
1119.000000	0.413417
1120.000000	0.413547
1121.000000	0.413795
1122.000000	0.414326
1123.000000	0.414891
1124.000000	0.415326
1125.000000	0.415742
1126.000000	0.415896
1127.000000	0.416107
1128.000000	0.416331
1129.000000	0.416642
1130.000000	0.416934
1131.000000	0.417284
1132.000000	0.417476
1133.000000	0.417723
1134.000000	0.417874
1135.000000	0.417849
1136.000000	0.417835
1137.000000	0.417736
1138.000000	0.417653
1139.000000	0.417528
1140.000000	0.417685
1141.000000	0.417973
1142.000000	0.418221
1143.000000	0.418563
1144.000000	0.418933
1145.000000	0.419049
1146.000000	0.419020
1147.000000	0.419200
1148.000000	0.419315
1149.000000	0.419481
1150.000000	0.419849
1151.000000	0.420003
1152.000000	0.419868
1153.000000	0.420041
1154.000000	0.420278
1155.000000	0.420397
1156.000000	0.420611
1157.000000	0.420802
1158.000000	0.420702
1159.000000	0.420829
1160.000000	0.421163
1161.000000	0.421420
1162.000000	0.421653
1163.000000	0.422294
1164.000000	0.422808
1165.000000	0.422949
1166.000000	0.423297
1167.000000	0.423654
1168.000000	0.423809
1169.000000	0.423926
1170.000000	0.424088
1171.000000	0.424156
1172.000000	0.424363
1173.000000	0.424664
1174.000000	0.424870
1175.000000	0.425008
1176.000000	0.425097
1177.000000	0.425186
1178.000000	0.425373
1179.000000	0.425610
1180.000000	0.425760
1181.000000	0.426124
1182.000000	0.426248
1183.000000	0.426490
1184.000000	0.426889
1185.000000	0.427230
1186.000000	0.427719
1187.000000	0.427942
1188.000000	0.428009
1189.000000	0.428148
1190.000000	0.428273
1191.000000	0.428396
1192.000000	0.428640
1193.000000	0.428999
1194.000000	0.429212
1195.000000	0.429495
1196.000000	0.429845
1197.000000	0.430140
1198.000000	0.430463
1199.000000	0.430680
1200.000000	0.430716
1201.000000	0.430987
1202.000000	0.431190
1203.000000	0.431464
1204.000000	0.431922
1205.000000	0.432274
1206.000000	0.432504
1207.000000	0.432756
1208.000000	0.432911
1209.000000	0.433017
1210.000000	0.433214
1211.000000	0.433422
1212.000000	0.433595
1213.000000	0.433822
1214.000000	0.434078
1215.000000	0.434244
1216.000000	0.434526
1217.000000	0.434993
1218.000000	0.435243
1219.000000	0.435406
1220.000000	0.435691
1221.000000	0.435875
1222.000000	0.435961
1223.000000	0.436383
1224.000000	0.436699
1225.000000	0.437006
1226.000000	0.437389
1227.000000	0.437471
1228.000000	0.437758
1229.000000	0.437963
1230.000000	0.438112
1231.000000	0.438197
1232.000000	0.438371
1233.000000	0.438721
1234.000000	0.439117
1235.000000	0.439387
1236.000000	0.439627
1237.000000	0.439881
1238.000000	0.439836
1239.000000	0.440056
1240.000000	0.440467
1241.000000	0.440917
1242.000000	0.441144
1243.000000	0.441310
1244.000000	0.441596
1245.000000	0.441983
1246.000000	0.442334
1247.000000	0.442805
1248.000000	0.443147
1249.000000	0.443231
1250.000000	0.443404
1251.000000	0.443661
1252.000000	0.443905
1253.000000	0.444228
1254.000000	0.444408
1255.000000	0.444500
1256.000000	0.444680
1257.000000	0.444759
1258.000000	0.445065
1259.000000	0.445593
1260.000000	0.445957
1261.000000	0.446146
1262.000000	0.446377
1263.000000	0.446530
1264.000000	0.446818
1265.000000	0.447091
1266.000000	0.447525
1267.000000	0.447999
1268.000000	0.448235
1269.000000	0.448434
1270.000000	0.448742
1271.000000	0.449029
1272.000000	0.449380
1273.000000	0.449617
1274.000000	0.449821
1275.000000	0.450131
1276.000000	0.450439
1277.000000	0.450772
1278.000000	0.451139
1279.000000	0.451450
1280.000000	0.451556
1281.000000	0.451714
1282.000000	0.452020
1283.000000	0.452356
1284.000000	0.452503
1285.000000	0.452783
1286.000000	0.453150
1287.000000	0.453499
1288.000000	0.453821
1289.000000	0.454055
1290.000000	0.454170
1291.000000	0.454347
1292.000000	0.454508
1293.000000	0.454677
1294.000000	0.455022
1295.000000	0.455405
1296.000000	0.455719
1297.000000	0.456098
1298.000000	0.456511
1299.000000	0.456710
1300.000000	0.456772
1301.000000	0.456829
1302.000000	0.456878
1303.000000	0.456925
1304.000000	0.457008
1305.000000	0.457458
1306.000000	0.457580
1307.000000	0.457571
1308.000000	0.457588
1309.000000	0.457436
1310.000000	0.457379
1311.000000	0.457373
1312.000000	0.457370
1313.000000	0.457445
1314.000000	0.457529
1315.000000	0.457643
1316.000000	0.457798
1317.000000	0.457847
1318.000000	0.457984
1319.000000	0.457969
1320.000000	0.457903
1321.000000	0.457878
1322.000000	0.457706
1323.000000	0.457730
1324.000000	0.457942
1325.000000	0.458009
1326.000000	0.458113
1327.000000	0.458090
1328.000000	0.458095
1329.000000	0.458094
1330.000000	0.458190
1331.000000	0.458209
1332.000000	0.458281
1333.000000	0.458206
1334.000000	0.458101
1335.000000	0.458135
1336.000000	0.458131
1337.000000	0.458159
1338.000000	0.458247
1339.000000	0.458232
1340.000000	0.458007
1341.000000	0.457971
1342.000000	0.458047
1343.000000	0.458003
1344.000000	0.458055
1345.000000	0.458092
1346.000000	0.458125
1347.000000	0.457932
1348.000000	0.457914
1349.000000	0.457929
1350.000000	0.457829
1351.000000	0.457798
1352.000000	0.457688
1353.000000	0.457390
1354.000000	0.457240
1355.000000	0.457251
1356.000000	0.457274
1357.000000	0.457129
1358.000000	0.456985
1359.000000	0.456786
1360.000000	0.456587
1361.000000	0.456486
1362.000000	0.456302
1363.000000	0.456020
1364.000000	0.455764
1365.000000	0.455405
1366.000000	0.455134
1367.000000	0.454895
1368.000000	0.454615
1369.000000	0.454619
1370.000000	0.454368
1371.000000	0.453846
1372.000000	0.453255
1373.000000	0.452478
1374.000000	0.451818
1375.000000	0.451244
1376.000000	0.450788
1377.000000	0.450327
1378.000000	0.449627
1379.000000	0.448671
1380.000000	0.447633
1381.000000	0.446420
1382.000000	0.444916
1383.000000	0.443487
1384.000000	0.441901
1385.000000	0.440069
1386.000000	0.438266
1387.000000	0.436208
1388.000000	0.433955
1389.000000	0.431608
1390.000000	0.429083
1391.000000	0.426432
1392.000000	0.423692
1393.000000	0.420748
1394.000000	0.417696
1395.000000	0.414499
1396.000000	0.411083
1397.000000	0.407623
1398.000000	0.403889
1399.000000	0.400473
1400.000000	0.397076
1401.000000	0.393754
1402.000000	0.390636
1403.000000	0.387535
1404.000000	0.384516
1405.000000	0.381708
1406.000000	0.379152
1407.000000	0.376832
1408.000000	0.374568
1409.000000	0.372602
1410.000000	0.370897
1411.000000	0.369336
1412.000000	0.368131
1413.000000	0.367071
1414.000000	0.366021
1415.000000	0.365141
1416.000000	0.364267
1417.000000	0.363537
1418.000000	0.363078
1419.000000	0.362601
1420.000000	0.362016
1421.000000	0.361706
1422.000000	0.361245
1423.000000	0.360837
1424.000000	0.360559
1425.000000	0.360125
1426.000000	0.359651
1427.000000	0.359326
1428.000000	0.358991
1429.000000	0.358632
1430.000000	0.358404
1431.000000	0.358252
1432.000000	0.358129
1433.000000	0.358143
1434.000000	0.358105
1435.000000	0.358124
1436.000000	0.358217
1437.000000	0.358283
1438.000000	0.358475
1439.000000	0.358772
1440.000000	0.359254
1441.000000	0.359892
1442.000000	0.360637
1443.000000	0.361420
1444.000000	0.362469
1445.000000	0.363660
1446.000000	0.364906
1447.000000	0.366323
1448.000000	0.367755
1449.000000	0.369057
1450.000000	0.370275
1451.000000	0.371528
1452.000000	0.372631
1453.000000	0.373542
1454.000000	0.374407
1455.000000	0.375245
1456.000000	0.376076
1457.000000	0.376915
1458.000000	0.377764
1459.000000	0.378507
1460.000000	0.379127
1461.000000	0.379744
1462.000000	0.380361
1463.000000	0.380915
1464.000000	0.381476
1465.000000	0.382196
1466.000000	0.382908
1467.000000	0.383490
1468.000000	0.384152
1469.000000	0.384891
1470.000000	0.385449
1471.000000	0.386188
1472.000000	0.387039
1473.000000	0.387827
1474.000000	0.388665
1475.000000	0.389645
1476.000000	0.390582
1477.000000	0.391521
1478.000000	0.392568
1479.000000	0.393496
1480.000000	0.394286
1481.000000	0.395120
1482.000000	0.395975
1483.000000	0.396882
1484.000000	0.397910
1485.000000	0.398797
1486.000000	0.399565
1487.000000	0.400420
1488.000000	0.401228
1489.000000	0.402108
1490.000000	0.402987
1491.000000	0.403852
1492.000000	0.404653
1493.000000	0.405499
1494.000000	0.406302
1495.000000	0.407048
1496.000000	0.407747
1497.000000	0.408436
1498.000000	0.409097
1499.000000	0.409826
1500.000000	0.410425
1501.000000	0.411065
1502.000000	0.411677
1503.000000	0.412331
1504.000000	0.413136
1505.000000	0.413815
1506.000000	0.414432
1507.000000	0.414987
1508.000000	0.415487
1509.000000	0.416054
1510.000000	0.416672
1511.000000	0.417267
1512.000000	0.417811
1513.000000	0.418399
1514.000000	0.418968
1515.000000	0.419377
1516.000000	0.419724
1517.000000	0.420057
1518.000000	0.420403
1519.000000	0.420701
1520.000000	0.421237
1521.000000	0.421787
1522.000000	0.422236
1523.000000	0.422734
1524.000000	0.423063
1525.000000	0.423478
1526.000000	0.423889
1527.000000	0.424188
1528.000000	0.424653
1529.000000	0.424937
1530.000000	0.425010
1531.000000	0.425386
1532.000000	0.425713
1533.000000	0.426016
1534.000000	0.426596
1535.000000	0.426969
1536.000000	0.427099
1537.000000	0.427391
1538.000000	0.427490
1539.000000	0.427533
1540.000000	0.427929
1541.000000	0.428331
1542.000000	0.428667
1543.000000	0.429063
1544.000000	0.429397
1545.000000	0.429796
1546.000000	0.430230
1547.000000	0.430652
1548.000000	0.431009
1549.000000	0.431135
1550.000000	0.431241
1551.000000	0.431509
1552.000000	0.431806
1553.000000	0.432111
1554.000000	0.432420
1555.000000	0.432629
1556.000000	0.432763
1557.000000	0.432875
1558.000000	0.433062
1559.000000	0.433224
1560.000000	0.433321
1561.000000	0.433499
1562.000000	0.433610
1563.000000	0.433616
1564.000000	0.433779
1565.000000	0.434067
1566.000000	0.434151
1567.000000	0.434359
1568.000000	0.434459
1569.000000	0.434508
1570.000000	0.434590
1571.000000	0.434600
1572.000000	0.434693
1573.000000	0.434883
1574.000000	0.434960
1575.000000	0.435052
1576.000000	0.435231
1577.000000	0.435356
1578.000000	0.435411
1579.000000	0.435562
1580.000000	0.435695
1581.000000	0.435884
1582.000000	0.436007
1583.000000	0.436131
1584.000000	0.436170
1585.000000	0.436191
1586.000000	0.436302
1587.000000	0.436451
1588.000000	0.436581
1589.000000	0.436754
1590.000000	0.436859
1591.000000	0.437024
1592.000000	0.437096
1593.000000	0.437065
1594.000000	0.437126
1595.000000	0.437247
1596.000000	0.437353
1597.000000	0.437585
1598.000000	0.437711
1599.000000	0.437802
1600.000000	0.437829
1601.000000	0.437911
1602.000000	0.437994
1603.000000	0.438056
1604.000000	0.438151
1605.000000	0.438312
1606.000000	0.438436
1607.000000	0.438649
1608.000000	0.438777
1609.000000	0.438911
1610.000000	0.439054
1611.000000	0.439187
1612.000000	0.439366
1613.000000	0.439745
1614.000000	0.440039
1615.000000	0.440421
1616.000000	0.440781
1617.000000	0.441055
1618.000000	0.441248
1619.000000	0.441349
1620.000000	0.441476
1621.000000	0.441622
1622.000000	0.441851
1623.000000	0.442050
1624.000000	0.442246
1625.000000	0.442273
1626.000000	0.442292
1627.000000	0.442339
1628.000000	0.442473
1629.000000	0.442551
1630.000000	0.442784
1631.000000	0.443097
1632.000000	0.443243
1633.000000	0.443390
1634.000000	0.443528
1635.000000	0.443604
1636.000000	0.443809
1637.000000	0.444185
1638.000000	0.444367
1639.000000	0.444547
1640.000000	0.444698
1641.000000	0.444850
1642.000000	0.445003
1643.000000	0.445214
1644.000000	0.445449
1645.000000	0.445688
1646.000000	0.445811
1647.000000	0.445982
1648.000000	0.446084
1649.000000	0.446214
1650.000000	0.446342
1651.000000	0.446520
1652.000000	0.446746
1653.000000	0.446807
1654.000000	0.447033
1655.000000	0.447378
1656.000000	0.447469
1657.000000	0.447659
1658.000000	0.447771
1659.000000	0.447823
1660.000000	0.448003
1661.000000	0.448096
1662.000000	0.448210
1663.000000	0.448389
1664.000000	0.448477
1665.000000	0.448462
1666.000000	0.448641
1667.000000	0.448762
1668.000000	0.448909
1669.000000	0.449116
1670.000000	0.449234
1671.000000	0.449459
1672.000000	0.449595
1673.000000	0.449624
1674.000000	0.449791
1675.000000	0.449986
1676.000000	0.450162
1677.000000	0.450449
1678.000000	0.450598
1679.000000	0.450749
1680.000000	0.450857
1681.000000	0.450802
1682.000000	0.450806
1683.000000	0.450765
1684.000000	0.450785
1685.000000	0.451047
1686.000000	0.451249
1687.000000	0.451358
1688.000000	0.451422
1689.000000	0.451460
1690.000000	0.451440
1691.000000	0.451562
1692.000000	0.451555
1693.000000	0.451580
1694.000000	0.451645
1695.000000	0.451763
1696.000000	0.451807
1697.000000	0.451771
1698.000000	0.451621
1699.000000	0.451628
1700.000000	0.451783
1701.000000	0.451962
1702.000000	0.451924
1703.000000	0.451939
1704.000000	0.452129
1705.000000	0.452192
1706.000000	0.452357
1707.000000	0.452393
1708.000000	0.452183
1709.000000	0.451984
1710.000000	0.451781
1711.000000	0.451773
1712.000000	0.451937
1713.000000	0.452016
1714.000000	0.452290
1715.000000	0.452455
1716.000000	0.452510
1717.000000	0.452585
1718.000000	0.452660
1719.000000	0.452634
1720.000000	0.452570
1721.000000	0.452585
1722.000000	0.452657
1723.000000	0.452579
1724.000000	0.452420
1725.000000	0.452464
1726.000000	0.452403
1727.000000	0.452360
1728.000000	0.452412
1729.000000	0.452325
1730.000000	0.452208
1731.000000	0.452209
1732.000000	0.452366
1733.000000	0.452511
1734.000000	0.452441
1735.000000	0.452533
1736.000000	0.452710
1737.000000	0.452720
1738.000000	0.452757
1739.000000	0.452716
1740.000000	0.452520
1741.000000	0.452333
1742.000000	0.452132
1743.000000	0.452077
1744.000000	0.451956
1745.000000	0.451966
1746.000000	0.452167
1747.000000	0.452056
1748.000000	0.451951
1749.000000	0.451693
1750.000000	0.451568
1751.000000	0.451917
1752.000000	0.452097
1753.000000	0.451981
1754.000000	0.451974
1755.000000	0.451842
1756.000000	0.451656
1757.000000	0.451593
1758.000000	0.451416
1759.000000	0.450905
1760.000000	0.450650
1761.000000	0.450440
1762.000000	0.450277
1763.000000	0.450384
1764.000000	0.450286
1765.000000	0.449951
1766.000000	0.449869
1767.000000	0.449720
1768.000000	0.449571
1769.000000	0.449702
1770.000000	0.449830
1771.000000	0.449912
1772.000000	0.449896
1773.000000	0.449768
1774.000000	0.449828
1775.000000	0.449965
1776.000000	0.450022
1777.000000	0.450239
1778.000000	0.450196
1779.000000	0.449837
1780.000000	0.449695
1781.000000	0.449556
1782.000000	0.449420
1783.000000	0.449337
1784.000000	0.449344
1785.000000	0.449347
1786.000000	0.449452
1787.000000	0.449683
1788.000000	0.449899
1789.000000	0.449800
1790.000000	0.449674
1791.000000	0.449530
1792.000000	0.449446
1793.000000	0.449356
1794.000000	0.449295
1795.000000	0.449274
1796.000000	0.449210
1797.000000	0.449184
1798.000000	0.449147
1799.000000	0.449180
1800.000000	0.449291
1801.000000	0.449385
1802.000000	0.449349
1803.000000	0.448885
1804.000000	0.448786
1805.000000	0.448228
1806.000000	0.448144
1807.000000	0.448406
1808.000000	0.448800
1809.000000	0.449936
1810.000000	0.449933
1811.000000	0.450105
1812.000000	0.450422
1813.000000	0.450515
1814.000000	0.450057
1815.000000	0.450047
1816.000000	0.450551
1817.000000	0.450386
1818.000000	0.449974
1819.000000	0.449862
1820.000000	0.449140
1821.000000	0.448339
1822.000000	0.448141
1823.000000	0.447996
1824.000000	0.447998
1825.000000	0.448808
1826.000000	0.448800
1827.000000	0.447914
1828.000000	0.447830
1829.000000	0.447173
1830.000000	0.446809
1831.000000	0.446870
1832.000000	0.447487
1833.000000	0.447680
1834.000000	0.448258
1835.000000	0.448195
1836.000000	0.447482
1837.000000	0.446971
1838.000000	0.445967
1839.000000	0.445272
1840.000000	0.444531
1841.000000	0.444156
1842.000000	0.444115
1843.000000	0.444706
1844.000000	0.444658
1845.000000	0.444617
1846.000000	0.444421
1847.000000	0.443765
1848.000000	0.442757
1849.000000	0.442065
1850.000000	0.440873
1851.000000	0.439856
1852.000000	0.438405
1853.000000	0.437677
1854.000000	0.437146
1855.000000	0.436438
1856.000000	0.436050
1857.000000	0.435117
1858.000000	0.433928
1859.000000	0.432585
1860.000000	0.430465
1861.000000	0.428063
1862.000000	0.425942
1863.000000	0.423645
1864.000000	0.421622
1865.000000	0.420338
1866.000000	0.418047
1867.000000	0.415217
1868.000000	0.412018
1869.000000	0.409303
1870.000000	0.406652
1871.000000	0.403800
1872.000000	0.401063
1873.000000	0.397483
1874.000000	0.392650
1875.000000	0.388554
1876.000000	0.384705
1877.000000	0.379169
1878.000000	0.373750
1879.000000	0.368540
1880.000000	0.362354
1881.000000	0.356282
1882.000000	0.350410
1883.000000	0.344310
1884.000000	0.337990
1885.000000	0.331465
1886.000000	0.324303
1887.000000	0.316823
1888.000000	0.308373
1889.000000	0.299541
1890.000000	0.291668
1891.000000	0.284181
1892.000000	0.276992
1893.000000	0.269652
1894.000000	0.261875
1895.000000	0.254330
1896.000000	0.246945
1897.000000	0.239106
1898.000000	0.231704
1899.000000	0.225271
1900.000000	0.218867
1901.000000	0.213898
1902.000000	0.209743
1903.000000	0.206213
1904.000000	0.204206
1905.000000	0.202264
1906.000000	0.200540
1907.000000	0.199299
1908.000000	0.198638
1909.000000	0.198038
1910.000000	0.197853
1911.000000	0.197956
1912.000000	0.198534
1913.000000	0.199123
1914.000000	0.200055
1915.000000	0.201257
1916.000000	0.202458
1917.000000	0.203724
1918.000000	0.205282
1919.000000	0.206264
1920.000000	0.207749
1921.000000	0.210014
1922.000000	0.211433
1923.000000	0.212948
1924.000000	0.214201
1925.000000	0.214727
1926.000000	0.215992
1927.000000	0.217570
1928.000000	0.218711
1929.000000	0.220051
1930.000000	0.220912
1931.000000	0.220793
1932.000000	0.220668
1933.000000	0.221108
1934.000000	0.221976
1935.000000	0.223208
1936.000000	0.224732
1937.000000	0.225893
1938.000000	0.227097
1939.000000	0.227911
1940.000000	0.228557
1941.000000	0.228676
1942.000000	0.229287
1943.000000	0.229416
1944.000000	0.230233
1945.000000	0.231632
1946.000000	0.232040
1947.000000	0.232382
1948.000000	0.231893
1949.000000	0.231328
1950.000000	0.231193
1951.000000	0.230812
1952.000000	0.230301
1953.000000	0.230113
1954.000000	0.230159
1955.000000	0.230559
1956.000000	0.231421
1957.000000	0.232318
1958.000000	0.232938
1959.000000	0.233184
1960.000000	0.232957
1961.000000	0.233092
1962.000000	0.233245
1963.000000	0.233495
1964.000000	0.233602
1965.000000	0.234242
1966.000000	0.234417
1967.000000	0.234153
1968.000000	0.234157
1969.000000	0.234295
1970.000000	0.234773
1971.000000	0.235839
1972.000000	0.237214
1973.000000	0.238097
1974.000000	0.238730
1975.000000	0.239586
1976.000000	0.240368
1977.000000	0.241416
1978.000000	0.241883
1979.000000	0.242537
1980.000000	0.243408
1981.000000	0.243520
1982.000000	0.244644
1983.000000	0.245528
1984.000000	0.246328
1985.000000	0.247054
1986.000000	0.248072
1987.000000	0.249032
1988.000000	0.250587
1989.000000	0.252072
1990.000000	0.253258
1991.000000	0.254251
1992.000000	0.255054
1993.000000	0.255734
1994.000000	0.256513
1995.000000	0.257658
1996.000000	0.258885
1997.000000	0.259854
1998.000000	0.260870
1999.000000	0.261906
2000.000000	0.262690
2001.000000	0.263474
2002.000000	0.264874
2003.000000	0.266804
2004.000000	0.268628
2005.000000	0.270154
2006.000000	0.271451
2007.000000	0.272317
2008.000000	0.273506
2009.000000	0.274484
2010.000000	0.275886
2011.000000	0.277747
2012.000000	0.279292
2013.000000	0.280909
2014.000000	0.281940
2015.000000	0.283029
2016.000000	0.284083
2017.000000	0.284704
2018.000000	0.285384
2019.000000	0.286023
2020.000000	0.287067
2021.000000	0.288395
2022.000000	0.290254
2023.000000	0.291680
2024.000000	0.293271
2025.000000	0.294507
2026.000000	0.295058
2027.000000	0.296325
2028.000000	0.297211
2029.000000	0.298549
2030.000000	0.299882
2031.000000	0.300808
2032.000000	0.302218
2033.000000	0.303141
2034.000000	0.303875
2035.000000	0.304317
2036.000000	0.305033
2037.000000	0.305662
2038.000000	0.306692
2039.000000	0.308191
2040.000000	0.309753
2041.000000	0.310896
2042.000000	0.311881
2043.000000	0.312550
2044.000000	0.312698
2045.000000	0.313424
2046.000000	0.314144
2047.000000	0.315063
2048.000000	0.316343
2049.000000	0.317609
2050.000000	0.318549
2051.000000	0.319643
2052.000000	0.320959
2053.000000	0.321793
2054.000000	0.322768
2055.000000	0.323444
2056.000000	0.323880
2057.000000	0.324419
2058.000000	0.325194
2059.000000	0.326076
2060.000000	0.327171
2061.000000	0.328826
2062.000000	0.329857
2063.000000	0.330993
2064.000000	0.331424
2065.000000	0.331200
2066.000000	0.331322
2067.000000	0.331200
2068.000000	0.332093
2069.000000	0.333381
2070.000000	0.334482
2071.000000	0.335201
2072.000000	0.336129
2073.000000	0.337062
2074.000000	0.337920
2075.000000	0.338872
2076.000000	0.340298
2077.000000	0.340998
2078.000000	0.341245
2079.000000	0.341632
2080.000000	0.341580
2081.000000	0.342190
2082.000000	0.343454
2083.000000	0.344107
2084.000000	0.344545
2085.000000	0.344835
2086.000000	0.345085
2087.000000	0.345688
2088.000000	0.346529
2089.000000	0.347828
2090.000000	0.348878
2091.000000	0.349715
2092.000000	0.350615
2093.000000	0.351839
2094.000000	0.352675
2095.000000	0.353155
2096.000000	0.353989
2097.000000	0.354986
2098.000000	0.355534
2099.000000	0.356125
2100.000000	0.356551
2101.000000	0.356372
2102.000000	0.356450
2103.000000	0.357073
2104.000000	0.357528
2105.000000	0.358247
2106.000000	0.359645
2107.000000	0.360340
2108.000000	0.360540
2109.000000	0.361298
2110.000000	0.361838
2111.000000	0.362374
2112.000000	0.363347
2113.000000	0.363658
2114.000000	0.363152
2115.000000	0.362957
2116.000000	0.363173
2117.000000	0.363203
2118.000000	0.364473
2119.000000	0.365463
2120.000000	0.366387
2121.000000	0.367674
2122.000000	0.368243
2123.000000	0.368334
2124.000000	0.368607
2125.000000	0.368262
2126.000000	0.368489
2127.000000	0.369115
2128.000000	0.369778
2129.000000	0.370781
2130.000000	0.371228
2131.000000	0.372095
2132.000000	0.372071
2133.000000	0.372017
2134.000000	0.372563
2135.000000	0.372166
2136.000000	0.372204
2137.000000	0.372009
2138.000000	0.371204
2139.000000	0.371352
2140.000000	0.372328
2141.000000	0.372532
2142.000000	0.372880
2143.000000	0.372994
2144.000000	0.372388
2145.000000	0.372296
2146.000000	0.372761
2147.000000	0.373613
2148.000000	0.373483
2149.000000	0.375066
2150.000000	0.376130
2151.000000	0.376614
2152.000000	0.377257
2153.000000	0.377001
2154.000000	0.376871
2155.000000	0.376122
2156.000000	0.376182
2157.000000	0.376913
2158.000000	0.377154
2159.000000	0.377654
2160.000000	0.378091
2161.000000	0.377874
2162.000000	0.377854
2163.000000	0.377808
2164.000000	0.378106
2165.000000	0.378628
2166.000000	0.379213
2167.000000	0.379965
2168.000000	0.380151
2169.000000	0.378885
2170.000000	0.377073
2171.000000	0.376189
2172.000000	0.375019
2173.000000	0.374712
2174.000000	0.375789
2175.000000	0.375865
2176.000000	0.375693
2177.000000	0.375617
2178.000000	0.374989
2179.000000	0.375322
2180.000000	0.376475
2181.000000	0.377170
2182.000000	0.377624
2183.000000	0.377738
2184.000000	0.376894
2185.000000	0.376031
2186.000000	0.375074
2187.000000	0.375247
2188.000000	0.374984
2189.000000	0.374556
2190.000000	0.375653
2191.000000	0.375873
2192.000000	0.376061
2193.000000	0.377180
2194.000000	0.376871
2195.000000	0.375219
2196.000000	0.374078
2197.000000	0.372068
2198.000000	0.370535
2199.000000	0.368787
2200.000000	0.367905
2201.000000	0.367697
2202.000000	0.368036
2203.000000	0.369186
2204.000000	0.370875
2205.000000	0.372473
2206.000000	0.370930
2207.000000	0.369397
2208.000000	0.368914
2209.000000	0.368465
2210.000000	0.370233
2211.000000	0.373118
2212.000000	0.375716
2213.000000	0.376265
2214.000000	0.375249
2215.000000	0.375024
2216.000000	0.373652
2217.000000	0.372681
2218.000000	0.372566
2219.000000	0.371554
2220.000000	0.369352
2221.000000	0.367995
2222.000000	0.366977
2223.000000	0.366515
2224.000000	0.367294
2225.000000	0.366097
2226.000000	0.364907
2227.000000	0.362116
2228.000000	0.360114
2229.000000	0.359601
2230.000000	0.358566
2231.000000	0.358627
2232.000000	0.358452
2233.000000	0.355331
2234.000000	0.353383
2235.000000	0.353960
2236.000000	0.353901
2237.000000	0.355162
2238.000000	0.354433
2239.000000	0.353267
2240.000000	0.350702
2241.000000	0.344983
2242.000000	0.342025
2243.000000	0.339394
2244.000000	0.338110
2245.000000	0.339769
2246.000000	0.339678
2247.000000	0.337906
2248.000000	0.337948
2249.000000	0.339740
2250.000000	0.338344
2251.000000	0.338760
2252.000000	0.341420
2253.000000	0.340657
2254.000000	0.342876
2255.000000	0.345769
2256.000000	0.348425
2257.000000	0.350228
2258.000000	0.348657
2259.000000	0.347655
2260.000000	0.345121
2261.000000	0.343515
2262.000000	0.343303
2263.000000	0.342327
2264.000000	0.340528
2265.000000	0.339758
2266.000000	0.339442
2267.000000	0.337172
2268.000000	0.334618
2269.000000	0.331888
2270.000000	0.327801
2271.000000	0.324930
2272.000000	0.323121
2273.000000	0.321002
2274.000000	0.318126
2275.000000	0.315912
2276.000000	0.314976
2277.000000	0.311502
2278.000000	0.309274
2279.000000	0.307482
2280.000000	0.304222
2281.000000	0.301432
2282.000000	0.298865
2283.000000	0.296691
2284.000000	0.293903
2285.000000	0.291451
2286.000000	0.289885
2287.000000	0.287697
2288.000000	0.286852
2289.000000	0.285989
2290.000000	0.284766
2291.000000	0.282332
2292.000000	0.279464
2293.000000	0.277884
2294.000000	0.274455
2295.000000	0.268716
2296.000000	0.266090
2297.000000	0.262402
2298.000000	0.261915
2299.000000	0.265336
2300.000000	0.267255
2301.000000	0.270387
2302.000000	0.272991
2303.000000	0.275147
2304.000000	0.277159
2305.000000	0.279522
2306.000000	0.281496
2307.000000	0.283045
2308.000000	0.284862
2309.000000	0.284040
2310.000000	0.284354
2311.000000	0.286761
2312.000000	0.286787
2313.000000	0.290033
2314.000000	0.293604
2315.000000	0.293804
2316.000000	0.295631
2317.000000	0.297028
2318.000000	0.297902
2319.000000	0.300788
2320.000000	0.301539
2321.000000	0.301392
2322.000000	0.301645
2323.000000	0.299431
2324.000000	0.298987
2325.000000	0.302588
2326.000000	0.303949
2327.000000	0.304346
2328.000000	0.305872
2329.000000	0.302110
2330.000000	0.299914
2331.000000	0.299340
2332.000000	0.297557
2333.000000	0.299483
2334.000000	0.297423
2335.000000	0.296205
2336.000000	0.293335
2337.000000	0.293866
2338.000000	0.296450
2339.000000	0.297841
2340.000000	0.301198
2341.000000	0.303181
2342.000000	0.303593
2343.000000	0.303981
2344.000000	0.304838
2345.000000	0.303991
2346.000000	0.300404
2347.000000	0.296852
2348.000000	0.292621
2349.000000	0.290365
2350.000000	0.285970
2351.000000	0.284233
2352.000000	0.284024
2353.000000	0.283981
2354.000000	0.282677
2355.000000	0.279415
2356.000000	0.276396
2357.000000	0.271209
2358.000000	0.268226
2359.000000	0.268808
2360.000000	0.265469
2361.000000	0.262645
2362.000000	0.261491
2363.000000	0.258015
2364.000000	0.257135
2365.000000	0.259509
2366.000000	0.257265
2367.000000	0.255835
2368.000000	0.256969
2369.000000	0.254000
2370.000000	0.253377
2371.000000	0.255524
2372.000000	0.256374
2373.000000	0.259377
2374.000000	0.261834
2375.000000	0.259839
2376.000000	0.256198
2377.000000	0.252462
2378.000000	0.249644
2379.000000	0.245177
2380.000000	0.241302
2381.000000	0.239850
2382.000000	0.231386
2383.000000	0.223406
2384.000000	0.224416
2385.000000	0.224218
2386.000000	0.224186
2387.000000	0.227937
2388.000000	0.224186
2389.000000	0.215490
2390.000000	0.212794
2391.000000	0.208854
2392.000000	0.205865
2393.000000	0.207705
2394.000000	0.207247
2395.000000	0.207823
2396.000000	0.204204
2397.000000	0.204608
2398.000000	0.211151
2399.000000	0.208833
2400.000000	0.212504
2401.000000	0.209822
2402.000000	0.200340
2403.000000	0.205405
2404.000000	0.207236
2405.000000	0.214633
2406.000000	0.219102
2407.000000	0.207932
2408.000000	0.206963
2409.000000	0.204708
2410.000000	0.201283
2411.000000	0.205423
2412.000000	0.203938
2413.000000	0.200827
2414.000000	0.200151
2415.000000	0.200831
2416.000000	0.202529
2417.000000	0.203850
2418.000000	0.204748
2419.000000	0.199097
2420.000000	0.194147
2421.000000	0.194845
2422.000000	0.191304
2423.000000	0.195389
2424.000000	0.206012
2425.000000	0.208347
2426.000000	0.210790
2427.000000	0.217063
2428.000000	0.212769
2429.000000	0.211004
2430.000000	0.216864
2431.000000	0.210833
2432.000000	0.206274
2433.000000	0.208896
2434.000000	0.208144
2435.000000	0.200766
2436.000000	0.196653
2437.000000	0.191110
2438.000000	0.183013
2439.000000	0.182595
2440.000000	0.182274
2441.000000	0.178786
2442.000000	0.170961
2443.000000	0.170040
2444.000000	0.177446
2445.000000	0.188640
2446.000000	0.198309
2447.000000	0.195118
2448.000000	0.186101
2449.000000	0.175401
2450.000000	0.172837
2451.000000	0.166735
2452.000000	0.163275
2453.000000	0.169264
2454.000000	0.163902
2455.000000	0.175520
2456.000000	0.182187
2457.000000	0.169275
2458.000000	0.166291
2459.000000	0.162882
2460.000000	0.161781
2461.000000	0.171460
2462.000000	0.174539
2463.000000	0.164948
2464.000000	0.160396
2465.000000	0.156062
2466.000000	0.166282
2467.000000	0.193445
2468.000000	0.200084
2469.000000	0.201404
2470.000000	0.197395
2471.000000	0.158674
2472.000000	0.137764
2473.000000	0.148919
2474.000000	0.146719
2475.000000	0.164801
2476.000000	0.177291
2477.000000	0.149458
2478.000000	0.123517
2479.000000	0.089221
2480.000000	0.079842
2481.000000	0.113394
2482.000000	0.109946
2483.000000	0.092004
2484.000000	0.100190
2485.000000	0.070764
2486.000000	0.060215
2487.000000	0.117990
2488.000000	0.112103
2489.000000	0.097229
2490.000000	0.120669
2491.000000	0.081356
2492.000000	0.066332
2493.000000	0.051165
2494.000000	0.047022
2495.000000	0.066784
2496.000000	0.077926
2497.000000	0.091385
2498.000000	0.108575
2499.000000	0.148811
2500.000000	0.134979
