# Wavelength	NAu-2-50_HEX-30_FV7-20_000000000.asd.rts.txt
350.000000	0.118828
351.000000	0.122764
352.000000	0.117348
353.000000	0.110694
354.000000	0.108283
355.000000	0.107714
356.000000	0.107759
357.000000	0.107854
358.000000	0.105942
359.000000	0.105811
360.000000	0.106816
361.000000	0.107293
362.000000	0.108259
363.000000	0.108013
364.000000	0.105982
365.000000	0.105580
366.000000	0.105040
367.000000	0.104727
368.000000	0.107273
369.000000	0.107164
370.000000	0.106056
371.000000	0.107185
372.000000	0.107195
373.000000	0.107530
374.000000	0.108714
375.000000	0.106123
376.000000	0.105878
377.000000	0.108360
378.000000	0.108607
379.000000	0.109003
380.000000	0.108981
381.000000	0.107938
382.000000	0.108784
383.000000	0.109813
384.000000	0.109827
385.000000	0.109985
386.000000	0.110487
387.000000	0.110936
388.000000	0.109921
389.000000	0.110378
390.000000	0.111641
391.000000	0.111714
392.000000	0.110898
393.000000	0.110240
394.000000	0.110512
395.000000	0.111466
396.000000	0.112316
397.000000	0.112667
398.000000	0.112576
399.000000	0.112456
400.000000	0.112507
401.000000	0.112742
402.000000	0.112780
403.000000	0.112790
404.000000	0.113088
405.000000	0.113949
406.000000	0.114383
407.000000	0.114154
408.000000	0.114129
409.000000	0.114510
410.000000	0.115001
411.000000	0.114964
412.000000	0.115394
413.000000	0.115779
414.000000	0.115563
415.000000	0.115931
416.000000	0.116292
417.000000	0.116367
418.000000	0.116848
419.000000	0.117358
420.000000	0.117730
421.000000	0.117926
422.000000	0.118275
423.000000	0.118683
424.000000	0.118986
425.000000	0.119338
426.000000	0.119661
427.000000	0.119907
428.000000	0.120256
429.000000	0.120515
430.000000	0.120712
431.000000	0.121199
432.000000	0.121486
433.000000	0.121605
434.000000	0.121877
435.000000	0.122258
436.000000	0.122625
437.000000	0.122877
438.000000	0.123152
439.000000	0.123391
440.000000	0.123620
441.000000	0.123894
442.000000	0.124094
443.000000	0.124291
444.000000	0.124783
445.000000	0.125079
446.000000	0.125326
447.000000	0.125707
448.000000	0.126012
449.000000	0.126419
450.000000	0.126990
451.000000	0.127326
452.000000	0.127805
453.000000	0.128403
454.000000	0.128749
455.000000	0.128988
456.000000	0.129319
457.000000	0.129854
458.000000	0.130249
459.000000	0.130530
460.000000	0.130816
461.000000	0.131116
462.000000	0.131605
463.000000	0.132165
464.000000	0.132409
465.000000	0.132735
466.000000	0.133141
467.000000	0.133454
468.000000	0.133833
469.000000	0.134148
470.000000	0.134344
471.000000	0.134656
472.000000	0.135020
473.000000	0.135382
474.000000	0.135726
475.000000	0.136045
476.000000	0.136400
477.000000	0.136733
478.000000	0.137009
479.000000	0.137364
480.000000	0.137795
481.000000	0.138107
482.000000	0.138413
483.000000	0.138724
484.000000	0.139080
485.000000	0.139356
486.000000	0.139587
487.000000	0.139764
488.000000	0.140046
489.000000	0.140380
490.000000	0.140546
491.000000	0.140740
492.000000	0.140944
493.000000	0.141026
494.000000	0.141166
495.000000	0.141331
496.000000	0.141462
497.000000	0.141591
498.000000	0.141714
499.000000	0.141850
500.000000	0.141913
501.000000	0.142068
502.000000	0.142279
503.000000	0.142379
504.000000	0.142515
505.000000	0.142694
506.000000	0.142900
507.000000	0.143137
508.000000	0.143447
509.000000	0.143803
510.000000	0.144097
511.000000	0.144412
512.000000	0.144754
513.000000	0.145035
514.000000	0.145441
515.000000	0.145884
516.000000	0.146181
517.000000	0.146600
518.000000	0.147032
519.000000	0.147359
520.000000	0.147816
521.000000	0.148283
522.000000	0.148735
523.000000	0.149299
524.000000	0.149876
525.000000	0.150502
526.000000	0.151312
527.000000	0.152169
528.000000	0.153059
529.000000	0.154028
530.000000	0.155088
531.000000	0.156236
532.000000	0.157415
533.000000	0.158654
534.000000	0.159915
535.000000	0.161174
536.000000	0.162444
537.000000	0.163722
538.000000	0.164964
539.000000	0.166113
540.000000	0.167286
541.000000	0.168420
542.000000	0.169480
543.000000	0.170543
544.000000	0.171608
545.000000	0.172632
546.000000	0.173658
547.000000	0.174686
548.000000	0.175778
549.000000	0.176983
550.000000	0.178206
551.000000	0.179472
552.000000	0.180801
553.000000	0.182220
554.000000	0.183717
555.000000	0.185285
556.000000	0.186931
557.000000	0.188614
558.000000	0.190383
559.000000	0.192156
560.000000	0.193954
561.000000	0.195797
562.000000	0.197590
563.000000	0.199318
564.000000	0.201024
565.000000	0.202674
566.000000	0.204257
567.000000	0.205770
568.000000	0.207189
569.000000	0.208499
570.000000	0.209714
571.000000	0.210840
572.000000	0.211892
573.000000	0.212813
574.000000	0.213616
575.000000	0.214372
576.000000	0.215023
577.000000	0.215577
578.000000	0.216086
579.000000	0.216487
580.000000	0.216808
581.000000	0.217057
582.000000	0.217215
583.000000	0.217359
584.000000	0.217474
585.000000	0.217489
586.000000	0.217443
587.000000	0.217328
588.000000	0.217137
589.000000	0.216956
590.000000	0.216745
591.000000	0.216463
592.000000	0.216068
593.000000	0.215695
594.000000	0.215350
595.000000	0.214914
596.000000	0.214420
597.000000	0.213933
598.000000	0.213445
599.000000	0.212852
600.000000	0.212255
601.000000	0.211688
602.000000	0.211113
603.000000	0.210524
604.000000	0.209911
605.000000	0.209227
606.000000	0.208583
607.000000	0.207977
608.000000	0.207334
609.000000	0.206683
610.000000	0.206086
611.000000	0.205582
612.000000	0.205002
613.000000	0.204419
614.000000	0.203901
615.000000	0.203328
616.000000	0.202780
617.000000	0.202257
618.000000	0.201752
619.000000	0.201282
620.000000	0.200814
621.000000	0.200347
622.000000	0.199955
623.000000	0.199606
624.000000	0.199258
625.000000	0.198916
626.000000	0.198563
627.000000	0.198202
628.000000	0.197854
629.000000	0.197597
630.000000	0.197320
631.000000	0.196996
632.000000	0.196732
633.000000	0.196504
634.000000	0.196260
635.000000	0.196039
636.000000	0.195858
637.000000	0.195714
638.000000	0.195608
639.000000	0.195529
640.000000	0.195484
641.000000	0.195381
642.000000	0.195358
643.000000	0.195387
644.000000	0.195402
645.000000	0.195454
646.000000	0.195524
647.000000	0.195592
648.000000	0.195733
649.000000	0.195877
650.000000	0.196010
651.000000	0.196237
652.000000	0.196452
653.000000	0.196678
654.000000	0.196939
655.000000	0.197255
656.000000	0.197614
657.000000	0.197966
658.000000	0.198375
659.000000	0.198798
660.000000	0.199222
661.000000	0.199722
662.000000	0.200203
663.000000	0.200720
664.000000	0.201337
665.000000	0.201920
666.000000	0.202518
667.000000	0.203181
668.000000	0.203861
669.000000	0.204568
670.000000	0.205318
671.000000	0.206127
672.000000	0.206943
673.000000	0.207776
674.000000	0.208697
675.000000	0.209619
676.000000	0.210561
677.000000	0.211574
678.000000	0.212592
679.000000	0.213631
680.000000	0.214708
681.000000	0.215775
682.000000	0.216906
683.000000	0.218073
684.000000	0.219312
685.000000	0.220578
686.000000	0.221883
687.000000	0.223222
688.000000	0.224588
689.000000	0.225991
690.000000	0.227458
691.000000	0.228940
692.000000	0.230415
693.000000	0.231936
694.000000	0.233515
695.000000	0.235116
696.000000	0.236741
697.000000	0.238406
698.000000	0.240104
699.000000	0.241856
700.000000	0.243668
701.000000	0.245450
702.000000	0.247267
703.000000	0.249130
704.000000	0.251020
705.000000	0.252998
706.000000	0.255001
707.000000	0.256994
708.000000	0.259041
709.000000	0.261096
710.000000	0.263135
711.000000	0.265188
712.000000	0.267272
713.000000	0.269396
714.000000	0.271506
715.000000	0.273652
716.000000	0.275842
717.000000	0.278046
718.000000	0.280287
719.000000	0.282537
720.000000	0.284785
721.000000	0.287040
722.000000	0.289283
723.000000	0.291556
724.000000	0.293808
725.000000	0.296024
726.000000	0.298271
727.000000	0.300490
728.000000	0.302679
729.000000	0.304872
730.000000	0.307040
731.000000	0.309191
732.000000	0.311332
733.000000	0.313484
734.000000	0.315570
735.000000	0.317633
736.000000	0.319753
737.000000	0.321765
738.000000	0.323746
739.000000	0.325751
740.000000	0.327646
741.000000	0.329595
742.000000	0.331532
743.000000	0.333400
744.000000	0.335248
745.000000	0.337009
746.000000	0.338746
747.000000	0.340450
748.000000	0.342140
749.000000	0.343798
750.000000	0.345381
751.000000	0.346927
752.000000	0.348440
753.000000	0.349936
754.000000	0.351415
755.000000	0.352819
756.000000	0.354192
757.000000	0.355541
758.000000	0.356835
759.000000	0.358072
760.000000	0.359185
761.000000	0.360290
762.000000	0.361396
763.000000	0.362468
764.000000	0.363530
765.000000	0.364522
766.000000	0.365481
767.000000	0.366436
768.000000	0.367376
769.000000	0.368225
770.000000	0.368989
771.000000	0.369782
772.000000	0.370561
773.000000	0.371263
774.000000	0.371972
775.000000	0.372634
776.000000	0.373270
777.000000	0.373879
778.000000	0.374474
779.000000	0.375021
780.000000	0.375517
781.000000	0.375964
782.000000	0.376381
783.000000	0.376874
784.000000	0.377319
785.000000	0.377692
786.000000	0.378034
787.000000	0.378364
788.000000	0.378670
789.000000	0.378955
790.000000	0.379204
791.000000	0.379453
792.000000	0.379676
793.000000	0.379881
794.000000	0.380085
795.000000	0.380270
796.000000	0.380445
797.000000	0.380599
798.000000	0.380714
799.000000	0.380827
800.000000	0.380968
801.000000	0.381151
802.000000	0.381323
803.000000	0.381456
804.000000	0.381557
805.000000	0.381510
806.000000	0.381427
807.000000	0.381409
808.000000	0.381362
809.000000	0.381366
810.000000	0.381398
811.000000	0.381409
812.000000	0.381370
813.000000	0.381337
814.000000	0.381308
815.000000	0.381265
816.000000	0.381204
817.000000	0.381145
818.000000	0.381018
819.000000	0.380957
820.000000	0.380907
821.000000	0.380794
822.000000	0.380713
823.000000	0.380654
824.000000	0.380541
825.000000	0.380429
826.000000	0.380304
827.000000	0.380134
828.000000	0.379968
829.000000	0.379835
830.000000	0.379635
831.000000	0.379432
832.000000	0.379173
833.000000	0.378947
834.000000	0.378733
835.000000	0.378548
836.000000	0.378397
837.000000	0.378273
838.000000	0.378160
839.000000	0.377980
840.000000	0.377770
841.000000	0.377563
842.000000	0.377346
843.000000	0.377200
844.000000	0.377088
845.000000	0.376941
846.000000	0.376753
847.000000	0.376571
848.000000	0.376345
849.000000	0.376064
850.000000	0.375790
851.000000	0.375489
852.000000	0.375204
853.000000	0.374952
854.000000	0.374672
855.000000	0.374460
856.000000	0.374210
857.000000	0.373917
858.000000	0.373732
859.000000	0.373599
860.000000	0.373420
861.000000	0.373130
862.000000	0.372792
863.000000	0.372428
864.000000	0.372087
865.000000	0.371813
866.000000	0.371609
867.000000	0.371308
868.000000	0.370997
869.000000	0.370667
870.000000	0.370408
871.000000	0.370095
872.000000	0.369766
873.000000	0.369392
874.000000	0.369036
875.000000	0.368683
876.000000	0.368364
877.000000	0.368045
878.000000	0.367747
879.000000	0.367588
880.000000	0.367411
881.000000	0.367118
882.000000	0.366743
883.000000	0.366386
884.000000	0.366079
885.000000	0.365756
886.000000	0.365409
887.000000	0.365076
888.000000	0.364761
889.000000	0.364506
890.000000	0.364192
891.000000	0.363917
892.000000	0.363607
893.000000	0.363255
894.000000	0.362983
895.000000	0.362638
896.000000	0.362222
897.000000	0.361836
898.000000	0.361579
899.000000	0.361343
900.000000	0.361031
901.000000	0.360613
902.000000	0.360303
903.000000	0.360013
904.000000	0.359771
905.000000	0.359492
906.000000	0.359199
907.000000	0.358902
908.000000	0.358653
909.000000	0.358339
910.000000	0.358030
911.000000	0.357731
912.000000	0.357450
913.000000	0.357158
914.000000	0.356877
915.000000	0.356654
916.000000	0.356348
917.000000	0.355982
918.000000	0.355672
919.000000	0.355440
920.000000	0.355132
921.000000	0.354796
922.000000	0.354456
923.000000	0.354104
924.000000	0.353868
925.000000	0.353610
926.000000	0.353305
927.000000	0.353026
928.000000	0.352791
929.000000	0.352558
930.000000	0.352270
931.000000	0.351951
932.000000	0.351610
933.000000	0.351310
934.000000	0.351045
935.000000	0.350737
936.000000	0.350482
937.000000	0.350228
938.000000	0.349862
939.000000	0.349694
940.000000	0.349583
941.000000	0.349313
942.000000	0.348923
943.000000	0.348609
944.000000	0.348332
945.000000	0.348079
946.000000	0.347834
947.000000	0.347622
948.000000	0.347388
949.000000	0.347154
950.000000	0.346911
951.000000	0.346616
952.000000	0.346329
953.000000	0.346023
954.000000	0.345808
955.000000	0.345632
956.000000	0.345307
957.000000	0.345016
958.000000	0.344755
959.000000	0.344581
960.000000	0.344393
961.000000	0.344223
962.000000	0.344038
963.000000	0.343796
964.000000	0.343575
965.000000	0.343448
966.000000	0.343303
967.000000	0.343117
968.000000	0.342860
969.000000	0.342578
970.000000	0.342467
971.000000	0.342323
972.000000	0.342156
973.000000	0.341953
974.000000	0.341864
975.000000	0.341719
976.000000	0.341574
977.000000	0.341495
978.000000	0.341460
979.000000	0.341404
980.000000	0.341105
981.000000	0.340888
982.000000	0.340899
983.000000	0.340764
984.000000	0.340504
985.000000	0.340408
986.000000	0.340407
987.000000	0.340391
988.000000	0.340204
989.000000	0.340110
990.000000	0.340030
991.000000	0.339940
992.000000	0.339874
993.000000	0.339753
994.000000	0.339586
995.000000	0.339577
996.000000	0.339577
997.000000	0.339502
998.000000	0.339502
999.000000	0.339628
1000.000000	0.339458
1001.000000	0.339699
1002.000000	0.339458
1003.000000	0.339431
1004.000000	0.339314
1005.000000	0.339069
1006.000000	0.338901
1007.000000	0.338860
1008.000000	0.338751
1009.000000	0.338646
1010.000000	0.338733
1011.000000	0.338819
1012.000000	0.338872
1013.000000	0.338719
1014.000000	0.338718
1015.000000	0.338780
1016.000000	0.338810
1017.000000	0.338802
1018.000000	0.338860
1019.000000	0.338990
1020.000000	0.339490
1021.000000	0.339195
1022.000000	0.338615
1023.000000	0.338653
1024.000000	0.338443
1025.000000	0.338421
1026.000000	0.338810
1027.000000	0.339167
1028.000000	0.339265
1029.000000	0.339289
1030.000000	0.339360
1031.000000	0.339470
1032.000000	0.339451
1033.000000	0.339385
1034.000000	0.339538
1035.000000	0.339935
1036.000000	0.340117
1037.000000	0.340340
1038.000000	0.340435
1039.000000	0.340429
1040.000000	0.340597
1041.000000	0.340778
1042.000000	0.340940
1043.000000	0.341252
1044.000000	0.341367
1045.000000	0.341342
1046.000000	0.341521
1047.000000	0.341769
1048.000000	0.342026
1049.000000	0.342156
1050.000000	0.342387
1051.000000	0.342526
1052.000000	0.342350
1053.000000	0.342393
1054.000000	0.342775
1055.000000	0.343114
1056.000000	0.343538
1057.000000	0.344035
1058.000000	0.344270
1059.000000	0.344139
1060.000000	0.344252
1061.000000	0.344358
1062.000000	0.344466
1063.000000	0.344944
1064.000000	0.345246
1065.000000	0.345391
1066.000000	0.345639
1067.000000	0.345954
1068.000000	0.346183
1069.000000	0.346240
1070.000000	0.346463
1071.000000	0.346905
1072.000000	0.347154
1073.000000	0.347395
1074.000000	0.347779
1075.000000	0.347915
1076.000000	0.347984
1077.000000	0.348121
1078.000000	0.348357
1079.000000	0.348610
1080.000000	0.348984
1081.000000	0.349260
1082.000000	0.349635
1083.000000	0.349954
1084.000000	0.350261
1085.000000	0.350602
1086.000000	0.350997
1087.000000	0.351283
1088.000000	0.351366
1089.000000	0.351526
1090.000000	0.351635
1091.000000	0.351664
1092.000000	0.351862
1093.000000	0.352299
1094.000000	0.352535
1095.000000	0.352648
1096.000000	0.352944
1097.000000	0.353278
1098.000000	0.353575
1099.000000	0.353915
1100.000000	0.354256
1101.000000	0.354493
1102.000000	0.354719
1103.000000	0.354947
1104.000000	0.355197
1105.000000	0.355340
1106.000000	0.355583
1107.000000	0.355842
1108.000000	0.356112
1109.000000	0.356559
1110.000000	0.356902
1111.000000	0.357148
1112.000000	0.357372
1113.000000	0.357569
1114.000000	0.357606
1115.000000	0.357799
1116.000000	0.358083
1117.000000	0.358323
1118.000000	0.358576
1119.000000	0.358761
1120.000000	0.358938
1121.000000	0.359074
1122.000000	0.359221
1123.000000	0.359596
1124.000000	0.359774
1125.000000	0.360031
1126.000000	0.360354
1127.000000	0.360565
1128.000000	0.360727
1129.000000	0.360863
1130.000000	0.361067
1131.000000	0.361297
1132.000000	0.361407
1133.000000	0.361540
1134.000000	0.361726
1135.000000	0.361779
1136.000000	0.361888
1137.000000	0.362136
1138.000000	0.362214
1139.000000	0.362214
1140.000000	0.362400
1141.000000	0.362636
1142.000000	0.362770
1143.000000	0.362839
1144.000000	0.363046
1145.000000	0.363058
1146.000000	0.362950
1147.000000	0.362970
1148.000000	0.362930
1149.000000	0.363015
1150.000000	0.363193
1151.000000	0.363338
1152.000000	0.363498
1153.000000	0.363631
1154.000000	0.363648
1155.000000	0.363728
1156.000000	0.363849
1157.000000	0.363977
1158.000000	0.364048
1159.000000	0.364163
1160.000000	0.364321
1161.000000	0.364426
1162.000000	0.364543
1163.000000	0.364871
1164.000000	0.365045
1165.000000	0.365068
1166.000000	0.365164
1167.000000	0.365173
1168.000000	0.365212
1169.000000	0.365285
1170.000000	0.365402
1171.000000	0.365600
1172.000000	0.365775
1173.000000	0.365926
1174.000000	0.366069
1175.000000	0.366160
1176.000000	0.366233
1177.000000	0.366424
1178.000000	0.366540
1179.000000	0.366580
1180.000000	0.366606
1181.000000	0.366696
1182.000000	0.366744
1183.000000	0.366913
1184.000000	0.367149
1185.000000	0.367299
1186.000000	0.367464
1187.000000	0.367560
1188.000000	0.367577
1189.000000	0.367604
1190.000000	0.367647
1191.000000	0.367725
1192.000000	0.367928
1193.000000	0.368177
1194.000000	0.368330
1195.000000	0.368526
1196.000000	0.368709
1197.000000	0.368841
1198.000000	0.368985
1199.000000	0.369121
1200.000000	0.369200
1201.000000	0.369289
1202.000000	0.369334
1203.000000	0.369453
1204.000000	0.369598
1205.000000	0.369664
1206.000000	0.369725
1207.000000	0.369930
1208.000000	0.370010
1209.000000	0.370063
1210.000000	0.370175
1211.000000	0.370312
1212.000000	0.370394
1213.000000	0.370531
1214.000000	0.370649
1215.000000	0.370666
1216.000000	0.370767
1217.000000	0.370899
1218.000000	0.370984
1219.000000	0.371101
1220.000000	0.371264
1221.000000	0.371385
1222.000000	0.371457
1223.000000	0.371552
1224.000000	0.371683
1225.000000	0.371784
1226.000000	0.371892
1227.000000	0.371967
1228.000000	0.372116
1229.000000	0.372196
1230.000000	0.372230
1231.000000	0.372220
1232.000000	0.372285
1233.000000	0.372472
1234.000000	0.372668
1235.000000	0.372826
1236.000000	0.372958
1237.000000	0.373123
1238.000000	0.373191
1239.000000	0.373292
1240.000000	0.373452
1241.000000	0.373557
1242.000000	0.373625
1243.000000	0.373748
1244.000000	0.373909
1245.000000	0.374142
1246.000000	0.374306
1247.000000	0.374471
1248.000000	0.374632
1249.000000	0.374731
1250.000000	0.374846
1251.000000	0.375010
1252.000000	0.375133
1253.000000	0.375282
1254.000000	0.375404
1255.000000	0.375490
1256.000000	0.375588
1257.000000	0.375677
1258.000000	0.375845
1259.000000	0.376014
1260.000000	0.376204
1261.000000	0.376350
1262.000000	0.376496
1263.000000	0.376669
1264.000000	0.376775
1265.000000	0.376919
1266.000000	0.377060
1267.000000	0.377200
1268.000000	0.377320
1269.000000	0.377384
1270.000000	0.377549
1271.000000	0.377628
1272.000000	0.377738
1273.000000	0.377981
1274.000000	0.378169
1275.000000	0.378286
1276.000000	0.378434
1277.000000	0.378597
1278.000000	0.378577
1279.000000	0.378597
1280.000000	0.378574
1281.000000	0.378569
1282.000000	0.378568
1283.000000	0.378694
1284.000000	0.378853
1285.000000	0.378980
1286.000000	0.379077
1287.000000	0.379201
1288.000000	0.379419
1289.000000	0.379576
1290.000000	0.379639
1291.000000	0.379707
1292.000000	0.379769
1293.000000	0.379824
1294.000000	0.379903
1295.000000	0.380046
1296.000000	0.380083
1297.000000	0.380106
1298.000000	0.380246
1299.000000	0.380335
1300.000000	0.380502
1301.000000	0.380651
1302.000000	0.380709
1303.000000	0.380884
1304.000000	0.380916
1305.000000	0.380926
1306.000000	0.380956
1307.000000	0.381021
1308.000000	0.381070
1309.000000	0.381116
1310.000000	0.381166
1311.000000	0.381249
1312.000000	0.381188
1313.000000	0.381221
1314.000000	0.381287
1315.000000	0.381228
1316.000000	0.381328
1317.000000	0.381457
1318.000000	0.381489
1319.000000	0.381549
1320.000000	0.381628
1321.000000	0.381602
1322.000000	0.381573
1323.000000	0.381592
1324.000000	0.381604
1325.000000	0.381571
1326.000000	0.381551
1327.000000	0.381559
1328.000000	0.381608
1329.000000	0.381541
1330.000000	0.381456
1331.000000	0.381396
1332.000000	0.381337
1333.000000	0.381245
1334.000000	0.381255
1335.000000	0.381244
1336.000000	0.381158
1337.000000	0.381095
1338.000000	0.380997
1339.000000	0.380884
1340.000000	0.380806
1341.000000	0.380755
1342.000000	0.380652
1343.000000	0.380525
1344.000000	0.380387
1345.000000	0.380217
1346.000000	0.380147
1347.000000	0.380019
1348.000000	0.379944
1349.000000	0.379752
1350.000000	0.379593
1351.000000	0.379460
1352.000000	0.379222
1353.000000	0.379044
1354.000000	0.378968
1355.000000	0.378818
1356.000000	0.378730
1357.000000	0.378585
1358.000000	0.378354
1359.000000	0.378146
1360.000000	0.377973
1361.000000	0.377861
1362.000000	0.377720
1363.000000	0.377593
1364.000000	0.377476
1365.000000	0.377298
1366.000000	0.377182
1367.000000	0.377122
1368.000000	0.376964
1369.000000	0.376896
1370.000000	0.376708
1371.000000	0.376399
1372.000000	0.376073
1373.000000	0.375685
1374.000000	0.375344
1375.000000	0.375001
1376.000000	0.374699
1377.000000	0.374425
1378.000000	0.374024
1379.000000	0.373429
1380.000000	0.372859
1381.000000	0.372191
1382.000000	0.371393
1383.000000	0.370690
1384.000000	0.369753
1385.000000	0.368695
1386.000000	0.367772
1387.000000	0.366749
1388.000000	0.365621
1389.000000	0.364424
1390.000000	0.363100
1391.000000	0.361599
1392.000000	0.360071
1393.000000	0.358455
1394.000000	0.356789
1395.000000	0.355081
1396.000000	0.353348
1397.000000	0.351441
1398.000000	0.349343
1399.000000	0.347375
1400.000000	0.345280
1401.000000	0.343306
1402.000000	0.341491
1403.000000	0.339630
1404.000000	0.337895
1405.000000	0.336231
1406.000000	0.334616
1407.000000	0.333165
1408.000000	0.331704
1409.000000	0.330422
1410.000000	0.329338
1411.000000	0.328277
1412.000000	0.327313
1413.000000	0.326452
1414.000000	0.325664
1415.000000	0.324988
1416.000000	0.324349
1417.000000	0.323772
1418.000000	0.323189
1419.000000	0.322670
1420.000000	0.322135
1421.000000	0.321676
1422.000000	0.321220
1423.000000	0.320784
1424.000000	0.320335
1425.000000	0.319942
1426.000000	0.319493
1427.000000	0.319081
1428.000000	0.318714
1429.000000	0.318302
1430.000000	0.317973
1431.000000	0.317696
1432.000000	0.317390
1433.000000	0.317126
1434.000000	0.316855
1435.000000	0.316631
1436.000000	0.316454
1437.000000	0.316289
1438.000000	0.316159
1439.000000	0.316075
1440.000000	0.316106
1441.000000	0.316204
1442.000000	0.316420
1443.000000	0.316683
1444.000000	0.317064
1445.000000	0.317514
1446.000000	0.318013
1447.000000	0.318588
1448.000000	0.319162
1449.000000	0.319694
1450.000000	0.320204
1451.000000	0.320755
1452.000000	0.321271
1453.000000	0.321739
1454.000000	0.322172
1455.000000	0.322530
1456.000000	0.322888
1457.000000	0.323264
1458.000000	0.323645
1459.000000	0.323988
1460.000000	0.324247
1461.000000	0.324466
1462.000000	0.324678
1463.000000	0.324861
1464.000000	0.325076
1465.000000	0.325372
1466.000000	0.325638
1467.000000	0.325914
1468.000000	0.326247
1469.000000	0.326614
1470.000000	0.326921
1471.000000	0.327299
1472.000000	0.327701
1473.000000	0.328189
1474.000000	0.328658
1475.000000	0.329128
1476.000000	0.329646
1477.000000	0.330141
1478.000000	0.330636
1479.000000	0.331155
1480.000000	0.331649
1481.000000	0.332107
1482.000000	0.332562
1483.000000	0.333087
1484.000000	0.333638
1485.000000	0.334158
1486.000000	0.334684
1487.000000	0.335219
1488.000000	0.335750
1489.000000	0.336307
1490.000000	0.336769
1491.000000	0.337285
1492.000000	0.337763
1493.000000	0.338269
1494.000000	0.338786
1495.000000	0.339251
1496.000000	0.339666
1497.000000	0.340127
1498.000000	0.340615
1499.000000	0.341054
1500.000000	0.341533
1501.000000	0.341993
1502.000000	0.342344
1503.000000	0.342745
1504.000000	0.343190
1505.000000	0.343594
1506.000000	0.344014
1507.000000	0.344413
1508.000000	0.344832
1509.000000	0.345205
1510.000000	0.345515
1511.000000	0.345894
1512.000000	0.346210
1513.000000	0.346509
1514.000000	0.346890
1515.000000	0.347188
1516.000000	0.347487
1517.000000	0.347722
1518.000000	0.347896
1519.000000	0.348022
1520.000000	0.348177
1521.000000	0.348290
1522.000000	0.348430
1523.000000	0.348674
1524.000000	0.348840
1525.000000	0.349025
1526.000000	0.349211
1527.000000	0.349356
1528.000000	0.349538
1529.000000	0.349728
1530.000000	0.349874
1531.000000	0.350123
1532.000000	0.350373
1533.000000	0.350549
1534.000000	0.350759
1535.000000	0.350952
1536.000000	0.351067
1537.000000	0.351302
1538.000000	0.351567
1539.000000	0.351728
1540.000000	0.351900
1541.000000	0.352081
1542.000000	0.352234
1543.000000	0.352359
1544.000000	0.352466
1545.000000	0.352611
1546.000000	0.352682
1547.000000	0.352766
1548.000000	0.352908
1549.000000	0.352993
1550.000000	0.353088
1551.000000	0.353210
1552.000000	0.353343
1553.000000	0.353453
1554.000000	0.353554
1555.000000	0.353702
1556.000000	0.353802
1557.000000	0.353868
1558.000000	0.353997
1559.000000	0.354098
1560.000000	0.354165
1561.000000	0.354306
1562.000000	0.354367
1563.000000	0.354392
1564.000000	0.354474
1565.000000	0.354558
1566.000000	0.354545
1567.000000	0.354620
1568.000000	0.354667
1569.000000	0.354741
1570.000000	0.354799
1571.000000	0.354851
1572.000000	0.354893
1573.000000	0.354895
1574.000000	0.354933
1575.000000	0.355008
1576.000000	0.355119
1577.000000	0.355258
1578.000000	0.355347
1579.000000	0.355515
1580.000000	0.355629
1581.000000	0.355753
1582.000000	0.355860
1583.000000	0.355982
1584.000000	0.355999
1585.000000	0.356036
1586.000000	0.356076
1587.000000	0.356063
1588.000000	0.356057
1589.000000	0.356058
1590.000000	0.356081
1591.000000	0.356133
1592.000000	0.356186
1593.000000	0.356318
1594.000000	0.356357
1595.000000	0.356383
1596.000000	0.356427
1597.000000	0.356465
1598.000000	0.356517
1599.000000	0.356638
1600.000000	0.356675
1601.000000	0.356759
1602.000000	0.356826
1603.000000	0.356902
1604.000000	0.356964
1605.000000	0.357047
1606.000000	0.357108
1607.000000	0.357214
1608.000000	0.357268
1609.000000	0.357359
1610.000000	0.357403
1611.000000	0.357407
1612.000000	0.357431
1613.000000	0.357575
1614.000000	0.357643
1615.000000	0.357756
1616.000000	0.357887
1617.000000	0.357933
1618.000000	0.357988
1619.000000	0.358039
1620.000000	0.358107
1621.000000	0.358194
1622.000000	0.358376
1623.000000	0.358581
1624.000000	0.358741
1625.000000	0.358792
1626.000000	0.358803
1627.000000	0.358782
1628.000000	0.358847
1629.000000	0.358884
1630.000000	0.359006
1631.000000	0.359141
1632.000000	0.359215
1633.000000	0.359295
1634.000000	0.359426
1635.000000	0.359611
1636.000000	0.359737
1637.000000	0.359916
1638.000000	0.360017
1639.000000	0.360095
1640.000000	0.360181
1641.000000	0.360335
1642.000000	0.360465
1643.000000	0.360618
1644.000000	0.360746
1645.000000	0.360859
1646.000000	0.360935
1647.000000	0.361026
1648.000000	0.361065
1649.000000	0.361164
1650.000000	0.361296
1651.000000	0.361445
1652.000000	0.361629
1653.000000	0.361815
1654.000000	0.361992
1655.000000	0.362126
1656.000000	0.362161
1657.000000	0.362206
1658.000000	0.362291
1659.000000	0.362449
1660.000000	0.362639
1661.000000	0.362817
1662.000000	0.362969
1663.000000	0.363054
1664.000000	0.363190
1665.000000	0.363342
1666.000000	0.363576
1667.000000	0.363766
1668.000000	0.363972
1669.000000	0.364194
1670.000000	0.364325
1671.000000	0.364548
1672.000000	0.364775
1673.000000	0.364945
1674.000000	0.365081
1675.000000	0.365295
1676.000000	0.365436
1677.000000	0.365491
1678.000000	0.365551
1679.000000	0.365594
1680.000000	0.365597
1681.000000	0.365630
1682.000000	0.365651
1683.000000	0.365697
1684.000000	0.365712
1685.000000	0.365726
1686.000000	0.365772
1687.000000	0.365827
1688.000000	0.365860
1689.000000	0.365950
1690.000000	0.366028
1691.000000	0.366165
1692.000000	0.366209
1693.000000	0.366229
1694.000000	0.366225
1695.000000	0.366270
1696.000000	0.366356
1697.000000	0.366366
1698.000000	0.366414
1699.000000	0.366474
1700.000000	0.366513
1701.000000	0.366637
1702.000000	0.366597
1703.000000	0.366547
1704.000000	0.366593
1705.000000	0.366629
1706.000000	0.366724
1707.000000	0.366787
1708.000000	0.366806
1709.000000	0.366764
1710.000000	0.366777
1711.000000	0.366805
1712.000000	0.366859
1713.000000	0.366877
1714.000000	0.366929
1715.000000	0.366983
1716.000000	0.367030
1717.000000	0.367086
1718.000000	0.367114
1719.000000	0.367155
1720.000000	0.367305
1721.000000	0.367340
1722.000000	0.367297
1723.000000	0.367358
1724.000000	0.367413
1725.000000	0.367542
1726.000000	0.367727
1727.000000	0.367817
1728.000000	0.367804
1729.000000	0.367731
1730.000000	0.367727
1731.000000	0.367743
1732.000000	0.367752
1733.000000	0.367843
1734.000000	0.367834
1735.000000	0.367888
1736.000000	0.367944
1737.000000	0.367984
1738.000000	0.368080
1739.000000	0.368122
1740.000000	0.368120
1741.000000	0.368073
1742.000000	0.367987
1743.000000	0.368038
1744.000000	0.368087
1745.000000	0.368084
1746.000000	0.368138
1747.000000	0.368085
1748.000000	0.367995
1749.000000	0.367939
1750.000000	0.367847
1751.000000	0.367838
1752.000000	0.367929
1753.000000	0.367913
1754.000000	0.367923
1755.000000	0.367945
1756.000000	0.367899
1757.000000	0.367760
1758.000000	0.367748
1759.000000	0.367758
1760.000000	0.367755
1761.000000	0.367818
1762.000000	0.367804
1763.000000	0.367697
1764.000000	0.367679
1765.000000	0.367638
1766.000000	0.367662
1767.000000	0.367701
1768.000000	0.367643
1769.000000	0.367667
1770.000000	0.367716
1771.000000	0.367682
1772.000000	0.367652
1773.000000	0.367570
1774.000000	0.367551
1775.000000	0.367593
1776.000000	0.367636
1777.000000	0.367713
1778.000000	0.367723
1779.000000	0.367660
1780.000000	0.367668
1781.000000	0.367659
1782.000000	0.367640
1783.000000	0.367678
1784.000000	0.367766
1785.000000	0.367738
1786.000000	0.367830
1787.000000	0.368032
1788.000000	0.368158
1789.000000	0.368226
1790.000000	0.368294
1791.000000	0.368255
1792.000000	0.368216
1793.000000	0.368207
1794.000000	0.368165
1795.000000	0.368188
1796.000000	0.368278
1797.000000	0.368312
1798.000000	0.368302
1799.000000	0.368333
1800.000000	0.368435
1801.000000	0.368356
1802.000000	0.368464
1803.000000	0.368251
1804.000000	0.368187
1805.000000	0.368125
1806.000000	0.368094
1807.000000	0.368018
1808.000000	0.367934
1809.000000	0.367964
1810.000000	0.367710
1811.000000	0.367630
1812.000000	0.367576
1813.000000	0.367599
1814.000000	0.367605
1815.000000	0.367831
1816.000000	0.368494
1817.000000	0.368484
1818.000000	0.368228
1819.000000	0.368416
1820.000000	0.367981
1821.000000	0.367383
1822.000000	0.367308
1823.000000	0.367555
1824.000000	0.367498
1825.000000	0.367578
1826.000000	0.367581
1827.000000	0.367348
1828.000000	0.367021
1829.000000	0.366544
1830.000000	0.366071
1831.000000	0.365853
1832.000000	0.365480
1833.000000	0.365413
1834.000000	0.366014
1835.000000	0.366014
1836.000000	0.365672
1837.000000	0.365478
1838.000000	0.365161
1839.000000	0.364422
1840.000000	0.363940
1841.000000	0.363816
1842.000000	0.363547
1843.000000	0.363140
1844.000000	0.363048
1845.000000	0.363033
1846.000000	0.362981
1847.000000	0.362905
1848.000000	0.362935
1849.000000	0.362597
1850.000000	0.362177
1851.000000	0.361737
1852.000000	0.360913
1853.000000	0.360518
1854.000000	0.360173
1855.000000	0.359598
1856.000000	0.358878
1857.000000	0.358393
1858.000000	0.357827
1859.000000	0.356941
1860.000000	0.355906
1861.000000	0.354795
1862.000000	0.353582
1863.000000	0.352047
1864.000000	0.350778
1865.000000	0.349819
1866.000000	0.348521
1867.000000	0.347059
1868.000000	0.345536
1869.000000	0.343717
1870.000000	0.341514
1871.000000	0.339048
1872.000000	0.336632
1873.000000	0.334373
1874.000000	0.332228
1875.000000	0.329841
1876.000000	0.327415
1877.000000	0.324367
1878.000000	0.321035
1879.000000	0.317793
1880.000000	0.314517
1881.000000	0.311231
1882.000000	0.307556
1883.000000	0.303471
1884.000000	0.299309
1885.000000	0.294526
1886.000000	0.289769
1887.000000	0.284924
1888.000000	0.279823
1889.000000	0.274351
1890.000000	0.268931
1891.000000	0.263564
1892.000000	0.258163
1893.000000	0.252784
1894.000000	0.247446
1895.000000	0.242011
1896.000000	0.236545
1897.000000	0.231134
1898.000000	0.226064
1899.000000	0.221558
1900.000000	0.217538
1901.000000	0.213737
1902.000000	0.209958
1903.000000	0.206599
1904.000000	0.203759
1905.000000	0.201213
1906.000000	0.199104
1907.000000	0.197609
1908.000000	0.196484
1909.000000	0.195503
1910.000000	0.194941
1911.000000	0.194640
1912.000000	0.194334
1913.000000	0.194181
1914.000000	0.194154
1915.000000	0.194094
1916.000000	0.194157
1917.000000	0.194340
1918.000000	0.194730
1919.000000	0.195099
1920.000000	0.195562
1921.000000	0.196419
1922.000000	0.197166
1923.000000	0.198059
1924.000000	0.198816
1925.000000	0.199107
1926.000000	0.199648
1927.000000	0.200063
1928.000000	0.200472
1929.000000	0.200952
1930.000000	0.201729
1931.000000	0.202190
1932.000000	0.202750
1933.000000	0.203371
1934.000000	0.203847
1935.000000	0.204295
1936.000000	0.204647
1937.000000	0.205127
1938.000000	0.205573
1939.000000	0.205874
1940.000000	0.206104
1941.000000	0.206370
1942.000000	0.206502
1943.000000	0.206484
1944.000000	0.206677
1945.000000	0.207018
1946.000000	0.207306
1947.000000	0.207507
1948.000000	0.207556
1949.000000	0.207544
1950.000000	0.207562
1951.000000	0.207420
1952.000000	0.207303
1953.000000	0.207087
1954.000000	0.206892
1955.000000	0.206771
1956.000000	0.206793
1957.000000	0.206936
1958.000000	0.207021
1959.000000	0.206892
1960.000000	0.206817
1961.000000	0.206907
1962.000000	0.206942
1963.000000	0.207054
1964.000000	0.207252
1965.000000	0.207299
1966.000000	0.207294
1967.000000	0.207268
1968.000000	0.207353
1969.000000	0.207596
1970.000000	0.207898
1971.000000	0.208278
1972.000000	0.208558
1973.000000	0.208777
1974.000000	0.208845
1975.000000	0.209256
1976.000000	0.209796
1977.000000	0.210505
1978.000000	0.211380
1979.000000	0.212261
1980.000000	0.212834
1981.000000	0.213297
1982.000000	0.213657
1983.000000	0.214135
1984.000000	0.214673
1985.000000	0.215367
1986.000000	0.215978
1987.000000	0.216709
1988.000000	0.217346
1989.000000	0.217891
1990.000000	0.218598
1991.000000	0.219109
1992.000000	0.219585
1993.000000	0.220322
1994.000000	0.221156
1995.000000	0.222145
1996.000000	0.223170
1997.000000	0.223947
1998.000000	0.224493
1999.000000	0.225190
2000.000000	0.225796
2001.000000	0.226354
2002.000000	0.227398
2003.000000	0.228693
2004.000000	0.229766
2005.000000	0.230873
2006.000000	0.231873
2007.000000	0.232598
2008.000000	0.233532
2009.000000	0.234500
2010.000000	0.235648
2011.000000	0.237008
2012.000000	0.238036
2013.000000	0.239022
2014.000000	0.239674
2015.000000	0.240279
2016.000000	0.240929
2017.000000	0.241895
2018.000000	0.243039
2019.000000	0.244117
2020.000000	0.245187
2021.000000	0.246231
2022.000000	0.247191
2023.000000	0.248134
2024.000000	0.249131
2025.000000	0.250069
2026.000000	0.250807
2027.000000	0.251503
2028.000000	0.252347
2029.000000	0.253365
2030.000000	0.254328
2031.000000	0.255305
2032.000000	0.256131
2033.000000	0.256927
2034.000000	0.257678
2035.000000	0.258372
2036.000000	0.259056
2037.000000	0.259951
2038.000000	0.260674
2039.000000	0.261347
2040.000000	0.262094
2041.000000	0.262737
2042.000000	0.263376
2043.000000	0.263953
2044.000000	0.264587
2045.000000	0.265333
2046.000000	0.265777
2047.000000	0.266469
2048.000000	0.267298
2049.000000	0.268184
2050.000000	0.268888
2051.000000	0.269600
2052.000000	0.270184
2053.000000	0.270696
2054.000000	0.271395
2055.000000	0.272103
2056.000000	0.272539
2057.000000	0.273349
2058.000000	0.274170
2059.000000	0.274872
2060.000000	0.275529
2061.000000	0.276200
2062.000000	0.276830
2063.000000	0.277485
2064.000000	0.277909
2065.000000	0.278595
2066.000000	0.278928
2067.000000	0.279156
2068.000000	0.279328
2069.000000	0.279641
2070.000000	0.280376
2071.000000	0.281275
2072.000000	0.282188
2073.000000	0.282832
2074.000000	0.283339
2075.000000	0.284027
2076.000000	0.284597
2077.000000	0.285291
2078.000000	0.286353
2079.000000	0.287010
2080.000000	0.287488
2081.000000	0.288029
2082.000000	0.288477
2083.000000	0.288879
2084.000000	0.289353
2085.000000	0.289776
2086.000000	0.290367
2087.000000	0.291016
2088.000000	0.291741
2089.000000	0.292544
2090.000000	0.293059
2091.000000	0.293288
2092.000000	0.293837
2093.000000	0.294381
2094.000000	0.294952
2095.000000	0.295958
2096.000000	0.296578
2097.000000	0.296884
2098.000000	0.297123
2099.000000	0.297299
2100.000000	0.297682
2101.000000	0.298301
2102.000000	0.298947
2103.000000	0.299751
2104.000000	0.300295
2105.000000	0.300715
2106.000000	0.300945
2107.000000	0.301281
2108.000000	0.301357
2109.000000	0.301773
2110.000000	0.302281
2111.000000	0.302622
2112.000000	0.302910
2113.000000	0.303071
2114.000000	0.303134
2115.000000	0.303563
2116.000000	0.304112
2117.000000	0.304510
2118.000000	0.305106
2119.000000	0.305474
2120.000000	0.305945
2121.000000	0.306529
2122.000000	0.306947
2123.000000	0.307301
2124.000000	0.307583
2125.000000	0.307556
2126.000000	0.307815
2127.000000	0.308244
2128.000000	0.308760
2129.000000	0.309516
2130.000000	0.310052
2131.000000	0.310122
2132.000000	0.310030
2133.000000	0.309811
2134.000000	0.310135
2135.000000	0.310581
2136.000000	0.310883
2137.000000	0.311097
2138.000000	0.311189
2139.000000	0.311168
2140.000000	0.310990
2141.000000	0.310989
2142.000000	0.310842
2143.000000	0.310776
2144.000000	0.311128
2145.000000	0.311369
2146.000000	0.311642
2147.000000	0.312315
2148.000000	0.312591
2149.000000	0.312918
2150.000000	0.313234
2151.000000	0.313218
2152.000000	0.313423
2153.000000	0.313658
2154.000000	0.313723
2155.000000	0.313668
2156.000000	0.313882
2157.000000	0.314169
2158.000000	0.314332
2159.000000	0.314754
2160.000000	0.315072
2161.000000	0.315127
2162.000000	0.315371
2163.000000	0.315782
2164.000000	0.315830
2165.000000	0.315540
2166.000000	0.315484
2167.000000	0.315499
2168.000000	0.315448
2169.000000	0.315506
2170.000000	0.315604
2171.000000	0.315532
2172.000000	0.315144
2173.000000	0.315099
2174.000000	0.315178
2175.000000	0.315218
2176.000000	0.315457
2177.000000	0.315561
2178.000000	0.315720
2179.000000	0.315755
2180.000000	0.315501
2181.000000	0.315647
2182.000000	0.315283
2183.000000	0.315078
2184.000000	0.314888
2185.000000	0.314585
2186.000000	0.314326
2187.000000	0.314260
2188.000000	0.314286
2189.000000	0.314080
2190.000000	0.313908
2191.000000	0.313935
2192.000000	0.313771
2193.000000	0.313736
2194.000000	0.313410
2195.000000	0.312632
2196.000000	0.312484
2197.000000	0.312371
2198.000000	0.312453
2199.000000	0.313346
2200.000000	0.313881
2201.000000	0.314332
2202.000000	0.314719
2203.000000	0.314974
2204.000000	0.314923
2205.000000	0.314339
2206.000000	0.314310
2207.000000	0.313895
2208.000000	0.313528
2209.000000	0.313288
2210.000000	0.313146
2211.000000	0.313187
2212.000000	0.313605
2213.000000	0.313264
2214.000000	0.312250
2215.000000	0.311773
2216.000000	0.311112
2217.000000	0.310605
2218.000000	0.310551
2219.000000	0.310535
2220.000000	0.310160
2221.000000	0.310475
2222.000000	0.312008
2223.000000	0.312092
2224.000000	0.311733
2225.000000	0.311363
2226.000000	0.309809
2227.000000	0.308354
2228.000000	0.308533
2229.000000	0.307945
2230.000000	0.307758
2231.000000	0.307358
2232.000000	0.307015
2233.000000	0.307706
2234.000000	0.306790
2235.000000	0.306900
2236.000000	0.306470
2237.000000	0.304805
2238.000000	0.304139
2239.000000	0.304258
2240.000000	0.303897
2241.000000	0.303550
2242.000000	0.303386
2243.000000	0.302874
2244.000000	0.303069
2245.000000	0.304346
2246.000000	0.304580
2247.000000	0.304637
2248.000000	0.304380
2249.000000	0.303837
2250.000000	0.302084
2251.000000	0.300755
2252.000000	0.300230
2253.000000	0.299723
2254.000000	0.299531
2255.000000	0.299202
2256.000000	0.299171
2257.000000	0.299988
2258.000000	0.300152
2259.000000	0.299843
2260.000000	0.300728
2261.000000	0.300265
2262.000000	0.298469
2263.000000	0.297521
2264.000000	0.296081
2265.000000	0.295555
2266.000000	0.296127
2267.000000	0.295672
2268.000000	0.295726
2269.000000	0.294839
2270.000000	0.292160
2271.000000	0.290799
2272.000000	0.290120
2273.000000	0.289186
2274.000000	0.288708
2275.000000	0.287717
2276.000000	0.286754
2277.000000	0.284340
2278.000000	0.282090
2279.000000	0.280341
2280.000000	0.278148
2281.000000	0.276470
2282.000000	0.275019
2283.000000	0.273328
2284.000000	0.272048
2285.000000	0.270197
2286.000000	0.267927
2287.000000	0.265886
2288.000000	0.263576
2289.000000	0.261478
2290.000000	0.259594
2291.000000	0.258316
2292.000000	0.257273
2293.000000	0.255598
2294.000000	0.254321
2295.000000	0.253068
2296.000000	0.252186
2297.000000	0.251467
2298.000000	0.251288
2299.000000	0.251475
2300.000000	0.251757
2301.000000	0.252318
2302.000000	0.252915
2303.000000	0.253832
2304.000000	0.254882
2305.000000	0.256195
2306.000000	0.257294
2307.000000	0.258516
2308.000000	0.259421
2309.000000	0.259531
2310.000000	0.260220
2311.000000	0.261315
2312.000000	0.262545
2313.000000	0.264265
2314.000000	0.265668
2315.000000	0.266959
2316.000000	0.267274
2317.000000	0.267002
2318.000000	0.267756
2319.000000	0.268168
2320.000000	0.267895
2321.000000	0.268528
2322.000000	0.268000
2323.000000	0.266605
2324.000000	0.265988
2325.000000	0.264770
2326.000000	0.264644
2327.000000	0.265677
2328.000000	0.266413
2329.000000	0.267202
2330.000000	0.267052
2331.000000	0.265899
2332.000000	0.265255
2333.000000	0.264650
2334.000000	0.263847
2335.000000	0.263610
2336.000000	0.263039
2337.000000	0.262344
2338.000000	0.262527
2339.000000	0.261595
2340.000000	0.259764
2341.000000	0.258677
2342.000000	0.256885
2343.000000	0.256058
2344.000000	0.256170
2345.000000	0.255506
2346.000000	0.255234
2347.000000	0.254489
2348.000000	0.253038
2349.000000	0.252250
2350.000000	0.251402
2351.000000	0.249755
2352.000000	0.248358
2353.000000	0.247962
2354.000000	0.246391
2355.000000	0.246123
2356.000000	0.245275
2357.000000	0.242146
2358.000000	0.240815
2359.000000	0.238415
2360.000000	0.237335
2361.000000	0.238848
2362.000000	0.236468
2363.000000	0.235632
2364.000000	0.233996
2365.000000	0.229462
2366.000000	0.229364
2367.000000	0.229343
2368.000000	0.228644
2369.000000	0.229807
2370.000000	0.229859
2371.000000	0.228633
2372.000000	0.227892
2373.000000	0.227170
2374.000000	0.224690
2375.000000	0.223732
2376.000000	0.224255
2377.000000	0.221905
2378.000000	0.220542
2379.000000	0.220462
2380.000000	0.218124
2381.000000	0.217597
2382.000000	0.218351
2383.000000	0.216937
2384.000000	0.216538
2385.000000	0.217769
2386.000000	0.216676
2387.000000	0.214463
2388.000000	0.212510
2389.000000	0.209242
2390.000000	0.206355
2391.000000	0.205404
2392.000000	0.203775
2393.000000	0.200567
2394.000000	0.199470
2395.000000	0.200231
2396.000000	0.201612
2397.000000	0.203553
2398.000000	0.204865
2399.000000	0.204025
2400.000000	0.201660
2401.000000	0.200574
2402.000000	0.200365
2403.000000	0.201378
2404.000000	0.200910
2405.000000	0.199201
2406.000000	0.198743
2407.000000	0.196658
2408.000000	0.198413
2409.000000	0.201823
2410.000000	0.201156
2411.000000	0.200147
2412.000000	0.196520
2413.000000	0.191817
2414.000000	0.191442
2415.000000	0.189871
2416.000000	0.189038
2417.000000	0.192612
2418.000000	0.189164
2419.000000	0.187346
2420.000000	0.190134
2421.000000	0.186373
2422.000000	0.185794
2423.000000	0.187078
2424.000000	0.186688
2425.000000	0.190310
2426.000000	0.194361
2427.000000	0.197387
2428.000000	0.198376
2429.000000	0.196185
2430.000000	0.195509
2431.000000	0.195054
2432.000000	0.193206
2433.000000	0.191533
2434.000000	0.190743
2435.000000	0.189682
2436.000000	0.188910
2437.000000	0.192021
2438.000000	0.193426
2439.000000	0.193167
2440.000000	0.193199
2441.000000	0.189470
2442.000000	0.186229
2443.000000	0.183825
2444.000000	0.179393
2445.000000	0.180724
2446.000000	0.185196
2447.000000	0.187842
2448.000000	0.194162
2449.000000	0.194712
2450.000000	0.189066
2451.000000	0.185568
2452.000000	0.182562
2453.000000	0.181238
2454.000000	0.178966
2455.000000	0.177353
2456.000000	0.178553
2457.000000	0.180235
2458.000000	0.186066
2459.000000	0.189923
2460.000000	0.188360
2461.000000	0.191159
2462.000000	0.191624
2463.000000	0.184456
2464.000000	0.176836
2465.000000	0.169109
2466.000000	0.162543
2467.000000	0.162511
2468.000000	0.167685
2469.000000	0.164651
2470.000000	0.165995
2471.000000	0.171825
2472.000000	0.166180
2473.000000	0.171506
2474.000000	0.174509
2475.000000	0.169028
2476.000000	0.180096
2477.000000	0.186719
2478.000000	0.184402
2479.000000	0.185487
2480.000000	0.184230
2481.000000	0.185252
2482.000000	0.186232
2483.000000	0.181673
2484.000000	0.173153
2485.000000	0.166860
2486.000000	0.163298
2487.000000	0.160047
2488.000000	0.170028
2489.000000	0.178349
2490.000000	0.170873
2491.000000	0.168281
2492.000000	0.160401
2493.000000	0.142900
2494.000000	0.144375
2495.000000	0.165248
2496.000000	0.169142
2497.000000	0.165361
2498.000000	0.166315
2499.000000	0.158460
2500.000000	0.159203
