# Wavelength	NAu-2-10_HEX-70_FV7-20_00002.asd.rts.txt
350.000000	0.223963
351.000000	0.224024
352.000000	0.228966
353.000000	0.231523
354.000000	0.229605
355.000000	0.221141
356.000000	0.218125
357.000000	0.222198
358.000000	0.224860
359.000000	0.222770
360.000000	0.220209
361.000000	0.221971
362.000000	0.225489
363.000000	0.225525
364.000000	0.221077
365.000000	0.223448
366.000000	0.223728
367.000000	0.221114
368.000000	0.222160
369.000000	0.223304
370.000000	0.223255
371.000000	0.221821
372.000000	0.222681
373.000000	0.224467
374.000000	0.225869
375.000000	0.225149
376.000000	0.224442
377.000000	0.224959
378.000000	0.227529
379.000000	0.229231
380.000000	0.229841
381.000000	0.230788
382.000000	0.231330
383.000000	0.230691
384.000000	0.229161
385.000000	0.228737
386.000000	0.229837
387.000000	0.231787
388.000000	0.232413
389.000000	0.231511
390.000000	0.231003
391.000000	0.232877
392.000000	0.232444
393.000000	0.232058
394.000000	0.233525
395.000000	0.233630
396.000000	0.234243
397.000000	0.235447
398.000000	0.234832
399.000000	0.234805
400.000000	0.235510
401.000000	0.236032
402.000000	0.235902
403.000000	0.235971
404.000000	0.236932
405.000000	0.237163
406.000000	0.237217
407.000000	0.237478
408.000000	0.237804
409.000000	0.238154
410.000000	0.238527
411.000000	0.238912
412.000000	0.239232
413.000000	0.239496
414.000000	0.239788
415.000000	0.240373
416.000000	0.240915
417.000000	0.241226
418.000000	0.241482
419.000000	0.241746
420.000000	0.242028
421.000000	0.242272
422.000000	0.242618
423.000000	0.243076
424.000000	0.243638
425.000000	0.243766
426.000000	0.243851
427.000000	0.244211
428.000000	0.244705
429.000000	0.245089
430.000000	0.245340
431.000000	0.245723
432.000000	0.245947
433.000000	0.246102
434.000000	0.246529
435.000000	0.246740
436.000000	0.246852
437.000000	0.247046
438.000000	0.247395
439.000000	0.247554
440.000000	0.247582
441.000000	0.248057
442.000000	0.248391
443.000000	0.248480
444.000000	0.248701
445.000000	0.248929
446.000000	0.249365
447.000000	0.250007
448.000000	0.250277
449.000000	0.250543
450.000000	0.251033
451.000000	0.251266
452.000000	0.251537
453.000000	0.251897
454.000000	0.252368
455.000000	0.252674
456.000000	0.252953
457.000000	0.253318
458.000000	0.253577
459.000000	0.253842
460.000000	0.254256
461.000000	0.254620
462.000000	0.254948
463.000000	0.255170
464.000000	0.255593
465.000000	0.255965
466.000000	0.256213
467.000000	0.256503
468.000000	0.256817
469.000000	0.257047
470.000000	0.257263
471.000000	0.257602
472.000000	0.257841
473.000000	0.257942
474.000000	0.258312
475.000000	0.258617
476.000000	0.258909
477.000000	0.259298
478.000000	0.259503
479.000000	0.259741
480.000000	0.260061
481.000000	0.260316
482.000000	0.260658
483.000000	0.261001
484.000000	0.261349
485.000000	0.261600
486.000000	0.261866
487.000000	0.262023
488.000000	0.262274
489.000000	0.262602
490.000000	0.262821
491.000000	0.263099
492.000000	0.263428
493.000000	0.263622
494.000000	0.263768
495.000000	0.263969
496.000000	0.264219
497.000000	0.264408
498.000000	0.264603
499.000000	0.264876
500.000000	0.265115
501.000000	0.265322
502.000000	0.265548
503.000000	0.265788
504.000000	0.266060
505.000000	0.266345
506.000000	0.266621
507.000000	0.266862
508.000000	0.267162
509.000000	0.267507
510.000000	0.267795
511.000000	0.268063
512.000000	0.268380
513.000000	0.268802
514.000000	0.269198
515.000000	0.269569
516.000000	0.269891
517.000000	0.270218
518.000000	0.270593
519.000000	0.270953
520.000000	0.271305
521.000000	0.271677
522.000000	0.272077
523.000000	0.272445
524.000000	0.272846
525.000000	0.273297
526.000000	0.273840
527.000000	0.274331
528.000000	0.274820
529.000000	0.275426
530.000000	0.275982
531.000000	0.276641
532.000000	0.277379
533.000000	0.278032
534.000000	0.278740
535.000000	0.279508
536.000000	0.280246
537.000000	0.280998
538.000000	0.281729
539.000000	0.282374
540.000000	0.283026
541.000000	0.283663
542.000000	0.284289
543.000000	0.284902
544.000000	0.285541
545.000000	0.286147
546.000000	0.286721
547.000000	0.287323
548.000000	0.287984
549.000000	0.288619
550.000000	0.289296
551.000000	0.290018
552.000000	0.290724
553.000000	0.291489
554.000000	0.292315
555.000000	0.293193
556.000000	0.294089
557.000000	0.294943
558.000000	0.295855
559.000000	0.296749
560.000000	0.297625
561.000000	0.298546
562.000000	0.299442
563.000000	0.300294
564.000000	0.301142
565.000000	0.301923
566.000000	0.302743
567.000000	0.303539
568.000000	0.304250
569.000000	0.304924
570.000000	0.305566
571.000000	0.306187
572.000000	0.306833
573.000000	0.307362
574.000000	0.307799
575.000000	0.308286
576.000000	0.308727
577.000000	0.309104
578.000000	0.309482
579.000000	0.309862
580.000000	0.310199
581.000000	0.310480
582.000000	0.310761
583.000000	0.310981
584.000000	0.311163
585.000000	0.311381
586.000000	0.311551
587.000000	0.311695
588.000000	0.311850
589.000000	0.312007
590.000000	0.312132
591.000000	0.312210
592.000000	0.312281
593.000000	0.312346
594.000000	0.312394
595.000000	0.312411
596.000000	0.312418
597.000000	0.312438
598.000000	0.312391
599.000000	0.312337
600.000000	0.312306
601.000000	0.312233
602.000000	0.312172
603.000000	0.312124
604.000000	0.312083
605.000000	0.311993
606.000000	0.311881
607.000000	0.311763
608.000000	0.311653
609.000000	0.311541
610.000000	0.311438
611.000000	0.311353
612.000000	0.311274
613.000000	0.311170
614.000000	0.311059
615.000000	0.310928
616.000000	0.310805
617.000000	0.310669
618.000000	0.310562
619.000000	0.310442
620.000000	0.310298
621.000000	0.310196
622.000000	0.310091
623.000000	0.309985
624.000000	0.309892
625.000000	0.309837
626.000000	0.309779
627.000000	0.309714
628.000000	0.309686
629.000000	0.309733
630.000000	0.309719
631.000000	0.309709
632.000000	0.309704
633.000000	0.309723
634.000000	0.309763
635.000000	0.309803
636.000000	0.309874
637.000000	0.309967
638.000000	0.310064
639.000000	0.310161
640.000000	0.310293
641.000000	0.310350
642.000000	0.310459
643.000000	0.310606
644.000000	0.310734
645.000000	0.310831
646.000000	0.310946
647.000000	0.311088
648.000000	0.311258
649.000000	0.311464
650.000000	0.311670
651.000000	0.311842
652.000000	0.312007
653.000000	0.312207
654.000000	0.312400
655.000000	0.312624
656.000000	0.312877
657.000000	0.313099
658.000000	0.313358
659.000000	0.313635
660.000000	0.313904
661.000000	0.314189
662.000000	0.314465
663.000000	0.314791
664.000000	0.315169
665.000000	0.315547
666.000000	0.315916
667.000000	0.316257
668.000000	0.316651
669.000000	0.317049
670.000000	0.317433
671.000000	0.317831
672.000000	0.318272
673.000000	0.318743
674.000000	0.319218
675.000000	0.319676
676.000000	0.320135
677.000000	0.320633
678.000000	0.321109
679.000000	0.321588
680.000000	0.322105
681.000000	0.322647
682.000000	0.323232
683.000000	0.323792
684.000000	0.324408
685.000000	0.325006
686.000000	0.325601
687.000000	0.326179
688.000000	0.326776
689.000000	0.327398
690.000000	0.328072
691.000000	0.328737
692.000000	0.329368
693.000000	0.330028
694.000000	0.330697
695.000000	0.331404
696.000000	0.332149
697.000000	0.332918
698.000000	0.333654
699.000000	0.334388
700.000000	0.335157
701.000000	0.335891
702.000000	0.336670
703.000000	0.337477
704.000000	0.338226
705.000000	0.339013
706.000000	0.339788
707.000000	0.340552
708.000000	0.341342
709.000000	0.342138
710.000000	0.342934
711.000000	0.343714
712.000000	0.344495
713.000000	0.345310
714.000000	0.346165
715.000000	0.346976
716.000000	0.347764
717.000000	0.348562
718.000000	0.349332
719.000000	0.350093
720.000000	0.350881
721.000000	0.351679
722.000000	0.352449
723.000000	0.353241
724.000000	0.354018
725.000000	0.354764
726.000000	0.355564
727.000000	0.356349
728.000000	0.357087
729.000000	0.357805
730.000000	0.358482
731.000000	0.359199
732.000000	0.359907
733.000000	0.360627
734.000000	0.361329
735.000000	0.361965
736.000000	0.362659
737.000000	0.363301
738.000000	0.363887
739.000000	0.364532
740.000000	0.365118
741.000000	0.365714
742.000000	0.366330
743.000000	0.366921
744.000000	0.367487
745.000000	0.368013
746.000000	0.368542
747.000000	0.369024
748.000000	0.369561
749.000000	0.370134
750.000000	0.370665
751.000000	0.371112
752.000000	0.371538
753.000000	0.371986
754.000000	0.372454
755.000000	0.372877
756.000000	0.373280
757.000000	0.373649
758.000000	0.374001
759.000000	0.374389
760.000000	0.374755
761.000000	0.375139
762.000000	0.375485
763.000000	0.375792
764.000000	0.376181
765.000000	0.376539
766.000000	0.376858
767.000000	0.377145
768.000000	0.377441
769.000000	0.377708
770.000000	0.377954
771.000000	0.378231
772.000000	0.378533
773.000000	0.378769
774.000000	0.378980
775.000000	0.379155
776.000000	0.379316
777.000000	0.379465
778.000000	0.379636
779.000000	0.379797
780.000000	0.379938
781.000000	0.380036
782.000000	0.380137
783.000000	0.380348
784.000000	0.380536
785.000000	0.380658
786.000000	0.380766
787.000000	0.380888
788.000000	0.381019
789.000000	0.381117
790.000000	0.381170
791.000000	0.381248
792.000000	0.381326
793.000000	0.381418
794.000000	0.381534
795.000000	0.381612
796.000000	0.381687
797.000000	0.381762
798.000000	0.381822
799.000000	0.381940
800.000000	0.382070
801.000000	0.382143
802.000000	0.382201
803.000000	0.382198
804.000000	0.382176
805.000000	0.382186
806.000000	0.382183
807.000000	0.382239
808.000000	0.382285
809.000000	0.382338
810.000000	0.382369
811.000000	0.382349
812.000000	0.382349
813.000000	0.382309
814.000000	0.382248
815.000000	0.382279
816.000000	0.382329
817.000000	0.382404
818.000000	0.382417
819.000000	0.382461
820.000000	0.382479
821.000000	0.382403
822.000000	0.382337
823.000000	0.382287
824.000000	0.382214
825.000000	0.382215
826.000000	0.382243
827.000000	0.382228
828.000000	0.382193
829.000000	0.382159
830.000000	0.382038
831.000000	0.381918
832.000000	0.381781
833.000000	0.381737
834.000000	0.381723
835.000000	0.381699
836.000000	0.381618
837.000000	0.381503
838.000000	0.381401
839.000000	0.381326
840.000000	0.381270
841.000000	0.381237
842.000000	0.381187
843.000000	0.381168
844.000000	0.381195
845.000000	0.381203
846.000000	0.381143
847.000000	0.381083
848.000000	0.381027
849.000000	0.380992
850.000000	0.380922
851.000000	0.380819
852.000000	0.380725
853.000000	0.380583
854.000000	0.380422
855.000000	0.380364
856.000000	0.380296
857.000000	0.380115
858.000000	0.379995
859.000000	0.379912
860.000000	0.379782
861.000000	0.379681
862.000000	0.379643
863.000000	0.379581
864.000000	0.379478
865.000000	0.379354
866.000000	0.379245
867.000000	0.379113
868.000000	0.378990
869.000000	0.378821
870.000000	0.378658
871.000000	0.378484
872.000000	0.378340
873.000000	0.378172
874.000000	0.377987
875.000000	0.377821
876.000000	0.377695
877.000000	0.377528
878.000000	0.377275
879.000000	0.377117
880.000000	0.376968
881.000000	0.376802
882.000000	0.376609
883.000000	0.376423
884.000000	0.376216
885.000000	0.376055
886.000000	0.375881
887.000000	0.375706
888.000000	0.375595
889.000000	0.375509
890.000000	0.375314
891.000000	0.375133
892.000000	0.374951
893.000000	0.374722
894.000000	0.374559
895.000000	0.374347
896.000000	0.374086
897.000000	0.373831
898.000000	0.373633
899.000000	0.373391
900.000000	0.373173
901.000000	0.372979
902.000000	0.372875
903.000000	0.372628
904.000000	0.372376
905.000000	0.372179
906.000000	0.371982
907.000000	0.371768
908.000000	0.371609
909.000000	0.371447
910.000000	0.371324
911.000000	0.371186
912.000000	0.370992
913.000000	0.370726
914.000000	0.370509
915.000000	0.370382
916.000000	0.370129
917.000000	0.369901
918.000000	0.369704
919.000000	0.369497
920.000000	0.369294
921.000000	0.369108
922.000000	0.368944
923.000000	0.368757
924.000000	0.368439
925.000000	0.368133
926.000000	0.367934
927.000000	0.367659
928.000000	0.367442
929.000000	0.367240
930.000000	0.366990
931.000000	0.366847
932.000000	0.366628
933.000000	0.366319
934.000000	0.365976
935.000000	0.365756
936.000000	0.365619
937.000000	0.365377
938.000000	0.365115
939.000000	0.364934
940.000000	0.364717
941.000000	0.364433
942.000000	0.364186
943.000000	0.363987
944.000000	0.363734
945.000000	0.363675
946.000000	0.363467
947.000000	0.363201
948.000000	0.362968
949.000000	0.362578
950.000000	0.362280
951.000000	0.362042
952.000000	0.361701
953.000000	0.361402
954.000000	0.361137
955.000000	0.360813
956.000000	0.360535
957.000000	0.360341
958.000000	0.360136
959.000000	0.359938
960.000000	0.359754
961.000000	0.359605
962.000000	0.359426
963.000000	0.359141
964.000000	0.358900
965.000000	0.358660
966.000000	0.358272
967.000000	0.358029
968.000000	0.357881
969.000000	0.357662
970.000000	0.357353
971.000000	0.357240
972.000000	0.357150
973.000000	0.356935
974.000000	0.356761
975.000000	0.356533
976.000000	0.356285
977.000000	0.356067
978.000000	0.355939
979.000000	0.355792
980.000000	0.355482
981.000000	0.355399
982.000000	0.355170
983.000000	0.354892
984.000000	0.354747
985.000000	0.354763
986.000000	0.354632
987.000000	0.354481
988.000000	0.354286
989.000000	0.353981
990.000000	0.353771
991.000000	0.353716
992.000000	0.353805
993.000000	0.353737
994.000000	0.353504
995.000000	0.353338
996.000000	0.353153
997.000000	0.353058
998.000000	0.352940
999.000000	0.352818
1000.000000	0.352641
1001.000000	0.352866
1002.000000	0.352771
1003.000000	0.352762
1004.000000	0.352613
1005.000000	0.352468
1006.000000	0.352127
1007.000000	0.351638
1008.000000	0.351143
1009.000000	0.350992
1010.000000	0.350877
1011.000000	0.351074
1012.000000	0.351422
1013.000000	0.351212
1014.000000	0.351130
1015.000000	0.351156
1016.000000	0.351077
1017.000000	0.351141
1018.000000	0.351204
1019.000000	0.351302
1020.000000	0.351632
1021.000000	0.351392
1022.000000	0.351141
1023.000000	0.351241
1024.000000	0.350980
1025.000000	0.351135
1026.000000	0.351570
1027.000000	0.351464
1028.000000	0.351516
1029.000000	0.351640
1030.000000	0.351540
1031.000000	0.351586
1032.000000	0.351597
1033.000000	0.351448
1034.000000	0.351568
1035.000000	0.352021
1036.000000	0.352227
1037.000000	0.352479
1038.000000	0.352507
1039.000000	0.352436
1040.000000	0.352422
1041.000000	0.352352
1042.000000	0.352453
1043.000000	0.352776
1044.000000	0.352968
1045.000000	0.352960
1046.000000	0.353041
1047.000000	0.353294
1048.000000	0.353510
1049.000000	0.353646
1050.000000	0.354050
1051.000000	0.354165
1052.000000	0.353856
1053.000000	0.353790
1054.000000	0.353999
1055.000000	0.354212
1056.000000	0.354529
1057.000000	0.354815
1058.000000	0.355111
1059.000000	0.355086
1060.000000	0.355175
1061.000000	0.355461
1062.000000	0.355650
1063.000000	0.355946
1064.000000	0.356234
1065.000000	0.356503
1066.000000	0.356745
1067.000000	0.356934
1068.000000	0.357129
1069.000000	0.357275
1070.000000	0.357372
1071.000000	0.357458
1072.000000	0.357659
1073.000000	0.357916
1074.000000	0.358253
1075.000000	0.358538
1076.000000	0.358788
1077.000000	0.358884
1078.000000	0.358940
1079.000000	0.359061
1080.000000	0.359233
1081.000000	0.359438
1082.000000	0.359835
1083.000000	0.360043
1084.000000	0.360223
1085.000000	0.360492
1086.000000	0.360658
1087.000000	0.360896
1088.000000	0.361189
1089.000000	0.361404
1090.000000	0.361541
1091.000000	0.361636
1092.000000	0.361710
1093.000000	0.362016
1094.000000	0.362239
1095.000000	0.362365
1096.000000	0.362653
1097.000000	0.363103
1098.000000	0.363379
1099.000000	0.363581
1100.000000	0.363861
1101.000000	0.364019
1102.000000	0.364178
1103.000000	0.364373
1104.000000	0.364590
1105.000000	0.364794
1106.000000	0.364944
1107.000000	0.364930
1108.000000	0.365073
1109.000000	0.365357
1110.000000	0.365557
1111.000000	0.365800
1112.000000	0.366240
1113.000000	0.366477
1114.000000	0.366575
1115.000000	0.366723
1116.000000	0.366858
1117.000000	0.367002
1118.000000	0.367122
1119.000000	0.367188
1120.000000	0.367246
1121.000000	0.367307
1122.000000	0.367393
1123.000000	0.367715
1124.000000	0.367909
1125.000000	0.368132
1126.000000	0.368389
1127.000000	0.368525
1128.000000	0.368598
1129.000000	0.368610
1130.000000	0.368746
1131.000000	0.368909
1132.000000	0.368979
1133.000000	0.369150
1134.000000	0.369277
1135.000000	0.369222
1136.000000	0.369259
1137.000000	0.369399
1138.000000	0.369400
1139.000000	0.369428
1140.000000	0.369523
1141.000000	0.369535
1142.000000	0.369568
1143.000000	0.369514
1144.000000	0.369651
1145.000000	0.369706
1146.000000	0.369659
1147.000000	0.369635
1148.000000	0.369528
1149.000000	0.369491
1150.000000	0.369454
1151.000000	0.369461
1152.000000	0.369445
1153.000000	0.369488
1154.000000	0.369511
1155.000000	0.369522
1156.000000	0.369612
1157.000000	0.369639
1158.000000	0.369585
1159.000000	0.369509
1160.000000	0.369338
1161.000000	0.369237
1162.000000	0.369195
1163.000000	0.369298
1164.000000	0.369273
1165.000000	0.369261
1166.000000	0.369320
1167.000000	0.369330
1168.000000	0.369292
1169.000000	0.369345
1170.000000	0.369372
1171.000000	0.369340
1172.000000	0.369412
1173.000000	0.369574
1174.000000	0.369601
1175.000000	0.369546
1176.000000	0.369466
1177.000000	0.369364
1178.000000	0.369326
1179.000000	0.369337
1180.000000	0.369244
1181.000000	0.369220
1182.000000	0.369164
1183.000000	0.369171
1184.000000	0.369224
1185.000000	0.369242
1186.000000	0.369307
1187.000000	0.369313
1188.000000	0.369279
1189.000000	0.369201
1190.000000	0.369145
1191.000000	0.369113
1192.000000	0.369139
1193.000000	0.369256
1194.000000	0.369339
1195.000000	0.369379
1196.000000	0.369323
1197.000000	0.369329
1198.000000	0.369352
1199.000000	0.369387
1200.000000	0.369435
1201.000000	0.369522
1202.000000	0.369525
1203.000000	0.369545
1204.000000	0.369605
1205.000000	0.369613
1206.000000	0.369557
1207.000000	0.369569
1208.000000	0.369545
1209.000000	0.369511
1210.000000	0.369534
1211.000000	0.369640
1212.000000	0.369641
1213.000000	0.369634
1214.000000	0.369659
1215.000000	0.369638
1216.000000	0.369635
1217.000000	0.369642
1218.000000	0.369604
1219.000000	0.369575
1220.000000	0.369532
1221.000000	0.369518
1222.000000	0.369479
1223.000000	0.369452
1224.000000	0.369505
1225.000000	0.369453
1226.000000	0.369464
1227.000000	0.369506
1228.000000	0.369546
1229.000000	0.369540
1230.000000	0.369520
1231.000000	0.369461
1232.000000	0.369476
1233.000000	0.369589
1234.000000	0.369758
1235.000000	0.369845
1236.000000	0.369810
1237.000000	0.369862
1238.000000	0.369866
1239.000000	0.369861
1240.000000	0.369877
1241.000000	0.369895
1242.000000	0.369883
1243.000000	0.369858
1244.000000	0.369928
1245.000000	0.370112
1246.000000	0.370179
1247.000000	0.370327
1248.000000	0.370526
1249.000000	0.370600
1250.000000	0.370637
1251.000000	0.370692
1252.000000	0.370687
1253.000000	0.370592
1254.000000	0.370579
1255.000000	0.370582
1256.000000	0.370587
1257.000000	0.370637
1258.000000	0.370712
1259.000000	0.370759
1260.000000	0.370832
1261.000000	0.370842
1262.000000	0.370861
1263.000000	0.370919
1264.000000	0.370900
1265.000000	0.370911
1266.000000	0.370921
1267.000000	0.370892
1268.000000	0.370874
1269.000000	0.370810
1270.000000	0.370869
1271.000000	0.370934
1272.000000	0.371025
1273.000000	0.371231
1274.000000	0.371287
1275.000000	0.371300
1276.000000	0.371297
1277.000000	0.371368
1278.000000	0.371288
1279.000000	0.371260
1280.000000	0.371200
1281.000000	0.371119
1282.000000	0.371068
1283.000000	0.371116
1284.000000	0.371139
1285.000000	0.371176
1286.000000	0.371221
1287.000000	0.371245
1288.000000	0.371318
1289.000000	0.371373
1290.000000	0.371311
1291.000000	0.371289
1292.000000	0.371295
1293.000000	0.371209
1294.000000	0.371176
1295.000000	0.371172
1296.000000	0.371083
1297.000000	0.371061
1298.000000	0.371116
1299.000000	0.371112
1300.000000	0.371126
1301.000000	0.371117
1302.000000	0.371022
1303.000000	0.370967
1304.000000	0.370872
1305.000000	0.370841
1306.000000	0.370792
1307.000000	0.370798
1308.000000	0.370800
1309.000000	0.370798
1310.000000	0.370753
1311.000000	0.370713
1312.000000	0.370625
1313.000000	0.370542
1314.000000	0.370481
1315.000000	0.370355
1316.000000	0.370290
1317.000000	0.370225
1318.000000	0.370144
1319.000000	0.370033
1320.000000	0.369919
1321.000000	0.369787
1322.000000	0.369623
1323.000000	0.369510
1324.000000	0.369466
1325.000000	0.369366
1326.000000	0.369199
1327.000000	0.369036
1328.000000	0.368934
1329.000000	0.368728
1330.000000	0.368476
1331.000000	0.368293
1332.000000	0.368162
1333.000000	0.367985
1334.000000	0.367932
1335.000000	0.367822
1336.000000	0.367642
1337.000000	0.367419
1338.000000	0.367103
1339.000000	0.366799
1340.000000	0.366477
1341.000000	0.366218
1342.000000	0.366042
1343.000000	0.365824
1344.000000	0.365589
1345.000000	0.365328
1346.000000	0.365084
1347.000000	0.364773
1348.000000	0.364536
1349.000000	0.364300
1350.000000	0.364137
1351.000000	0.363910
1352.000000	0.363584
1353.000000	0.363259
1354.000000	0.363024
1355.000000	0.362773
1356.000000	0.362523
1357.000000	0.362264
1358.000000	0.361981
1359.000000	0.361681
1360.000000	0.361422
1361.000000	0.361309
1362.000000	0.361056
1363.000000	0.360703
1364.000000	0.360450
1365.000000	0.360155
1366.000000	0.359918
1367.000000	0.359758
1368.000000	0.359518
1369.000000	0.359331
1370.000000	0.359017
1371.000000	0.358657
1372.000000	0.358330
1373.000000	0.358030
1374.000000	0.357763
1375.000000	0.357430
1376.000000	0.357177
1377.000000	0.356877
1378.000000	0.356521
1379.000000	0.356149
1380.000000	0.355702
1381.000000	0.355201
1382.000000	0.354653
1383.000000	0.354109
1384.000000	0.353485
1385.000000	0.352776
1386.000000	0.352093
1387.000000	0.351430
1388.000000	0.350689
1389.000000	0.349953
1390.000000	0.349257
1391.000000	0.348424
1392.000000	0.347604
1393.000000	0.346684
1394.000000	0.345738
1395.000000	0.344717
1396.000000	0.343631
1397.000000	0.342443
1398.000000	0.341119
1399.000000	0.339837
1400.000000	0.338468
1401.000000	0.337127
1402.000000	0.335873
1403.000000	0.334510
1404.000000	0.333207
1405.000000	0.331833
1406.000000	0.330325
1407.000000	0.328933
1408.000000	0.327493
1409.000000	0.326055
1410.000000	0.324737
1411.000000	0.323327
1412.000000	0.321876
1413.000000	0.320511
1414.000000	0.319120
1415.000000	0.317778
1416.000000	0.316433
1417.000000	0.315075
1418.000000	0.313728
1419.000000	0.312380
1420.000000	0.310989
1421.000000	0.309687
1422.000000	0.308371
1423.000000	0.307145
1424.000000	0.305873
1425.000000	0.304606
1426.000000	0.303300
1427.000000	0.302024
1428.000000	0.300879
1429.000000	0.299724
1430.000000	0.298621
1431.000000	0.297588
1432.000000	0.296520
1433.000000	0.295459
1434.000000	0.294428
1435.000000	0.293459
1436.000000	0.292531
1437.000000	0.291642
1438.000000	0.290742
1439.000000	0.289886
1440.000000	0.289093
1441.000000	0.288320
1442.000000	0.287619
1443.000000	0.286922
1444.000000	0.286335
1445.000000	0.285768
1446.000000	0.285205
1447.000000	0.284690
1448.000000	0.284209
1449.000000	0.283773
1450.000000	0.283401
1451.000000	0.283061
1452.000000	0.282686
1453.000000	0.282336
1454.000000	0.281964
1455.000000	0.281629
1456.000000	0.281436
1457.000000	0.281235
1458.000000	0.280998
1459.000000	0.280782
1460.000000	0.280548
1461.000000	0.280287
1462.000000	0.280067
1463.000000	0.279845
1464.000000	0.279617
1465.000000	0.279497
1466.000000	0.279380
1467.000000	0.279250
1468.000000	0.279175
1469.000000	0.279149
1470.000000	0.279064
1471.000000	0.279079
1472.000000	0.279173
1473.000000	0.279311
1474.000000	0.279482
1475.000000	0.279732
1476.000000	0.279995
1477.000000	0.280276
1478.000000	0.280602
1479.000000	0.280935
1480.000000	0.281323
1481.000000	0.281723
1482.000000	0.282203
1483.000000	0.282702
1484.000000	0.283241
1485.000000	0.283757
1486.000000	0.284269
1487.000000	0.284803
1488.000000	0.285368
1489.000000	0.285920
1490.000000	0.286390
1491.000000	0.286898
1492.000000	0.287337
1493.000000	0.287830
1494.000000	0.288337
1495.000000	0.288801
1496.000000	0.289257
1497.000000	0.289724
1498.000000	0.290202
1499.000000	0.290624
1500.000000	0.291103
1501.000000	0.291558
1502.000000	0.291924
1503.000000	0.292352
1504.000000	0.292792
1505.000000	0.293169
1506.000000	0.293588
1507.000000	0.293971
1508.000000	0.294332
1509.000000	0.294693
1510.000000	0.294981
1511.000000	0.295294
1512.000000	0.295559
1513.000000	0.295814
1514.000000	0.296143
1515.000000	0.296380
1516.000000	0.296622
1517.000000	0.296809
1518.000000	0.296932
1519.000000	0.297065
1520.000000	0.297244
1521.000000	0.297354
1522.000000	0.297516
1523.000000	0.297717
1524.000000	0.297791
1525.000000	0.297964
1526.000000	0.298116
1527.000000	0.298212
1528.000000	0.298408
1529.000000	0.298530
1530.000000	0.298586
1531.000000	0.298765
1532.000000	0.298907
1533.000000	0.298978
1534.000000	0.299086
1535.000000	0.299126
1536.000000	0.299096
1537.000000	0.299212
1538.000000	0.299302
1539.000000	0.299313
1540.000000	0.299389
1541.000000	0.299473
1542.000000	0.299569
1543.000000	0.299689
1544.000000	0.299786
1545.000000	0.299900
1546.000000	0.300005
1547.000000	0.300090
1548.000000	0.300169
1549.000000	0.300206
1550.000000	0.300192
1551.000000	0.300179
1552.000000	0.300223
1553.000000	0.300257
1554.000000	0.300255
1555.000000	0.300303
1556.000000	0.300333
1557.000000	0.300295
1558.000000	0.300316
1559.000000	0.300321
1560.000000	0.300315
1561.000000	0.300364
1562.000000	0.300337
1563.000000	0.300305
1564.000000	0.300288
1565.000000	0.300237
1566.000000	0.300149
1567.000000	0.300138
1568.000000	0.300131
1569.000000	0.300167
1570.000000	0.300203
1571.000000	0.300278
1572.000000	0.300283
1573.000000	0.300245
1574.000000	0.300233
1575.000000	0.300230
1576.000000	0.300240
1577.000000	0.300257
1578.000000	0.300239
1579.000000	0.300265
1580.000000	0.300248
1581.000000	0.300251
1582.000000	0.300248
1583.000000	0.300221
1584.000000	0.300179
1585.000000	0.300222
1586.000000	0.300242
1587.000000	0.300237
1588.000000	0.300222
1589.000000	0.300205
1590.000000	0.300200
1591.000000	0.300207
1592.000000	0.300229
1593.000000	0.300293
1594.000000	0.300326
1595.000000	0.300398
1596.000000	0.300462
1597.000000	0.300557
1598.000000	0.300613
1599.000000	0.300677
1600.000000	0.300718
1601.000000	0.300804
1602.000000	0.300869
1603.000000	0.300963
1604.000000	0.301015
1605.000000	0.301035
1606.000000	0.301102
1607.000000	0.301261
1608.000000	0.301322
1609.000000	0.301413
1610.000000	0.301454
1611.000000	0.301403
1612.000000	0.301436
1613.000000	0.301603
1614.000000	0.301715
1615.000000	0.301902
1616.000000	0.302072
1617.000000	0.302175
1618.000000	0.302293
1619.000000	0.302392
1620.000000	0.302512
1621.000000	0.302665
1622.000000	0.302877
1623.000000	0.303084
1624.000000	0.303280
1625.000000	0.303388
1626.000000	0.303478
1627.000000	0.303545
1628.000000	0.303708
1629.000000	0.303866
1630.000000	0.304092
1631.000000	0.304363
1632.000000	0.304560
1633.000000	0.304764
1634.000000	0.304988
1635.000000	0.305221
1636.000000	0.305455
1637.000000	0.305733
1638.000000	0.305965
1639.000000	0.306225
1640.000000	0.306463
1641.000000	0.306762
1642.000000	0.307016
1643.000000	0.307271
1644.000000	0.307518
1645.000000	0.307725
1646.000000	0.307946
1647.000000	0.308226
1648.000000	0.308429
1649.000000	0.308679
1650.000000	0.308961
1651.000000	0.309251
1652.000000	0.309579
1653.000000	0.309934
1654.000000	0.310254
1655.000000	0.310512
1656.000000	0.310686
1657.000000	0.310876
1658.000000	0.311069
1659.000000	0.311328
1660.000000	0.311570
1661.000000	0.311717
1662.000000	0.311939
1663.000000	0.312138
1664.000000	0.312344
1665.000000	0.312602
1666.000000	0.312903
1667.000000	0.313122
1668.000000	0.313348
1669.000000	0.313619
1670.000000	0.313755
1671.000000	0.313895
1672.000000	0.314108
1673.000000	0.314263
1674.000000	0.314497
1675.000000	0.314767
1676.000000	0.314924
1677.000000	0.315091
1678.000000	0.315238
1679.000000	0.315351
1680.000000	0.315515
1681.000000	0.315743
1682.000000	0.315950
1683.000000	0.316156
1684.000000	0.316320
1685.000000	0.316457
1686.000000	0.316594
1687.000000	0.316775
1688.000000	0.316931
1689.000000	0.317106
1690.000000	0.317266
1691.000000	0.317444
1692.000000	0.317573
1693.000000	0.317703
1694.000000	0.317804
1695.000000	0.317971
1696.000000	0.318129
1697.000000	0.318223
1698.000000	0.318331
1699.000000	0.318461
1700.000000	0.318559
1701.000000	0.318772
1702.000000	0.318917
1703.000000	0.318982
1704.000000	0.319125
1705.000000	0.319229
1706.000000	0.319269
1707.000000	0.319370
1708.000000	0.319472
1709.000000	0.319541
1710.000000	0.319716
1711.000000	0.319885
1712.000000	0.320092
1713.000000	0.320248
1714.000000	0.320426
1715.000000	0.320606
1716.000000	0.320788
1717.000000	0.320934
1718.000000	0.321034
1719.000000	0.321145
1720.000000	0.321276
1721.000000	0.321405
1722.000000	0.321551
1723.000000	0.321711
1724.000000	0.321870
1725.000000	0.322097
1726.000000	0.322307
1727.000000	0.322502
1728.000000	0.322670
1729.000000	0.322764
1730.000000	0.322943
1731.000000	0.323097
1732.000000	0.323235
1733.000000	0.323429
1734.000000	0.323475
1735.000000	0.323654
1736.000000	0.323872
1737.000000	0.324060
1738.000000	0.324342
1739.000000	0.324508
1740.000000	0.324565
1741.000000	0.324686
1742.000000	0.324792
1743.000000	0.325008
1744.000000	0.325281
1745.000000	0.325451
1746.000000	0.325621
1747.000000	0.325766
1748.000000	0.325832
1749.000000	0.325878
1750.000000	0.325911
1751.000000	0.325984
1752.000000	0.326173
1753.000000	0.326296
1754.000000	0.326444
1755.000000	0.326618
1756.000000	0.326726
1757.000000	0.326783
1758.000000	0.326905
1759.000000	0.327010
1760.000000	0.327110
1761.000000	0.327196
1762.000000	0.327307
1763.000000	0.327440
1764.000000	0.327561
1765.000000	0.327710
1766.000000	0.327815
1767.000000	0.327741
1768.000000	0.327764
1769.000000	0.327931
1770.000000	0.328085
1771.000000	0.328233
1772.000000	0.328378
1773.000000	0.328433
1774.000000	0.328576
1775.000000	0.328866
1776.000000	0.329043
1777.000000	0.329172
1778.000000	0.329280
1779.000000	0.329276
1780.000000	0.329430
1781.000000	0.329634
1782.000000	0.329750
1783.000000	0.329943
1784.000000	0.330085
1785.000000	0.330128
1786.000000	0.330374
1787.000000	0.330648
1788.000000	0.330831
1789.000000	0.331015
1790.000000	0.331153
1791.000000	0.331219
1792.000000	0.331329
1793.000000	0.331446
1794.000000	0.331536
1795.000000	0.331667
1796.000000	0.331829
1797.000000	0.331971
1798.000000	0.332097
1799.000000	0.332214
1800.000000	0.332359
1801.000000	0.332129
1802.000000	0.332261
1803.000000	0.332280
1804.000000	0.332499
1805.000000	0.333170
1806.000000	0.333472
1807.000000	0.333594
1808.000000	0.333744
1809.000000	0.333737
1810.000000	0.333824
1811.000000	0.334050
1812.000000	0.334451
1813.000000	0.334635
1814.000000	0.334925
1815.000000	0.335078
1816.000000	0.335051
1817.000000	0.334945
1818.000000	0.334741
1819.000000	0.334884
1820.000000	0.334965
1821.000000	0.334596
1822.000000	0.334591
1823.000000	0.334849
1824.000000	0.334595
1825.000000	0.334006
1826.000000	0.333810
1827.000000	0.333359
1828.000000	0.332889
1829.000000	0.333310
1830.000000	0.333501
1831.000000	0.333499
1832.000000	0.333485
1833.000000	0.333434
1834.000000	0.333056
1835.000000	0.333016
1836.000000	0.333243
1837.000000	0.333124
1838.000000	0.332823
1839.000000	0.332477
1840.000000	0.331952
1841.000000	0.331496
1842.000000	0.331062
1843.000000	0.330548
1844.000000	0.330254
1845.000000	0.330005
1846.000000	0.329783
1847.000000	0.329501
1848.000000	0.329462
1849.000000	0.329236
1850.000000	0.328545
1851.000000	0.328069
1852.000000	0.327547
1853.000000	0.327061
1854.000000	0.326428
1855.000000	0.325716
1856.000000	0.324972
1857.000000	0.323888
1858.000000	0.322990
1859.000000	0.321997
1860.000000	0.320683
1861.000000	0.319541
1862.000000	0.318267
1863.000000	0.316826
1864.000000	0.315538
1865.000000	0.314517
1866.000000	0.313109
1867.000000	0.311625
1868.000000	0.309720
1869.000000	0.307589
1870.000000	0.305454
1871.000000	0.303277
1872.000000	0.301161
1873.000000	0.299075
1874.000000	0.297193
1875.000000	0.294976
1876.000000	0.292401
1877.000000	0.289740
1878.000000	0.286904
1879.000000	0.283629
1880.000000	0.280561
1881.000000	0.277363
1882.000000	0.274013
1883.000000	0.270752
1884.000000	0.267427
1885.000000	0.263871
1886.000000	0.260174
1887.000000	0.256313
1888.000000	0.252403
1889.000000	0.248322
1890.000000	0.244405
1891.000000	0.240719
1892.000000	0.236564
1893.000000	0.232451
1894.000000	0.228450
1895.000000	0.224157
1896.000000	0.219711
1897.000000	0.215569
1898.000000	0.211051
1899.000000	0.206455
1900.000000	0.202317
1901.000000	0.198026
1902.000000	0.194057
1903.000000	0.190570
1904.000000	0.187209
1905.000000	0.183995
1906.000000	0.180726
1907.000000	0.177576
1908.000000	0.174602
1909.000000	0.171553
1910.000000	0.168475
1911.000000	0.165918
1912.000000	0.163376
1913.000000	0.160965
1914.000000	0.158803
1915.000000	0.156577
1916.000000	0.154555
1917.000000	0.152639
1918.000000	0.150850
1919.000000	0.149301
1920.000000	0.148054
1921.000000	0.146887
1922.000000	0.145846
1923.000000	0.145051
1924.000000	0.144126
1925.000000	0.143335
1926.000000	0.142701
1927.000000	0.142088
1928.000000	0.141696
1929.000000	0.141587
1930.000000	0.141483
1931.000000	0.141504
1932.000000	0.141612
1933.000000	0.141672
1934.000000	0.141777
1935.000000	0.141771
1936.000000	0.141852
1937.000000	0.141846
1938.000000	0.141684
1939.000000	0.141503
1940.000000	0.141262
1941.000000	0.140965
1942.000000	0.140722
1943.000000	0.140465
1944.000000	0.140118
1945.000000	0.139787
1946.000000	0.139536
1947.000000	0.139126
1948.000000	0.138796
1949.000000	0.138671
1950.000000	0.138282
1951.000000	0.137884
1952.000000	0.137501
1953.000000	0.137306
1954.000000	0.136931
1955.000000	0.136495
1956.000000	0.136102
1957.000000	0.135658
1958.000000	0.135177
1959.000000	0.134818
1960.000000	0.134608
1961.000000	0.134328
1962.000000	0.134078
1963.000000	0.133837
1964.000000	0.133730
1965.000000	0.133554
1966.000000	0.133515
1967.000000	0.133455
1968.000000	0.133178
1969.000000	0.133156
1970.000000	0.133074
1971.000000	0.132834
1972.000000	0.132809
1973.000000	0.132678
1974.000000	0.132361
1975.000000	0.132399
1976.000000	0.132649
1977.000000	0.132908
1978.000000	0.133227
1979.000000	0.133423
1980.000000	0.133700
1981.000000	0.134126
1982.000000	0.134466
1983.000000	0.134927
1984.000000	0.135369
1985.000000	0.135758
1986.000000	0.136163
1987.000000	0.136654
1988.000000	0.137122
1989.000000	0.137774
1990.000000	0.138354
1991.000000	0.138839
1992.000000	0.139603
1993.000000	0.140274
1994.000000	0.140933
1995.000000	0.141710
1996.000000	0.142506
1997.000000	0.143296
1998.000000	0.144001
1999.000000	0.144865
2000.000000	0.145859
2001.000000	0.146874
2002.000000	0.147691
2003.000000	0.148543
2004.000000	0.149310
2005.000000	0.149797
2006.000000	0.150671
2007.000000	0.151655
2008.000000	0.152523
2009.000000	0.153366
2010.000000	0.154369
2011.000000	0.155294
2012.000000	0.156264
2013.000000	0.157303
2014.000000	0.158343
2015.000000	0.159443
2016.000000	0.160429
2017.000000	0.161510
2018.000000	0.162446
2019.000000	0.163270
2020.000000	0.164151
2021.000000	0.165163
2022.000000	0.166307
2023.000000	0.167448
2024.000000	0.168773
2025.000000	0.169929
2026.000000	0.171063
2027.000000	0.171761
2028.000000	0.172554
2029.000000	0.173510
2030.000000	0.174330
2031.000000	0.175320
2032.000000	0.176382
2033.000000	0.177517
2034.000000	0.178561
2035.000000	0.179692
2036.000000	0.180677
2037.000000	0.181678
2038.000000	0.182587
2039.000000	0.183427
2040.000000	0.184428
2041.000000	0.185159
2042.000000	0.185915
2043.000000	0.186779
2044.000000	0.187541
2045.000000	0.188474
2046.000000	0.189497
2047.000000	0.190461
2048.000000	0.191450
2049.000000	0.192424
2050.000000	0.193047
2051.000000	0.193849
2052.000000	0.194723
2053.000000	0.195438
2054.000000	0.196261
2055.000000	0.197194
2056.000000	0.197896
2057.000000	0.198564
2058.000000	0.199486
2059.000000	0.200400
2060.000000	0.201243
2061.000000	0.202180
2062.000000	0.202971
2063.000000	0.203643
2064.000000	0.204265
2065.000000	0.204999
2066.000000	0.205592
2067.000000	0.206154
2068.000000	0.206978
2069.000000	0.207744
2070.000000	0.208638
2071.000000	0.209568
2072.000000	0.210402
2073.000000	0.211026
2074.000000	0.211652
2075.000000	0.212462
2076.000000	0.213257
2077.000000	0.214166
2078.000000	0.215398
2079.000000	0.216314
2080.000000	0.217147
2081.000000	0.218024
2082.000000	0.218827
2083.000000	0.219640
2084.000000	0.220484
2085.000000	0.221218
2086.000000	0.222070
2087.000000	0.223002
2088.000000	0.223758
2089.000000	0.224650
2090.000000	0.225634
2091.000000	0.226604
2092.000000	0.227681
2093.000000	0.229243
2094.000000	0.230260
2095.000000	0.230994
2096.000000	0.231832
2097.000000	0.232534
2098.000000	0.232915
2099.000000	0.233644
2100.000000	0.234391
2101.000000	0.234820
2102.000000	0.235436
2103.000000	0.235969
2104.000000	0.236457
2105.000000	0.237093
2106.000000	0.237846
2107.000000	0.238616
2108.000000	0.239565
2109.000000	0.240302
2110.000000	0.240773
2111.000000	0.241373
2112.000000	0.241929
2113.000000	0.242197
2114.000000	0.242674
2115.000000	0.243300
2116.000000	0.243575
2117.000000	0.243848
2118.000000	0.244350
2119.000000	0.244715
2120.000000	0.245223
2121.000000	0.245921
2122.000000	0.246532
2123.000000	0.247107
2124.000000	0.247742
2125.000000	0.248642
2126.000000	0.249089
2127.000000	0.249162
2128.000000	0.249550
2129.000000	0.249829
2130.000000	0.250030
2131.000000	0.250174
2132.000000	0.250751
2133.000000	0.251197
2134.000000	0.251370
2135.000000	0.251920
2136.000000	0.252468
2137.000000	0.252789
2138.000000	0.253010
2139.000000	0.253201
2140.000000	0.253079
2141.000000	0.253180
2142.000000	0.253261
2143.000000	0.253338
2144.000000	0.253886
2145.000000	0.254210
2146.000000	0.254611
2147.000000	0.254947
2148.000000	0.254887
2149.000000	0.254773
2150.000000	0.254787
2151.000000	0.254901
2152.000000	0.255294
2153.000000	0.255589
2154.000000	0.255841
2155.000000	0.256205
2156.000000	0.256282
2157.000000	0.256211
2158.000000	0.256172
2159.000000	0.255914
2160.000000	0.255923
2161.000000	0.255881
2162.000000	0.256171
2163.000000	0.256916
2164.000000	0.257202
2165.000000	0.257436
2166.000000	0.257683
2167.000000	0.257597
2168.000000	0.257457
2169.000000	0.257529
2170.000000	0.257798
2171.000000	0.257886
2172.000000	0.257854
2173.000000	0.257931
2174.000000	0.257971
2175.000000	0.258098
2176.000000	0.258531
2177.000000	0.258727
2178.000000	0.258941
2179.000000	0.259004
2180.000000	0.258594
2181.000000	0.258728
2182.000000	0.258578
2183.000000	0.258408
2184.000000	0.258830
2185.000000	0.258793
2186.000000	0.258378
2187.000000	0.258555
2188.000000	0.258263
2189.000000	0.257882
2190.000000	0.257855
2191.000000	0.257968
2192.000000	0.257914
2193.000000	0.257980
2194.000000	0.257850
2195.000000	0.257459
2196.000000	0.257329
2197.000000	0.257065
2198.000000	0.257107
2199.000000	0.257636
2200.000000	0.258042
2201.000000	0.258818
2202.000000	0.259345
2203.000000	0.259733
2204.000000	0.259525
2205.000000	0.259146
2206.000000	0.259142
2207.000000	0.259396
2208.000000	0.259554
2209.000000	0.260321
2210.000000	0.260737
2211.000000	0.260021
2212.000000	0.260868
2213.000000	0.261096
2214.000000	0.260863
2215.000000	0.260838
2216.000000	0.261065
2217.000000	0.261025
2218.000000	0.261003
2219.000000	0.260872
2220.000000	0.260484
2221.000000	0.260238
2222.000000	0.259503
2223.000000	0.259557
2224.000000	0.259805
2225.000000	0.261214
2226.000000	0.262019
2227.000000	0.261669
2228.000000	0.261647
2229.000000	0.260664
2230.000000	0.260022
2231.000000	0.260235
2232.000000	0.259420
2233.000000	0.259063
2234.000000	0.259216
2235.000000	0.259533
2236.000000	0.259823
2237.000000	0.260600
2238.000000	0.260881
2239.000000	0.260814
2240.000000	0.260873
2241.000000	0.261122
2242.000000	0.261054
2243.000000	0.260303
2244.000000	0.260389
2245.000000	0.260799
2246.000000	0.261095
2247.000000	0.261964
2248.000000	0.262416
2249.000000	0.262923
2250.000000	0.262542
2251.000000	0.261880
2252.000000	0.261943
2253.000000	0.260837
2254.000000	0.260170
2255.000000	0.260211
2256.000000	0.259388
2257.000000	0.259531
2258.000000	0.259586
2259.000000	0.259453
2260.000000	0.260036
2261.000000	0.259722
2262.000000	0.258898
2263.000000	0.258606
2264.000000	0.257850
2265.000000	0.257657
2266.000000	0.258585
2267.000000	0.258304
2268.000000	0.257592
2269.000000	0.257119
2270.000000	0.256152
2271.000000	0.255105
2272.000000	0.254017
2273.000000	0.253204
2274.000000	0.252020
2275.000000	0.251451
2276.000000	0.251929
2277.000000	0.251384
2278.000000	0.250241
2279.000000	0.249133
2280.000000	0.247789
2281.000000	0.246510
2282.000000	0.246042
2283.000000	0.246023
2284.000000	0.245403
2285.000000	0.244747
2286.000000	0.243925
2287.000000	0.242899
2288.000000	0.242487
2289.000000	0.241843
2290.000000	0.240642
2291.000000	0.239538
2292.000000	0.238246
2293.000000	0.237361
2294.000000	0.236802
2295.000000	0.237101
2296.000000	0.236535
2297.000000	0.235457
2298.000000	0.234977
2299.000000	0.234625
2300.000000	0.234048
2301.000000	0.233674
2302.000000	0.233440
2303.000000	0.233164
2304.000000	0.232459
2305.000000	0.231946
2306.000000	0.231153
2307.000000	0.229625
2308.000000	0.228306
2309.000000	0.227380
2310.000000	0.226880
2311.000000	0.226777
2312.000000	0.225974
2313.000000	0.225097
2314.000000	0.224546
2315.000000	0.223800
2316.000000	0.223952
2317.000000	0.224103
2318.000000	0.223816
2319.000000	0.223949
2320.000000	0.222723
2321.000000	0.221060
2322.000000	0.220046
2323.000000	0.218380
2324.000000	0.217048
2325.000000	0.216849
2326.000000	0.216599
2327.000000	0.216231
2328.000000	0.215605
2329.000000	0.214429
2330.000000	0.213447
2331.000000	0.211565
2332.000000	0.209988
2333.000000	0.209332
2334.000000	0.207946
2335.000000	0.207372
2336.000000	0.207883
2337.000000	0.206687
2338.000000	0.204744
2339.000000	0.203173
2340.000000	0.200382
2341.000000	0.198484
2342.000000	0.197506
2343.000000	0.196213
2344.000000	0.194564
2345.000000	0.193872
2346.000000	0.194052
2347.000000	0.193421
2348.000000	0.193070
2349.000000	0.192383
2350.000000	0.190324
2351.000000	0.188669
2352.000000	0.186824
2353.000000	0.185203
2354.000000	0.183678
2355.000000	0.182326
2356.000000	0.181333
2357.000000	0.180037
2358.000000	0.178598
2359.000000	0.177160
2360.000000	0.176152
2361.000000	0.174976
2362.000000	0.174233
2363.000000	0.174439
2364.000000	0.172680
2365.000000	0.171592
2366.000000	0.170785
2367.000000	0.168121
2368.000000	0.167318
2369.000000	0.166357
2370.000000	0.165019
2371.000000	0.165333
2372.000000	0.164802
2373.000000	0.163947
2374.000000	0.163123
2375.000000	0.161108
2376.000000	0.160322
2377.000000	0.159296
2378.000000	0.157258
2379.000000	0.156248
2380.000000	0.154308
2381.000000	0.153901
2382.000000	0.153270
2383.000000	0.151731
2384.000000	0.151936
2385.000000	0.150261
2386.000000	0.149283
2387.000000	0.149793
2388.000000	0.150115
2389.000000	0.151737
2390.000000	0.151951
2391.000000	0.151393
2392.000000	0.150597
2393.000000	0.147849
2394.000000	0.147493
2395.000000	0.148514
2396.000000	0.146889
2397.000000	0.146242
2398.000000	0.145627
2399.000000	0.142884
2400.000000	0.143428
2401.000000	0.144588
2402.000000	0.143985
2403.000000	0.146163
2404.000000	0.144870
2405.000000	0.140659
2406.000000	0.138815
2407.000000	0.135114
2408.000000	0.133258
2409.000000	0.135830
2410.000000	0.138024
2411.000000	0.138665
2412.000000	0.137806
2413.000000	0.136512
2414.000000	0.136130
2415.000000	0.135926
2416.000000	0.138751
2417.000000	0.141645
2418.000000	0.139206
2419.000000	0.137327
2420.000000	0.134121
2421.000000	0.128049
2422.000000	0.129266
2423.000000	0.131148
2424.000000	0.130573
2425.000000	0.134304
2426.000000	0.133963
2427.000000	0.133905
2428.000000	0.138114
2429.000000	0.138229
2430.000000	0.139086
2431.000000	0.138457
2432.000000	0.134315
2433.000000	0.131564
2434.000000	0.129401
2435.000000	0.131605
2436.000000	0.132127
2437.000000	0.133083
2438.000000	0.136988
2439.000000	0.132408
2440.000000	0.131382
2441.000000	0.135148
2442.000000	0.132384
2443.000000	0.129124
2444.000000	0.127026
2445.000000	0.120475
2446.000000	0.117582
2447.000000	0.123050
2448.000000	0.127107
2449.000000	0.131496
2450.000000	0.134569
2451.000000	0.135228
2452.000000	0.135769
2453.000000	0.133962
2454.000000	0.130597
2455.000000	0.126499
2456.000000	0.120815
2457.000000	0.118697
2458.000000	0.124107
2459.000000	0.128738
2460.000000	0.134743
2461.000000	0.138897
2462.000000	0.139209
2463.000000	0.139263
2464.000000	0.131274
2465.000000	0.125414
2466.000000	0.122997
2467.000000	0.118135
2468.000000	0.119645
2469.000000	0.121632
2470.000000	0.120446
2471.000000	0.121599
2472.000000	0.123009
2473.000000	0.122771
2474.000000	0.120274
2475.000000	0.118800
2476.000000	0.123763
2477.000000	0.128175
2478.000000	0.133825
2479.000000	0.131493
2480.000000	0.111253
2481.000000	0.101686
2482.000000	0.101022
2483.000000	0.098747
2484.000000	0.110674
2485.000000	0.120863
2486.000000	0.117289
2487.000000	0.123283
2488.000000	0.132361
2489.000000	0.130251
2490.000000	0.130078
2491.000000	0.128287
2492.000000	0.119629
2493.000000	0.109621
2494.000000	0.106437
2495.000000	0.095733
2496.000000	0.092639
2497.000000	0.097833
2498.000000	0.098584
2499.000000	0.107388
2500.000000	0.110809
