# Wavelength	NAu-2-40_HEX-40_FV7-20_000000002.asd.rts.txt
350.000000	0.134743
351.000000	0.142082
352.000000	0.136407
353.000000	0.125699
354.000000	0.119358
355.000000	0.127161
356.000000	0.129643
357.000000	0.127561
358.000000	0.133015
359.000000	0.134748
360.000000	0.133216
361.000000	0.131370
362.000000	0.130597
363.000000	0.130944
364.000000	0.131740
365.000000	0.132437
366.000000	0.132046
367.000000	0.131049
368.000000	0.131580
369.000000	0.132525
370.000000	0.133104
371.000000	0.132703
372.000000	0.131527
373.000000	0.130351
374.000000	0.129905
375.000000	0.129459
376.000000	0.131136
377.000000	0.133932
378.000000	0.133946
379.000000	0.133152
380.000000	0.132868
381.000000	0.134253
382.000000	0.133666
383.000000	0.132519
384.000000	0.132379
385.000000	0.133082
386.000000	0.134239
387.000000	0.135237
388.000000	0.134820
389.000000	0.135160
390.000000	0.136082
391.000000	0.136419
392.000000	0.135778
393.000000	0.135065
394.000000	0.135003
395.000000	0.135124
396.000000	0.135697
397.000000	0.136432
398.000000	0.136268
399.000000	0.136085
400.000000	0.136269
401.000000	0.136895
402.000000	0.136942
403.000000	0.136720
404.000000	0.136819
405.000000	0.137588
406.000000	0.138131
407.000000	0.138213
408.000000	0.138596
409.000000	0.139136
410.000000	0.139594
411.000000	0.139629
412.000000	0.139889
413.000000	0.140215
414.000000	0.140358
415.000000	0.140645
416.000000	0.140866
417.000000	0.141000
418.000000	0.141609
419.000000	0.141809
420.000000	0.141683
421.000000	0.142131
422.000000	0.142512
423.000000	0.142765
424.000000	0.143051
425.000000	0.143494
426.000000	0.143894
427.000000	0.144118
428.000000	0.144346
429.000000	0.144681
430.000000	0.145128
431.000000	0.145588
432.000000	0.145821
433.000000	0.145947
434.000000	0.146312
435.000000	0.146569
436.000000	0.146798
437.000000	0.147115
438.000000	0.147510
439.000000	0.147842
440.000000	0.148112
441.000000	0.148412
442.000000	0.148659
443.000000	0.148872
444.000000	0.149237
445.000000	0.149479
446.000000	0.149731
447.000000	0.150098
448.000000	0.150453
449.000000	0.150899
450.000000	0.151462
451.000000	0.151875
452.000000	0.152255
453.000000	0.152646
454.000000	0.153161
455.000000	0.153548
456.000000	0.153919
457.000000	0.154401
458.000000	0.154691
459.000000	0.154931
460.000000	0.155315
461.000000	0.155783
462.000000	0.156203
463.000000	0.156480
464.000000	0.156895
465.000000	0.157332
466.000000	0.157696
467.000000	0.157967
468.000000	0.158308
469.000000	0.158628
470.000000	0.158899
471.000000	0.159231
472.000000	0.159607
473.000000	0.160000
474.000000	0.160307
475.000000	0.160632
476.000000	0.161037
477.000000	0.161322
478.000000	0.161547
479.000000	0.161923
480.000000	0.162474
481.000000	0.162787
482.000000	0.163041
483.000000	0.163323
484.000000	0.163666
485.000000	0.163964
486.000000	0.164241
487.000000	0.164368
488.000000	0.164585
489.000000	0.164903
490.000000	0.165161
491.000000	0.165377
492.000000	0.165580
493.000000	0.165718
494.000000	0.165791
495.000000	0.165927
496.000000	0.166149
497.000000	0.166271
498.000000	0.166341
499.000000	0.166458
500.000000	0.166681
501.000000	0.166821
502.000000	0.166929
503.000000	0.167097
504.000000	0.167247
505.000000	0.167423
506.000000	0.167669
507.000000	0.167898
508.000000	0.168199
509.000000	0.168571
510.000000	0.168906
511.000000	0.169228
512.000000	0.169560
513.000000	0.169892
514.000000	0.170268
515.000000	0.170685
516.000000	0.171077
517.000000	0.171463
518.000000	0.171868
519.000000	0.172261
520.000000	0.172694
521.000000	0.173161
522.000000	0.173650
523.000000	0.174116
524.000000	0.174699
525.000000	0.175391
526.000000	0.176133
527.000000	0.176908
528.000000	0.177750
529.000000	0.178721
530.000000	0.179716
531.000000	0.180806
532.000000	0.181977
533.000000	0.183218
534.000000	0.184461
535.000000	0.185705
536.000000	0.187050
537.000000	0.188326
538.000000	0.189548
539.000000	0.190792
540.000000	0.191966
541.000000	0.193057
542.000000	0.194105
543.000000	0.195165
544.000000	0.196203
545.000000	0.197176
546.000000	0.198193
547.000000	0.199254
548.000000	0.200358
549.000000	0.201428
550.000000	0.202572
551.000000	0.203843
552.000000	0.205220
553.000000	0.206604
554.000000	0.208058
555.000000	0.209620
556.000000	0.211179
557.000000	0.212772
558.000000	0.214487
559.000000	0.216189
560.000000	0.217929
561.000000	0.219728
562.000000	0.221476
563.000000	0.223165
564.000000	0.224838
565.000000	0.226449
566.000000	0.227988
567.000000	0.229477
568.000000	0.230893
569.000000	0.232164
570.000000	0.233331
571.000000	0.234414
572.000000	0.235437
573.000000	0.236330
574.000000	0.237088
575.000000	0.237778
576.000000	0.238408
577.000000	0.238959
578.000000	0.239462
579.000000	0.239898
580.000000	0.240234
581.000000	0.240470
582.000000	0.240670
583.000000	0.240798
584.000000	0.240873
585.000000	0.240939
586.000000	0.240928
587.000000	0.240834
588.000000	0.240678
589.000000	0.240514
590.000000	0.240309
591.000000	0.240039
592.000000	0.239705
593.000000	0.239369
594.000000	0.239031
595.000000	0.238631
596.000000	0.238196
597.000000	0.237767
598.000000	0.237310
599.000000	0.236780
600.000000	0.236243
601.000000	0.235695
602.000000	0.235144
603.000000	0.234583
604.000000	0.234022
605.000000	0.233483
606.000000	0.232922
607.000000	0.232341
608.000000	0.231772
609.000000	0.231241
610.000000	0.230734
611.000000	0.230222
612.000000	0.229661
613.000000	0.229137
614.000000	0.228704
615.000000	0.228193
616.000000	0.227672
617.000000	0.227153
618.000000	0.226678
619.000000	0.226229
620.000000	0.225776
621.000000	0.225333
622.000000	0.224874
623.000000	0.224438
624.000000	0.224053
625.000000	0.223696
626.000000	0.223346
627.000000	0.223005
628.000000	0.222710
629.000000	0.222465
630.000000	0.222179
631.000000	0.221918
632.000000	0.221694
633.000000	0.221496
634.000000	0.221300
635.000000	0.221088
636.000000	0.220924
637.000000	0.220823
638.000000	0.220749
639.000000	0.220673
640.000000	0.220629
641.000000	0.220584
642.000000	0.220575
643.000000	0.220603
644.000000	0.220659
645.000000	0.220748
646.000000	0.220854
647.000000	0.220947
648.000000	0.221046
649.000000	0.221205
650.000000	0.221400
651.000000	0.221545
652.000000	0.221732
653.000000	0.221986
654.000000	0.222249
655.000000	0.222555
656.000000	0.222918
657.000000	0.223298
658.000000	0.223694
659.000000	0.224110
660.000000	0.224543
661.000000	0.225018
662.000000	0.225523
663.000000	0.226073
664.000000	0.226612
665.000000	0.227184
666.000000	0.227793
667.000000	0.228417
668.000000	0.229084
669.000000	0.229799
670.000000	0.230557
671.000000	0.231327
672.000000	0.232144
673.000000	0.232994
674.000000	0.233837
675.000000	0.234706
676.000000	0.235607
677.000000	0.236552
678.000000	0.237531
679.000000	0.238522
680.000000	0.239524
681.000000	0.240580
682.000000	0.241709
683.000000	0.242852
684.000000	0.244050
685.000000	0.245276
686.000000	0.246536
687.000000	0.247808
688.000000	0.249124
689.000000	0.250454
690.000000	0.251812
691.000000	0.253247
692.000000	0.254674
693.000000	0.256135
694.000000	0.257669
695.000000	0.259226
696.000000	0.260794
697.000000	0.262382
698.000000	0.264003
699.000000	0.265684
700.000000	0.267433
701.000000	0.269165
702.000000	0.270926
703.000000	0.272705
704.000000	0.274451
705.000000	0.276257
706.000000	0.278100
707.000000	0.279990
708.000000	0.281884
709.000000	0.283782
710.000000	0.285722
711.000000	0.287745
712.000000	0.289802
713.000000	0.291863
714.000000	0.293880
715.000000	0.295890
716.000000	0.297918
717.000000	0.299968
718.000000	0.302020
719.000000	0.304079
720.000000	0.306164
721.000000	0.308252
722.000000	0.310309
723.000000	0.312395
724.000000	0.314511
725.000000	0.316598
726.000000	0.318704
727.000000	0.320751
728.000000	0.322782
729.000000	0.324823
730.000000	0.326830
731.000000	0.328809
732.000000	0.330784
733.000000	0.332785
734.000000	0.334725
735.000000	0.336621
736.000000	0.338568
737.000000	0.340416
738.000000	0.342210
739.000000	0.344050
740.000000	0.345817
741.000000	0.347604
742.000000	0.349355
743.000000	0.351022
744.000000	0.352662
745.000000	0.354245
746.000000	0.355832
747.000000	0.357392
748.000000	0.358972
749.000000	0.360526
750.000000	0.361981
751.000000	0.363368
752.000000	0.364702
753.000000	0.366022
754.000000	0.367354
755.000000	0.368670
756.000000	0.369982
757.000000	0.371246
758.000000	0.372410
759.000000	0.373543
760.000000	0.374607
761.000000	0.375661
762.000000	0.376659
763.000000	0.377587
764.000000	0.378543
765.000000	0.379461
766.000000	0.380360
767.000000	0.381245
768.000000	0.382062
769.000000	0.382806
770.000000	0.383496
771.000000	0.384170
772.000000	0.384867
773.000000	0.385513
774.000000	0.386152
775.000000	0.386726
776.000000	0.387273
777.000000	0.387806
778.000000	0.388329
779.000000	0.388786
780.000000	0.389201
781.000000	0.389651
782.000000	0.390029
783.000000	0.390438
784.000000	0.390789
785.000000	0.391097
786.000000	0.391370
787.000000	0.391622
788.000000	0.391895
789.000000	0.392184
790.000000	0.392449
791.000000	0.392688
792.000000	0.392868
793.000000	0.393042
794.000000	0.393252
795.000000	0.393431
796.000000	0.393569
797.000000	0.393675
798.000000	0.393789
799.000000	0.393914
800.000000	0.394043
801.000000	0.394166
802.000000	0.394287
803.000000	0.394343
804.000000	0.394371
805.000000	0.394451
806.000000	0.394459
807.000000	0.394486
808.000000	0.394523
809.000000	0.394503
810.000000	0.394480
811.000000	0.394473
812.000000	0.394399
813.000000	0.394331
814.000000	0.394291
815.000000	0.394280
816.000000	0.394267
817.000000	0.394272
818.000000	0.394215
819.000000	0.394182
820.000000	0.394149
821.000000	0.394040
822.000000	0.393891
823.000000	0.393775
824.000000	0.393620
825.000000	0.393469
826.000000	0.393368
827.000000	0.393235
828.000000	0.393089
829.000000	0.392999
830.000000	0.392903
831.000000	0.392818
832.000000	0.392592
833.000000	0.392400
834.000000	0.392212
835.000000	0.392028
836.000000	0.391849
837.000000	0.391657
838.000000	0.391485
839.000000	0.391343
840.000000	0.391180
841.000000	0.391034
842.000000	0.390893
843.000000	0.390748
844.000000	0.390638
845.000000	0.390522
846.000000	0.390369
847.000000	0.390117
848.000000	0.389790
849.000000	0.389489
850.000000	0.389259
851.000000	0.389015
852.000000	0.388785
853.000000	0.388608
854.000000	0.388394
855.000000	0.388248
856.000000	0.388085
857.000000	0.387863
858.000000	0.387727
859.000000	0.387601
860.000000	0.387336
861.000000	0.387117
862.000000	0.386969
863.000000	0.386750
864.000000	0.386440
865.000000	0.386133
866.000000	0.385895
867.000000	0.385619
868.000000	0.385384
869.000000	0.385121
870.000000	0.384857
871.000000	0.384611
872.000000	0.384350
873.000000	0.384009
874.000000	0.383739
875.000000	0.383423
876.000000	0.383089
877.000000	0.382733
878.000000	0.382362
879.000000	0.382106
880.000000	0.381845
881.000000	0.381590
882.000000	0.381329
883.000000	0.381035
884.000000	0.380618
885.000000	0.380262
886.000000	0.379943
887.000000	0.379659
888.000000	0.379387
889.000000	0.379121
890.000000	0.378764
891.000000	0.378470
892.000000	0.378173
893.000000	0.377826
894.000000	0.377562
895.000000	0.377318
896.000000	0.377028
897.000000	0.376743
898.000000	0.376520
899.000000	0.376191
900.000000	0.375823
901.000000	0.375448
902.000000	0.375189
903.000000	0.374957
904.000000	0.374773
905.000000	0.374550
906.000000	0.374346
907.000000	0.374107
908.000000	0.373851
909.000000	0.373465
910.000000	0.373037
911.000000	0.372613
912.000000	0.372251
913.000000	0.371995
914.000000	0.371729
915.000000	0.371500
916.000000	0.371271
917.000000	0.370972
918.000000	0.370698
919.000000	0.370483
920.000000	0.370238
921.000000	0.370003
922.000000	0.369766
923.000000	0.369471
924.000000	0.369216
925.000000	0.368996
926.000000	0.368789
927.000000	0.368422
928.000000	0.367996
929.000000	0.367565
930.000000	0.367185
931.000000	0.366939
932.000000	0.366704
933.000000	0.366471
934.000000	0.366235
935.000000	0.365888
936.000000	0.365558
937.000000	0.365244
938.000000	0.364940
939.000000	0.364670
940.000000	0.364421
941.000000	0.364320
942.000000	0.364024
943.000000	0.363763
944.000000	0.363529
945.000000	0.363274
946.000000	0.362990
947.000000	0.362810
948.000000	0.362746
949.000000	0.362491
950.000000	0.362194
951.000000	0.361874
952.000000	0.361557
953.000000	0.361296
954.000000	0.360973
955.000000	0.360498
956.000000	0.360270
957.000000	0.360014
958.000000	0.359718
959.000000	0.359587
960.000000	0.359373
961.000000	0.359095
962.000000	0.358803
963.000000	0.358625
964.000000	0.358433
965.000000	0.358274
966.000000	0.358059
967.000000	0.357815
968.000000	0.357565
969.000000	0.357303
970.000000	0.357137
971.000000	0.356887
972.000000	0.356652
973.000000	0.356424
974.000000	0.356268
975.000000	0.356263
976.000000	0.356212
977.000000	0.355986
978.000000	0.355831
979.000000	0.355803
980.000000	0.355622
981.000000	0.355471
982.000000	0.355369
983.000000	0.355137
984.000000	0.354845
985.000000	0.354644
986.000000	0.354474
987.000000	0.354326
988.000000	0.354106
989.000000	0.353999
990.000000	0.354029
991.000000	0.353979
992.000000	0.353740
993.000000	0.353845
994.000000	0.353838
995.000000	0.353819
996.000000	0.353829
997.000000	0.353779
998.000000	0.353716
999.000000	0.353786
1000.000000	0.353951
1001.000000	0.354116
1002.000000	0.353886
1003.000000	0.353450
1004.000000	0.353295
1005.000000	0.353303
1006.000000	0.353114
1007.000000	0.352963
1008.000000	0.352975
1009.000000	0.352902
1010.000000	0.352577
1011.000000	0.352769
1012.000000	0.353198
1013.000000	0.353216
1014.000000	0.353200
1015.000000	0.353021
1016.000000	0.352827
1017.000000	0.352597
1018.000000	0.352744
1019.000000	0.352901
1020.000000	0.353388
1021.000000	0.353211
1022.000000	0.353048
1023.000000	0.353223
1024.000000	0.353105
1025.000000	0.353228
1026.000000	0.353631
1027.000000	0.353588
1028.000000	0.353535
1029.000000	0.353755
1030.000000	0.353839
1031.000000	0.353859
1032.000000	0.353901
1033.000000	0.353989
1034.000000	0.354117
1035.000000	0.354403
1036.000000	0.354578
1037.000000	0.354707
1038.000000	0.354733
1039.000000	0.354733
1040.000000	0.354946
1041.000000	0.355192
1042.000000	0.355424
1043.000000	0.355688
1044.000000	0.355963
1045.000000	0.356078
1046.000000	0.356151
1047.000000	0.356405
1048.000000	0.356815
1049.000000	0.356866
1050.000000	0.356804
1051.000000	0.356861
1052.000000	0.356591
1053.000000	0.356587
1054.000000	0.357108
1055.000000	0.357455
1056.000000	0.357793
1057.000000	0.358218
1058.000000	0.358450
1059.000000	0.358485
1060.000000	0.358774
1061.000000	0.359015
1062.000000	0.359238
1063.000000	0.359618
1064.000000	0.359931
1065.000000	0.360096
1066.000000	0.360352
1067.000000	0.360734
1068.000000	0.360908
1069.000000	0.360817
1070.000000	0.360970
1071.000000	0.361141
1072.000000	0.361391
1073.000000	0.361881
1074.000000	0.362482
1075.000000	0.362661
1076.000000	0.362961
1077.000000	0.363183
1078.000000	0.363228
1079.000000	0.363412
1080.000000	0.363723
1081.000000	0.363979
1082.000000	0.364386
1083.000000	0.364610
1084.000000	0.364739
1085.000000	0.365041
1086.000000	0.365333
1087.000000	0.365591
1088.000000	0.365854
1089.000000	0.366098
1090.000000	0.366300
1091.000000	0.366296
1092.000000	0.366393
1093.000000	0.366732
1094.000000	0.366927
1095.000000	0.366938
1096.000000	0.367196
1097.000000	0.367633
1098.000000	0.367888
1099.000000	0.368007
1100.000000	0.368368
1101.000000	0.368780
1102.000000	0.369030
1103.000000	0.369292
1104.000000	0.369623
1105.000000	0.369829
1106.000000	0.370047
1107.000000	0.370325
1108.000000	0.370585
1109.000000	0.370838
1110.000000	0.371059
1111.000000	0.371267
1112.000000	0.371547
1113.000000	0.371773
1114.000000	0.371888
1115.000000	0.372117
1116.000000	0.372456
1117.000000	0.372700
1118.000000	0.372902
1119.000000	0.373065
1120.000000	0.373171
1121.000000	0.373316
1122.000000	0.373572
1123.000000	0.373984
1124.000000	0.374222
1125.000000	0.374484
1126.000000	0.374673
1127.000000	0.374838
1128.000000	0.374979
1129.000000	0.375127
1130.000000	0.375302
1131.000000	0.375545
1132.000000	0.375614
1133.000000	0.375624
1134.000000	0.375779
1135.000000	0.375883
1136.000000	0.375937
1137.000000	0.376064
1138.000000	0.376104
1139.000000	0.376058
1140.000000	0.376206
1141.000000	0.376450
1142.000000	0.376618
1143.000000	0.376726
1144.000000	0.376952
1145.000000	0.376990
1146.000000	0.376964
1147.000000	0.376982
1148.000000	0.376875
1149.000000	0.376906
1150.000000	0.376983
1151.000000	0.377123
1152.000000	0.377302
1153.000000	0.377456
1154.000000	0.377603
1155.000000	0.377694
1156.000000	0.377775
1157.000000	0.377835
1158.000000	0.377763
1159.000000	0.377763
1160.000000	0.377750
1161.000000	0.377758
1162.000000	0.377852
1163.000000	0.378103
1164.000000	0.378241
1165.000000	0.378321
1166.000000	0.378463
1167.000000	0.378565
1168.000000	0.378627
1169.000000	0.378722
1170.000000	0.378833
1171.000000	0.378975
1172.000000	0.379112
1173.000000	0.379215
1174.000000	0.379335
1175.000000	0.379413
1176.000000	0.379453
1177.000000	0.379627
1178.000000	0.379720
1179.000000	0.379708
1180.000000	0.379682
1181.000000	0.379744
1182.000000	0.379735
1183.000000	0.379846
1184.000000	0.380019
1185.000000	0.380120
1186.000000	0.380236
1187.000000	0.380338
1188.000000	0.380401
1189.000000	0.380430
1190.000000	0.380523
1191.000000	0.380569
1192.000000	0.380659
1193.000000	0.380845
1194.000000	0.380932
1195.000000	0.381048
1196.000000	0.381089
1197.000000	0.381197
1198.000000	0.381413
1199.000000	0.381548
1200.000000	0.381643
1201.000000	0.381779
1202.000000	0.381851
1203.000000	0.381923
1204.000000	0.382013
1205.000000	0.382175
1206.000000	0.382256
1207.000000	0.382438
1208.000000	0.382495
1209.000000	0.382527
1210.000000	0.382620
1211.000000	0.382716
1212.000000	0.382780
1213.000000	0.382950
1214.000000	0.383062
1215.000000	0.383059
1216.000000	0.383096
1217.000000	0.383100
1218.000000	0.383118
1219.000000	0.383141
1220.000000	0.383259
1221.000000	0.383419
1222.000000	0.383519
1223.000000	0.383649
1224.000000	0.383787
1225.000000	0.383838
1226.000000	0.383962
1227.000000	0.384095
1228.000000	0.384266
1229.000000	0.384323
1230.000000	0.384311
1231.000000	0.384294
1232.000000	0.384315
1233.000000	0.384467
1234.000000	0.384733
1235.000000	0.384850
1236.000000	0.384806
1237.000000	0.384888
1238.000000	0.384884
1239.000000	0.384914
1240.000000	0.385010
1241.000000	0.385102
1242.000000	0.385167
1243.000000	0.385214
1244.000000	0.385303
1245.000000	0.385543
1246.000000	0.385723
1247.000000	0.385929
1248.000000	0.386158
1249.000000	0.386336
1250.000000	0.386536
1251.000000	0.386739
1252.000000	0.386863
1253.000000	0.386981
1254.000000	0.387068
1255.000000	0.387057
1256.000000	0.387113
1257.000000	0.387235
1258.000000	0.387346
1259.000000	0.387343
1260.000000	0.387492
1261.000000	0.387647
1262.000000	0.387766
1263.000000	0.387970
1264.000000	0.388106
1265.000000	0.388236
1266.000000	0.388331
1267.000000	0.388402
1268.000000	0.388526
1269.000000	0.388558
1270.000000	0.388682
1271.000000	0.388815
1272.000000	0.388912
1273.000000	0.389090
1274.000000	0.389190
1275.000000	0.389289
1276.000000	0.389455
1277.000000	0.389642
1278.000000	0.389699
1279.000000	0.389763
1280.000000	0.389766
1281.000000	0.389746
1282.000000	0.389721
1283.000000	0.389846
1284.000000	0.389951
1285.000000	0.390057
1286.000000	0.390191
1287.000000	0.390321
1288.000000	0.390430
1289.000000	0.390500
1290.000000	0.390506
1291.000000	0.390551
1292.000000	0.390657
1293.000000	0.390760
1294.000000	0.390874
1295.000000	0.390980
1296.000000	0.390992
1297.000000	0.391055
1298.000000	0.391241
1299.000000	0.391330
1300.000000	0.391443
1301.000000	0.391554
1302.000000	0.391526
1303.000000	0.391504
1304.000000	0.391471
1305.000000	0.391488
1306.000000	0.391457
1307.000000	0.391454
1308.000000	0.391498
1309.000000	0.391564
1310.000000	0.391597
1311.000000	0.391690
1312.000000	0.391669
1313.000000	0.391660
1314.000000	0.391574
1315.000000	0.391417
1316.000000	0.391451
1317.000000	0.391506
1318.000000	0.391450
1319.000000	0.391359
1320.000000	0.391268
1321.000000	0.391096
1322.000000	0.390939
1323.000000	0.390886
1324.000000	0.390899
1325.000000	0.390804
1326.000000	0.390683
1327.000000	0.390669
1328.000000	0.390671
1329.000000	0.390596
1330.000000	0.390598
1331.000000	0.390517
1332.000000	0.390382
1333.000000	0.390282
1334.000000	0.390258
1335.000000	0.390207
1336.000000	0.390139
1337.000000	0.390050
1338.000000	0.389875
1339.000000	0.389705
1340.000000	0.389532
1341.000000	0.389389
1342.000000	0.389264
1343.000000	0.389110
1344.000000	0.388962
1345.000000	0.388799
1346.000000	0.388714
1347.000000	0.388563
1348.000000	0.388479
1349.000000	0.388393
1350.000000	0.388324
1351.000000	0.388161
1352.000000	0.387972
1353.000000	0.387810
1354.000000	0.387611
1355.000000	0.387396
1356.000000	0.387274
1357.000000	0.387073
1358.000000	0.386890
1359.000000	0.386718
1360.000000	0.386485
1361.000000	0.386241
1362.000000	0.385998
1363.000000	0.385664
1364.000000	0.385444
1365.000000	0.385269
1366.000000	0.385073
1367.000000	0.384896
1368.000000	0.384689
1369.000000	0.384569
1370.000000	0.384271
1371.000000	0.383937
1372.000000	0.383594
1373.000000	0.383187
1374.000000	0.382831
1375.000000	0.382416
1376.000000	0.382098
1377.000000	0.381751
1378.000000	0.381257
1379.000000	0.380700
1380.000000	0.380033
1381.000000	0.379250
1382.000000	0.378536
1383.000000	0.377902
1384.000000	0.377100
1385.000000	0.376187
1386.000000	0.375259
1387.000000	0.374201
1388.000000	0.373033
1389.000000	0.371853
1390.000000	0.370590
1391.000000	0.369168
1392.000000	0.367794
1393.000000	0.366250
1394.000000	0.364615
1395.000000	0.362969
1396.000000	0.361249
1397.000000	0.359389
1398.000000	0.357403
1399.000000	0.355491
1400.000000	0.353451
1401.000000	0.351495
1402.000000	0.349658
1403.000000	0.347774
1404.000000	0.345997
1405.000000	0.344234
1406.000000	0.342455
1407.000000	0.340865
1408.000000	0.339290
1409.000000	0.337839
1410.000000	0.336624
1411.000000	0.335407
1412.000000	0.334208
1413.000000	0.333113
1414.000000	0.332071
1415.000000	0.331146
1416.000000	0.330260
1417.000000	0.329418
1418.000000	0.328616
1419.000000	0.327848
1420.000000	0.327060
1421.000000	0.326402
1422.000000	0.325699
1423.000000	0.325028
1424.000000	0.324309
1425.000000	0.323594
1426.000000	0.322890
1427.000000	0.322246
1428.000000	0.321676
1429.000000	0.321050
1430.000000	0.320498
1431.000000	0.320035
1432.000000	0.319544
1433.000000	0.319139
1434.000000	0.318704
1435.000000	0.318295
1436.000000	0.317921
1437.000000	0.317551
1438.000000	0.317197
1439.000000	0.316899
1440.000000	0.316693
1441.000000	0.316507
1442.000000	0.316467
1443.000000	0.316469
1444.000000	0.316598
1445.000000	0.316797
1446.000000	0.317036
1447.000000	0.317356
1448.000000	0.317652
1449.000000	0.317986
1450.000000	0.318359
1451.000000	0.318697
1452.000000	0.319013
1453.000000	0.319299
1454.000000	0.319496
1455.000000	0.319678
1456.000000	0.319920
1457.000000	0.320121
1458.000000	0.320279
1459.000000	0.320443
1460.000000	0.320589
1461.000000	0.320694
1462.000000	0.320823
1463.000000	0.320950
1464.000000	0.321059
1465.000000	0.321233
1466.000000	0.321431
1467.000000	0.321621
1468.000000	0.321837
1469.000000	0.322122
1470.000000	0.322325
1471.000000	0.322618
1472.000000	0.322985
1473.000000	0.323370
1474.000000	0.323733
1475.000000	0.324168
1476.000000	0.324622
1477.000000	0.325068
1478.000000	0.325578
1479.000000	0.326072
1480.000000	0.326549
1481.000000	0.327016
1482.000000	0.327525
1483.000000	0.328075
1484.000000	0.328636
1485.000000	0.329184
1486.000000	0.329768
1487.000000	0.330310
1488.000000	0.330833
1489.000000	0.331386
1490.000000	0.331806
1491.000000	0.332304
1492.000000	0.332783
1493.000000	0.333295
1494.000000	0.333807
1495.000000	0.334288
1496.000000	0.334766
1497.000000	0.335246
1498.000000	0.335730
1499.000000	0.336189
1500.000000	0.336683
1501.000000	0.337120
1502.000000	0.337513
1503.000000	0.338011
1504.000000	0.338457
1505.000000	0.338820
1506.000000	0.339222
1507.000000	0.339570
1508.000000	0.339988
1509.000000	0.340452
1510.000000	0.340845
1511.000000	0.341215
1512.000000	0.341524
1513.000000	0.341856
1514.000000	0.342213
1515.000000	0.342535
1516.000000	0.342893
1517.000000	0.343149
1518.000000	0.343390
1519.000000	0.343599
1520.000000	0.343813
1521.000000	0.344028
1522.000000	0.344302
1523.000000	0.344644
1524.000000	0.344907
1525.000000	0.345183
1526.000000	0.345413
1527.000000	0.345580
1528.000000	0.345755
1529.000000	0.345905
1530.000000	0.345996
1531.000000	0.346136
1532.000000	0.346259
1533.000000	0.346340
1534.000000	0.346453
1535.000000	0.346543
1536.000000	0.346613
1537.000000	0.346782
1538.000000	0.346914
1539.000000	0.346984
1540.000000	0.347063
1541.000000	0.347173
1542.000000	0.347269
1543.000000	0.347370
1544.000000	0.347511
1545.000000	0.347633
1546.000000	0.347744
1547.000000	0.347898
1548.000000	0.348047
1549.000000	0.348194
1550.000000	0.348320
1551.000000	0.348383
1552.000000	0.348448
1553.000000	0.348465
1554.000000	0.348473
1555.000000	0.348574
1556.000000	0.348666
1557.000000	0.348716
1558.000000	0.348811
1559.000000	0.348860
1560.000000	0.348904
1561.000000	0.349007
1562.000000	0.349062
1563.000000	0.349134
1564.000000	0.349206
1565.000000	0.349265
1566.000000	0.349239
1567.000000	0.349278
1568.000000	0.349303
1569.000000	0.349377
1570.000000	0.349414
1571.000000	0.349418
1572.000000	0.349425
1573.000000	0.349410
1574.000000	0.349418
1575.000000	0.349473
1576.000000	0.349532
1577.000000	0.349572
1578.000000	0.349596
1579.000000	0.349689
1580.000000	0.349760
1581.000000	0.349903
1582.000000	0.349969
1583.000000	0.349990
1584.000000	0.349997
1585.000000	0.350048
1586.000000	0.350112
1587.000000	0.350200
1588.000000	0.350240
1589.000000	0.350260
1590.000000	0.350267
1591.000000	0.350286
1592.000000	0.350287
1593.000000	0.350310
1594.000000	0.350292
1595.000000	0.350269
1596.000000	0.350278
1597.000000	0.350326
1598.000000	0.350357
1599.000000	0.350445
1600.000000	0.350463
1601.000000	0.350507
1602.000000	0.350557
1603.000000	0.350654
1604.000000	0.350699
1605.000000	0.350767
1606.000000	0.350798
1607.000000	0.350805
1608.000000	0.350836
1609.000000	0.350946
1610.000000	0.350995
1611.000000	0.351046
1612.000000	0.351109
1613.000000	0.351248
1614.000000	0.351355
1615.000000	0.351536
1616.000000	0.351731
1617.000000	0.351866
1618.000000	0.352017
1619.000000	0.352183
1620.000000	0.352328
1621.000000	0.352491
1622.000000	0.352709
1623.000000	0.352895
1624.000000	0.353072
1625.000000	0.353132
1626.000000	0.353193
1627.000000	0.353264
1628.000000	0.353388
1629.000000	0.353485
1630.000000	0.353662
1631.000000	0.353844
1632.000000	0.353953
1633.000000	0.354095
1634.000000	0.354220
1635.000000	0.354331
1636.000000	0.354449
1637.000000	0.354610
1638.000000	0.354705
1639.000000	0.354817
1640.000000	0.354914
1641.000000	0.355060
1642.000000	0.355202
1643.000000	0.355356
1644.000000	0.355534
1645.000000	0.355722
1646.000000	0.355879
1647.000000	0.356103
1648.000000	0.356256
1649.000000	0.356464
1650.000000	0.356677
1651.000000	0.356917
1652.000000	0.357165
1653.000000	0.357368
1654.000000	0.357604
1655.000000	0.357792
1656.000000	0.357890
1657.000000	0.358051
1658.000000	0.358161
1659.000000	0.358303
1660.000000	0.358496
1661.000000	0.358612
1662.000000	0.358780
1663.000000	0.358938
1664.000000	0.359130
1665.000000	0.359356
1666.000000	0.359626
1667.000000	0.359870
1668.000000	0.360058
1669.000000	0.360193
1670.000000	0.360282
1671.000000	0.360434
1672.000000	0.360615
1673.000000	0.360761
1674.000000	0.360953
1675.000000	0.361137
1676.000000	0.361264
1677.000000	0.361386
1678.000000	0.361491
1679.000000	0.361567
1680.000000	0.361649
1681.000000	0.361738
1682.000000	0.361768
1683.000000	0.361852
1684.000000	0.361950
1685.000000	0.362046
1686.000000	0.362178
1687.000000	0.362309
1688.000000	0.362341
1689.000000	0.362407
1690.000000	0.362419
1691.000000	0.362520
1692.000000	0.362637
1693.000000	0.362714
1694.000000	0.362817
1695.000000	0.362924
1696.000000	0.362936
1697.000000	0.362914
1698.000000	0.362877
1699.000000	0.362924
1700.000000	0.363013
1701.000000	0.363178
1702.000000	0.363239
1703.000000	0.363254
1704.000000	0.363356
1705.000000	0.363420
1706.000000	0.363469
1707.000000	0.363570
1708.000000	0.363684
1709.000000	0.363694
1710.000000	0.363824
1711.000000	0.363886
1712.000000	0.363842
1713.000000	0.363852
1714.000000	0.363913
1715.000000	0.363990
1716.000000	0.364128
1717.000000	0.364220
1718.000000	0.364266
1719.000000	0.364308
1720.000000	0.364412
1721.000000	0.364446
1722.000000	0.364414
1723.000000	0.364478
1724.000000	0.364576
1725.000000	0.364693
1726.000000	0.364812
1727.000000	0.364893
1728.000000	0.364851
1729.000000	0.364828
1730.000000	0.364938
1731.000000	0.365066
1732.000000	0.365257
1733.000000	0.365447
1734.000000	0.365528
1735.000000	0.365625
1736.000000	0.365660
1737.000000	0.365704
1738.000000	0.365776
1739.000000	0.365844
1740.000000	0.365889
1741.000000	0.365876
1742.000000	0.365851
1743.000000	0.365915
1744.000000	0.365940
1745.000000	0.365954
1746.000000	0.366018
1747.000000	0.366015
1748.000000	0.365988
1749.000000	0.366051
1750.000000	0.366022
1751.000000	0.366048
1752.000000	0.366175
1753.000000	0.366138
1754.000000	0.366160
1755.000000	0.366224
1756.000000	0.366220
1757.000000	0.366181
1758.000000	0.366182
1759.000000	0.366118
1760.000000	0.366113
1761.000000	0.366147
1762.000000	0.366131
1763.000000	0.366126
1764.000000	0.366128
1765.000000	0.366022
1766.000000	0.366054
1767.000000	0.366100
1768.000000	0.366092
1769.000000	0.366246
1770.000000	0.366360
1771.000000	0.366359
1772.000000	0.366418
1773.000000	0.366464
1774.000000	0.366498
1775.000000	0.366611
1776.000000	0.366658
1777.000000	0.366616
1778.000000	0.366610
1779.000000	0.366576
1780.000000	0.366583
1781.000000	0.366579
1782.000000	0.366561
1783.000000	0.366582
1784.000000	0.366617
1785.000000	0.366650
1786.000000	0.366744
1787.000000	0.366956
1788.000000	0.367142
1789.000000	0.367172
1790.000000	0.367173
1791.000000	0.367185
1792.000000	0.367324
1793.000000	0.367405
1794.000000	0.367508
1795.000000	0.367612
1796.000000	0.367613
1797.000000	0.367704
1798.000000	0.367844
1799.000000	0.367967
1800.000000	0.368229
1801.000000	0.368010
1802.000000	0.368123
1803.000000	0.367908
1804.000000	0.368160
1805.000000	0.368747
1806.000000	0.369045
1807.000000	0.369588
1808.000000	0.369781
1809.000000	0.369498
1810.000000	0.369435
1811.000000	0.369394
1812.000000	0.369259
1813.000000	0.369322
1814.000000	0.369764
1815.000000	0.369769
1816.000000	0.369615
1817.000000	0.369367
1818.000000	0.368914
1819.000000	0.368663
1820.000000	0.368430
1821.000000	0.368189
1822.000000	0.368022
1823.000000	0.367708
1824.000000	0.367614
1825.000000	0.367576
1826.000000	0.367689
1827.000000	0.367972
1828.000000	0.368052
1829.000000	0.367970
1830.000000	0.368089
1831.000000	0.368125
1832.000000	0.368070
1833.000000	0.367975
1834.000000	0.368007
1835.000000	0.367840
1836.000000	0.367191
1837.000000	0.366877
1838.000000	0.366701
1839.000000	0.366214
1840.000000	0.365553
1841.000000	0.365431
1842.000000	0.365169
1843.000000	0.364682
1844.000000	0.364576
1845.000000	0.364782
1846.000000	0.364750
1847.000000	0.364705
1848.000000	0.364308
1849.000000	0.363995
1850.000000	0.363287
1851.000000	0.362578
1852.000000	0.361500
1853.000000	0.360922
1854.000000	0.360298
1855.000000	0.359563
1856.000000	0.358912
1857.000000	0.358251
1858.000000	0.357129
1859.000000	0.356035
1860.000000	0.355183
1861.000000	0.354236
1862.000000	0.353059
1863.000000	0.351947
1864.000000	0.350674
1865.000000	0.349052
1866.000000	0.347487
1867.000000	0.345946
1868.000000	0.344185
1869.000000	0.342203
1870.000000	0.340423
1871.000000	0.338364
1872.000000	0.336281
1873.000000	0.334071
1874.000000	0.331713
1875.000000	0.329199
1876.000000	0.326428
1877.000000	0.323229
1878.000000	0.319888
1879.000000	0.316534
1880.000000	0.313048
1881.000000	0.309445
1882.000000	0.305744
1883.000000	0.301975
1884.000000	0.297912
1885.000000	0.293380
1886.000000	0.288718
1887.000000	0.283802
1888.000000	0.278526
1889.000000	0.272974
1890.000000	0.267923
1891.000000	0.262824
1892.000000	0.257211
1893.000000	0.252027
1894.000000	0.246646
1895.000000	0.241189
1896.000000	0.235596
1897.000000	0.230611
1898.000000	0.225304
1899.000000	0.220601
1900.000000	0.216507
1901.000000	0.212295
1902.000000	0.208509
1903.000000	0.204959
1904.000000	0.201814
1905.000000	0.199170
1906.000000	0.196763
1907.000000	0.194831
1908.000000	0.193305
1909.000000	0.191850
1910.000000	0.190478
1911.000000	0.189453
1912.000000	0.188577
1913.000000	0.188021
1914.000000	0.187595
1915.000000	0.186983
1916.000000	0.186719
1917.000000	0.186395
1918.000000	0.186095
1919.000000	0.185890
1920.000000	0.185834
1921.000000	0.185724
1922.000000	0.185719
1923.000000	0.185702
1924.000000	0.185743
1925.000000	0.185854
1926.000000	0.186062
1927.000000	0.186519
1928.000000	0.186870
1929.000000	0.187379
1930.000000	0.187770
1931.000000	0.188204
1932.000000	0.188660
1933.000000	0.188932
1934.000000	0.189378
1935.000000	0.189837
1936.000000	0.189958
1937.000000	0.190248
1938.000000	0.190570
1939.000000	0.190783
1940.000000	0.190871
1941.000000	0.191024
1942.000000	0.191139
1943.000000	0.190942
1944.000000	0.190621
1945.000000	0.190583
1946.000000	0.190604
1947.000000	0.190690
1948.000000	0.190841
1949.000000	0.190738
1950.000000	0.190568
1951.000000	0.190292
1952.000000	0.189969
1953.000000	0.189552
1954.000000	0.189303
1955.000000	0.189076
1956.000000	0.188787
1957.000000	0.188695
1958.000000	0.188890
1959.000000	0.188950
1960.000000	0.189062
1961.000000	0.189317
1962.000000	0.189357
1963.000000	0.189156
1964.000000	0.189122
1965.000000	0.189116
1966.000000	0.189140
1967.000000	0.189334
1968.000000	0.189409
1969.000000	0.189547
1970.000000	0.189685
1971.000000	0.189802
1972.000000	0.189995
1973.000000	0.190104
1974.000000	0.190232
1975.000000	0.190493
1976.000000	0.190793
1977.000000	0.191213
1978.000000	0.191546
1979.000000	0.191831
1980.000000	0.192379
1981.000000	0.192884
1982.000000	0.193596
1983.000000	0.194631
1984.000000	0.195307
1985.000000	0.195814
1986.000000	0.196319
1987.000000	0.196742
1988.000000	0.197172
1989.000000	0.197687
1990.000000	0.198133
1991.000000	0.198656
1992.000000	0.199310
1993.000000	0.199869
1994.000000	0.200631
1995.000000	0.201427
1996.000000	0.202150
1997.000000	0.202955
1998.000000	0.203946
1999.000000	0.204803
2000.000000	0.205657
2001.000000	0.206433
2002.000000	0.207228
2003.000000	0.208176
2004.000000	0.209019
2005.000000	0.209817
2006.000000	0.210870
2007.000000	0.211819
2008.000000	0.212854
2009.000000	0.214034
2010.000000	0.215229
2011.000000	0.216340
2012.000000	0.217484
2013.000000	0.218682
2014.000000	0.219832
2015.000000	0.220812
2016.000000	0.221655
2017.000000	0.222498
2018.000000	0.223349
2019.000000	0.224249
2020.000000	0.225222
2021.000000	0.226243
2022.000000	0.227271
2023.000000	0.228343
2024.000000	0.229584
2025.000000	0.230710
2026.000000	0.231723
2027.000000	0.232685
2028.000000	0.233595
2029.000000	0.234523
2030.000000	0.235486
2031.000000	0.236604
2032.000000	0.237609
2033.000000	0.238565
2034.000000	0.239469
2035.000000	0.240279
2036.000000	0.241029
2037.000000	0.241895
2038.000000	0.242801
2039.000000	0.243706
2040.000000	0.244736
2041.000000	0.245791
2042.000000	0.246645
2043.000000	0.247330
2044.000000	0.247915
2045.000000	0.248375
2046.000000	0.248787
2047.000000	0.249446
2048.000000	0.250148
2049.000000	0.251151
2050.000000	0.252229
2051.000000	0.253074
2052.000000	0.253959
2053.000000	0.254578
2054.000000	0.255085
2055.000000	0.255797
2056.000000	0.256384
2057.000000	0.256938
2058.000000	0.257407
2059.000000	0.257974
2060.000000	0.258588
2061.000000	0.259219
2062.000000	0.259886
2063.000000	0.260764
2064.000000	0.261352
2065.000000	0.262024
2066.000000	0.262598
2067.000000	0.263216
2068.000000	0.263984
2069.000000	0.264647
2070.000000	0.265491
2071.000000	0.266335
2072.000000	0.267068
2073.000000	0.267808
2074.000000	0.268538
2075.000000	0.269256
2076.000000	0.269864
2077.000000	0.270557
2078.000000	0.271338
2079.000000	0.272005
2080.000000	0.272692
2081.000000	0.273359
2082.000000	0.273995
2083.000000	0.274602
2084.000000	0.275186
2085.000000	0.275758
2086.000000	0.276424
2087.000000	0.277147
2088.000000	0.277643
2089.000000	0.278287
2090.000000	0.278922
2091.000000	0.279400
2092.000000	0.280136
2093.000000	0.281154
2094.000000	0.282003
2095.000000	0.283006
2096.000000	0.283882
2097.000000	0.284521
2098.000000	0.285306
2099.000000	0.286082
2100.000000	0.286793
2101.000000	0.287530
2102.000000	0.288100
2103.000000	0.288585
2104.000000	0.289001
2105.000000	0.289416
2106.000000	0.289751
2107.000000	0.290207
2108.000000	0.290615
2109.000000	0.291196
2110.000000	0.291785
2111.000000	0.292340
2112.000000	0.292962
2113.000000	0.293257
2114.000000	0.293487
2115.000000	0.293924
2116.000000	0.294431
2117.000000	0.294760
2118.000000	0.295063
2119.000000	0.295458
2120.000000	0.295829
2121.000000	0.296035
2122.000000	0.296446
2123.000000	0.297024
2124.000000	0.297487
2125.000000	0.298101
2126.000000	0.298451
2127.000000	0.298633
2128.000000	0.298981
2129.000000	0.299244
2130.000000	0.299324
2131.000000	0.299463
2132.000000	0.299547
2133.000000	0.299799
2134.000000	0.300452
2135.000000	0.300979
2136.000000	0.301458
2137.000000	0.301649
2138.000000	0.301387
2139.000000	0.301397
2140.000000	0.301375
2141.000000	0.301367
2142.000000	0.301469
2143.000000	0.301313
2144.000000	0.301002
2145.000000	0.301065
2146.000000	0.301307
2147.000000	0.301840
2148.000000	0.302481
2149.000000	0.303372
2150.000000	0.303842
2151.000000	0.304007
2152.000000	0.304058
2153.000000	0.303888
2154.000000	0.303712
2155.000000	0.303343
2156.000000	0.303314
2157.000000	0.303267
2158.000000	0.303487
2159.000000	0.304305
2160.000000	0.304893
2161.000000	0.305572
2162.000000	0.306094
2163.000000	0.306517
2164.000000	0.306541
2165.000000	0.306198
2166.000000	0.305801
2167.000000	0.305437
2168.000000	0.305248
2169.000000	0.305264
2170.000000	0.305397
2171.000000	0.305523
2172.000000	0.305713
2173.000000	0.305820
2174.000000	0.306072
2175.000000	0.306041
2176.000000	0.305768
2177.000000	0.305643
2178.000000	0.305461
2179.000000	0.305410
2180.000000	0.305327
2181.000000	0.305629
2182.000000	0.305598
2183.000000	0.305547
2184.000000	0.306408
2185.000000	0.306348
2186.000000	0.305568
2187.000000	0.305584
2188.000000	0.305089
2189.000000	0.304944
2190.000000	0.305844
2191.000000	0.306860
2192.000000	0.307038
2193.000000	0.306798
2194.000000	0.306366
2195.000000	0.304907
2196.000000	0.304357
2197.000000	0.303962
2198.000000	0.303760
2199.000000	0.304191
2200.000000	0.304647
2201.000000	0.305614
2202.000000	0.306177
2203.000000	0.306714
2204.000000	0.306527
2205.000000	0.306366
2206.000000	0.306061
2207.000000	0.305624
2208.000000	0.306065
2209.000000	0.306313
2210.000000	0.306721
2211.000000	0.307016
2212.000000	0.306981
2213.000000	0.306633
2214.000000	0.305246
2215.000000	0.304942
2216.000000	0.305246
2217.000000	0.305059
2218.000000	0.304951
2219.000000	0.304933
2220.000000	0.304583
2221.000000	0.304508
2222.000000	0.304949
2223.000000	0.304904
2224.000000	0.304576
2225.000000	0.304586
2226.000000	0.303259
2227.000000	0.302180
2228.000000	0.302228
2229.000000	0.301094
2230.000000	0.301704
2231.000000	0.302852
2232.000000	0.302279
2233.000000	0.302582
2234.000000	0.301975
2235.000000	0.301247
2236.000000	0.300962
2237.000000	0.301217
2238.000000	0.300788
2239.000000	0.299857
2240.000000	0.299716
2241.000000	0.300042
2242.000000	0.299361
2243.000000	0.298683
2244.000000	0.298159
2245.000000	0.295881
2246.000000	0.295650
2247.000000	0.297304
2248.000000	0.298001
2249.000000	0.299372
2250.000000	0.300383
2251.000000	0.299660
2252.000000	0.299629
2253.000000	0.298864
2254.000000	0.298007
2255.000000	0.298317
2256.000000	0.297981
2257.000000	0.297757
2258.000000	0.298042
2259.000000	0.297173
2260.000000	0.295609
2261.000000	0.294727
2262.000000	0.293625
2263.000000	0.293016
2264.000000	0.293250
2265.000000	0.293239
2266.000000	0.293698
2267.000000	0.293041
2268.000000	0.291795
2269.000000	0.290534
2270.000000	0.288309
2271.000000	0.286737
2272.000000	0.285757
2273.000000	0.284467
2274.000000	0.282833
2275.000000	0.281615
2276.000000	0.280604
2277.000000	0.279435
2278.000000	0.278226
2279.000000	0.276501
2280.000000	0.274606
2281.000000	0.272438
2282.000000	0.271291
2283.000000	0.270564
2284.000000	0.269201
2285.000000	0.267712
2286.000000	0.266060
2287.000000	0.264596
2288.000000	0.263329
2289.000000	0.262597
2290.000000	0.260932
2291.000000	0.258986
2292.000000	0.257808
2293.000000	0.256031
2294.000000	0.254295
2295.000000	0.252445
2296.000000	0.251368
2297.000000	0.249723
2298.000000	0.249672
2299.000000	0.251720
2300.000000	0.252215
2301.000000	0.252669
2302.000000	0.253035
2303.000000	0.252377
2304.000000	0.252483
2305.000000	0.253260
2306.000000	0.254032
2307.000000	0.254951
2308.000000	0.255895
2309.000000	0.256735
2310.000000	0.257376
2311.000000	0.257994
2312.000000	0.258455
2313.000000	0.259226
2314.000000	0.259840
2315.000000	0.260279
2316.000000	0.260791
2317.000000	0.260814
2318.000000	0.261253
2319.000000	0.261746
2320.000000	0.261525
2321.000000	0.261589
2322.000000	0.261224
2323.000000	0.259960
2324.000000	0.259343
2325.000000	0.259290
2326.000000	0.258591
2327.000000	0.257607
2328.000000	0.257185
2329.000000	0.256624
2330.000000	0.255270
2331.000000	0.254849
2332.000000	0.255551
2333.000000	0.255450
2334.000000	0.255031
2335.000000	0.254841
2336.000000	0.254122
2337.000000	0.252680
2338.000000	0.251019
2339.000000	0.249717
2340.000000	0.247528
2341.000000	0.246497
2342.000000	0.246023
2343.000000	0.245621
2344.000000	0.246367
2345.000000	0.246031
2346.000000	0.246028
2347.000000	0.244921
2348.000000	0.242865
2349.000000	0.239698
2350.000000	0.237465
2351.000000	0.235049
2352.000000	0.233235
2353.000000	0.234128
2354.000000	0.234045
2355.000000	0.233931
2356.000000	0.233345
2357.000000	0.231144
2358.000000	0.229428
2359.000000	0.227400
2360.000000	0.226960
2361.000000	0.227301
2362.000000	0.226106
2363.000000	0.225528
2364.000000	0.222848
2365.000000	0.220061
2366.000000	0.218169
2367.000000	0.215786
2368.000000	0.216291
2369.000000	0.216177
2370.000000	0.215612
2371.000000	0.216207
2372.000000	0.215001
2373.000000	0.213863
2374.000000	0.212570
2375.000000	0.210958
2376.000000	0.211132
2377.000000	0.209556
2378.000000	0.206650
2379.000000	0.205253
2380.000000	0.202394
2381.000000	0.200296
2382.000000	0.200344
2383.000000	0.200165
2384.000000	0.200223
2385.000000	0.201175
2386.000000	0.201616
2387.000000	0.199827
2388.000000	0.197829
2389.000000	0.195226
2390.000000	0.192850
2391.000000	0.192217
2392.000000	0.191864
2393.000000	0.191925
2394.000000	0.192468
2395.000000	0.192718
2396.000000	0.193047
2397.000000	0.193139
2398.000000	0.191753
2399.000000	0.192595
2400.000000	0.193234
2401.000000	0.192053
2402.000000	0.191514
2403.000000	0.189360
2404.000000	0.187458
2405.000000	0.186938
2406.000000	0.187986
2407.000000	0.189009
2408.000000	0.188513
2409.000000	0.185884
2410.000000	0.183240
2411.000000	0.183494
2412.000000	0.183429
2413.000000	0.184527
2414.000000	0.184610
2415.000000	0.180595
2416.000000	0.177104
2417.000000	0.176618
2418.000000	0.178683
2419.000000	0.182652
2420.000000	0.187981
2421.000000	0.188181
2422.000000	0.185279
2423.000000	0.185023
2424.000000	0.183103
2425.000000	0.182873
2426.000000	0.185976
2427.000000	0.186718
2428.000000	0.187538
2429.000000	0.188495
2430.000000	0.186234
2431.000000	0.184186
2432.000000	0.179840
2433.000000	0.175300
2434.000000	0.174272
2435.000000	0.173080
2436.000000	0.176715
2437.000000	0.180666
2438.000000	0.181455
2439.000000	0.180774
2440.000000	0.178260
2441.000000	0.178288
2442.000000	0.178912
2443.000000	0.179174
2444.000000	0.180198
2445.000000	0.179127
2446.000000	0.174038
2447.000000	0.168822
2448.000000	0.166160
2449.000000	0.163289
2450.000000	0.164191
2451.000000	0.173942
2452.000000	0.178463
2453.000000	0.174981
2454.000000	0.173304
2455.000000	0.167077
2456.000000	0.161720
2457.000000	0.165875
2458.000000	0.168129
2459.000000	0.167723
2460.000000	0.171971
2461.000000	0.171703
2462.000000	0.171183
2463.000000	0.168839
2464.000000	0.161964
2465.000000	0.158998
2466.000000	0.153362
2467.000000	0.148823
2468.000000	0.144288
2469.000000	0.137253
2470.000000	0.136918
2471.000000	0.138934
2472.000000	0.144361
2473.000000	0.153179
2474.000000	0.160846
2475.000000	0.172528
2476.000000	0.174724
2477.000000	0.174798
2478.000000	0.179665
2479.000000	0.173900
2480.000000	0.174448
2481.000000	0.178434
2482.000000	0.176713
2483.000000	0.178803
2484.000000	0.184285
2485.000000	0.189372
2486.000000	0.185322
2487.000000	0.181375
2488.000000	0.180236
2489.000000	0.165176
2490.000000	0.154220
2491.000000	0.161964
2492.000000	0.158090
2493.000000	0.168699
2494.000000	0.169588
2495.000000	0.145994
2496.000000	0.125751
2497.000000	0.091758
2498.000000	0.080382
2499.000000	0.092433
2500.000000	0.094427
