# Wavelength	NAu-1-40_HEX-10_FV7-50_00002.asd.rts.txt
350.000000	0.160899
351.000000	0.164402
352.000000	0.142443
353.000000	0.133681
354.000000	0.149391
355.000000	0.145551
356.000000	0.139115
357.000000	0.138921
358.000000	0.147702
359.000000	0.141524
360.000000	0.131346
361.000000	0.133477
362.000000	0.139413
363.000000	0.142495
364.000000	0.140488
365.000000	0.141151
366.000000	0.146606
367.000000	0.152238
368.000000	0.147274
369.000000	0.145957
370.000000	0.146726
371.000000	0.144259
372.000000	0.141820
373.000000	0.143761
374.000000	0.150472
375.000000	0.151822
376.000000	0.150746
377.000000	0.148479
378.000000	0.144585
379.000000	0.150719
380.000000	0.158435
381.000000	0.155519
382.000000	0.152046
383.000000	0.152235
384.000000	0.156488
385.000000	0.157275
386.000000	0.157194
387.000000	0.157599
388.000000	0.158509
389.000000	0.157808
390.000000	0.157700
391.000000	0.161180
392.000000	0.163988
393.000000	0.165101
394.000000	0.164599
395.000000	0.163527
396.000000	0.165919
397.000000	0.170877
398.000000	0.170977
399.000000	0.171136
400.000000	0.171932
401.000000	0.172337
402.000000	0.173582
403.000000	0.174949
404.000000	0.175844
405.000000	0.176908
406.000000	0.178334
407.000000	0.179777
408.000000	0.179689
409.000000	0.180035
410.000000	0.180976
411.000000	0.181663
412.000000	0.183266
413.000000	0.184683
414.000000	0.184796
415.000000	0.185138
416.000000	0.185791
417.000000	0.186514
418.000000	0.186527
419.000000	0.187009
420.000000	0.187854
421.000000	0.187851
422.000000	0.187917
423.000000	0.187952
424.000000	0.187741
425.000000	0.188230
426.000000	0.188885
427.000000	0.189184
428.000000	0.189296
429.000000	0.189064
430.000000	0.188820
431.000000	0.189686
432.000000	0.190074
433.000000	0.190013
434.000000	0.190303
435.000000	0.190474
436.000000	0.190348
437.000000	0.189946
438.000000	0.190107
439.000000	0.189943
440.000000	0.189300
441.000000	0.189391
442.000000	0.189060
443.000000	0.188533
444.000000	0.189130
445.000000	0.189108
446.000000	0.188738
447.000000	0.188721
448.000000	0.189539
449.000000	0.190669
450.000000	0.191633
451.000000	0.192242
452.000000	0.193352
453.000000	0.195015
454.000000	0.196573
455.000000	0.198035
456.000000	0.199454
457.000000	0.200838
458.000000	0.202852
459.000000	0.204944
460.000000	0.206565
461.000000	0.207815
462.000000	0.209098
463.000000	0.210391
464.000000	0.211318
465.000000	0.212279
466.000000	0.213223
467.000000	0.213929
468.000000	0.214565
469.000000	0.215183
470.000000	0.215909
471.000000	0.216438
472.000000	0.216926
473.000000	0.217504
474.000000	0.218063
475.000000	0.218367
476.000000	0.218562
477.000000	0.218897
478.000000	0.219486
479.000000	0.220263
480.000000	0.220774
481.000000	0.221036
482.000000	0.221344
483.000000	0.221765
484.000000	0.222264
485.000000	0.222807
486.000000	0.223410
487.000000	0.223599
488.000000	0.223946
489.000000	0.224547
490.000000	0.225180
491.000000	0.225671
492.000000	0.226037
493.000000	0.226288
494.000000	0.226884
495.000000	0.227524
496.000000	0.227963
497.000000	0.228494
498.000000	0.229062
499.000000	0.229655
500.000000	0.230124
501.000000	0.230603
502.000000	0.231147
503.000000	0.231702
504.000000	0.232278
505.000000	0.232875
506.000000	0.233481
507.000000	0.234005
508.000000	0.234568
509.000000	0.235193
510.000000	0.235838
511.000000	0.236369
512.000000	0.236882
513.000000	0.237624
514.000000	0.238226
515.000000	0.238750
516.000000	0.239324
517.000000	0.239909
518.000000	0.240592
519.000000	0.241336
520.000000	0.242048
521.000000	0.242637
522.000000	0.243147
523.000000	0.243806
524.000000	0.244567
525.000000	0.245335
526.000000	0.246021
527.000000	0.246733
528.000000	0.247441
529.000000	0.248157
530.000000	0.248993
531.000000	0.249777
532.000000	0.250391
533.000000	0.251236
534.000000	0.252088
535.000000	0.252848
536.000000	0.253555
537.000000	0.254330
538.000000	0.255145
539.000000	0.255904
540.000000	0.256696
541.000000	0.257444
542.000000	0.258111
543.000000	0.258732
544.000000	0.259466
545.000000	0.260283
546.000000	0.261045
547.000000	0.261804
548.000000	0.262603
549.000000	0.263405
550.000000	0.264167
551.000000	0.264930
552.000000	0.265696
553.000000	0.266395
554.000000	0.267059
555.000000	0.267746
556.000000	0.268555
557.000000	0.269268
558.000000	0.269966
559.000000	0.270766
560.000000	0.271466
561.000000	0.272140
562.000000	0.272845
563.000000	0.273511
564.000000	0.274179
565.000000	0.274796
566.000000	0.275390
567.000000	0.275970
568.000000	0.276540
569.000000	0.277179
570.000000	0.277774
571.000000	0.278300
572.000000	0.278832
573.000000	0.279333
574.000000	0.279800
575.000000	0.280291
576.000000	0.280736
577.000000	0.281113
578.000000	0.281500
579.000000	0.281997
580.000000	0.282463
581.000000	0.282827
582.000000	0.283137
583.000000	0.283513
584.000000	0.283918
585.000000	0.284213
586.000000	0.284452
587.000000	0.284723
588.000000	0.285094
589.000000	0.285412
590.000000	0.285704
591.000000	0.285978
592.000000	0.286137
593.000000	0.286344
594.000000	0.286609
595.000000	0.286801
596.000000	0.286989
597.000000	0.287206
598.000000	0.287370
599.000000	0.287473
600.000000	0.287611
601.000000	0.287784
602.000000	0.287996
603.000000	0.288124
604.000000	0.288168
605.000000	0.288329
606.000000	0.288401
607.000000	0.288405
608.000000	0.288502
609.000000	0.288677
610.000000	0.288820
611.000000	0.288834
612.000000	0.288888
613.000000	0.288983
614.000000	0.289109
615.000000	0.289105
616.000000	0.289224
617.000000	0.289428
618.000000	0.289485
619.000000	0.289566
620.000000	0.289658
621.000000	0.289747
622.000000	0.289863
623.000000	0.289957
624.000000	0.290006
625.000000	0.290148
626.000000	0.290249
627.000000	0.290289
628.000000	0.290432
629.000000	0.290652
630.000000	0.290781
631.000000	0.290853
632.000000	0.290940
633.000000	0.291057
634.000000	0.291185
635.000000	0.291329
636.000000	0.291445
637.000000	0.291516
638.000000	0.291667
639.000000	0.291762
640.000000	0.291849
641.000000	0.291962
642.000000	0.292121
643.000000	0.292328
644.000000	0.292563
645.000000	0.292687
646.000000	0.292778
647.000000	0.292898
648.000000	0.293121
649.000000	0.293337
650.000000	0.293491
651.000000	0.293658
652.000000	0.293775
653.000000	0.293936
654.000000	0.294202
655.000000	0.294331
656.000000	0.294455
657.000000	0.294662
658.000000	0.294864
659.000000	0.295076
660.000000	0.295296
661.000000	0.295536
662.000000	0.295683
663.000000	0.295833
664.000000	0.296105
665.000000	0.296366
666.000000	0.296616
667.000000	0.296846
668.000000	0.297032
669.000000	0.297225
670.000000	0.297458
671.000000	0.297703
672.000000	0.297942
673.000000	0.298165
674.000000	0.298391
675.000000	0.298685
676.000000	0.298981
677.000000	0.299215
678.000000	0.299532
679.000000	0.299813
680.000000	0.300002
681.000000	0.300218
682.000000	0.300475
683.000000	0.300737
684.000000	0.301144
685.000000	0.301428
686.000000	0.301675
687.000000	0.302014
688.000000	0.302263
689.000000	0.302480
690.000000	0.302759
691.000000	0.303044
692.000000	0.303339
693.000000	0.303696
694.000000	0.304041
695.000000	0.304372
696.000000	0.304720
697.000000	0.305123
698.000000	0.305425
699.000000	0.305699
700.000000	0.306016
701.000000	0.306266
702.000000	0.306567
703.000000	0.306923
704.000000	0.307230
705.000000	0.307604
706.000000	0.307960
707.000000	0.308238
708.000000	0.308552
709.000000	0.308871
710.000000	0.309172
711.000000	0.309434
712.000000	0.309722
713.000000	0.310081
714.000000	0.310490
715.000000	0.310859
716.000000	0.311186
717.000000	0.311484
718.000000	0.311746
719.000000	0.312047
720.000000	0.312444
721.000000	0.312837
722.000000	0.313133
723.000000	0.313373
724.000000	0.313589
725.000000	0.313796
726.000000	0.314073
727.000000	0.314348
728.000000	0.314656
729.000000	0.314993
730.000000	0.315297
731.000000	0.315599
732.000000	0.315880
733.000000	0.316166
734.000000	0.316410
735.000000	0.316658
736.000000	0.316984
737.000000	0.317206
738.000000	0.317297
739.000000	0.317456
740.000000	0.317654
741.000000	0.317895
742.000000	0.318119
743.000000	0.318307
744.000000	0.318576
745.000000	0.318774
746.000000	0.318940
747.000000	0.319080
748.000000	0.319285
749.000000	0.319474
750.000000	0.319584
751.000000	0.319798
752.000000	0.319978
753.000000	0.320093
754.000000	0.320168
755.000000	0.320347
756.000000	0.320546
757.000000	0.320612
758.000000	0.320781
759.000000	0.320988
760.000000	0.321106
761.000000	0.321221
762.000000	0.321307
763.000000	0.321361
764.000000	0.321470
765.000000	0.321514
766.000000	0.321552
767.000000	0.321642
768.000000	0.321725
769.000000	0.321782
770.000000	0.321815
771.000000	0.321850
772.000000	0.321829
773.000000	0.321731
774.000000	0.321686
775.000000	0.321627
776.000000	0.321611
777.000000	0.321643
778.000000	0.321620
779.000000	0.321635
780.000000	0.321693
781.000000	0.321688
782.000000	0.321670
783.000000	0.321693
784.000000	0.321634
785.000000	0.321661
786.000000	0.321650
787.000000	0.321531
788.000000	0.321366
789.000000	0.321283
790.000000	0.321209
791.000000	0.321029
792.000000	0.320949
793.000000	0.320872
794.000000	0.320723
795.000000	0.320662
796.000000	0.320530
797.000000	0.320320
798.000000	0.320201
799.000000	0.320045
800.000000	0.319864
801.000000	0.319729
802.000000	0.319775
803.000000	0.319726
804.000000	0.319531
805.000000	0.319497
806.000000	0.319354
807.000000	0.319212
808.000000	0.319183
809.000000	0.319024
810.000000	0.318807
811.000000	0.318609
812.000000	0.318427
813.000000	0.318201
814.000000	0.317958
815.000000	0.317828
816.000000	0.317656
817.000000	0.317485
818.000000	0.317312
819.000000	0.317248
820.000000	0.317176
821.000000	0.317005
822.000000	0.316859
823.000000	0.316678
824.000000	0.316445
825.000000	0.316277
826.000000	0.316095
827.000000	0.315881
828.000000	0.315708
829.000000	0.315694
830.000000	0.315573
831.000000	0.315391
832.000000	0.315194
833.000000	0.314988
834.000000	0.314821
835.000000	0.314727
836.000000	0.314529
837.000000	0.314338
838.000000	0.314214
839.000000	0.314119
840.000000	0.313919
841.000000	0.313720
842.000000	0.313582
843.000000	0.313400
844.000000	0.313205
845.000000	0.312969
846.000000	0.312678
847.000000	0.312459
848.000000	0.312310
849.000000	0.312201
850.000000	0.311927
851.000000	0.311678
852.000000	0.311548
853.000000	0.311363
854.000000	0.311114
855.000000	0.310943
856.000000	0.310815
857.000000	0.310544
858.000000	0.310388
859.000000	0.310342
860.000000	0.310164
861.000000	0.309974
862.000000	0.309783
863.000000	0.309498
864.000000	0.309220
865.000000	0.308944
866.000000	0.308701
867.000000	0.308534
868.000000	0.308329
869.000000	0.308105
870.000000	0.308030
871.000000	0.307902
872.000000	0.307724
873.000000	0.307501
874.000000	0.307446
875.000000	0.307243
876.000000	0.306927
877.000000	0.306603
878.000000	0.306222
879.000000	0.305907
880.000000	0.305630
881.000000	0.305568
882.000000	0.305459
883.000000	0.305302
884.000000	0.305141
885.000000	0.305056
886.000000	0.304951
887.000000	0.304801
888.000000	0.304667
889.000000	0.304446
890.000000	0.304159
891.000000	0.304058
892.000000	0.303805
893.000000	0.303463
894.000000	0.303248
895.000000	0.303174
896.000000	0.303070
897.000000	0.302820
898.000000	0.302416
899.000000	0.302322
900.000000	0.302103
901.000000	0.301637
902.000000	0.301435
903.000000	0.301196
904.000000	0.300949
905.000000	0.300706
906.000000	0.300605
907.000000	0.300499
908.000000	0.300349
909.000000	0.300077
910.000000	0.299865
911.000000	0.299748
912.000000	0.299693
913.000000	0.299501
914.000000	0.299353
915.000000	0.299308
916.000000	0.299159
917.000000	0.298958
918.000000	0.298844
919.000000	0.298829
920.000000	0.298652
921.000000	0.298423
922.000000	0.298147
923.000000	0.297775
924.000000	0.297508
925.000000	0.297260
926.000000	0.297033
927.000000	0.296935
928.000000	0.296838
929.000000	0.296700
930.000000	0.296516
931.000000	0.296259
932.000000	0.296006
933.000000	0.295795
934.000000	0.295520
935.000000	0.295347
936.000000	0.295253
937.000000	0.295087
938.000000	0.294900
939.000000	0.294674
940.000000	0.294497
941.000000	0.294610
942.000000	0.294280
943.000000	0.293968
944.000000	0.293905
945.000000	0.294081
946.000000	0.293831
947.000000	0.293463
948.000000	0.293413
949.000000	0.293302
950.000000	0.293219
951.000000	0.293095
952.000000	0.292818
953.000000	0.292432
954.000000	0.292278
955.000000	0.292385
956.000000	0.292148
957.000000	0.291946
958.000000	0.291809
959.000000	0.291755
960.000000	0.291810
961.000000	0.291738
962.000000	0.291443
963.000000	0.291091
964.000000	0.291020
965.000000	0.290989
966.000000	0.290702
967.000000	0.290642
968.000000	0.290678
969.000000	0.290548
970.000000	0.290152
971.000000	0.290045
972.000000	0.290055
973.000000	0.289954
974.000000	0.289715
975.000000	0.289305
976.000000	0.289195
977.000000	0.289572
978.000000	0.289556
979.000000	0.289552
980.000000	0.289455
981.000000	0.289424
982.000000	0.289356
983.000000	0.289268
984.000000	0.289134
985.000000	0.288759
986.000000	0.288658
987.000000	0.288755
988.000000	0.288743
989.000000	0.288491
990.000000	0.288235
991.000000	0.288136
992.000000	0.288296
993.000000	0.288492
994.000000	0.288431
995.000000	0.288347
996.000000	0.288428
997.000000	0.288345
998.000000	0.288389
999.000000	0.288633
1000.000000	0.288485
1001.000000	0.288624
1002.000000	0.288498
1003.000000	0.288385
1004.000000	0.288297
1005.000000	0.287231
1006.000000	0.287064
1007.000000	0.287617
1008.000000	0.288200
1009.000000	0.288251
1010.000000	0.288630
1011.000000	0.288471
1012.000000	0.288234
1013.000000	0.288662
1014.000000	0.288542
1015.000000	0.287960
1016.000000	0.288423
1017.000000	0.288128
1018.000000	0.287232
1019.000000	0.287415
1020.000000	0.288616
1021.000000	0.288610
1022.000000	0.289113
1023.000000	0.289499
1024.000000	0.289381
1025.000000	0.288641
1026.000000	0.288041
1027.000000	0.287554
1028.000000	0.287441
1029.000000	0.287717
1030.000000	0.288769
1031.000000	0.289764
1032.000000	0.290304
1033.000000	0.290620
1034.000000	0.290592
1035.000000	0.290194
1036.000000	0.290008
1037.000000	0.289171
1038.000000	0.289026
1039.000000	0.289708
1040.000000	0.289651
1041.000000	0.289599
1042.000000	0.290099
1043.000000	0.289840
1044.000000	0.290183
1045.000000	0.290709
1046.000000	0.291030
1047.000000	0.291608
1048.000000	0.292393
1049.000000	0.292758
1050.000000	0.293101
1051.000000	0.293407
1052.000000	0.293477
1053.000000	0.293604
1054.000000	0.293995
1055.000000	0.294170
1056.000000	0.294112
1057.000000	0.294152
1058.000000	0.294617
1059.000000	0.294945
1060.000000	0.295346
1061.000000	0.295910
1062.000000	0.295868
1063.000000	0.296097
1064.000000	0.296393
1065.000000	0.296802
1066.000000	0.297019
1067.000000	0.297095
1068.000000	0.297363
1069.000000	0.297705
1070.000000	0.297955
1071.000000	0.298292
1072.000000	0.298644
1073.000000	0.298936
1074.000000	0.299222
1075.000000	0.299875
1076.000000	0.300416
1077.000000	0.300594
1078.000000	0.301130
1079.000000	0.301463
1080.000000	0.301677
1081.000000	0.301908
1082.000000	0.302206
1083.000000	0.302421
1084.000000	0.302431
1085.000000	0.302867
1086.000000	0.303752
1087.000000	0.304195
1088.000000	0.304472
1089.000000	0.304801
1090.000000	0.305037
1091.000000	0.304862
1092.000000	0.304953
1093.000000	0.305458
1094.000000	0.305697
1095.000000	0.305783
1096.000000	0.305893
1097.000000	0.305869
1098.000000	0.306186
1099.000000	0.306539
1100.000000	0.306983
1101.000000	0.307764
1102.000000	0.308295
1103.000000	0.308843
1104.000000	0.309079
1105.000000	0.308821
1106.000000	0.309052
1107.000000	0.309139
1108.000000	0.309431
1109.000000	0.310322
1110.000000	0.311170
1111.000000	0.311619
1112.000000	0.311813
1113.000000	0.312182
1114.000000	0.312372
1115.000000	0.312730
1116.000000	0.313328
1117.000000	0.313690
1118.000000	0.313904
1119.000000	0.314149
1120.000000	0.314365
1121.000000	0.314557
1122.000000	0.314880
1123.000000	0.315232
1124.000000	0.315109
1125.000000	0.315383
1126.000000	0.315813
1127.000000	0.316150
1128.000000	0.316537
1129.000000	0.317264
1130.000000	0.317543
1131.000000	0.317560
1132.000000	0.317709
1133.000000	0.317766
1134.000000	0.317999
1135.000000	0.318426
1136.000000	0.318534
1137.000000	0.318420
1138.000000	0.318509
1139.000000	0.318647
1140.000000	0.318808
1141.000000	0.319060
1142.000000	0.319321
1143.000000	0.319440
1144.000000	0.319692
1145.000000	0.319952
1146.000000	0.320077
1147.000000	0.320237
1148.000000	0.320195
1149.000000	0.320393
1150.000000	0.320716
1151.000000	0.321023
1152.000000	0.321392
1153.000000	0.321672
1154.000000	0.321893
1155.000000	0.322065
1156.000000	0.322135
1157.000000	0.322323
1158.000000	0.322511
1159.000000	0.322656
1160.000000	0.322857
1161.000000	0.322988
1162.000000	0.322978
1163.000000	0.323308
1164.000000	0.323532
1165.000000	0.323511
1166.000000	0.323640
1167.000000	0.323697
1168.000000	0.323801
1169.000000	0.324001
1170.000000	0.324172
1171.000000	0.324417
1172.000000	0.324592
1173.000000	0.324657
1174.000000	0.324800
1175.000000	0.324960
1176.000000	0.325006
1177.000000	0.325057
1178.000000	0.325190
1179.000000	0.325284
1180.000000	0.325348
1181.000000	0.325543
1182.000000	0.325780
1183.000000	0.326005
1184.000000	0.326134
1185.000000	0.326342
1186.000000	0.326662
1187.000000	0.326755
1188.000000	0.326759
1189.000000	0.326801
1190.000000	0.326739
1191.000000	0.326808
1192.000000	0.327094
1193.000000	0.327318
1194.000000	0.327442
1195.000000	0.327564
1196.000000	0.327605
1197.000000	0.327682
1198.000000	0.327781
1199.000000	0.327848
1200.000000	0.327900
1201.000000	0.327938
1202.000000	0.327905
1203.000000	0.328019
1204.000000	0.328146
1205.000000	0.328200
1206.000000	0.328258
1207.000000	0.328434
1208.000000	0.328456
1209.000000	0.328500
1210.000000	0.328517
1211.000000	0.328393
1212.000000	0.328427
1213.000000	0.328570
1214.000000	0.328667
1215.000000	0.328825
1216.000000	0.328954
1217.000000	0.329039
1218.000000	0.329091
1219.000000	0.329207
1220.000000	0.329206
1221.000000	0.329189
1222.000000	0.329197
1223.000000	0.329246
1224.000000	0.329202
1225.000000	0.329174
1226.000000	0.329342
1227.000000	0.329442
1228.000000	0.329724
1229.000000	0.329838
1230.000000	0.329909
1231.000000	0.329808
1232.000000	0.329618
1233.000000	0.329710
1234.000000	0.329843
1235.000000	0.329956
1236.000000	0.330118
1237.000000	0.330265
1238.000000	0.330383
1239.000000	0.330368
1240.000000	0.330224
1241.000000	0.330265
1242.000000	0.330332
1243.000000	0.330304
1244.000000	0.330481
1245.000000	0.330671
1246.000000	0.330678
1247.000000	0.330890
1248.000000	0.331157
1249.000000	0.331424
1250.000000	0.331531
1251.000000	0.331350
1252.000000	0.331305
1253.000000	0.331227
1254.000000	0.331148
1255.000000	0.331126
1256.000000	0.331098
1257.000000	0.331033
1258.000000	0.331000
1259.000000	0.330863
1260.000000	0.330953
1261.000000	0.331110
1262.000000	0.331200
1263.000000	0.331459
1264.000000	0.331617
1265.000000	0.331522
1266.000000	0.331358
1267.000000	0.331218
1268.000000	0.331186
1269.000000	0.331335
1270.000000	0.331523
1271.000000	0.331658
1272.000000	0.331767
1273.000000	0.331705
1274.000000	0.331625
1275.000000	0.331612
1276.000000	0.331698
1277.000000	0.331735
1278.000000	0.331656
1279.000000	0.331625
1280.000000	0.331531
1281.000000	0.331407
1282.000000	0.331294
1283.000000	0.331350
1284.000000	0.331394
1285.000000	0.331408
1286.000000	0.331434
1287.000000	0.331589
1288.000000	0.331650
1289.000000	0.331687
1290.000000	0.331677
1291.000000	0.331667
1292.000000	0.331705
1293.000000	0.331647
1294.000000	0.331655
1295.000000	0.331744
1296.000000	0.331730
1297.000000	0.331736
1298.000000	0.331834
1299.000000	0.331893
1300.000000	0.331824
1301.000000	0.331834
1302.000000	0.331828
1303.000000	0.331886
1304.000000	0.331845
1305.000000	0.331966
1306.000000	0.331935
1307.000000	0.331831
1308.000000	0.331808
1309.000000	0.331797
1310.000000	0.331744
1311.000000	0.331690
1312.000000	0.331572
1313.000000	0.331550
1314.000000	0.331467
1315.000000	0.331341
1316.000000	0.331287
1317.000000	0.331289
1318.000000	0.331254
1319.000000	0.331221
1320.000000	0.331278
1321.000000	0.331111
1322.000000	0.330960
1323.000000	0.330841
1324.000000	0.330655
1325.000000	0.330639
1326.000000	0.330590
1327.000000	0.330545
1328.000000	0.330507
1329.000000	0.330391
1330.000000	0.330173
1331.000000	0.330157
1332.000000	0.330242
1333.000000	0.330339
1334.000000	0.330703
1335.000000	0.330792
1336.000000	0.330726
1337.000000	0.330693
1338.000000	0.330539
1339.000000	0.330305
1340.000000	0.330228
1341.000000	0.330319
1342.000000	0.330369
1343.000000	0.330397
1344.000000	0.330243
1345.000000	0.330023
1346.000000	0.330006
1347.000000	0.329864
1348.000000	0.329825
1349.000000	0.329729
1350.000000	0.329683
1351.000000	0.329789
1352.000000	0.329773
1353.000000	0.329769
1354.000000	0.329733
1355.000000	0.329540
1356.000000	0.329455
1357.000000	0.329299
1358.000000	0.329168
1359.000000	0.329083
1360.000000	0.328931
1361.000000	0.328779
1362.000000	0.328722
1363.000000	0.328643
1364.000000	0.328581
1365.000000	0.328634
1366.000000	0.328615
1367.000000	0.328580
1368.000000	0.328350
1369.000000	0.328296
1370.000000	0.328155
1371.000000	0.327943
1372.000000	0.327779
1373.000000	0.327562
1374.000000	0.327422
1375.000000	0.327149
1376.000000	0.326936
1377.000000	0.326910
1378.000000	0.326660
1379.000000	0.326344
1380.000000	0.326217
1381.000000	0.325894
1382.000000	0.325537
1383.000000	0.325378
1384.000000	0.324976
1385.000000	0.324464
1386.000000	0.324073
1387.000000	0.323433
1388.000000	0.322724
1389.000000	0.322249
1390.000000	0.321709
1391.000000	0.321190
1392.000000	0.320846
1393.000000	0.320364
1394.000000	0.319794
1395.000000	0.319340
1396.000000	0.318943
1397.000000	0.318380
1398.000000	0.317709
1399.000000	0.317127
1400.000000	0.316502
1401.000000	0.315848
1402.000000	0.315305
1403.000000	0.314661
1404.000000	0.313992
1405.000000	0.313363
1406.000000	0.312679
1407.000000	0.312019
1408.000000	0.311315
1409.000000	0.310734
1410.000000	0.310292
1411.000000	0.309951
1412.000000	0.309625
1413.000000	0.309257
1414.000000	0.308932
1415.000000	0.308520
1416.000000	0.308217
1417.000000	0.308078
1418.000000	0.307885
1419.000000	0.307936
1420.000000	0.308034
1421.000000	0.308074
1422.000000	0.308019
1423.000000	0.307968
1424.000000	0.307811
1425.000000	0.307475
1426.000000	0.307118
1427.000000	0.306887
1428.000000	0.306642
1429.000000	0.306443
1430.000000	0.306390
1431.000000	0.306400
1432.000000	0.306294
1433.000000	0.306064
1434.000000	0.306057
1435.000000	0.306174
1436.000000	0.306301
1437.000000	0.306577
1438.000000	0.306857
1439.000000	0.307144
1440.000000	0.307523
1441.000000	0.308004
1442.000000	0.308561
1443.000000	0.309164
1444.000000	0.309729
1445.000000	0.310267
1446.000000	0.310827
1447.000000	0.311215
1448.000000	0.311520
1449.000000	0.311928
1450.000000	0.312369
1451.000000	0.312816
1452.000000	0.313151
1453.000000	0.313438
1454.000000	0.313646
1455.000000	0.313729
1456.000000	0.313973
1457.000000	0.314224
1458.000000	0.314297
1459.000000	0.314415
1460.000000	0.314449
1461.000000	0.314381
1462.000000	0.314498
1463.000000	0.314514
1464.000000	0.314519
1465.000000	0.314680
1466.000000	0.314629
1467.000000	0.314606
1468.000000	0.314695
1469.000000	0.314798
1470.000000	0.314855
1471.000000	0.314953
1472.000000	0.315115
1473.000000	0.315320
1474.000000	0.315500
1475.000000	0.315623
1476.000000	0.315704
1477.000000	0.315774
1478.000000	0.315881
1479.000000	0.316150
1480.000000	0.316341
1481.000000	0.316431
1482.000000	0.316469
1483.000000	0.316611
1484.000000	0.316685
1485.000000	0.316861
1486.000000	0.317197
1487.000000	0.317371
1488.000000	0.317440
1489.000000	0.317634
1490.000000	0.317774
1491.000000	0.317922
1492.000000	0.318053
1493.000000	0.318234
1494.000000	0.318334
1495.000000	0.318432
1496.000000	0.318638
1497.000000	0.318764
1498.000000	0.318812
1499.000000	0.318898
1500.000000	0.319114
1501.000000	0.319262
1502.000000	0.319449
1503.000000	0.319661
1504.000000	0.319741
1505.000000	0.319820
1506.000000	0.319940
1507.000000	0.320068
1508.000000	0.320289
1509.000000	0.320482
1510.000000	0.320522
1511.000000	0.320564
1512.000000	0.320634
1513.000000	0.320620
1514.000000	0.320787
1515.000000	0.320962
1516.000000	0.320967
1517.000000	0.321047
1518.000000	0.321141
1519.000000	0.321098
1520.000000	0.321151
1521.000000	0.321257
1522.000000	0.321445
1523.000000	0.321721
1524.000000	0.321810
1525.000000	0.321822
1526.000000	0.321726
1527.000000	0.321629
1528.000000	0.321826
1529.000000	0.322017
1530.000000	0.322073
1531.000000	0.322181
1532.000000	0.322148
1533.000000	0.322155
1534.000000	0.322386
1535.000000	0.322596
1536.000000	0.322665
1537.000000	0.322808
1538.000000	0.322906
1539.000000	0.322778
1540.000000	0.322758
1541.000000	0.322888
1542.000000	0.322904
1543.000000	0.322920
1544.000000	0.322977
1545.000000	0.323079
1546.000000	0.323212
1547.000000	0.323347
1548.000000	0.323604
1549.000000	0.323726
1550.000000	0.323718
1551.000000	0.323795
1552.000000	0.323778
1553.000000	0.323715
1554.000000	0.323647
1555.000000	0.323619
1556.000000	0.323708
1557.000000	0.323796
1558.000000	0.323932
1559.000000	0.324191
1560.000000	0.324206
1561.000000	0.324084
1562.000000	0.324060
1563.000000	0.323988
1564.000000	0.324010
1565.000000	0.324209
1566.000000	0.324176
1567.000000	0.324124
1568.000000	0.324052
1569.000000	0.323904
1570.000000	0.323897
1571.000000	0.323963
1572.000000	0.323986
1573.000000	0.324107
1574.000000	0.324124
1575.000000	0.324063
1576.000000	0.324072
1577.000000	0.324068
1578.000000	0.324024
1579.000000	0.324105
1580.000000	0.324045
1581.000000	0.323867
1582.000000	0.323808
1583.000000	0.323716
1584.000000	0.323681
1585.000000	0.323907
1586.000000	0.323975
1587.000000	0.323987
1588.000000	0.323968
1589.000000	0.323846
1590.000000	0.323850
1591.000000	0.323880
1592.000000	0.323958
1593.000000	0.324236
1594.000000	0.324294
1595.000000	0.324342
1596.000000	0.324381
1597.000000	0.324283
1598.000000	0.324255
1599.000000	0.324298
1600.000000	0.324303
1601.000000	0.324460
1602.000000	0.324434
1603.000000	0.324335
1604.000000	0.324273
1605.000000	0.324120
1606.000000	0.323989
1607.000000	0.323995
1608.000000	0.323878
1609.000000	0.323725
1610.000000	0.323611
1611.000000	0.323485
1612.000000	0.323401
1613.000000	0.323436
1614.000000	0.323429
1615.000000	0.323467
1616.000000	0.323566
1617.000000	0.323709
1618.000000	0.323723
1619.000000	0.323695
1620.000000	0.323723
1621.000000	0.323677
1622.000000	0.323747
1623.000000	0.323902
1624.000000	0.323985
1625.000000	0.323953
1626.000000	0.323891
1627.000000	0.323789
1628.000000	0.323797
1629.000000	0.323798
1630.000000	0.323811
1631.000000	0.323822
1632.000000	0.323850
1633.000000	0.323878
1634.000000	0.323912
1635.000000	0.323995
1636.000000	0.324097
1637.000000	0.324288
1638.000000	0.324307
1639.000000	0.324347
1640.000000	0.324382
1641.000000	0.324301
1642.000000	0.324347
1643.000000	0.324620
1644.000000	0.324633
1645.000000	0.324524
1646.000000	0.324432
1647.000000	0.324245
1648.000000	0.324143
1649.000000	0.324208
1650.000000	0.324181
1651.000000	0.324147
1652.000000	0.324173
1653.000000	0.324168
1654.000000	0.324192
1655.000000	0.324213
1656.000000	0.324121
1657.000000	0.323999
1658.000000	0.323964
1659.000000	0.324063
1660.000000	0.324137
1661.000000	0.324198
1662.000000	0.324178
1663.000000	0.324044
1664.000000	0.323987
1665.000000	0.323922
1666.000000	0.323966
1667.000000	0.323973
1668.000000	0.323997
1669.000000	0.324056
1670.000000	0.324050
1671.000000	0.324133
1672.000000	0.324234
1673.000000	0.324288
1674.000000	0.324329
1675.000000	0.324478
1676.000000	0.324432
1677.000000	0.324345
1678.000000	0.324178
1679.000000	0.323999
1680.000000	0.324008
1681.000000	0.323963
1682.000000	0.323936
1683.000000	0.324090
1684.000000	0.324105
1685.000000	0.324184
1686.000000	0.324347
1687.000000	0.324359
1688.000000	0.324417
1689.000000	0.324539
1690.000000	0.324613
1691.000000	0.324725
1692.000000	0.324578
1693.000000	0.324393
1694.000000	0.324147
1695.000000	0.323908
1696.000000	0.323902
1697.000000	0.323763
1698.000000	0.323616
1699.000000	0.323581
1700.000000	0.323472
1701.000000	0.323565
1702.000000	0.323729
1703.000000	0.323802
1704.000000	0.324019
1705.000000	0.324172
1706.000000	0.324308
1707.000000	0.324434
1708.000000	0.324530
1709.000000	0.324529
1710.000000	0.324572
1711.000000	0.324566
1712.000000	0.324510
1713.000000	0.324429
1714.000000	0.324297
1715.000000	0.324274
1716.000000	0.324344
1717.000000	0.324316
1718.000000	0.324332
1719.000000	0.324191
1720.000000	0.323827
1721.000000	0.323742
1722.000000	0.323784
1723.000000	0.323738
1724.000000	0.323865
1725.000000	0.323865
1726.000000	0.323566
1727.000000	0.323510
1728.000000	0.323598
1729.000000	0.323403
1730.000000	0.323216
1731.000000	0.323119
1732.000000	0.322898
1733.000000	0.322896
1734.000000	0.322994
1735.000000	0.323017
1736.000000	0.323032
1737.000000	0.322942
1738.000000	0.322776
1739.000000	0.322791
1740.000000	0.322803
1741.000000	0.322768
1742.000000	0.322852
1743.000000	0.322956
1744.000000	0.322979
1745.000000	0.322919
1746.000000	0.322905
1747.000000	0.322966
1748.000000	0.322829
1749.000000	0.322630
1750.000000	0.322575
1751.000000	0.322534
1752.000000	0.322611
1753.000000	0.322871
1754.000000	0.323027
1755.000000	0.323009
1756.000000	0.323027
1757.000000	0.323077
1758.000000	0.323129
1759.000000	0.323149
1760.000000	0.323171
1761.000000	0.323181
1762.000000	0.323157
1763.000000	0.323155
1764.000000	0.323090
1765.000000	0.322888
1766.000000	0.322802
1767.000000	0.322652
1768.000000	0.322490
1769.000000	0.322456
1770.000000	0.322481
1771.000000	0.322457
1772.000000	0.322446
1773.000000	0.322485
1774.000000	0.322481
1775.000000	0.322537
1776.000000	0.322471
1777.000000	0.322269
1778.000000	0.322189
1779.000000	0.322005
1780.000000	0.322041
1781.000000	0.322307
1782.000000	0.322274
1783.000000	0.322209
1784.000000	0.322109
1785.000000	0.321956
1786.000000	0.321865
1787.000000	0.322026
1788.000000	0.322138
1789.000000	0.322140
1790.000000	0.322272
1791.000000	0.322291
1792.000000	0.322308
1793.000000	0.322324
1794.000000	0.322321
1795.000000	0.322336
1796.000000	0.322333
1797.000000	0.322344
1798.000000	0.322384
1799.000000	0.322367
1800.000000	0.322400
1801.000000	0.322388
1802.000000	0.322611
1803.000000	0.322152
1804.000000	0.322234
1805.000000	0.322955
1806.000000	0.323356
1807.000000	0.323588
1808.000000	0.323694
1809.000000	0.323893
1810.000000	0.324096
1811.000000	0.323647
1812.000000	0.322548
1813.000000	0.322046
1814.000000	0.321328
1815.000000	0.320910
1816.000000	0.320806
1817.000000	0.320598
1818.000000	0.320518
1819.000000	0.320508
1820.000000	0.320283
1821.000000	0.320392
1822.000000	0.320329
1823.000000	0.319815
1824.000000	0.319832
1825.000000	0.319913
1826.000000	0.320428
1827.000000	0.321242
1828.000000	0.322377
1829.000000	0.323196
1830.000000	0.323102
1831.000000	0.322857
1832.000000	0.321376
1833.000000	0.321162
1834.000000	0.321462
1835.000000	0.321484
1836.000000	0.321800
1837.000000	0.322027
1838.000000	0.321911
1839.000000	0.321865
1840.000000	0.321794
1841.000000	0.321702
1842.000000	0.321430
1843.000000	0.320584
1844.000000	0.320324
1845.000000	0.320059
1846.000000	0.319998
1847.000000	0.320099
1848.000000	0.320214
1849.000000	0.320176
1850.000000	0.320718
1851.000000	0.320657
1852.000000	0.320244
1853.000000	0.319898
1854.000000	0.318888
1855.000000	0.318282
1856.000000	0.317328
1857.000000	0.317454
1858.000000	0.317807
1859.000000	0.318781
1860.000000	0.320385
1861.000000	0.320975
1862.000000	0.320665
1863.000000	0.319388
1864.000000	0.318464
1865.000000	0.316358
1866.000000	0.315365
1867.000000	0.315005
1868.000000	0.314587
1869.000000	0.313917
1870.000000	0.313366
1871.000000	0.313217
1872.000000	0.312818
1873.000000	0.312354
1874.000000	0.312253
1875.000000	0.311675
1876.000000	0.310388
1877.000000	0.309134
1878.000000	0.307603
1879.000000	0.306505
1880.000000	0.305249
1881.000000	0.303260
1882.000000	0.302327
1883.000000	0.300984
1884.000000	0.299666
1885.000000	0.298716
1886.000000	0.297324
1887.000000	0.295663
1888.000000	0.293241
1889.000000	0.291233
1890.000000	0.288709
1891.000000	0.286200
1892.000000	0.284546
1893.000000	0.282306
1894.000000	0.280135
1895.000000	0.277925
1896.000000	0.275844
1897.000000	0.273403
1898.000000	0.271112
1899.000000	0.269038
1900.000000	0.266991
1901.000000	0.264694
1902.000000	0.262566
1903.000000	0.260905
1904.000000	0.259512
1905.000000	0.258265
1906.000000	0.257011
1907.000000	0.255949
1908.000000	0.254953
1909.000000	0.254558
1910.000000	0.254636
1911.000000	0.255121
1912.000000	0.255727
1913.000000	0.255659
1914.000000	0.255778
1915.000000	0.255505
1916.000000	0.255113
1917.000000	0.255163
1918.000000	0.255748
1919.000000	0.255521
1920.000000	0.256084
1921.000000	0.257147
1922.000000	0.257153
1923.000000	0.258258
1924.000000	0.258652
1925.000000	0.258160
1926.000000	0.258811
1927.000000	0.258989
1928.000000	0.258887
1929.000000	0.258633
1930.000000	0.258967
1931.000000	0.258907
1932.000000	0.259058
1933.000000	0.260102
1934.000000	0.261203
1935.000000	0.261934
1936.000000	0.262078
1937.000000	0.261633
1938.000000	0.261327
1939.000000	0.261447
1940.000000	0.261752
1941.000000	0.262426
1942.000000	0.263100
1943.000000	0.263566
1944.000000	0.263344
1945.000000	0.263042
1946.000000	0.263478
1947.000000	0.263633
1948.000000	0.263893
1949.000000	0.264513
1950.000000	0.264870
1951.000000	0.265159
1952.000000	0.265564
1953.000000	0.266065
1954.000000	0.266054
1955.000000	0.265730
1956.000000	0.265439
1957.000000	0.264959
1958.000000	0.264963
1959.000000	0.264881
1960.000000	0.265033
1961.000000	0.266382
1962.000000	0.267263
1963.000000	0.268394
1964.000000	0.269469
1965.000000	0.269679
1966.000000	0.268846
1967.000000	0.268112
1968.000000	0.267748
1969.000000	0.267908
1970.000000	0.268139
1971.000000	0.268048
1972.000000	0.268082
1973.000000	0.268165
1974.000000	0.268487
1975.000000	0.268798
1976.000000	0.269289
1977.000000	0.269475
1978.000000	0.269961
1979.000000	0.270771
1980.000000	0.271697
1981.000000	0.272920
1982.000000	0.274263
1983.000000	0.275064
1984.000000	0.275357
1985.000000	0.275293
1986.000000	0.275255
1987.000000	0.274696
1988.000000	0.274357
1989.000000	0.274483
1990.000000	0.274264
1991.000000	0.274104
1992.000000	0.274034
1993.000000	0.274084
1994.000000	0.274504
1995.000000	0.275372
1996.000000	0.276777
1997.000000	0.277612
1998.000000	0.278706
1999.000000	0.279115
2000.000000	0.278957
2001.000000	0.278424
2002.000000	0.278485
2003.000000	0.279007
2004.000000	0.279680
2005.000000	0.280217
2006.000000	0.280514
2007.000000	0.281356
2008.000000	0.281866
2009.000000	0.282240
2010.000000	0.282854
2011.000000	0.283117
2012.000000	0.283550
2013.000000	0.284232
2014.000000	0.285155
2015.000000	0.285179
2016.000000	0.285152
2017.000000	0.284858
2018.000000	0.284757
2019.000000	0.284937
2020.000000	0.284890
2021.000000	0.285078
2022.000000	0.285306
2023.000000	0.285357
2024.000000	0.285702
2025.000000	0.285919
2026.000000	0.285826
2027.000000	0.285560
2028.000000	0.285540
2029.000000	0.285462
2030.000000	0.286023
2031.000000	0.287274
2032.000000	0.288838
2033.000000	0.290112
2034.000000	0.290632
2035.000000	0.290509
2036.000000	0.290480
2037.000000	0.289826
2038.000000	0.289862
2039.000000	0.290369
2040.000000	0.290791
2041.000000	0.291021
2042.000000	0.291252
2043.000000	0.291113
2044.000000	0.290731
2045.000000	0.290974
2046.000000	0.291276
2047.000000	0.291536
2048.000000	0.292020
2049.000000	0.292471
2050.000000	0.292436
2051.000000	0.292637
2052.000000	0.293075
2053.000000	0.293078
2054.000000	0.293150
2055.000000	0.293089
2056.000000	0.292891
2057.000000	0.292780
2058.000000	0.292463
2059.000000	0.292362
2060.000000	0.292553
2061.000000	0.292843
2062.000000	0.293181
2063.000000	0.294198
2064.000000	0.294394
2065.000000	0.294226
2066.000000	0.294365
2067.000000	0.294735
2068.000000	0.295055
2069.000000	0.295207
2070.000000	0.295501
2071.000000	0.295830
2072.000000	0.296222
2073.000000	0.296562
2074.000000	0.296746
2075.000000	0.296762
2076.000000	0.295977
2077.000000	0.295904
2078.000000	0.296371
2079.000000	0.296426
2080.000000	0.296563
2081.000000	0.296751
2082.000000	0.296777
2083.000000	0.296789
2084.000000	0.297236
2085.000000	0.297210
2086.000000	0.296878
2087.000000	0.296032
2088.000000	0.295401
2089.000000	0.295319
2090.000000	0.295406
2091.000000	0.296270
2092.000000	0.296614
2093.000000	0.296755
2094.000000	0.297084
2095.000000	0.297827
2096.000000	0.298146
2097.000000	0.297989
2098.000000	0.298292
2099.000000	0.298746
2100.000000	0.298762
2101.000000	0.300183
2102.000000	0.300808
2103.000000	0.300816
2104.000000	0.301621
2105.000000	0.301738
2106.000000	0.301278
2107.000000	0.301288
2108.000000	0.301230
2109.000000	0.300947
2110.000000	0.300402
2111.000000	0.300182
2112.000000	0.299753
2113.000000	0.299732
2114.000000	0.299224
2115.000000	0.298919
2116.000000	0.299018
2117.000000	0.297865
2118.000000	0.298044
2119.000000	0.298717
2120.000000	0.299402
2121.000000	0.300692
2122.000000	0.301587
2123.000000	0.302722
2124.000000	0.303197
2125.000000	0.303117
2126.000000	0.302789
2127.000000	0.301710
2128.000000	0.301486
2129.000000	0.301172
2130.000000	0.301409
2131.000000	0.302126
2132.000000	0.301679
2133.000000	0.301244
2134.000000	0.301310
2135.000000	0.300644
2136.000000	0.300665
2137.000000	0.300544
2138.000000	0.300382
2139.000000	0.300033
2140.000000	0.299602
2141.000000	0.299382
2142.000000	0.298783
2143.000000	0.298573
2144.000000	0.299522
2145.000000	0.299760
2146.000000	0.299713
2147.000000	0.300317
2148.000000	0.299793
2149.000000	0.299178
2150.000000	0.299321
2151.000000	0.298720
2152.000000	0.298812
2153.000000	0.299436
2154.000000	0.299537
2155.000000	0.299713
2156.000000	0.299595
2157.000000	0.298904
2158.000000	0.298732
2159.000000	0.298366
2160.000000	0.298574
2161.000000	0.299690
2162.000000	0.300303
2163.000000	0.301396
2164.000000	0.301584
2165.000000	0.301307
2166.000000	0.300191
2167.000000	0.298647
2168.000000	0.297422
2169.000000	0.297041
2170.000000	0.296890
2171.000000	0.296860
2172.000000	0.297696
2173.000000	0.297544
2174.000000	0.296853
2175.000000	0.296813
2176.000000	0.296418
2177.000000	0.296691
2178.000000	0.297887
2179.000000	0.298391
2180.000000	0.299110
2181.000000	0.299823
2182.000000	0.299678
2183.000000	0.299568
2184.000000	0.299773
2185.000000	0.299419
2186.000000	0.299549
2187.000000	0.300289
2188.000000	0.300583
2189.000000	0.300088
2190.000000	0.298846
2191.000000	0.298328
2192.000000	0.298201
2193.000000	0.298503
2194.000000	0.298869
2195.000000	0.300308
2196.000000	0.300745
2197.000000	0.301217
2198.000000	0.301063
2199.000000	0.299746
2200.000000	0.298910
2201.000000	0.297265
2202.000000	0.296309
2203.000000	0.296117
2204.000000	0.295477
2205.000000	0.294358
2206.000000	0.293380
2207.000000	0.290637
2208.000000	0.289492
2209.000000	0.287519
2210.000000	0.286062
2211.000000	0.285579
2212.000000	0.285074
2213.000000	0.284730
2214.000000	0.284329
2215.000000	0.285071
2216.000000	0.286486
2217.000000	0.287770
2218.000000	0.290448
2219.000000	0.292546
2220.000000	0.295313
2221.000000	0.295669
2222.000000	0.293835
2223.000000	0.293171
2224.000000	0.291411
2225.000000	0.290002
2226.000000	0.290629
2227.000000	0.292799
2228.000000	0.293216
2229.000000	0.292073
2230.000000	0.291390
2231.000000	0.292456
2232.000000	0.291142
2233.000000	0.291889
2234.000000	0.293336
2235.000000	0.290595
2236.000000	0.290299
2237.000000	0.291128
2238.000000	0.292222
2239.000000	0.293283
2240.000000	0.295523
2241.000000	0.300914
2242.000000	0.301774
2243.000000	0.301421
2244.000000	0.300444
2245.000000	0.294881
2246.000000	0.292762
2247.000000	0.291624
2248.000000	0.290484
2249.000000	0.290458
2250.000000	0.291106
2251.000000	0.291807
2252.000000	0.292919
2253.000000	0.292596
2254.000000	0.293782
2255.000000	0.293952
2256.000000	0.294243
2257.000000	0.295824
2258.000000	0.296754
2259.000000	0.296410
2260.000000	0.295671
2261.000000	0.293991
2262.000000	0.290036
2263.000000	0.288545
2264.000000	0.287840
2265.000000	0.286653
2266.000000	0.287034
2267.000000	0.286336
2268.000000	0.283760
2269.000000	0.283178
2270.000000	0.284026
2271.000000	0.283313
2272.000000	0.283514
2273.000000	0.282673
2274.000000	0.279434
2275.000000	0.277303
2276.000000	0.276123
2277.000000	0.272584
2278.000000	0.270704
2279.000000	0.271297
2280.000000	0.271635
2281.000000	0.271941
2282.000000	0.273108
2283.000000	0.275232
2284.000000	0.275799
2285.000000	0.276942
2286.000000	0.278012
2287.000000	0.275548
2288.000000	0.275121
2289.000000	0.276817
2290.000000	0.275826
2291.000000	0.275421
2292.000000	0.274740
2293.000000	0.272327
2294.000000	0.271964
2295.000000	0.272491
2296.000000	0.273941
2297.000000	0.277336
2298.000000	0.278943
2299.000000	0.280636
2300.000000	0.280950
2301.000000	0.280149
2302.000000	0.278808
2303.000000	0.275598
2304.000000	0.274120
2305.000000	0.272767
2306.000000	0.272735
2307.000000	0.273838
2308.000000	0.275629
2309.000000	0.278111
2310.000000	0.278444
2311.000000	0.278804
2312.000000	0.279392
2313.000000	0.279979
2314.000000	0.280920
2315.000000	0.282769
2316.000000	0.285272
2317.000000	0.286165
2318.000000	0.286289
2319.000000	0.286311
2320.000000	0.286373
2321.000000	0.285031
2322.000000	0.283860
2323.000000	0.284842
2324.000000	0.283073
2325.000000	0.281990
2326.000000	0.282871
2327.000000	0.279785
2328.000000	0.278643
2329.000000	0.279522
2330.000000	0.278099
2331.000000	0.280898
2332.000000	0.283742
2333.000000	0.283852
2334.000000	0.285894
2335.000000	0.286859
2336.000000	0.285183
2337.000000	0.283797
2338.000000	0.282829
2339.000000	0.281725
2340.000000	0.279054
2341.000000	0.278756
2342.000000	0.280501
2343.000000	0.281548
2344.000000	0.283710
2345.000000	0.284103
2346.000000	0.283830
2347.000000	0.281432
2348.000000	0.276126
2349.000000	0.273585
2350.000000	0.272840
2351.000000	0.272877
2352.000000	0.274059
2353.000000	0.275280
2354.000000	0.271498
2355.000000	0.268049
2356.000000	0.266855
2357.000000	0.263298
2358.000000	0.259672
2359.000000	0.258862
2360.000000	0.258960
2361.000000	0.257170
2362.000000	0.258497
2363.000000	0.260162
2364.000000	0.259851
2365.000000	0.262332
2366.000000	0.264323
2367.000000	0.266481
2368.000000	0.264508
2369.000000	0.263405
2370.000000	0.267874
2371.000000	0.269091
2372.000000	0.272148
2373.000000	0.272238
2374.000000	0.263637
2375.000000	0.259141
2376.000000	0.255739
2377.000000	0.254496
2378.000000	0.260500
2379.000000	0.258818
2380.000000	0.255051
2381.000000	0.252396
2382.000000	0.246125
2383.000000	0.244513
2384.000000	0.246364
2385.000000	0.253114
2386.000000	0.256681
2387.000000	0.255201
2388.000000	0.253410
2389.000000	0.246540
2390.000000	0.242867
2391.000000	0.242314
2392.000000	0.240027
2393.000000	0.239544
2394.000000	0.239913
2395.000000	0.244039
2396.000000	0.252097
2397.000000	0.257386
2398.000000	0.260588
2399.000000	0.256112
2400.000000	0.248690
2401.000000	0.242480
2402.000000	0.234359
2403.000000	0.235088
2404.000000	0.238250
2405.000000	0.243637
2406.000000	0.254082
2407.000000	0.262123
2408.000000	0.269629
2409.000000	0.267506
2410.000000	0.255921
2411.000000	0.243412
2412.000000	0.231862
2413.000000	0.227399
2414.000000	0.231542
2415.000000	0.239957
2416.000000	0.238614
2417.000000	0.231885
2418.000000	0.233200
2419.000000	0.233142
2420.000000	0.236412
2421.000000	0.239560
2422.000000	0.238165
2423.000000	0.234866
2424.000000	0.231099
2425.000000	0.227976
2426.000000	0.227663
2427.000000	0.239830
2428.000000	0.246219
2429.000000	0.254117
2430.000000	0.268327
2431.000000	0.264444
2432.000000	0.262197
2433.000000	0.267738
2434.000000	0.264240
2435.000000	0.261764
2436.000000	0.260150
2437.000000	0.248710
2438.000000	0.244513
2439.000000	0.240790
2440.000000	0.230494
2441.000000	0.241559
2442.000000	0.250925
2443.000000	0.247491
2444.000000	0.250973
2445.000000	0.243320
2446.000000	0.235306
2447.000000	0.239604
2448.000000	0.245222
2449.000000	0.244587
2450.000000	0.245420
2451.000000	0.241761
2452.000000	0.232725
2453.000000	0.238108
2454.000000	0.236621
2455.000000	0.238749
2456.000000	0.249021
2457.000000	0.255884
2458.000000	0.273401
2459.000000	0.283716
2460.000000	0.276482
2461.000000	0.266087
2462.000000	0.255312
2463.000000	0.236185
2464.000000	0.237901
2465.000000	0.258694
2466.000000	0.253939
2467.000000	0.249585
2468.000000	0.250575
2469.000000	0.225157
2470.000000	0.216611
2471.000000	0.203842
2472.000000	0.179867
2473.000000	0.192805
2474.000000	0.198781
2475.000000	0.219001
2476.000000	0.243431
2477.000000	0.225974
2478.000000	0.206710
2479.000000	0.195197
2480.000000	0.192615
2481.000000	0.190476
2482.000000	0.202426
2483.000000	0.202280
2484.000000	0.190009
2485.000000	0.194108
2486.000000	0.194331
2487.000000	0.215270
2488.000000	0.231777
2489.000000	0.246881
2490.000000	0.235092
2491.000000	0.181463
2492.000000	0.150887
2493.000000	0.102040
2494.000000	0.081588
2495.000000	0.087291
2496.000000	0.091597
2497.000000	0.130063
2498.000000	0.143526
2499.000000	0.137942
2500.000000	0.141847
