# Wavelength	NAu-1-40_HEX-20_FV7-40_00002.asd.rts.txt
350.000000	0.150706
351.000000	0.138751
352.000000	0.117515
353.000000	0.117894
354.000000	0.142442
355.000000	0.139593
356.000000	0.136123
357.000000	0.140984
358.000000	0.149932
359.000000	0.152320
360.000000	0.149650
361.000000	0.146531
362.000000	0.148436
363.000000	0.151058
364.000000	0.150607
365.000000	0.147186
366.000000	0.144512
367.000000	0.144702
368.000000	0.149604
369.000000	0.147077
370.000000	0.141565
371.000000	0.141671
372.000000	0.145698
373.000000	0.145193
374.000000	0.137725
375.000000	0.135024
376.000000	0.136949
377.000000	0.141646
378.000000	0.145944
379.000000	0.148678
380.000000	0.148181
381.000000	0.144557
382.000000	0.147972
383.000000	0.152078
384.000000	0.151893
385.000000	0.149693
386.000000	0.149812
387.000000	0.153015
388.000000	0.156563
389.000000	0.157129
390.000000	0.156297
391.000000	0.157143
392.000000	0.158238
393.000000	0.159785
394.000000	0.161850
395.000000	0.163791
396.000000	0.163817
397.000000	0.162675
398.000000	0.164817
399.000000	0.166263
400.000000	0.166640
401.000000	0.166970
402.000000	0.169599
403.000000	0.171676
404.000000	0.171084
405.000000	0.171604
406.000000	0.172718
407.000000	0.173897
408.000000	0.174689
409.000000	0.176021
410.000000	0.177563
411.000000	0.178244
412.000000	0.178551
413.000000	0.179095
414.000000	0.180295
415.000000	0.181171
416.000000	0.182087
417.000000	0.183153
418.000000	0.183774
419.000000	0.183646
420.000000	0.183318
421.000000	0.184159
422.000000	0.184887
423.000000	0.185061
424.000000	0.184694
425.000000	0.184920
426.000000	0.185177
427.000000	0.185027
428.000000	0.185174
429.000000	0.185183
430.000000	0.185047
431.000000	0.185350
432.000000	0.185561
433.000000	0.185526
434.000000	0.185340
435.000000	0.185359
436.000000	0.185651
437.000000	0.186065
438.000000	0.185916
439.000000	0.185532
440.000000	0.185243
441.000000	0.185094
442.000000	0.184703
443.000000	0.184265
444.000000	0.184528
445.000000	0.184816
446.000000	0.185044
447.000000	0.185177
448.000000	0.185382
449.000000	0.186031
450.000000	0.187246
451.000000	0.188410
452.000000	0.189892
453.000000	0.191551
454.000000	0.192790
455.000000	0.194327
456.000000	0.196209
457.000000	0.198078
458.000000	0.200014
459.000000	0.201926
460.000000	0.203672
461.000000	0.204671
462.000000	0.205938
463.000000	0.207534
464.000000	0.208103
465.000000	0.208886
466.000000	0.209898
467.000000	0.210531
468.000000	0.211389
469.000000	0.212191
470.000000	0.212695
471.000000	0.213451
472.000000	0.214054
473.000000	0.214374
474.000000	0.215170
475.000000	0.215693
476.000000	0.215962
477.000000	0.216543
478.000000	0.216822
479.000000	0.217171
480.000000	0.217978
481.000000	0.218398
482.000000	0.218735
483.000000	0.219168
484.000000	0.219515
485.000000	0.219925
486.000000	0.220527
487.000000	0.220889
488.000000	0.221185
489.000000	0.221618
490.000000	0.222422
491.000000	0.222879
492.000000	0.223316
493.000000	0.224084
494.000000	0.224370
495.000000	0.224661
496.000000	0.225266
497.000000	0.225785
498.000000	0.226367
499.000000	0.227049
500.000000	0.227566
501.000000	0.228018
502.000000	0.228559
503.000000	0.229278
504.000000	0.229762
505.000000	0.230103
506.000000	0.230487
507.000000	0.230938
508.000000	0.231555
509.000000	0.232298
510.000000	0.232976
511.000000	0.233614
512.000000	0.234248
513.000000	0.234878
514.000000	0.235601
515.000000	0.236318
516.000000	0.236850
517.000000	0.237546
518.000000	0.238291
519.000000	0.238915
520.000000	0.239639
521.000000	0.240344
522.000000	0.241014
523.000000	0.241781
524.000000	0.242563
525.000000	0.243300
526.000000	0.243981
527.000000	0.244774
528.000000	0.245584
529.000000	0.246331
530.000000	0.247091
531.000000	0.247885
532.000000	0.248641
533.000000	0.249404
534.000000	0.250177
535.000000	0.250947
536.000000	0.251711
537.000000	0.252624
538.000000	0.253555
539.000000	0.254266
540.000000	0.255029
541.000000	0.255827
542.000000	0.256635
543.000000	0.257394
544.000000	0.258220
545.000000	0.259072
546.000000	0.259832
547.000000	0.260594
548.000000	0.261401
549.000000	0.262187
550.000000	0.263028
551.000000	0.263896
552.000000	0.264687
553.000000	0.265422
554.000000	0.266151
555.000000	0.266929
556.000000	0.267810
557.000000	0.268643
558.000000	0.269462
559.000000	0.270157
560.000000	0.270880
561.000000	0.271676
562.000000	0.272389
563.000000	0.273029
564.000000	0.273683
565.000000	0.274336
566.000000	0.275004
567.000000	0.275674
568.000000	0.276311
569.000000	0.276907
570.000000	0.277417
571.000000	0.277866
572.000000	0.278380
573.000000	0.278880
574.000000	0.279349
575.000000	0.279847
576.000000	0.280435
577.000000	0.280987
578.000000	0.281470
579.000000	0.281958
580.000000	0.282407
581.000000	0.282809
582.000000	0.283227
583.000000	0.283611
584.000000	0.283964
585.000000	0.284320
586.000000	0.284561
587.000000	0.284802
588.000000	0.285172
589.000000	0.285507
590.000000	0.285788
591.000000	0.286018
592.000000	0.286203
593.000000	0.286435
594.000000	0.286714
595.000000	0.286957
596.000000	0.287110
597.000000	0.287240
598.000000	0.287364
599.000000	0.287495
600.000000	0.287645
601.000000	0.287751
602.000000	0.287884
603.000000	0.288064
604.000000	0.288266
605.000000	0.288340
606.000000	0.288404
607.000000	0.288527
608.000000	0.288753
609.000000	0.288845
610.000000	0.288896
611.000000	0.289053
612.000000	0.289189
613.000000	0.289303
614.000000	0.289432
615.000000	0.289527
616.000000	0.289586
617.000000	0.289594
618.000000	0.289622
619.000000	0.289686
620.000000	0.289744
621.000000	0.289792
622.000000	0.289901
623.000000	0.289981
624.000000	0.289983
625.000000	0.290128
626.000000	0.290274
627.000000	0.290377
628.000000	0.290550
629.000000	0.290788
630.000000	0.290934
631.000000	0.291023
632.000000	0.291125
633.000000	0.291262
634.000000	0.291417
635.000000	0.291561
636.000000	0.291685
637.000000	0.291780
638.000000	0.291907
639.000000	0.292013
640.000000	0.292122
641.000000	0.292152
642.000000	0.292266
643.000000	0.292435
644.000000	0.292579
645.000000	0.292754
646.000000	0.292922
647.000000	0.293046
648.000000	0.293251
649.000000	0.293440
650.000000	0.293577
651.000000	0.293752
652.000000	0.293952
653.000000	0.294202
654.000000	0.294448
655.000000	0.294589
656.000000	0.294741
657.000000	0.294954
658.000000	0.295150
659.000000	0.295335
660.000000	0.295518
661.000000	0.295783
662.000000	0.296010
663.000000	0.296255
664.000000	0.296566
665.000000	0.296759
666.000000	0.296929
667.000000	0.297175
668.000000	0.297456
669.000000	0.297738
670.000000	0.297998
671.000000	0.298210
672.000000	0.298454
673.000000	0.298721
674.000000	0.298951
675.000000	0.299223
676.000000	0.299493
677.000000	0.299718
678.000000	0.299979
679.000000	0.300283
680.000000	0.300606
681.000000	0.300822
682.000000	0.301069
683.000000	0.301327
684.000000	0.301648
685.000000	0.301884
686.000000	0.302145
687.000000	0.302546
688.000000	0.302861
689.000000	0.303117
690.000000	0.303401
691.000000	0.303707
692.000000	0.304075
693.000000	0.304527
694.000000	0.304872
695.000000	0.305205
696.000000	0.305551
697.000000	0.305910
698.000000	0.306232
699.000000	0.306555
700.000000	0.306909
701.000000	0.307204
702.000000	0.307508
703.000000	0.307839
704.000000	0.308208
705.000000	0.308584
706.000000	0.308936
707.000000	0.309327
708.000000	0.309691
709.000000	0.310047
710.000000	0.310429
711.000000	0.310767
712.000000	0.311103
713.000000	0.311454
714.000000	0.311724
715.000000	0.312066
716.000000	0.312478
717.000000	0.312854
718.000000	0.313120
719.000000	0.313378
720.000000	0.313741
721.000000	0.314165
722.000000	0.314566
723.000000	0.314944
724.000000	0.315217
725.000000	0.315461
726.000000	0.315780
727.000000	0.316113
728.000000	0.316465
729.000000	0.316825
730.000000	0.317125
731.000000	0.317418
732.000000	0.317619
733.000000	0.317799
734.000000	0.318108
735.000000	0.318416
736.000000	0.318742
737.000000	0.318913
738.000000	0.319047
739.000000	0.319327
740.000000	0.319656
741.000000	0.319895
742.000000	0.320099
743.000000	0.320276
744.000000	0.320472
745.000000	0.320669
746.000000	0.320864
747.000000	0.320972
748.000000	0.321189
749.000000	0.321371
750.000000	0.321423
751.000000	0.321616
752.000000	0.321862
753.000000	0.322104
754.000000	0.322270
755.000000	0.322508
756.000000	0.322728
757.000000	0.322759
758.000000	0.322759
759.000000	0.322789
760.000000	0.322823
761.000000	0.322978
762.000000	0.323071
763.000000	0.323107
764.000000	0.323285
765.000000	0.323396
766.000000	0.323436
767.000000	0.323461
768.000000	0.323650
769.000000	0.323737
770.000000	0.323672
771.000000	0.323718
772.000000	0.323827
773.000000	0.323864
774.000000	0.323804
775.000000	0.323795
776.000000	0.323758
777.000000	0.323620
778.000000	0.323475
779.000000	0.323462
780.000000	0.323518
781.000000	0.323367
782.000000	0.323307
783.000000	0.323353
784.000000	0.323272
785.000000	0.323240
786.000000	0.323212
787.000000	0.323143
788.000000	0.323020
789.000000	0.322951
790.000000	0.322874
791.000000	0.322704
792.000000	0.322683
793.000000	0.322673
794.000000	0.322550
795.000000	0.322425
796.000000	0.322351
797.000000	0.322276
798.000000	0.322036
799.000000	0.321917
800.000000	0.321862
801.000000	0.321732
802.000000	0.321592
803.000000	0.321444
804.000000	0.321315
805.000000	0.321140
806.000000	0.320951
807.000000	0.320839
808.000000	0.320752
809.000000	0.320627
810.000000	0.320439
811.000000	0.320185
812.000000	0.319965
813.000000	0.319822
814.000000	0.319701
815.000000	0.319485
816.000000	0.319246
817.000000	0.319043
818.000000	0.318842
819.000000	0.318731
820.000000	0.318601
821.000000	0.318390
822.000000	0.318281
823.000000	0.318194
824.000000	0.318043
825.000000	0.317875
826.000000	0.317691
827.000000	0.317505
828.000000	0.317363
829.000000	0.317239
830.000000	0.316989
831.000000	0.316719
832.000000	0.316496
833.000000	0.316249
834.000000	0.316011
835.000000	0.315828
836.000000	0.315585
837.000000	0.315420
838.000000	0.315300
839.000000	0.315020
840.000000	0.314823
841.000000	0.314580
842.000000	0.314174
843.000000	0.314073
844.000000	0.313975
845.000000	0.313758
846.000000	0.313577
847.000000	0.313323
848.000000	0.313056
849.000000	0.312881
850.000000	0.312637
851.000000	0.312430
852.000000	0.312316
853.000000	0.312141
854.000000	0.311986
855.000000	0.311885
856.000000	0.311673
857.000000	0.311425
858.000000	0.311211
859.000000	0.310994
860.000000	0.310815
861.000000	0.310654
862.000000	0.310585
863.000000	0.310601
864.000000	0.310540
865.000000	0.310359
866.000000	0.310097
867.000000	0.309830
868.000000	0.309562
869.000000	0.309273
870.000000	0.309038
871.000000	0.308761
872.000000	0.308523
873.000000	0.308302
874.000000	0.308065
875.000000	0.307767
876.000000	0.307497
877.000000	0.307315
878.000000	0.307152
879.000000	0.306985
880.000000	0.306698
881.000000	0.306503
882.000000	0.306198
883.000000	0.305886
884.000000	0.305694
885.000000	0.305470
886.000000	0.305226
887.000000	0.305020
888.000000	0.304872
889.000000	0.304745
890.000000	0.304537
891.000000	0.304344
892.000000	0.304058
893.000000	0.303841
894.000000	0.303813
895.000000	0.303603
896.000000	0.303445
897.000000	0.303278
898.000000	0.303010
899.000000	0.302994
900.000000	0.302939
901.000000	0.302693
902.000000	0.302474
903.000000	0.302225
904.000000	0.302075
905.000000	0.302021
906.000000	0.301880
907.000000	0.301651
908.000000	0.301446
909.000000	0.301308
910.000000	0.301124
911.000000	0.300971
912.000000	0.300916
913.000000	0.300730
914.000000	0.300524
915.000000	0.300332
916.000000	0.299983
917.000000	0.299721
918.000000	0.299520
919.000000	0.299297
920.000000	0.299025
921.000000	0.298817
922.000000	0.298680
923.000000	0.298532
924.000000	0.298382
925.000000	0.298187
926.000000	0.297989
927.000000	0.297866
928.000000	0.297706
929.000000	0.297524
930.000000	0.297375
931.000000	0.297281
932.000000	0.297039
933.000000	0.296765
934.000000	0.296795
935.000000	0.296530
936.000000	0.296365
937.000000	0.296495
938.000000	0.296202
939.000000	0.295991
940.000000	0.295904
941.000000	0.295845
942.000000	0.295616
943.000000	0.295510
944.000000	0.295517
945.000000	0.295394
946.000000	0.295266
947.000000	0.295204
948.000000	0.295138
949.000000	0.294784
950.000000	0.294581
951.000000	0.294565
952.000000	0.294471
953.000000	0.294234
954.000000	0.294051
955.000000	0.293958
956.000000	0.293718
957.000000	0.293550
958.000000	0.293464
959.000000	0.293463
960.000000	0.293199
961.000000	0.293101
962.000000	0.293185
963.000000	0.292989
964.000000	0.292672
965.000000	0.292445
966.000000	0.292327
967.000000	0.292265
968.000000	0.292138
969.000000	0.292053
970.000000	0.292240
971.000000	0.291939
972.000000	0.291635
973.000000	0.291565
974.000000	0.291695
975.000000	0.291550
976.000000	0.291309
977.000000	0.291201
978.000000	0.291155
979.000000	0.291225
980.000000	0.291059
981.000000	0.290742
982.000000	0.290874
983.000000	0.290851
984.000000	0.290562
985.000000	0.290367
986.000000	0.290564
987.000000	0.290838
988.000000	0.290812
989.000000	0.290675
990.000000	0.290537
991.000000	0.290426
992.000000	0.290357
993.000000	0.290189
994.000000	0.290218
995.000000	0.290499
996.000000	0.290518
997.000000	0.290422
998.000000	0.290366
999.000000	0.290570
1000.000000	0.291079
1001.000000	0.291033
1002.000000	0.290658
1003.000000	0.290324
1004.000000	0.290257
1005.000000	0.290253
1006.000000	0.290151
1007.000000	0.290285
1008.000000	0.290483
1009.000000	0.290455
1010.000000	0.290219
1011.000000	0.290348
1012.000000	0.290676
1013.000000	0.290846
1014.000000	0.290752
1015.000000	0.290756
1016.000000	0.291020
1017.000000	0.291107
1018.000000	0.291267
1019.000000	0.291324
1020.000000	0.291414
1021.000000	0.291258
1022.000000	0.291222
1023.000000	0.291424
1024.000000	0.291650
1025.000000	0.291804
1026.000000	0.292018
1027.000000	0.291682
1028.000000	0.291263
1029.000000	0.291175
1030.000000	0.291509
1031.000000	0.291572
1032.000000	0.291805
1033.000000	0.292237
1034.000000	0.292386
1035.000000	0.292205
1036.000000	0.292308
1037.000000	0.292270
1038.000000	0.292457
1039.000000	0.293037
1040.000000	0.293475
1041.000000	0.293631
1042.000000	0.294068
1043.000000	0.294345
1044.000000	0.294288
1045.000000	0.294162
1046.000000	0.294319
1047.000000	0.294517
1048.000000	0.294520
1049.000000	0.294851
1050.000000	0.295684
1051.000000	0.295929
1052.000000	0.295682
1053.000000	0.295980
1054.000000	0.296646
1055.000000	0.297093
1056.000000	0.297718
1057.000000	0.298667
1058.000000	0.298598
1059.000000	0.297959
1060.000000	0.298273
1061.000000	0.298713
1062.000000	0.299228
1063.000000	0.300212
1064.000000	0.300654
1065.000000	0.300578
1066.000000	0.300728
1067.000000	0.300678
1068.000000	0.300896
1069.000000	0.301323
1070.000000	0.301622
1071.000000	0.302055
1072.000000	0.302388
1073.000000	0.302668
1074.000000	0.302896
1075.000000	0.303121
1076.000000	0.303404
1077.000000	0.303932
1078.000000	0.304334
1079.000000	0.304785
1080.000000	0.305443
1081.000000	0.305946
1082.000000	0.306430
1083.000000	0.306871
1084.000000	0.307316
1085.000000	0.307763
1086.000000	0.308293
1087.000000	0.308536
1088.000000	0.308352
1089.000000	0.308535
1090.000000	0.308737
1091.000000	0.308769
1092.000000	0.309327
1093.000000	0.309901
1094.000000	0.310084
1095.000000	0.309791
1096.000000	0.310128
1097.000000	0.310524
1098.000000	0.310994
1099.000000	0.311903
1100.000000	0.312418
1101.000000	0.312646
1102.000000	0.312928
1103.000000	0.313092
1104.000000	0.313356
1105.000000	0.313540
1106.000000	0.313861
1107.000000	0.314165
1108.000000	0.314571
1109.000000	0.315178
1110.000000	0.315871
1111.000000	0.316292
1112.000000	0.316627
1113.000000	0.317122
1114.000000	0.317523
1115.000000	0.317950
1116.000000	0.318749
1117.000000	0.318998
1118.000000	0.318675
1119.000000	0.318799
1120.000000	0.318894
1121.000000	0.319070
1122.000000	0.319689
1123.000000	0.320230
1124.000000	0.320436
1125.000000	0.320727
1126.000000	0.321013
1127.000000	0.321202
1128.000000	0.321336
1129.000000	0.321385
1130.000000	0.321641
1131.000000	0.321934
1132.000000	0.322217
1133.000000	0.322713
1134.000000	0.323068
1135.000000	0.323266
1136.000000	0.323515
1137.000000	0.323720
1138.000000	0.323978
1139.000000	0.324423
1140.000000	0.324771
1141.000000	0.325056
1142.000000	0.325343
1143.000000	0.325483
1144.000000	0.325740
1145.000000	0.325920
1146.000000	0.325948
1147.000000	0.326121
1148.000000	0.326183
1149.000000	0.326357
1150.000000	0.326677
1151.000000	0.326922
1152.000000	0.327117
1153.000000	0.327295
1154.000000	0.327360
1155.000000	0.327526
1156.000000	0.327824
1157.000000	0.327930
1158.000000	0.327866
1159.000000	0.327956
1160.000000	0.327988
1161.000000	0.328017
1162.000000	0.328124
1163.000000	0.328494
1164.000000	0.328782
1165.000000	0.328957
1166.000000	0.329273
1167.000000	0.329758
1168.000000	0.329939
1169.000000	0.330004
1170.000000	0.330197
1171.000000	0.330324
1172.000000	0.330604
1173.000000	0.331099
1174.000000	0.331300
1175.000000	0.331314
1176.000000	0.331399
1177.000000	0.331479
1178.000000	0.331550
1179.000000	0.331716
1180.000000	0.331757
1181.000000	0.331826
1182.000000	0.331733
1183.000000	0.331694
1184.000000	0.331750
1185.000000	0.331832
1186.000000	0.331921
1187.000000	0.332032
1188.000000	0.332219
1189.000000	0.332365
1190.000000	0.332596
1191.000000	0.332705
1192.000000	0.332881
1193.000000	0.333097
1194.000000	0.333087
1195.000000	0.333189
1196.000000	0.333328
1197.000000	0.333431
1198.000000	0.333598
1199.000000	0.333684
1200.000000	0.333704
1201.000000	0.333705
1202.000000	0.333754
1203.000000	0.333755
1204.000000	0.333844
1205.000000	0.334055
1206.000000	0.334129
1207.000000	0.334235
1208.000000	0.334315
1209.000000	0.334466
1210.000000	0.334503
1211.000000	0.334419
1212.000000	0.334489
1213.000000	0.334600
1214.000000	0.334734
1215.000000	0.335025
1216.000000	0.335175
1217.000000	0.335193
1218.000000	0.335257
1219.000000	0.335308
1220.000000	0.335406
1221.000000	0.335663
1222.000000	0.335760
1223.000000	0.335875
1224.000000	0.336123
1225.000000	0.336206
1226.000000	0.336322
1227.000000	0.336260
1228.000000	0.336122
1229.000000	0.336066
1230.000000	0.335874
1231.000000	0.335854
1232.000000	0.336206
1233.000000	0.336405
1234.000000	0.336553
1235.000000	0.336684
1236.000000	0.336650
1237.000000	0.336727
1238.000000	0.336846
1239.000000	0.336914
1240.000000	0.337005
1241.000000	0.336991
1242.000000	0.336966
1243.000000	0.337051
1244.000000	0.337123
1245.000000	0.337396
1246.000000	0.337661
1247.000000	0.337731
1248.000000	0.337719
1249.000000	0.337646
1250.000000	0.337667
1251.000000	0.337750
1252.000000	0.337772
1253.000000	0.337928
1254.000000	0.337987
1255.000000	0.337876
1256.000000	0.337885
1257.000000	0.338035
1258.000000	0.338128
1259.000000	0.338111
1260.000000	0.338200
1261.000000	0.338286
1262.000000	0.338319
1263.000000	0.338326
1264.000000	0.338430
1265.000000	0.338592
1266.000000	0.338531
1267.000000	0.338553
1268.000000	0.338620
1269.000000	0.338371
1270.000000	0.338334
1271.000000	0.338416
1272.000000	0.338318
1273.000000	0.338431
1274.000000	0.338505
1275.000000	0.338494
1276.000000	0.338433
1277.000000	0.338512
1278.000000	0.338500
1279.000000	0.338507
1280.000000	0.338471
1281.000000	0.338432
1282.000000	0.338510
1283.000000	0.338565
1284.000000	0.338525
1285.000000	0.338536
1286.000000	0.338497
1287.000000	0.338408
1288.000000	0.338628
1289.000000	0.338748
1290.000000	0.338594
1291.000000	0.338537
1292.000000	0.338442
1293.000000	0.338360
1294.000000	0.338521
1295.000000	0.338552
1296.000000	0.338356
1297.000000	0.338157
1298.000000	0.338075
1299.000000	0.338146
1300.000000	0.338314
1301.000000	0.338449
1302.000000	0.338454
1303.000000	0.338474
1304.000000	0.338439
1305.000000	0.338406
1306.000000	0.338353
1307.000000	0.338348
1308.000000	0.338359
1309.000000	0.338362
1310.000000	0.338322
1311.000000	0.338336
1312.000000	0.338187
1313.000000	0.338023
1314.000000	0.337966
1315.000000	0.338004
1316.000000	0.338133
1317.000000	0.338290
1318.000000	0.338407
1319.000000	0.338339
1320.000000	0.338240
1321.000000	0.338184
1322.000000	0.338055
1323.000000	0.338036
1324.000000	0.338086
1325.000000	0.337922
1326.000000	0.337802
1327.000000	0.337726
1328.000000	0.337638
1329.000000	0.337498
1330.000000	0.337370
1331.000000	0.337262
1332.000000	0.337234
1333.000000	0.337081
1334.000000	0.336907
1335.000000	0.336884
1336.000000	0.336833
1337.000000	0.336744
1338.000000	0.336714
1339.000000	0.336654
1340.000000	0.336377
1341.000000	0.336218
1342.000000	0.336170
1343.000000	0.336096
1344.000000	0.336114
1345.000000	0.336037
1346.000000	0.336000
1347.000000	0.335927
1348.000000	0.335840
1349.000000	0.335818
1350.000000	0.335732
1351.000000	0.335552
1352.000000	0.335428
1353.000000	0.335310
1354.000000	0.335329
1355.000000	0.335349
1356.000000	0.335428
1357.000000	0.335353
1358.000000	0.335052
1359.000000	0.334814
1360.000000	0.334652
1361.000000	0.334442
1362.000000	0.334417
1363.000000	0.334679
1364.000000	0.334716
1365.000000	0.334641
1366.000000	0.334614
1367.000000	0.334540
1368.000000	0.334425
1369.000000	0.334441
1370.000000	0.334299
1371.000000	0.333950
1372.000000	0.333582
1373.000000	0.333121
1374.000000	0.332831
1375.000000	0.332805
1376.000000	0.332640
1377.000000	0.332534
1378.000000	0.332549
1379.000000	0.332064
1380.000000	0.331556
1381.000000	0.331157
1382.000000	0.330475
1383.000000	0.330093
1384.000000	0.329661
1385.000000	0.328982
1386.000000	0.328515
1387.000000	0.327904
1388.000000	0.327346
1389.000000	0.326917
1390.000000	0.326330
1391.000000	0.325683
1392.000000	0.325015
1393.000000	0.324280
1394.000000	0.323413
1395.000000	0.322696
1396.000000	0.322102
1397.000000	0.321343
1398.000000	0.320510
1399.000000	0.319720
1400.000000	0.318819
1401.000000	0.317939
1402.000000	0.317136
1403.000000	0.316330
1404.000000	0.315525
1405.000000	0.314680
1406.000000	0.313806
1407.000000	0.313042
1408.000000	0.312271
1409.000000	0.311538
1410.000000	0.311011
1411.000000	0.310469
1412.000000	0.309843
1413.000000	0.309296
1414.000000	0.308667
1415.000000	0.308041
1416.000000	0.307604
1417.000000	0.307329
1418.000000	0.307084
1419.000000	0.306933
1420.000000	0.306683
1421.000000	0.306480
1422.000000	0.306267
1423.000000	0.305990
1424.000000	0.305680
1425.000000	0.305347
1426.000000	0.304951
1427.000000	0.304519
1428.000000	0.304077
1429.000000	0.303703
1430.000000	0.303381
1431.000000	0.303084
1432.000000	0.302803
1433.000000	0.302541
1434.000000	0.302421
1435.000000	0.302420
1436.000000	0.302468
1437.000000	0.302669
1438.000000	0.302848
1439.000000	0.302984
1440.000000	0.303357
1441.000000	0.303981
1442.000000	0.304540
1443.000000	0.305084
1444.000000	0.305757
1445.000000	0.306391
1446.000000	0.306786
1447.000000	0.307247
1448.000000	0.307660
1449.000000	0.307995
1450.000000	0.308388
1451.000000	0.308651
1452.000000	0.308798
1453.000000	0.308837
1454.000000	0.308741
1455.000000	0.308679
1456.000000	0.308685
1457.000000	0.308789
1458.000000	0.308861
1459.000000	0.308830
1460.000000	0.308782
1461.000000	0.308650
1462.000000	0.308566
1463.000000	0.308592
1464.000000	0.308689
1465.000000	0.308918
1466.000000	0.309133
1467.000000	0.309209
1468.000000	0.309207
1469.000000	0.309231
1470.000000	0.309214
1471.000000	0.309348
1472.000000	0.309612
1473.000000	0.309874
1474.000000	0.310006
1475.000000	0.310151
1476.000000	0.310394
1477.000000	0.310720
1478.000000	0.311113
1479.000000	0.311432
1480.000000	0.311626
1481.000000	0.311791
1482.000000	0.311824
1483.000000	0.312052
1484.000000	0.312349
1485.000000	0.312653
1486.000000	0.313065
1487.000000	0.313450
1488.000000	0.313884
1489.000000	0.314201
1490.000000	0.314340
1491.000000	0.314527
1492.000000	0.314539
1493.000000	0.314786
1494.000000	0.315112
1495.000000	0.315397
1496.000000	0.315819
1497.000000	0.316122
1498.000000	0.316359
1499.000000	0.316663
1500.000000	0.316880
1501.000000	0.316890
1502.000000	0.316898
1503.000000	0.317056
1504.000000	0.317308
1505.000000	0.317564
1506.000000	0.317838
1507.000000	0.318038
1508.000000	0.318102
1509.000000	0.318135
1510.000000	0.318258
1511.000000	0.318333
1512.000000	0.318300
1513.000000	0.318447
1514.000000	0.318678
1515.000000	0.318739
1516.000000	0.318959
1517.000000	0.319186
1518.000000	0.319205
1519.000000	0.319219
1520.000000	0.319253
1521.000000	0.319244
1522.000000	0.319272
1523.000000	0.319372
1524.000000	0.319548
1525.000000	0.319712
1526.000000	0.319825
1527.000000	0.319867
1528.000000	0.319883
1529.000000	0.319896
1530.000000	0.319827
1531.000000	0.319941
1532.000000	0.320028
1533.000000	0.320018
1534.000000	0.320116
1535.000000	0.320177
1536.000000	0.320285
1537.000000	0.320457
1538.000000	0.320526
1539.000000	0.320617
1540.000000	0.320659
1541.000000	0.320725
1542.000000	0.320831
1543.000000	0.320855
1544.000000	0.320840
1545.000000	0.320831
1546.000000	0.320857
1547.000000	0.320936
1548.000000	0.321068
1549.000000	0.321181
1550.000000	0.321350
1551.000000	0.321520
1552.000000	0.321589
1553.000000	0.321666
1554.000000	0.321705
1555.000000	0.321710
1556.000000	0.321680
1557.000000	0.321633
1558.000000	0.321694
1559.000000	0.321699
1560.000000	0.321758
1561.000000	0.322049
1562.000000	0.322091
1563.000000	0.322041
1564.000000	0.322032
1565.000000	0.321921
1566.000000	0.321817
1567.000000	0.321842
1568.000000	0.321836
1569.000000	0.321871
1570.000000	0.321879
1571.000000	0.321844
1572.000000	0.321857
1573.000000	0.321928
1574.000000	0.321928
1575.000000	0.321925
1576.000000	0.321982
1577.000000	0.322034
1578.000000	0.321990
1579.000000	0.322039
1580.000000	0.322014
1581.000000	0.321865
1582.000000	0.321859
1583.000000	0.321908
1584.000000	0.321943
1585.000000	0.322130
1586.000000	0.322214
1587.000000	0.322310
1588.000000	0.322350
1589.000000	0.322300
1590.000000	0.322352
1591.000000	0.322459
1592.000000	0.322510
1593.000000	0.322575
1594.000000	0.322632
1595.000000	0.322729
1596.000000	0.322805
1597.000000	0.322960
1598.000000	0.323019
1599.000000	0.322995
1600.000000	0.322946
1601.000000	0.322962
1602.000000	0.322929
1603.000000	0.322902
1604.000000	0.322837
1605.000000	0.322739
1606.000000	0.322630
1607.000000	0.322525
1608.000000	0.322439
1609.000000	0.322390
1610.000000	0.322376
1611.000000	0.322464
1612.000000	0.322439
1613.000000	0.322453
1614.000000	0.322465
1615.000000	0.322519
1616.000000	0.322521
1617.000000	0.322497
1618.000000	0.322470
1619.000000	0.322302
1620.000000	0.322269
1621.000000	0.322393
1622.000000	0.322461
1623.000000	0.322469
1624.000000	0.322501
1625.000000	0.322393
1626.000000	0.322334
1627.000000	0.322317
1628.000000	0.322392
1629.000000	0.322545
1630.000000	0.322618
1631.000000	0.322655
1632.000000	0.322650
1633.000000	0.322518
1634.000000	0.322518
1635.000000	0.322580
1636.000000	0.322720
1637.000000	0.323053
1638.000000	0.323180
1639.000000	0.323357
1640.000000	0.323418
1641.000000	0.323363
1642.000000	0.323373
1643.000000	0.323407
1644.000000	0.323413
1645.000000	0.323359
1646.000000	0.323377
1647.000000	0.323528
1648.000000	0.323549
1649.000000	0.323603
1650.000000	0.323742
1651.000000	0.323903
1652.000000	0.323998
1653.000000	0.324136
1654.000000	0.324215
1655.000000	0.324088
1656.000000	0.324048
1657.000000	0.324115
1658.000000	0.324145
1659.000000	0.324315
1660.000000	0.324381
1661.000000	0.324318
1662.000000	0.324333
1663.000000	0.324239
1664.000000	0.324279
1665.000000	0.324455
1666.000000	0.324609
1667.000000	0.324735
1668.000000	0.324755
1669.000000	0.324676
1670.000000	0.324633
1671.000000	0.324633
1672.000000	0.324732
1673.000000	0.324892
1674.000000	0.324977
1675.000000	0.325086
1676.000000	0.325303
1677.000000	0.325399
1678.000000	0.325355
1679.000000	0.325345
1680.000000	0.325211
1681.000000	0.325116
1682.000000	0.325181
1683.000000	0.325301
1684.000000	0.325448
1685.000000	0.325532
1686.000000	0.325527
1687.000000	0.325550
1688.000000	0.325512
1689.000000	0.325526
1690.000000	0.325446
1691.000000	0.325487
1692.000000	0.325562
1693.000000	0.325442
1694.000000	0.325407
1695.000000	0.325448
1696.000000	0.325447
1697.000000	0.325380
1698.000000	0.325403
1699.000000	0.325419
1700.000000	0.325313
1701.000000	0.325373
1702.000000	0.325316
1703.000000	0.325341
1704.000000	0.325615
1705.000000	0.325743
1706.000000	0.325915
1707.000000	0.326067
1708.000000	0.326152
1709.000000	0.326111
1710.000000	0.326082
1711.000000	0.326093
1712.000000	0.326042
1713.000000	0.325994
1714.000000	0.326013
1715.000000	0.326094
1716.000000	0.326222
1717.000000	0.326270
1718.000000	0.326395
1719.000000	0.326365
1720.000000	0.326120
1721.000000	0.326082
1722.000000	0.326151
1723.000000	0.326139
1724.000000	0.326242
1725.000000	0.326249
1726.000000	0.326000
1727.000000	0.325926
1728.000000	0.325880
1729.000000	0.325738
1730.000000	0.325684
1731.000000	0.325736
1732.000000	0.325829
1733.000000	0.325954
1734.000000	0.326081
1735.000000	0.326162
1736.000000	0.326188
1737.000000	0.326122
1738.000000	0.326043
1739.000000	0.325977
1740.000000	0.325764
1741.000000	0.325671
1742.000000	0.325676
1743.000000	0.325725
1744.000000	0.325787
1745.000000	0.325788
1746.000000	0.325805
1747.000000	0.325902
1748.000000	0.325881
1749.000000	0.325907
1750.000000	0.325875
1751.000000	0.325810
1752.000000	0.325868
1753.000000	0.325930
1754.000000	0.325885
1755.000000	0.325653
1756.000000	0.325560
1757.000000	0.325496
1758.000000	0.325430
1759.000000	0.325475
1760.000000	0.325452
1761.000000	0.325370
1762.000000	0.325181
1763.000000	0.324832
1764.000000	0.324712
1765.000000	0.324533
1766.000000	0.324503
1767.000000	0.324745
1768.000000	0.324715
1769.000000	0.324636
1770.000000	0.324646
1771.000000	0.324527
1772.000000	0.324540
1773.000000	0.324604
1774.000000	0.324690
1775.000000	0.324870
1776.000000	0.325071
1777.000000	0.325380
1778.000000	0.325405
1779.000000	0.325297
1780.000000	0.325252
1781.000000	0.324988
1782.000000	0.324920
1783.000000	0.325045
1784.000000	0.325152
1785.000000	0.325070
1786.000000	0.325041
1787.000000	0.325210
1788.000000	0.325345
1789.000000	0.325381
1790.000000	0.325363
1791.000000	0.325338
1792.000000	0.325352
1793.000000	0.325363
1794.000000	0.325419
1795.000000	0.325522
1796.000000	0.325674
1797.000000	0.325705
1798.000000	0.325703
1799.000000	0.325665
1800.000000	0.325452
1801.000000	0.325627
1802.000000	0.325584
1803.000000	0.325610
1804.000000	0.325760
1805.000000	0.326420
1806.000000	0.326593
1807.000000	0.326796
1808.000000	0.326714
1809.000000	0.326157
1810.000000	0.325640
1811.000000	0.325625
1812.000000	0.325442
1813.000000	0.325911
1814.000000	0.327521
1815.000000	0.328206
1816.000000	0.328895
1817.000000	0.329149
1818.000000	0.329158
1819.000000	0.328701
1820.000000	0.328390
1821.000000	0.328587
1822.000000	0.328441
1823.000000	0.328126
1824.000000	0.327952
1825.000000	0.327509
1826.000000	0.327471
1827.000000	0.327745
1828.000000	0.327851
1829.000000	0.328044
1830.000000	0.327967
1831.000000	0.327584
1832.000000	0.326485
1833.000000	0.326287
1834.000000	0.326382
1835.000000	0.326388
1836.000000	0.326747
1837.000000	0.326975
1838.000000	0.327004
1839.000000	0.326518
1840.000000	0.327128
1841.000000	0.327711
1842.000000	0.327660
1843.000000	0.327585
1844.000000	0.327397
1845.000000	0.326261
1846.000000	0.325610
1847.000000	0.325457
1848.000000	0.324048
1849.000000	0.323342
1850.000000	0.323831
1851.000000	0.324069
1852.000000	0.325173
1853.000000	0.325722
1854.000000	0.325994
1855.000000	0.325809
1856.000000	0.325388
1857.000000	0.324350
1858.000000	0.323785
1859.000000	0.323157
1860.000000	0.322765
1861.000000	0.322639
1862.000000	0.322272
1863.000000	0.322173
1864.000000	0.321629
1865.000000	0.320564
1866.000000	0.319702
1867.000000	0.318723
1868.000000	0.317295
1869.000000	0.316078
1870.000000	0.315907
1871.000000	0.315521
1872.000000	0.314542
1873.000000	0.314089
1874.000000	0.314167
1875.000000	0.313729
1876.000000	0.313213
1877.000000	0.312040
1878.000000	0.310480
1879.000000	0.308443
1880.000000	0.306146
1881.000000	0.304350
1882.000000	0.302485
1883.000000	0.300014
1884.000000	0.297964
1885.000000	0.295950
1886.000000	0.293584
1887.000000	0.291127
1888.000000	0.288792
1889.000000	0.285586
1890.000000	0.282928
1891.000000	0.280321
1892.000000	0.277413
1893.000000	0.274884
1894.000000	0.271927
1895.000000	0.268531
1896.000000	0.264647
1897.000000	0.261059
1898.000000	0.257987
1899.000000	0.255759
1900.000000	0.253937
1901.000000	0.251669
1902.000000	0.248952
1903.000000	0.245859
1904.000000	0.242795
1905.000000	0.240876
1906.000000	0.239072
1907.000000	0.237802
1908.000000	0.236226
1909.000000	0.235551
1910.000000	0.234426
1911.000000	0.233223
1912.000000	0.233217
1913.000000	0.232890
1914.000000	0.232859
1915.000000	0.232941
1916.000000	0.232742
1917.000000	0.232713
1918.000000	0.232923
1919.000000	0.232963
1920.000000	0.232928
1921.000000	0.233011
1922.000000	0.232997
1923.000000	0.233098
1924.000000	0.233262
1925.000000	0.233331
1926.000000	0.233185
1927.000000	0.233526
1928.000000	0.233805
1929.000000	0.234291
1930.000000	0.234493
1931.000000	0.235536
1932.000000	0.235935
1933.000000	0.235576
1934.000000	0.235917
1935.000000	0.235747
1936.000000	0.236062
1937.000000	0.236884
1938.000000	0.237405
1939.000000	0.237575
1940.000000	0.237570
1941.000000	0.236467
1942.000000	0.236068
1943.000000	0.236209
1944.000000	0.236058
1945.000000	0.237068
1946.000000	0.237821
1947.000000	0.237883
1948.000000	0.238495
1949.000000	0.238752
1950.000000	0.238838
1951.000000	0.238860
1952.000000	0.238873
1953.000000	0.238757
1954.000000	0.239081
1955.000000	0.239388
1956.000000	0.239822
1957.000000	0.240010
1958.000000	0.239408
1959.000000	0.238868
1960.000000	0.238315
1961.000000	0.238074
1962.000000	0.238192
1963.000000	0.238967
1964.000000	0.239429
1965.000000	0.239700
1966.000000	0.239928
1967.000000	0.240258
1968.000000	0.240873
1969.000000	0.241450
1970.000000	0.241711
1971.000000	0.241316
1972.000000	0.241043
1973.000000	0.240990
1974.000000	0.241072
1975.000000	0.241504
1976.000000	0.242412
1977.000000	0.243234
1978.000000	0.243955
1979.000000	0.244617
1980.000000	0.245032
1981.000000	0.244907
1982.000000	0.244597
1983.000000	0.244937
1984.000000	0.245031
1985.000000	0.244934
1986.000000	0.245079
1987.000000	0.245470
1988.000000	0.245797
1989.000000	0.245924
1990.000000	0.246757
1991.000000	0.247487
1992.000000	0.247569
1993.000000	0.247865
1994.000000	0.248286
1995.000000	0.248457
1996.000000	0.248997
1997.000000	0.249427
1998.000000	0.249777
1999.000000	0.250499
2000.000000	0.251629
2001.000000	0.252072
2002.000000	0.253082
2003.000000	0.254325
2004.000000	0.254114
2005.000000	0.254112
2006.000000	0.254388
2007.000000	0.254110
2008.000000	0.254463
2009.000000	0.255375
2010.000000	0.256367
2011.000000	0.257588
2012.000000	0.258573
2013.000000	0.259685
2014.000000	0.260635
2015.000000	0.261221
2016.000000	0.261862
2017.000000	0.262769
2018.000000	0.263688
2019.000000	0.264179
2020.000000	0.264742
2021.000000	0.265285
2022.000000	0.265339
2023.000000	0.265758
2024.000000	0.266755
2025.000000	0.267128
2026.000000	0.266949
2027.000000	0.267305
2028.000000	0.267249
2029.000000	0.267918
2030.000000	0.268646
2031.000000	0.269220
2032.000000	0.270212
2033.000000	0.270285
2034.000000	0.270735
2035.000000	0.271629
2036.000000	0.271934
2037.000000	0.272055
2038.000000	0.272435
2039.000000	0.272645
2040.000000	0.273015
2041.000000	0.273796
2042.000000	0.274173
2043.000000	0.274433
2044.000000	0.274524
2045.000000	0.275084
2046.000000	0.275499
2047.000000	0.275752
2048.000000	0.276123
2049.000000	0.276473
2050.000000	0.275946
2051.000000	0.276198
2052.000000	0.276897
2053.000000	0.277291
2054.000000	0.278221
2055.000000	0.278609
2056.000000	0.278820
2057.000000	0.279221
2058.000000	0.279818
2059.000000	0.280893
2060.000000	0.281328
2061.000000	0.281782
2062.000000	0.281980
2063.000000	0.281405
2064.000000	0.281177
2065.000000	0.281563
2066.000000	0.281551
2067.000000	0.281249
2068.000000	0.281792
2069.000000	0.282479
2070.000000	0.282403
2071.000000	0.282955
2072.000000	0.283613
2073.000000	0.283840
2074.000000	0.284796
2075.000000	0.285543
2076.000000	0.286352
2077.000000	0.286824
2078.000000	0.287195
2079.000000	0.287492
2080.000000	0.287672
2081.000000	0.287960
2082.000000	0.288363
2083.000000	0.288664
2084.000000	0.288646
2085.000000	0.288340
2086.000000	0.288163
2087.000000	0.287647
2088.000000	0.287732
2089.000000	0.288353
2090.000000	0.288961
2091.000000	0.290214
2092.000000	0.291041
2093.000000	0.291955
2094.000000	0.292245
2095.000000	0.292185
2096.000000	0.292283
2097.000000	0.291824
2098.000000	0.291628
2099.000000	0.292071
2100.000000	0.292166
2101.000000	0.292086
2102.000000	0.292597
2103.000000	0.293021
2104.000000	0.292916
2105.000000	0.293427
2106.000000	0.294377
2107.000000	0.295019
2108.000000	0.296034
2109.000000	0.296604
2110.000000	0.296411
2111.000000	0.296565
2112.000000	0.296676
2113.000000	0.296535
2114.000000	0.296377
2115.000000	0.297264
2116.000000	0.297399
2117.000000	0.297290
2118.000000	0.297867
2119.000000	0.297798
2120.000000	0.297819
2121.000000	0.297989
2122.000000	0.298010
2123.000000	0.297543
2124.000000	0.297619
2125.000000	0.297842
2126.000000	0.298252
2127.000000	0.299231
2128.000000	0.299887
2129.000000	0.300318
2130.000000	0.301383
2131.000000	0.301479
2132.000000	0.300310
2133.000000	0.300384
2134.000000	0.300039
2135.000000	0.299629
2136.000000	0.300562
2137.000000	0.300398
2138.000000	0.299365
2139.000000	0.299140
2140.000000	0.299089
2141.000000	0.298872
2142.000000	0.298986
2143.000000	0.298570
2144.000000	0.297830
2145.000000	0.297355
2146.000000	0.296831
2147.000000	0.296699
2148.000000	0.297028
2149.000000	0.297662
2150.000000	0.298488
2151.000000	0.299747
2152.000000	0.299929
2153.000000	0.298841
2154.000000	0.298462
2155.000000	0.297508
2156.000000	0.297326
2157.000000	0.298158
2158.000000	0.298264
2159.000000	0.298230
2160.000000	0.298139
2161.000000	0.297487
2162.000000	0.297460
2163.000000	0.297580
2164.000000	0.297757
2165.000000	0.298352
2166.000000	0.298937
2167.000000	0.299104
2168.000000	0.298491
2169.000000	0.297253
2170.000000	0.296126
2171.000000	0.295650
2172.000000	0.295493
2173.000000	0.295440
2174.000000	0.295838
2175.000000	0.296280
2176.000000	0.297090
2177.000000	0.297450
2178.000000	0.298022
2179.000000	0.298387
2180.000000	0.298032
2181.000000	0.298115
2182.000000	0.297923
2183.000000	0.297616
2184.000000	0.297900
2185.000000	0.298010
2186.000000	0.297496
2187.000000	0.298130
2188.000000	0.297858
2189.000000	0.296911
2190.000000	0.296941
2191.000000	0.296137
2192.000000	0.295279
2193.000000	0.293886
2194.000000	0.292982
2195.000000	0.292120
2196.000000	0.291736
2197.000000	0.291598
2198.000000	0.291845
2199.000000	0.292835
2200.000000	0.293348
2201.000000	0.294371
2202.000000	0.294839
2203.000000	0.294971
2204.000000	0.294214
2205.000000	0.292693
2206.000000	0.292470
2207.000000	0.290163
2208.000000	0.288638
2209.000000	0.288800
2210.000000	0.288174
2211.000000	0.287431
2212.000000	0.288832
2213.000000	0.288916
2214.000000	0.287541
2215.000000	0.287346
2216.000000	0.287855
2217.000000	0.287669
2218.000000	0.286841
2219.000000	0.287645
2220.000000	0.288519
2221.000000	0.290675
2222.000000	0.295870
2223.000000	0.298556
2224.000000	0.301158
2225.000000	0.302619
2226.000000	0.300945
2227.000000	0.298581
2228.000000	0.298973
2229.000000	0.299679
2230.000000	0.301499
2231.000000	0.300797
2232.000000	0.298993
2233.000000	0.298567
2234.000000	0.297261
2235.000000	0.299819
2236.000000	0.300520
2237.000000	0.301427
2238.000000	0.300328
2239.000000	0.297512
2240.000000	0.296381
2241.000000	0.293844
2242.000000	0.293042
2243.000000	0.294664
2244.000000	0.294987
2245.000000	0.295734
2246.000000	0.296023
2247.000000	0.295545
2248.000000	0.295464
2249.000000	0.295905
2250.000000	0.294643
2251.000000	0.293238
2252.000000	0.294141
2253.000000	0.292821
2254.000000	0.292271
2255.000000	0.292730
2256.000000	0.291911
2257.000000	0.293683
2258.000000	0.294530
2259.000000	0.294376
2260.000000	0.294552
2261.000000	0.293542
2262.000000	0.290534
2263.000000	0.289150
2264.000000	0.288320
2265.000000	0.286504
2266.000000	0.284416
2267.000000	0.282979
2268.000000	0.281245
2269.000000	0.280393
2270.000000	0.280729
2271.000000	0.280541
2272.000000	0.279836
2273.000000	0.279280
2274.000000	0.279437
2275.000000	0.278523
2276.000000	0.276664
2277.000000	0.276046
2278.000000	0.274237
2279.000000	0.272321
2280.000000	0.271672
2281.000000	0.270334
2282.000000	0.270933
2283.000000	0.271277
2284.000000	0.271014
2285.000000	0.271548
2286.000000	0.270634
2287.000000	0.268219
2288.000000	0.266096
2289.000000	0.265174
2290.000000	0.264207
2291.000000	0.265417
2292.000000	0.267994
2293.000000	0.268444
2294.000000	0.267857
2295.000000	0.265258
2296.000000	0.264800
2297.000000	0.262996
2298.000000	0.263792
2299.000000	0.268544
2300.000000	0.271326
2301.000000	0.274675
2302.000000	0.276172
2303.000000	0.275326
2304.000000	0.274925
2305.000000	0.274166
2306.000000	0.273228
2307.000000	0.271255
2308.000000	0.272515
2309.000000	0.273131
2310.000000	0.273445
2311.000000	0.275063
2312.000000	0.276165
2313.000000	0.276582
2314.000000	0.277216
2315.000000	0.278483
2316.000000	0.277795
2317.000000	0.277370
2318.000000	0.276741
2319.000000	0.275973
2320.000000	0.277084
2321.000000	0.277189
2322.000000	0.277633
2323.000000	0.277887
2324.000000	0.279284
2325.000000	0.280123
2326.000000	0.277521
2327.000000	0.276442
2328.000000	0.273272
2329.000000	0.271954
2330.000000	0.275752
2331.000000	0.277809
2332.000000	0.279107
2333.000000	0.277855
2334.000000	0.274845
2335.000000	0.273461
2336.000000	0.271447
2337.000000	0.269343
2338.000000	0.268796
2339.000000	0.266799
2340.000000	0.261632
2341.000000	0.260665
2342.000000	0.260785
2343.000000	0.262038
2344.000000	0.268215
2345.000000	0.270047
2346.000000	0.271469
2347.000000	0.271763
2348.000000	0.270119
2349.000000	0.265648
2350.000000	0.262196
2351.000000	0.259513
2352.000000	0.256190
2353.000000	0.252764
2354.000000	0.249868
2355.000000	0.248465
2356.000000	0.248866
2357.000000	0.253958
2358.000000	0.259450
2359.000000	0.261829
2360.000000	0.261804
2361.000000	0.256974
2362.000000	0.252904
2363.000000	0.252003
2364.000000	0.249318
2365.000000	0.249708
2366.000000	0.250726
2367.000000	0.248374
2368.000000	0.248968
2369.000000	0.249821
2370.000000	0.250186
2371.000000	0.249605
2372.000000	0.250891
2373.000000	0.253803
2374.000000	0.251518
2375.000000	0.254985
2376.000000	0.259397
2377.000000	0.256101
2378.000000	0.254513
2379.000000	0.246883
2380.000000	0.235369
2381.000000	0.230439
2382.000000	0.229195
2383.000000	0.232438
2384.000000	0.236193
2385.000000	0.237373
2386.000000	0.236227
2387.000000	0.234694
2388.000000	0.236615
2389.000000	0.238456
2390.000000	0.240188
2391.000000	0.243687
2392.000000	0.242632
2393.000000	0.235595
2394.000000	0.230290
2395.000000	0.227663
2396.000000	0.225702
2397.000000	0.226898
2398.000000	0.231633
2399.000000	0.232456
2400.000000	0.229984
2401.000000	0.231700
2402.000000	0.227638
2403.000000	0.220288
2404.000000	0.220190
2405.000000	0.216675
2406.000000	0.216417
2407.000000	0.222650
2408.000000	0.220631
2409.000000	0.220245
2410.000000	0.226034
2411.000000	0.227159
2412.000000	0.230712
2413.000000	0.235912
2414.000000	0.238820
2415.000000	0.239773
2416.000000	0.233914
2417.000000	0.236594
2418.000000	0.240838
2419.000000	0.236966
2420.000000	0.244943
2421.000000	0.247091
2422.000000	0.233944
2423.000000	0.234703
2424.000000	0.234528
2425.000000	0.222565
2426.000000	0.211268
2427.000000	0.197753
2428.000000	0.188056
2429.000000	0.181795
2430.000000	0.194582
2431.000000	0.214190
2432.000000	0.226988
2433.000000	0.243623
2434.000000	0.242076
2435.000000	0.238853
2436.000000	0.236614
2437.000000	0.236149
2438.000000	0.249646
2439.000000	0.241065
2440.000000	0.229508
2441.000000	0.225419
2442.000000	0.208819
2443.000000	0.213894
2444.000000	0.225526
2445.000000	0.217247
2446.000000	0.213163
2447.000000	0.207325
2448.000000	0.200944
2449.000000	0.204627
2450.000000	0.205380
2451.000000	0.196883
2452.000000	0.184023
2453.000000	0.183423
2454.000000	0.188880
2455.000000	0.189656
2456.000000	0.199675
2457.000000	0.208957
2458.000000	0.220475
2459.000000	0.241850
2460.000000	0.252024
2461.000000	0.244629
2462.000000	0.225492
2463.000000	0.217334
2464.000000	0.219602
2465.000000	0.211034
2466.000000	0.200826
2467.000000	0.181557
2468.000000	0.152758
2469.000000	0.150345
2470.000000	0.158431
2471.000000	0.168728
2472.000000	0.183414
2473.000000	0.171235
2474.000000	0.165294
2475.000000	0.189806
2476.000000	0.196465
2477.000000	0.199575
2478.000000	0.226052
2479.000000	0.202535
2480.000000	0.170704
2481.000000	0.198372
2482.000000	0.197467
2483.000000	0.177925
2484.000000	0.182656
2485.000000	0.163178
2486.000000	0.158856
2487.000000	0.208250
2488.000000	0.259045
2489.000000	0.256964
2490.000000	0.219661
2491.000000	0.201277
2492.000000	0.185673
2493.000000	0.245390
2494.000000	0.263156
2495.000000	0.190844
2496.000000	0.170362
2497.000000	0.166976
2498.000000	0.168482
2499.000000	0.209162
2500.000000	0.217073
