# Wavelength	NAu-2-10_HEX-70_FV7-20_00001.asd.rts.txt
350.000000	0.228581
351.000000	0.223804
352.000000	0.223150
353.000000	0.221937
354.000000	0.219799
355.000000	0.217568
356.000000	0.218681
357.000000	0.222417
358.000000	0.221485
359.000000	0.219317
360.000000	0.218225
361.000000	0.219449
362.000000	0.222006
363.000000	0.222817
364.000000	0.220980
365.000000	0.223038
366.000000	0.223274
367.000000	0.221189
368.000000	0.221247
369.000000	0.221169
370.000000	0.220755
371.000000	0.220428
372.000000	0.220980
373.000000	0.222099
374.000000	0.223355
375.000000	0.222206
376.000000	0.221716
377.000000	0.222789
378.000000	0.224732
379.000000	0.225121
380.000000	0.224907
381.000000	0.226593
382.000000	0.227297
383.000000	0.227630
384.000000	0.228157
385.000000	0.226817
386.000000	0.227150
387.000000	0.229245
388.000000	0.229192
389.000000	0.228258
390.000000	0.227795
391.000000	0.228794
392.000000	0.229395
393.000000	0.229443
394.000000	0.229296
395.000000	0.230096
396.000000	0.231027
397.000000	0.231572
398.000000	0.231597
399.000000	0.232081
400.000000	0.232748
401.000000	0.232687
402.000000	0.232629
403.000000	0.232896
404.000000	0.233626
405.000000	0.233866
406.000000	0.234067
407.000000	0.234431
408.000000	0.234510
409.000000	0.234633
410.000000	0.234987
411.000000	0.235647
412.000000	0.235874
413.000000	0.236053
414.000000	0.236663
415.000000	0.236950
416.000000	0.237264
417.000000	0.237779
418.000000	0.238087
419.000000	0.238421
420.000000	0.238826
421.000000	0.239198
422.000000	0.239408
423.000000	0.239606
424.000000	0.240050
425.000000	0.240205
426.000000	0.240320
427.000000	0.240590
428.000000	0.240810
429.000000	0.241143
430.000000	0.241631
431.000000	0.242163
432.000000	0.242530
433.000000	0.242709
434.000000	0.242879
435.000000	0.243057
436.000000	0.243351
437.000000	0.243770
438.000000	0.243961
439.000000	0.243970
440.000000	0.244021
441.000000	0.244344
442.000000	0.244754
443.000000	0.245029
444.000000	0.245056
445.000000	0.245202
446.000000	0.245646
447.000000	0.246249
448.000000	0.246565
449.000000	0.246845
450.000000	0.247281
451.000000	0.247649
452.000000	0.248038
453.000000	0.248380
454.000000	0.248643
455.000000	0.248945
456.000000	0.249363
457.000000	0.249763
458.000000	0.250052
459.000000	0.250339
460.000000	0.250749
461.000000	0.251027
462.000000	0.251341
463.000000	0.251639
464.000000	0.251977
465.000000	0.252381
466.000000	0.252769
467.000000	0.253118
468.000000	0.253384
469.000000	0.253550
470.000000	0.253783
471.000000	0.254095
472.000000	0.254397
473.000000	0.254661
474.000000	0.254918
475.000000	0.255109
476.000000	0.255385
477.000000	0.255805
478.000000	0.255930
479.000000	0.256060
480.000000	0.256417
481.000000	0.256703
482.000000	0.257045
483.000000	0.257364
484.000000	0.257691
485.000000	0.257936
486.000000	0.258222
487.000000	0.258443
488.000000	0.258771
489.000000	0.259167
490.000000	0.259424
491.000000	0.259641
492.000000	0.259885
493.000000	0.260072
494.000000	0.260221
495.000000	0.260404
496.000000	0.260618
497.000000	0.260844
498.000000	0.261083
499.000000	0.261360
500.000000	0.261522
501.000000	0.261729
502.000000	0.261992
503.000000	0.262176
504.000000	0.262413
505.000000	0.262683
506.000000	0.262950
507.000000	0.263218
508.000000	0.263515
509.000000	0.263816
510.000000	0.264128
511.000000	0.264445
512.000000	0.264789
513.000000	0.265143
514.000000	0.265487
515.000000	0.265841
516.000000	0.266170
517.000000	0.266497
518.000000	0.266884
519.000000	0.267271
520.000000	0.267597
521.000000	0.267952
522.000000	0.268363
523.000000	0.268744
524.000000	0.269171
525.000000	0.269648
526.000000	0.270188
527.000000	0.270693
528.000000	0.271200
529.000000	0.271808
530.000000	0.272382
531.000000	0.273034
532.000000	0.273730
533.000000	0.274387
534.000000	0.275094
535.000000	0.275844
536.000000	0.276575
537.000000	0.277311
538.000000	0.278049
539.000000	0.278765
540.000000	0.279421
541.000000	0.280040
542.000000	0.280682
543.000000	0.281299
544.000000	0.281927
545.000000	0.282518
546.000000	0.283095
547.000000	0.283692
548.000000	0.284337
549.000000	0.284955
550.000000	0.285631
551.000000	0.286374
552.000000	0.287118
553.000000	0.287882
554.000000	0.288673
555.000000	0.289508
556.000000	0.290412
557.000000	0.291271
558.000000	0.292171
559.000000	0.293066
560.000000	0.293941
561.000000	0.294864
562.000000	0.295778
563.000000	0.296603
564.000000	0.297424
565.000000	0.298232
566.000000	0.299080
567.000000	0.299901
568.000000	0.300629
569.000000	0.301285
570.000000	0.301917
571.000000	0.302530
572.000000	0.303124
573.000000	0.303656
574.000000	0.304136
575.000000	0.304643
576.000000	0.305100
577.000000	0.305503
578.000000	0.305924
579.000000	0.306322
580.000000	0.306648
581.000000	0.306910
582.000000	0.307222
583.000000	0.307465
584.000000	0.307655
585.000000	0.307882
586.000000	0.308060
587.000000	0.308208
588.000000	0.308363
589.000000	0.308493
590.000000	0.308613
591.000000	0.308722
592.000000	0.308762
593.000000	0.308790
594.000000	0.308808
595.000000	0.308761
596.000000	0.308702
597.000000	0.308665
598.000000	0.308573
599.000000	0.308465
600.000000	0.308400
601.000000	0.308340
602.000000	0.308315
603.000000	0.308264
604.000000	0.308177
605.000000	0.308103
606.000000	0.307988
607.000000	0.307849
608.000000	0.307743
609.000000	0.307627
610.000000	0.307517
611.000000	0.307435
612.000000	0.307328
613.000000	0.307216
614.000000	0.307150
615.000000	0.307102
616.000000	0.307021
617.000000	0.306895
618.000000	0.306861
619.000000	0.306784
620.000000	0.306647
621.000000	0.306547
622.000000	0.306516
623.000000	0.306465
624.000000	0.306331
625.000000	0.306247
626.000000	0.306172
627.000000	0.306097
628.000000	0.306077
629.000000	0.306127
630.000000	0.306116
631.000000	0.306131
632.000000	0.306162
633.000000	0.306219
634.000000	0.306284
635.000000	0.306320
636.000000	0.306392
637.000000	0.306498
638.000000	0.306550
639.000000	0.306606
640.000000	0.306703
641.000000	0.306692
642.000000	0.306732
643.000000	0.306824
644.000000	0.306922
645.000000	0.306986
646.000000	0.307069
647.000000	0.307190
648.000000	0.307345
649.000000	0.307550
650.000000	0.307770
651.000000	0.307956
652.000000	0.308138
653.000000	0.308362
654.000000	0.308598
655.000000	0.308830
656.000000	0.309082
657.000000	0.309324
658.000000	0.309608
659.000000	0.309880
660.000000	0.310118
661.000000	0.310419
662.000000	0.310722
663.000000	0.311070
664.000000	0.311452
665.000000	0.311831
666.000000	0.312209
667.000000	0.312576
668.000000	0.312996
669.000000	0.313434
670.000000	0.313868
671.000000	0.314290
672.000000	0.314730
673.000000	0.315184
674.000000	0.315643
675.000000	0.316075
676.000000	0.316508
677.000000	0.316998
678.000000	0.317499
679.000000	0.318022
680.000000	0.318574
681.000000	0.319100
682.000000	0.319669
683.000000	0.320234
684.000000	0.320871
685.000000	0.321478
686.000000	0.322079
687.000000	0.322682
688.000000	0.323289
689.000000	0.323921
690.000000	0.324610
691.000000	0.325270
692.000000	0.325902
693.000000	0.326585
694.000000	0.327298
695.000000	0.328040
696.000000	0.328776
697.000000	0.329468
698.000000	0.330210
699.000000	0.330963
700.000000	0.331694
701.000000	0.332420
702.000000	0.333184
703.000000	0.333967
704.000000	0.334723
705.000000	0.335509
706.000000	0.336295
707.000000	0.337117
708.000000	0.337939
709.000000	0.338748
710.000000	0.339559
711.000000	0.340366
712.000000	0.341169
713.000000	0.341988
714.000000	0.342797
715.000000	0.343595
716.000000	0.344402
717.000000	0.345218
718.000000	0.346034
719.000000	0.346838
720.000000	0.347641
721.000000	0.348464
722.000000	0.349251
723.000000	0.350053
724.000000	0.350858
725.000000	0.351613
726.000000	0.352400
727.000000	0.353165
728.000000	0.353899
729.000000	0.354633
730.000000	0.355342
731.000000	0.356103
732.000000	0.356844
733.000000	0.357566
734.000000	0.358227
735.000000	0.358841
736.000000	0.359536
737.000000	0.360184
738.000000	0.360817
739.000000	0.361508
740.000000	0.362102
741.000000	0.362679
742.000000	0.363275
743.000000	0.363859
744.000000	0.364419
745.000000	0.364941
746.000000	0.365484
747.000000	0.366007
748.000000	0.366548
749.000000	0.367100
750.000000	0.367607
751.000000	0.368063
752.000000	0.368538
753.000000	0.369046
754.000000	0.369523
755.000000	0.369950
756.000000	0.370360
757.000000	0.370739
758.000000	0.371086
759.000000	0.371467
760.000000	0.371832
761.000000	0.372211
762.000000	0.372553
763.000000	0.372835
764.000000	0.373149
765.000000	0.373497
766.000000	0.373839
767.000000	0.374133
768.000000	0.374442
769.000000	0.374707
770.000000	0.374934
771.000000	0.375224
772.000000	0.375550
773.000000	0.375813
774.000000	0.376046
775.000000	0.376241
776.000000	0.376423
777.000000	0.376593
778.000000	0.376764
779.000000	0.376916
780.000000	0.377057
781.000000	0.377195
782.000000	0.377315
783.000000	0.377506
784.000000	0.377652
785.000000	0.377799
786.000000	0.377934
787.000000	0.378049
788.000000	0.378192
789.000000	0.378303
790.000000	0.378356
791.000000	0.378397
792.000000	0.378448
793.000000	0.378511
794.000000	0.378587
795.000000	0.378666
796.000000	0.378771
797.000000	0.378883
798.000000	0.378951
799.000000	0.379051
800.000000	0.379145
801.000000	0.379183
802.000000	0.379234
803.000000	0.379262
804.000000	0.379292
805.000000	0.379318
806.000000	0.379302
807.000000	0.379350
808.000000	0.379440
809.000000	0.379515
810.000000	0.379540
811.000000	0.379492
812.000000	0.379437
813.000000	0.379376
814.000000	0.379334
815.000000	0.379376
816.000000	0.379412
817.000000	0.379457
818.000000	0.379444
819.000000	0.379484
820.000000	0.379474
821.000000	0.379348
822.000000	0.379290
823.000000	0.379289
824.000000	0.379269
825.000000	0.379283
826.000000	0.379323
827.000000	0.379355
828.000000	0.379403
829.000000	0.379427
830.000000	0.379381
831.000000	0.379316
832.000000	0.379147
833.000000	0.379056
834.000000	0.379025
835.000000	0.379035
836.000000	0.379010
837.000000	0.378919
838.000000	0.378813
839.000000	0.378751
840.000000	0.378691
841.000000	0.378651
842.000000	0.378598
843.000000	0.378540
844.000000	0.378501
845.000000	0.378441
846.000000	0.378340
847.000000	0.378226
848.000000	0.378138
849.000000	0.378135
850.000000	0.378070
851.000000	0.377952
852.000000	0.377851
853.000000	0.377769
854.000000	0.377661
855.000000	0.377617
856.000000	0.377521
857.000000	0.377317
858.000000	0.377130
859.000000	0.376939
860.000000	0.376774
861.000000	0.376669
862.000000	0.376653
863.000000	0.376650
864.000000	0.376674
865.000000	0.376680
866.000000	0.376641
867.000000	0.376456
868.000000	0.376298
869.000000	0.376122
870.000000	0.375949
871.000000	0.375813
872.000000	0.375667
873.000000	0.375447
874.000000	0.375347
875.000000	0.375199
876.000000	0.375009
877.000000	0.374768
878.000000	0.374517
879.000000	0.374333
880.000000	0.374083
881.000000	0.373829
882.000000	0.373632
883.000000	0.373486
884.000000	0.373278
885.000000	0.373125
886.000000	0.372936
887.000000	0.372720
888.000000	0.372599
889.000000	0.372520
890.000000	0.372341
891.000000	0.372168
892.000000	0.371938
893.000000	0.371663
894.000000	0.371495
895.000000	0.371317
896.000000	0.371092
897.000000	0.370826
898.000000	0.370558
899.000000	0.370376
900.000000	0.370279
901.000000	0.370186
902.000000	0.370088
903.000000	0.369918
904.000000	0.369732
905.000000	0.369493
906.000000	0.369327
907.000000	0.369163
908.000000	0.369021
909.000000	0.368804
910.000000	0.368612
911.000000	0.368417
912.000000	0.368198
913.000000	0.367971
914.000000	0.367716
915.000000	0.367501
916.000000	0.367258
917.000000	0.366962
918.000000	0.366753
919.000000	0.366655
920.000000	0.366432
921.000000	0.366200
922.000000	0.365994
923.000000	0.365765
924.000000	0.365486
925.000000	0.365187
926.000000	0.364941
927.000000	0.364749
928.000000	0.364567
929.000000	0.364322
930.000000	0.363987
931.000000	0.363773
932.000000	0.363553
933.000000	0.363325
934.000000	0.363116
935.000000	0.362868
936.000000	0.362640
937.000000	0.362363
938.000000	0.362034
939.000000	0.361843
940.000000	0.361651
941.000000	0.361335
942.000000	0.361078
943.000000	0.360902
944.000000	0.360687
945.000000	0.360613
946.000000	0.360385
947.000000	0.360146
948.000000	0.360021
949.000000	0.359749
950.000000	0.359485
951.000000	0.359227
952.000000	0.358953
953.000000	0.358670
954.000000	0.358441
955.000000	0.358199
956.000000	0.357862
957.000000	0.357582
958.000000	0.357356
959.000000	0.357230
960.000000	0.356916
961.000000	0.356657
962.000000	0.356503
963.000000	0.356308
964.000000	0.356103
965.000000	0.355891
966.000000	0.355567
967.000000	0.355342
968.000000	0.355134
969.000000	0.354856
970.000000	0.354593
971.000000	0.354403
972.000000	0.354250
973.000000	0.354060
974.000000	0.353950
975.000000	0.353696
976.000000	0.353404
977.000000	0.353188
978.000000	0.353012
979.000000	0.352899
980.000000	0.352654
981.000000	0.352549
982.000000	0.352329
983.000000	0.352022
984.000000	0.351827
985.000000	0.351878
986.000000	0.351698
987.000000	0.351531
988.000000	0.351433
989.000000	0.351212
990.000000	0.350936
991.000000	0.350798
992.000000	0.350952
993.000000	0.350892
994.000000	0.350704
995.000000	0.350602
996.000000	0.350411
997.000000	0.350416
998.000000	0.350321
999.000000	0.350147
1000.000000	0.350164
1001.000000	0.350331
1002.000000	0.350216
1003.000000	0.350086
1004.000000	0.349987
1005.000000	0.350049
1006.000000	0.349806
1007.000000	0.349469
1008.000000	0.349128
1009.000000	0.348872
1010.000000	0.348506
1011.000000	0.348614
1012.000000	0.348972
1013.000000	0.348657
1014.000000	0.348363
1015.000000	0.348332
1016.000000	0.348192
1017.000000	0.347994
1018.000000	0.348153
1019.000000	0.348322
1020.000000	0.348607
1021.000000	0.348379
1022.000000	0.348326
1023.000000	0.348542
1024.000000	0.348438
1025.000000	0.348572
1026.000000	0.348855
1027.000000	0.348669
1028.000000	0.348344
1029.000000	0.348379
1030.000000	0.348365
1031.000000	0.348432
1032.000000	0.348776
1033.000000	0.348752
1034.000000	0.348916
1035.000000	0.349406
1036.000000	0.349593
1037.000000	0.349627
1038.000000	0.349614
1039.000000	0.349639
1040.000000	0.349461
1041.000000	0.349469
1042.000000	0.349699
1043.000000	0.349758
1044.000000	0.349923
1045.000000	0.350175
1046.000000	0.350120
1047.000000	0.350232
1048.000000	0.350383
1049.000000	0.350556
1050.000000	0.350733
1051.000000	0.350898
1052.000000	0.351124
1053.000000	0.351169
1054.000000	0.351226
1055.000000	0.351433
1056.000000	0.351703
1057.000000	0.351959
1058.000000	0.352256
1059.000000	0.352322
1060.000000	0.352299
1061.000000	0.352407
1062.000000	0.352642
1063.000000	0.352906
1064.000000	0.353155
1065.000000	0.353469
1066.000000	0.353689
1067.000000	0.353713
1068.000000	0.353912
1069.000000	0.354212
1070.000000	0.354358
1071.000000	0.354502
1072.000000	0.354689
1073.000000	0.354804
1074.000000	0.355093
1075.000000	0.355399
1076.000000	0.355795
1077.000000	0.355932
1078.000000	0.355814
1079.000000	0.355949
1080.000000	0.356109
1081.000000	0.356280
1082.000000	0.356730
1083.000000	0.356996
1084.000000	0.357119
1085.000000	0.357401
1086.000000	0.357810
1087.000000	0.358087
1088.000000	0.358179
1089.000000	0.358386
1090.000000	0.358574
1091.000000	0.358651
1092.000000	0.358968
1093.000000	0.359357
1094.000000	0.359507
1095.000000	0.359370
1096.000000	0.359595
1097.000000	0.359860
1098.000000	0.360147
1099.000000	0.360638
1100.000000	0.360974
1101.000000	0.361179
1102.000000	0.361308
1103.000000	0.361245
1104.000000	0.361420
1105.000000	0.361656
1106.000000	0.361830
1107.000000	0.362032
1108.000000	0.362254
1109.000000	0.362541
1110.000000	0.362671
1111.000000	0.362886
1112.000000	0.363219
1113.000000	0.363477
1114.000000	0.363714
1115.000000	0.363868
1116.000000	0.363991
1117.000000	0.364137
1118.000000	0.364138
1119.000000	0.364209
1120.000000	0.364417
1121.000000	0.364520
1122.000000	0.364625
1123.000000	0.364966
1124.000000	0.365144
1125.000000	0.365342
1126.000000	0.365526
1127.000000	0.365665
1128.000000	0.365766
1129.000000	0.365842
1130.000000	0.365951
1131.000000	0.366096
1132.000000	0.366154
1133.000000	0.366227
1134.000000	0.366324
1135.000000	0.366331
1136.000000	0.366361
1137.000000	0.366447
1138.000000	0.366414
1139.000000	0.366371
1140.000000	0.366458
1141.000000	0.366486
1142.000000	0.366547
1143.000000	0.366627
1144.000000	0.366804
1145.000000	0.366828
1146.000000	0.366766
1147.000000	0.366764
1148.000000	0.366651
1149.000000	0.366648
1150.000000	0.366729
1151.000000	0.366760
1152.000000	0.366732
1153.000000	0.366760
1154.000000	0.366729
1155.000000	0.366717
1156.000000	0.366792
1157.000000	0.366796
1158.000000	0.366705
1159.000000	0.366623
1160.000000	0.366461
1161.000000	0.366358
1162.000000	0.366331
1163.000000	0.366441
1164.000000	0.366468
1165.000000	0.366507
1166.000000	0.366522
1167.000000	0.366441
1168.000000	0.366376
1169.000000	0.366332
1170.000000	0.366327
1171.000000	0.366390
1172.000000	0.366439
1173.000000	0.366448
1174.000000	0.366476
1175.000000	0.366491
1176.000000	0.366445
1177.000000	0.366475
1178.000000	0.366490
1179.000000	0.366434
1180.000000	0.366350
1181.000000	0.366346
1182.000000	0.366365
1183.000000	0.366419
1184.000000	0.366521
1185.000000	0.366574
1186.000000	0.366651
1187.000000	0.366670
1188.000000	0.366657
1189.000000	0.366578
1190.000000	0.366481
1191.000000	0.366440
1192.000000	0.366468
1193.000000	0.366596
1194.000000	0.366700
1195.000000	0.366767
1196.000000	0.366774
1197.000000	0.366776
1198.000000	0.366782
1199.000000	0.366782
1200.000000	0.366743
1201.000000	0.366718
1202.000000	0.366719
1203.000000	0.366732
1204.000000	0.366713
1205.000000	0.366724
1206.000000	0.366653
1207.000000	0.366592
1208.000000	0.366568
1209.000000	0.366621
1210.000000	0.366646
1211.000000	0.366721
1212.000000	0.366729
1213.000000	0.366729
1214.000000	0.366756
1215.000000	0.366750
1216.000000	0.366763
1217.000000	0.366753
1218.000000	0.366742
1219.000000	0.366763
1220.000000	0.366818
1221.000000	0.366870
1222.000000	0.366921
1223.000000	0.366970
1224.000000	0.367002
1225.000000	0.367002
1226.000000	0.367039
1227.000000	0.367044
1228.000000	0.367101
1229.000000	0.367082
1230.000000	0.367008
1231.000000	0.366906
1232.000000	0.366852
1233.000000	0.366964
1234.000000	0.367138
1235.000000	0.367248
1236.000000	0.367374
1237.000000	0.367457
1238.000000	0.367383
1239.000000	0.367363
1240.000000	0.367350
1241.000000	0.367316
1242.000000	0.367327
1243.000000	0.367379
1244.000000	0.367436
1245.000000	0.367584
1246.000000	0.367651
1247.000000	0.367766
1248.000000	0.367905
1249.000000	0.367988
1250.000000	0.368065
1251.000000	0.368095
1252.000000	0.368111
1253.000000	0.368126
1254.000000	0.368114
1255.000000	0.368068
1256.000000	0.368062
1257.000000	0.368066
1258.000000	0.368124
1259.000000	0.368151
1260.000000	0.368234
1261.000000	0.368298
1262.000000	0.368321
1263.000000	0.368365
1264.000000	0.368391
1265.000000	0.368406
1266.000000	0.368434
1267.000000	0.368477
1268.000000	0.368539
1269.000000	0.368501
1270.000000	0.368557
1271.000000	0.368618
1272.000000	0.368660
1273.000000	0.368772
1274.000000	0.368811
1275.000000	0.368845
1276.000000	0.368911
1277.000000	0.369011
1278.000000	0.369007
1279.000000	0.369005
1280.000000	0.368917
1281.000000	0.368841
1282.000000	0.368809
1283.000000	0.368860
1284.000000	0.368905
1285.000000	0.368921
1286.000000	0.368899
1287.000000	0.368884
1288.000000	0.368963
1289.000000	0.368986
1290.000000	0.368951
1291.000000	0.368959
1292.000000	0.368954
1293.000000	0.368904
1294.000000	0.368929
1295.000000	0.368994
1296.000000	0.368946
1297.000000	0.368916
1298.000000	0.368923
1299.000000	0.368891
1300.000000	0.368921
1301.000000	0.368886
1302.000000	0.368764
1303.000000	0.368679
1304.000000	0.368579
1305.000000	0.368540
1306.000000	0.368472
1307.000000	0.368493
1308.000000	0.368479
1309.000000	0.368395
1310.000000	0.368358
1311.000000	0.368406
1312.000000	0.368306
1313.000000	0.368226
1314.000000	0.368177
1315.000000	0.368009
1316.000000	0.367929
1317.000000	0.367890
1318.000000	0.367785
1319.000000	0.367593
1320.000000	0.367452
1321.000000	0.367322
1322.000000	0.367155
1323.000000	0.367051
1324.000000	0.366968
1325.000000	0.366777
1326.000000	0.366571
1327.000000	0.366402
1328.000000	0.366317
1329.000000	0.366129
1330.000000	0.365926
1331.000000	0.365746
1332.000000	0.365599
1333.000000	0.365406
1334.000000	0.365282
1335.000000	0.365176
1336.000000	0.365035
1337.000000	0.364875
1338.000000	0.364670
1339.000000	0.364465
1340.000000	0.364261
1341.000000	0.364077
1342.000000	0.363882
1343.000000	0.363654
1344.000000	0.363406
1345.000000	0.363119
1346.000000	0.362953
1347.000000	0.362721
1348.000000	0.362498
1349.000000	0.362231
1350.000000	0.361993
1351.000000	0.361780
1352.000000	0.361516
1353.000000	0.361245
1354.000000	0.360983
1355.000000	0.360687
1356.000000	0.360483
1357.000000	0.360202
1358.000000	0.359918
1359.000000	0.359642
1360.000000	0.359381
1361.000000	0.359193
1362.000000	0.358948
1363.000000	0.358651
1364.000000	0.358414
1365.000000	0.358117
1366.000000	0.357885
1367.000000	0.357717
1368.000000	0.357518
1369.000000	0.357380
1370.000000	0.357114
1371.000000	0.356735
1372.000000	0.356353
1373.000000	0.356020
1374.000000	0.355719
1375.000000	0.355390
1376.000000	0.355185
1377.000000	0.354901
1378.000000	0.354522
1379.000000	0.354160
1380.000000	0.353751
1381.000000	0.353284
1382.000000	0.352778
1383.000000	0.352255
1384.000000	0.351630
1385.000000	0.350947
1386.000000	0.350301
1387.000000	0.349656
1388.000000	0.348943
1389.000000	0.348197
1390.000000	0.347442
1391.000000	0.346578
1392.000000	0.345730
1393.000000	0.344788
1394.000000	0.343838
1395.000000	0.342829
1396.000000	0.341757
1397.000000	0.340579
1398.000000	0.339284
1399.000000	0.338040
1400.000000	0.336714
1401.000000	0.335384
1402.000000	0.334150
1403.000000	0.332784
1404.000000	0.331415
1405.000000	0.330058
1406.000000	0.328638
1407.000000	0.327285
1408.000000	0.325864
1409.000000	0.324491
1410.000000	0.323274
1411.000000	0.321935
1412.000000	0.320527
1413.000000	0.319208
1414.000000	0.317803
1415.000000	0.316424
1416.000000	0.315117
1417.000000	0.313783
1418.000000	0.312398
1419.000000	0.311058
1420.000000	0.309695
1421.000000	0.308412
1422.000000	0.307132
1423.000000	0.305916
1424.000000	0.304640
1425.000000	0.303398
1426.000000	0.302153
1427.000000	0.300887
1428.000000	0.299749
1429.000000	0.298643
1430.000000	0.297535
1431.000000	0.296518
1432.000000	0.295483
1433.000000	0.294454
1434.000000	0.293463
1435.000000	0.292571
1436.000000	0.291688
1437.000000	0.290832
1438.000000	0.289974
1439.000000	0.289152
1440.000000	0.288394
1441.000000	0.287669
1442.000000	0.287010
1443.000000	0.286359
1444.000000	0.285756
1445.000000	0.285192
1446.000000	0.284666
1447.000000	0.284168
1448.000000	0.283748
1449.000000	0.283353
1450.000000	0.282964
1451.000000	0.282619
1452.000000	0.282247
1453.000000	0.281890
1454.000000	0.281527
1455.000000	0.281164
1456.000000	0.280915
1457.000000	0.280720
1458.000000	0.280538
1459.000000	0.280403
1460.000000	0.280255
1461.000000	0.280064
1462.000000	0.279891
1463.000000	0.279648
1464.000000	0.279439
1465.000000	0.279341
1466.000000	0.279197
1467.000000	0.279133
1468.000000	0.279096
1469.000000	0.279053
1470.000000	0.279023
1471.000000	0.279049
1472.000000	0.279102
1473.000000	0.279235
1474.000000	0.279372
1475.000000	0.279543
1476.000000	0.279752
1477.000000	0.280001
1478.000000	0.280273
1479.000000	0.280560
1480.000000	0.280880
1481.000000	0.281194
1482.000000	0.281545
1483.000000	0.281970
1484.000000	0.282431
1485.000000	0.282908
1486.000000	0.283425
1487.000000	0.283930
1488.000000	0.284452
1489.000000	0.285000
1490.000000	0.285487
1491.000000	0.286004
1492.000000	0.286490
1493.000000	0.287010
1494.000000	0.287523
1495.000000	0.287980
1496.000000	0.288401
1497.000000	0.288856
1498.000000	0.289325
1499.000000	0.289741
1500.000000	0.290185
1501.000000	0.290651
1502.000000	0.291011
1503.000000	0.291421
1504.000000	0.291885
1505.000000	0.292264
1506.000000	0.292664
1507.000000	0.293017
1508.000000	0.293363
1509.000000	0.293713
1510.000000	0.293998
1511.000000	0.294314
1512.000000	0.294573
1513.000000	0.294773
1514.000000	0.295015
1515.000000	0.295235
1516.000000	0.295484
1517.000000	0.295704
1518.000000	0.295864
1519.000000	0.296003
1520.000000	0.296156
1521.000000	0.296284
1522.000000	0.296536
1523.000000	0.296765
1524.000000	0.296885
1525.000000	0.297098
1526.000000	0.297268
1527.000000	0.297449
1528.000000	0.297670
1529.000000	0.297813
1530.000000	0.297867
1531.000000	0.297955
1532.000000	0.298094
1533.000000	0.298204
1534.000000	0.298327
1535.000000	0.298462
1536.000000	0.298474
1537.000000	0.298545
1538.000000	0.298633
1539.000000	0.298646
1540.000000	0.298731
1541.000000	0.298842
1542.000000	0.298942
1543.000000	0.299070
1544.000000	0.299184
1545.000000	0.299323
1546.000000	0.299442
1547.000000	0.299515
1548.000000	0.299566
1549.000000	0.299578
1550.000000	0.299554
1551.000000	0.299567
1552.000000	0.299637
1553.000000	0.299658
1554.000000	0.299712
1555.000000	0.299788
1556.000000	0.299776
1557.000000	0.299767
1558.000000	0.299788
1559.000000	0.299744
1560.000000	0.299727
1561.000000	0.299793
1562.000000	0.299776
1563.000000	0.299761
1564.000000	0.299757
1565.000000	0.299725
1566.000000	0.299658
1567.000000	0.299668
1568.000000	0.299662
1569.000000	0.299712
1570.000000	0.299723
1571.000000	0.299724
1572.000000	0.299696
1573.000000	0.299635
1574.000000	0.299580
1575.000000	0.299519
1576.000000	0.299517
1577.000000	0.299544
1578.000000	0.299499
1579.000000	0.299519
1580.000000	0.299486
1581.000000	0.299439
1582.000000	0.299389
1583.000000	0.299330
1584.000000	0.299251
1585.000000	0.299210
1586.000000	0.299191
1587.000000	0.299181
1588.000000	0.299167
1589.000000	0.299191
1590.000000	0.299185
1591.000000	0.299172
1592.000000	0.299203
1593.000000	0.299257
1594.000000	0.299288
1595.000000	0.299396
1596.000000	0.299467
1597.000000	0.299536
1598.000000	0.299603
1599.000000	0.299719
1600.000000	0.299748
1601.000000	0.299800
1602.000000	0.299837
1603.000000	0.299828
1604.000000	0.299869
1605.000000	0.299953
1606.000000	0.300048
1607.000000	0.300255
1608.000000	0.300370
1609.000000	0.300504
1610.000000	0.300585
1611.000000	0.300605
1612.000000	0.300673
1613.000000	0.300847
1614.000000	0.300960
1615.000000	0.301120
1616.000000	0.301280
1617.000000	0.301379
1618.000000	0.301490
1619.000000	0.301578
1620.000000	0.301692
1621.000000	0.301840
1622.000000	0.302044
1623.000000	0.302247
1624.000000	0.302441
1625.000000	0.302519
1626.000000	0.302621
1627.000000	0.302731
1628.000000	0.302958
1629.000000	0.303253
1630.000000	0.303510
1631.000000	0.303746
1632.000000	0.303961
1633.000000	0.304144
1634.000000	0.304369
1635.000000	0.304681
1636.000000	0.304927
1637.000000	0.305159
1638.000000	0.305383
1639.000000	0.305627
1640.000000	0.305867
1641.000000	0.306169
1642.000000	0.306456
1643.000000	0.306792
1644.000000	0.307075
1645.000000	0.307343
1646.000000	0.307562
1647.000000	0.307765
1648.000000	0.307948
1649.000000	0.308184
1650.000000	0.308419
1651.000000	0.308678
1652.000000	0.308938
1653.000000	0.309145
1654.000000	0.309413
1655.000000	0.309656
1656.000000	0.309833
1657.000000	0.310097
1658.000000	0.310301
1659.000000	0.310541
1660.000000	0.310795
1661.000000	0.310939
1662.000000	0.311196
1663.000000	0.311481
1664.000000	0.311743
1665.000000	0.312055
1666.000000	0.312403
1667.000000	0.312672
1668.000000	0.312917
1669.000000	0.313180
1670.000000	0.313344
1671.000000	0.313486
1672.000000	0.313753
1673.000000	0.314038
1674.000000	0.314283
1675.000000	0.314560
1676.000000	0.314734
1677.000000	0.314843
1678.000000	0.314996
1679.000000	0.315182
1680.000000	0.315301
1681.000000	0.315503
1682.000000	0.315721
1683.000000	0.315857
1684.000000	0.316018
1685.000000	0.316212
1686.000000	0.316316
1687.000000	0.316435
1688.000000	0.316539
1689.000000	0.316597
1690.000000	0.316641
1691.000000	0.316774
1692.000000	0.316873
1693.000000	0.316985
1694.000000	0.317080
1695.000000	0.317229
1696.000000	0.317316
1697.000000	0.317359
1698.000000	0.317436
1699.000000	0.317528
1700.000000	0.317581
1701.000000	0.317759
1702.000000	0.317841
1703.000000	0.317899
1704.000000	0.318077
1705.000000	0.318216
1706.000000	0.318366
1707.000000	0.318513
1708.000000	0.318640
1709.000000	0.318699
1710.000000	0.318788
1711.000000	0.318928
1712.000000	0.319119
1713.000000	0.319241
1714.000000	0.319400
1715.000000	0.319556
1716.000000	0.319682
1717.000000	0.319804
1718.000000	0.319923
1719.000000	0.320019
1720.000000	0.320099
1721.000000	0.320227
1722.000000	0.320386
1723.000000	0.320561
1724.000000	0.320793
1725.000000	0.321033
1726.000000	0.321225
1727.000000	0.321401
1728.000000	0.321525
1729.000000	0.321580
1730.000000	0.321675
1731.000000	0.321843
1732.000000	0.322029
1733.000000	0.322302
1734.000000	0.322558
1735.000000	0.322773
1736.000000	0.322956
1737.000000	0.323122
1738.000000	0.323290
1739.000000	0.323423
1740.000000	0.323498
1741.000000	0.323608
1742.000000	0.323703
1743.000000	0.323898
1744.000000	0.324139
1745.000000	0.324323
1746.000000	0.324524
1747.000000	0.324683
1748.000000	0.324778
1749.000000	0.324826
1750.000000	0.324881
1751.000000	0.325056
1752.000000	0.325276
1753.000000	0.325390
1754.000000	0.325519
1755.000000	0.325590
1756.000000	0.325660
1757.000000	0.325736
1758.000000	0.325833
1759.000000	0.325891
1760.000000	0.325997
1761.000000	0.326111
1762.000000	0.326218
1763.000000	0.326395
1764.000000	0.326515
1765.000000	0.326534
1766.000000	0.326647
1767.000000	0.326695
1768.000000	0.326747
1769.000000	0.326969
1770.000000	0.327136
1771.000000	0.327234
1772.000000	0.327308
1773.000000	0.327291
1774.000000	0.327337
1775.000000	0.327447
1776.000000	0.327513
1777.000000	0.327550
1778.000000	0.327599
1779.000000	0.327579
1780.000000	0.327684
1781.000000	0.327836
1782.000000	0.327967
1783.000000	0.328179
1784.000000	0.328375
1785.000000	0.328535
1786.000000	0.328711
1787.000000	0.328988
1788.000000	0.329220
1789.000000	0.329352
1790.000000	0.329597
1791.000000	0.329702
1792.000000	0.329796
1793.000000	0.329928
1794.000000	0.330000
1795.000000	0.330148
1796.000000	0.330402
1797.000000	0.330575
1798.000000	0.330707
1799.000000	0.330834
1800.000000	0.330959
1801.000000	0.330839
1802.000000	0.330970
1803.000000	0.330692
1804.000000	0.330896
1805.000000	0.331210
1806.000000	0.331470
1807.000000	0.332105
1808.000000	0.332328
1809.000000	0.332129
1810.000000	0.332084
1811.000000	0.332197
1812.000000	0.332266
1813.000000	0.332504
1814.000000	0.333265
1815.000000	0.333435
1816.000000	0.333375
1817.000000	0.333216
1818.000000	0.332713
1819.000000	0.332485
1820.000000	0.332511
1821.000000	0.332529
1822.000000	0.332455
1823.000000	0.332275
1824.000000	0.332182
1825.000000	0.331944
1826.000000	0.331909
1827.000000	0.331917
1828.000000	0.332102
1829.000000	0.332038
1830.000000	0.331892
1831.000000	0.331643
1832.000000	0.331024
1833.000000	0.330877
1834.000000	0.330906
1835.000000	0.330884
1836.000000	0.331096
1837.000000	0.331136
1838.000000	0.331017
1839.000000	0.330744
1840.000000	0.330169
1841.000000	0.329806
1842.000000	0.329475
1843.000000	0.328937
1844.000000	0.328612
1845.000000	0.328462
1846.000000	0.328309
1847.000000	0.328104
1848.000000	0.327788
1849.000000	0.327458
1850.000000	0.326924
1851.000000	0.326523
1852.000000	0.326089
1853.000000	0.325567
1854.000000	0.324897
1855.000000	0.324102
1856.000000	0.323025
1857.000000	0.321909
1858.000000	0.320928
1859.000000	0.319930
1860.000000	0.318727
1861.000000	0.317478
1862.000000	0.316337
1863.000000	0.315332
1864.000000	0.314249
1865.000000	0.313374
1866.000000	0.312069
1867.000000	0.310581
1868.000000	0.308747
1869.000000	0.306588
1870.000000	0.304604
1871.000000	0.302510
1872.000000	0.300352
1873.000000	0.298190
1874.000000	0.296078
1875.000000	0.293833
1876.000000	0.291361
1877.000000	0.288525
1878.000000	0.285806
1879.000000	0.282839
1880.000000	0.279877
1881.000000	0.276864
1882.000000	0.273678
1883.000000	0.270425
1884.000000	0.267093
1885.000000	0.263524
1886.000000	0.259845
1887.000000	0.256029
1888.000000	0.251864
1889.000000	0.247797
1890.000000	0.243843
1891.000000	0.239817
1892.000000	0.235738
1893.000000	0.231647
1894.000000	0.227450
1895.000000	0.223256
1896.000000	0.219206
1897.000000	0.215158
1898.000000	0.210800
1899.000000	0.206771
1900.000000	0.202818
1901.000000	0.198962
1902.000000	0.195265
1903.000000	0.191456
1904.000000	0.187841
1905.000000	0.184167
1906.000000	0.180729
1907.000000	0.177540
1908.000000	0.174709
1909.000000	0.171748
1910.000000	0.169100
1911.000000	0.166372
1912.000000	0.163451
1913.000000	0.161067
1914.000000	0.158788
1915.000000	0.156558
1916.000000	0.154870
1917.000000	0.153250
1918.000000	0.151826
1919.000000	0.150422
1920.000000	0.149305
1921.000000	0.148090
1922.000000	0.146747
1923.000000	0.145701
1924.000000	0.144674
1925.000000	0.143923
1926.000000	0.143371
1927.000000	0.142862
1928.000000	0.142477
1929.000000	0.142319
1930.000000	0.142097
1931.000000	0.141936
1932.000000	0.141984
1933.000000	0.141895
1934.000000	0.141602
1935.000000	0.141544
1936.000000	0.141577
1937.000000	0.141506
1938.000000	0.141668
1939.000000	0.141684
1940.000000	0.141674
1941.000000	0.141438
1942.000000	0.141275
1943.000000	0.141006
1944.000000	0.140906
1945.000000	0.140732
1946.000000	0.140355
1947.000000	0.140001
1948.000000	0.139547
1949.000000	0.139109
1950.000000	0.138769
1951.000000	0.138357
1952.000000	0.138024
1953.000000	0.137644
1954.000000	0.137151
1955.000000	0.136598
1956.000000	0.136166
1957.000000	0.135660
1958.000000	0.135226
1959.000000	0.135059
1960.000000	0.134821
1961.000000	0.134484
1962.000000	0.134196
1963.000000	0.133947
1964.000000	0.133686
1965.000000	0.133424
1966.000000	0.133339
1967.000000	0.133293
1968.000000	0.133149
1969.000000	0.132952
1970.000000	0.132801
1971.000000	0.132728
1972.000000	0.132697
1973.000000	0.132659
1974.000000	0.132702
1975.000000	0.132788
1976.000000	0.132899
1977.000000	0.133105
1978.000000	0.133271
1979.000000	0.133877
1980.000000	0.134360
1981.000000	0.134644
1982.000000	0.135029
1983.000000	0.135343
1984.000000	0.135713
1985.000000	0.136117
1986.000000	0.136531
1987.000000	0.137026
1988.000000	0.137529
1989.000000	0.137967
1990.000000	0.138674
1991.000000	0.139219
1992.000000	0.139734
1993.000000	0.140499
1994.000000	0.141223
1995.000000	0.141914
1996.000000	0.142633
1997.000000	0.143415
1998.000000	0.144064
1999.000000	0.144941
2000.000000	0.146052
2001.000000	0.147208
2002.000000	0.148108
2003.000000	0.149137
2004.000000	0.149909
2005.000000	0.150418
2006.000000	0.151132
2007.000000	0.151980
2008.000000	0.152848
2009.000000	0.153772
2010.000000	0.154786
2011.000000	0.155852
2012.000000	0.156777
2013.000000	0.157585
2014.000000	0.158605
2015.000000	0.159622
2016.000000	0.160589
2017.000000	0.161645
2018.000000	0.162695
2019.000000	0.163596
2020.000000	0.164527
2021.000000	0.165622
2022.000000	0.166921
2023.000000	0.168036
2024.000000	0.169277
2025.000000	0.170334
2026.000000	0.171166
2027.000000	0.171826
2028.000000	0.172637
2029.000000	0.173623
2030.000000	0.174628
2031.000000	0.175634
2032.000000	0.176680
2033.000000	0.177800
2034.000000	0.178878
2035.000000	0.180117
2036.000000	0.181098
2037.000000	0.182072
2038.000000	0.182955
2039.000000	0.183686
2040.000000	0.184530
2041.000000	0.185375
2042.000000	0.186288
2043.000000	0.187084
2044.000000	0.187880
2045.000000	0.188714
2046.000000	0.189394
2047.000000	0.190233
2048.000000	0.191192
2049.000000	0.192148
2050.000000	0.192925
2051.000000	0.193726
2052.000000	0.194436
2053.000000	0.195135
2054.000000	0.195928
2055.000000	0.196855
2056.000000	0.197762
2057.000000	0.198662
2058.000000	0.199845
2059.000000	0.200826
2060.000000	0.201581
2061.000000	0.202240
2062.000000	0.202835
2063.000000	0.203143
2064.000000	0.203600
2065.000000	0.204290
2066.000000	0.204880
2067.000000	0.205606
2068.000000	0.206223
2069.000000	0.207200
2070.000000	0.208310
2071.000000	0.209185
2072.000000	0.210186
2073.000000	0.211018
2074.000000	0.211708
2075.000000	0.212593
2076.000000	0.213715
2077.000000	0.214569
2078.000000	0.215377
2079.000000	0.216083
2080.000000	0.216578
2081.000000	0.217323
2082.000000	0.218156
2083.000000	0.218945
2084.000000	0.220015
2085.000000	0.220849
2086.000000	0.221596
2087.000000	0.222600
2088.000000	0.223559
2089.000000	0.224576
2090.000000	0.225578
2091.000000	0.226769
2092.000000	0.227712
2093.000000	0.228589
2094.000000	0.229382
2095.000000	0.229977
2096.000000	0.230712
2097.000000	0.231417
2098.000000	0.232001
2099.000000	0.232820
2100.000000	0.233635
2101.000000	0.234510
2102.000000	0.235506
2103.000000	0.236211
2104.000000	0.236778
2105.000000	0.237332
2106.000000	0.237626
2107.000000	0.238127
2108.000000	0.238609
2109.000000	0.239306
2110.000000	0.240119
2111.000000	0.240732
2112.000000	0.241324
2113.000000	0.241786
2114.000000	0.242039
2115.000000	0.242441
2116.000000	0.243021
2117.000000	0.243438
2118.000000	0.243943
2119.000000	0.244517
2120.000000	0.245035
2121.000000	0.245513
2122.000000	0.246035
2123.000000	0.246546
2124.000000	0.247061
2125.000000	0.247706
2126.000000	0.248165
2127.000000	0.248485
2128.000000	0.248972
2129.000000	0.249484
2130.000000	0.249743
2131.000000	0.249907
2132.000000	0.250254
2133.000000	0.250534
2134.000000	0.250783
2135.000000	0.251045
2136.000000	0.251286
2137.000000	0.251490
2138.000000	0.251512
2139.000000	0.251754
2140.000000	0.252166
2141.000000	0.252409
2142.000000	0.252588
2143.000000	0.252605
2144.000000	0.252689
2145.000000	0.252810
2146.000000	0.252910
2147.000000	0.253301
2148.000000	0.253557
2149.000000	0.253864
2150.000000	0.254154
2151.000000	0.254202
2152.000000	0.254293
2153.000000	0.254349
2154.000000	0.254438
2155.000000	0.254602
2156.000000	0.254748
2157.000000	0.254929
2158.000000	0.255124
2159.000000	0.255404
2160.000000	0.255651
2161.000000	0.255801
2162.000000	0.256071
2163.000000	0.256414
2164.000000	0.256528
2165.000000	0.256481
2166.000000	0.256610
2167.000000	0.256874
2168.000000	0.257011
2169.000000	0.256980
2170.000000	0.257083
2171.000000	0.257029
2172.000000	0.256485
2173.000000	0.256486
2174.000000	0.256817
2175.000000	0.256979
2176.000000	0.257240
2177.000000	0.257444
2178.000000	0.257805
2179.000000	0.257988
2180.000000	0.257969
2181.000000	0.258246
2182.000000	0.258135
2183.000000	0.257805
2184.000000	0.257804
2185.000000	0.257708
2186.000000	0.257416
2187.000000	0.257782
2188.000000	0.258231
2189.000000	0.258129
2190.000000	0.258173
2191.000000	0.258428
2192.000000	0.258377
2193.000000	0.258063
2194.000000	0.257932
2195.000000	0.257683
2196.000000	0.257736
2197.000000	0.258049
2198.000000	0.258204
2199.000000	0.258686
2200.000000	0.258843
2201.000000	0.258536
2202.000000	0.258727
2203.000000	0.258912
2204.000000	0.259232
2205.000000	0.259055
2206.000000	0.258906
2207.000000	0.259186
2208.000000	0.258633
2209.000000	0.258555
2210.000000	0.258971
2211.000000	0.258416
2212.000000	0.259030
2213.000000	0.258811
2214.000000	0.258250
2215.000000	0.257996
2216.000000	0.257284
2217.000000	0.256958
2218.000000	0.257036
2219.000000	0.257391
2220.000000	0.258155
2221.000000	0.258631
2222.000000	0.259091
2223.000000	0.259778
2224.000000	0.260237
2225.000000	0.261343
2226.000000	0.261625
2227.000000	0.261769
2228.000000	0.261826
2229.000000	0.260671
2230.000000	0.260121
2231.000000	0.259501
2232.000000	0.258991
2233.000000	0.258947
2234.000000	0.259131
2235.000000	0.260354
2236.000000	0.260638
2237.000000	0.260578
2238.000000	0.260347
2239.000000	0.259538
2240.000000	0.259288
2241.000000	0.259207
2242.000000	0.259009
2243.000000	0.258931
2244.000000	0.258834
2245.000000	0.258697
2246.000000	0.258694
2247.000000	0.258470
2248.000000	0.258494
2249.000000	0.259135
2250.000000	0.258777
2251.000000	0.258261
2252.000000	0.259080
2253.000000	0.258610
2254.000000	0.258404
2255.000000	0.259154
2256.000000	0.259264
2257.000000	0.260162
2258.000000	0.260482
2259.000000	0.259762
2260.000000	0.259799
2261.000000	0.259283
2262.000000	0.258222
2263.000000	0.257710
2264.000000	0.257441
2265.000000	0.256763
2266.000000	0.256177
2267.000000	0.255325
2268.000000	0.253669
2269.000000	0.252936
2270.000000	0.252578
2271.000000	0.252094
2272.000000	0.252129
2273.000000	0.252183
2274.000000	0.252492
2275.000000	0.252162
2276.000000	0.251943
2277.000000	0.250851
2278.000000	0.248917
2279.000000	0.247022
2280.000000	0.245713
2281.000000	0.245019
2282.000000	0.244493
2283.000000	0.243902
2284.000000	0.243498
2285.000000	0.242459
2286.000000	0.241990
2287.000000	0.242149
2288.000000	0.241800
2289.000000	0.241771
2290.000000	0.241181
2291.000000	0.240253
2292.000000	0.239815
2293.000000	0.238625
2294.000000	0.237575
2295.000000	0.236567
2296.000000	0.235535
2297.000000	0.234057
2298.000000	0.233603
2299.000000	0.233865
2300.000000	0.233285
2301.000000	0.232961
2302.000000	0.231907
2303.000000	0.229616
2304.000000	0.228613
2305.000000	0.228215
2306.000000	0.227705
2307.000000	0.227651
2308.000000	0.227253
2309.000000	0.226480
2310.000000	0.225865
2311.000000	0.226122
2312.000000	0.225960
2313.000000	0.226098
2314.000000	0.225829
2315.000000	0.224711
2316.000000	0.224827
2317.000000	0.224430
2318.000000	0.223679
2319.000000	0.223896
2320.000000	0.222804
2321.000000	0.221675
2322.000000	0.221304
2323.000000	0.219861
2324.000000	0.218284
2325.000000	0.217076
2326.000000	0.216088
2327.000000	0.215684
2328.000000	0.215295
2329.000000	0.214547
2330.000000	0.213487
2331.000000	0.211999
2332.000000	0.210619
2333.000000	0.210020
2334.000000	0.208876
2335.000000	0.208071
2336.000000	0.207538
2337.000000	0.206133
2338.000000	0.204182
2339.000000	0.202653
2340.000000	0.200187
2341.000000	0.198890
2342.000000	0.198611
2343.000000	0.197735
2344.000000	0.197311
2345.000000	0.196265
2346.000000	0.194566
2347.000000	0.193621
2348.000000	0.192792
2349.000000	0.192032
2350.000000	0.191549
2351.000000	0.190459
2352.000000	0.189212
2353.000000	0.187660
2354.000000	0.185137
2355.000000	0.183544
2356.000000	0.181414
2357.000000	0.179095
2358.000000	0.178273
2359.000000	0.177884
2360.000000	0.178142
2361.000000	0.178213
2362.000000	0.177379
2363.000000	0.176415
2364.000000	0.174699
2365.000000	0.171955
2366.000000	0.169455
2367.000000	0.167958
2368.000000	0.165989
2369.000000	0.164925
2370.000000	0.165249
2371.000000	0.164006
2372.000000	0.163042
2373.000000	0.163921
2374.000000	0.164281
2375.000000	0.165381
2376.000000	0.166703
2377.000000	0.164646
2378.000000	0.162281
2379.000000	0.160393
2380.000000	0.157626
2381.000000	0.156101
2382.000000	0.156344
2383.000000	0.157386
2384.000000	0.157402
2385.000000	0.157168
2386.000000	0.155803
2387.000000	0.152803
2388.000000	0.150377
2389.000000	0.148962
2390.000000	0.147864
2391.000000	0.145986
2392.000000	0.144147
2393.000000	0.143212
2394.000000	0.143277
2395.000000	0.143277
2396.000000	0.144382
2397.000000	0.144717
2398.000000	0.142797
2399.000000	0.143908
2400.000000	0.143340
2401.000000	0.140881
2402.000000	0.142125
2403.000000	0.140225
2404.000000	0.138595
2405.000000	0.141930
2406.000000	0.142792
2407.000000	0.143376
2408.000000	0.144796
2409.000000	0.143779
2410.000000	0.142714
2411.000000	0.140558
2412.000000	0.138608
2413.000000	0.136766
2414.000000	0.133468
2415.000000	0.132775
2416.000000	0.132637
2417.000000	0.131217
2418.000000	0.128821
2419.000000	0.127006
2420.000000	0.126348
2421.000000	0.125005
2422.000000	0.126377
2423.000000	0.126368
2424.000000	0.124995
2425.000000	0.125756
2426.000000	0.124643
2427.000000	0.126996
2428.000000	0.129768
2429.000000	0.130887
2430.000000	0.134099
2431.000000	0.134888
2432.000000	0.134799
2433.000000	0.134416
2434.000000	0.134495
2435.000000	0.132916
2436.000000	0.131070
2437.000000	0.130489
2438.000000	0.126614
2439.000000	0.122579
2440.000000	0.120878
2441.000000	0.122313
2442.000000	0.125579
2443.000000	0.131725
2444.000000	0.138594
2445.000000	0.139241
2446.000000	0.135848
2447.000000	0.132034
2448.000000	0.129578
2449.000000	0.130028
2450.000000	0.133689
2451.000000	0.136897
2452.000000	0.135724
2453.000000	0.134108
2454.000000	0.130071
2455.000000	0.124275
2456.000000	0.124064
2457.000000	0.120588
2458.000000	0.119650
2459.000000	0.126619
2460.000000	0.126627
2461.000000	0.125741
2462.000000	0.123538
2463.000000	0.116737
2464.000000	0.111629
2465.000000	0.102568
2466.000000	0.096912
2467.000000	0.096666
2468.000000	0.095725
2469.000000	0.097385
2470.000000	0.102597
2471.000000	0.106121
2472.000000	0.109727
2473.000000	0.116871
2474.000000	0.116384
2475.000000	0.112416
2476.000000	0.103493
2477.000000	0.094914
2478.000000	0.095817
2479.000000	0.096219
2480.000000	0.095829
2481.000000	0.094353
2482.000000	0.095507
2483.000000	0.099012
2484.000000	0.104113
2485.000000	0.108089
2486.000000	0.102950
2487.000000	0.098175
2488.000000	0.088884
2489.000000	0.087211
2490.000000	0.103947
2491.000000	0.111346
2492.000000	0.116764
2493.000000	0.124901
2494.000000	0.134895
2495.000000	0.152826
2496.000000	0.154562
2497.000000	0.140820
2498.000000	0.129732
2499.000000	0.114671
2500.000000	0.094814
