# Wavelength	Nau-1_90_FV7_10_00000.asd.rts.txt
350.000000	0.106460
351.000000	0.086422
352.000000	0.095975
353.000000	0.100115
354.000000	0.086036
355.000000	0.084304
356.000000	0.089357
357.000000	0.093467
358.000000	0.084827
359.000000	0.084885
360.000000	0.091464
361.000000	0.095653
362.000000	0.085422
363.000000	0.077647
364.000000	0.082030
365.000000	0.090652
366.000000	0.087710
367.000000	0.076356
368.000000	0.076776
369.000000	0.081778
370.000000	0.087190
371.000000	0.089802
372.000000	0.090087
373.000000	0.088046
374.000000	0.085455
375.000000	0.088157
376.000000	0.091676
377.000000	0.093624
378.000000	0.093472
379.000000	0.087231
380.000000	0.082492
381.000000	0.088550
382.000000	0.091123
383.000000	0.092579
384.000000	0.095325
385.000000	0.095720
386.000000	0.095890
387.000000	0.097558
388.000000	0.102532
389.000000	0.103435
390.000000	0.102564
391.000000	0.104769
392.000000	0.102719
393.000000	0.103307
394.000000	0.110426
395.000000	0.113126
396.000000	0.114840
397.000000	0.116494
398.000000	0.114907
399.000000	0.116274
400.000000	0.119829
401.000000	0.121870
402.000000	0.123449
403.000000	0.124968
404.000000	0.126806
405.000000	0.129286
406.000000	0.131058
407.000000	0.132005
408.000000	0.134011
409.000000	0.136142
410.000000	0.137932
411.000000	0.139090
412.000000	0.139990
413.000000	0.141258
414.000000	0.143230
415.000000	0.144298
416.000000	0.144829
417.000000	0.145334
418.000000	0.146364
419.000000	0.147214
420.000000	0.147639
421.000000	0.147727
422.000000	0.147889
423.000000	0.147932
424.000000	0.147623
425.000000	0.147854
426.000000	0.148132
427.000000	0.147940
428.000000	0.147069
429.000000	0.146937
430.000000	0.147570
431.000000	0.147115
432.000000	0.146863
433.000000	0.146795
434.000000	0.146466
435.000000	0.146820
436.000000	0.146905
437.000000	0.145926
438.000000	0.145560
439.000000	0.145050
440.000000	0.144188
441.000000	0.143901
442.000000	0.143290
443.000000	0.142456
444.000000	0.142288
445.000000	0.141921
446.000000	0.141565
447.000000	0.141636
448.000000	0.142577
449.000000	0.143935
450.000000	0.145459
451.000000	0.147710
452.000000	0.150370
453.000000	0.153145
454.000000	0.155814
455.000000	0.159060
456.000000	0.162845
457.000000	0.166707
458.000000	0.170540
459.000000	0.173908
460.000000	0.176651
461.000000	0.179607
462.000000	0.182453
463.000000	0.184919
464.000000	0.187251
465.000000	0.189449
466.000000	0.191269
467.000000	0.192404
468.000000	0.193871
469.000000	0.195501
470.000000	0.196913
471.000000	0.197601
472.000000	0.198388
473.000000	0.199710
474.000000	0.200645
475.000000	0.201419
476.000000	0.202255
477.000000	0.203140
478.000000	0.203774
479.000000	0.204380
480.000000	0.205112
481.000000	0.206047
482.000000	0.206918
483.000000	0.207415
484.000000	0.208275
485.000000	0.209152
486.000000	0.209962
487.000000	0.210671
488.000000	0.211309
489.000000	0.212000
490.000000	0.212921
491.000000	0.213581
492.000000	0.214261
493.000000	0.215255
494.000000	0.216242
495.000000	0.217076
496.000000	0.217762
497.000000	0.218846
498.000000	0.219794
499.000000	0.220592
500.000000	0.221708
501.000000	0.222684
502.000000	0.223572
503.000000	0.224551
504.000000	0.225425
505.000000	0.226340
506.000000	0.227437
507.000000	0.228500
508.000000	0.229553
509.000000	0.230586
510.000000	0.231599
511.000000	0.232722
512.000000	0.233967
513.000000	0.235199
514.000000	0.236388
515.000000	0.237650
516.000000	0.239042
517.000000	0.240195
518.000000	0.241407
519.000000	0.242807
520.000000	0.244050
521.000000	0.245268
522.000000	0.246562
523.000000	0.247986
524.000000	0.249415
525.000000	0.250821
526.000000	0.252272
527.000000	0.253862
528.000000	0.255454
529.000000	0.256951
530.000000	0.258439
531.000000	0.260034
532.000000	0.261717
533.000000	0.263514
534.000000	0.265215
535.000000	0.266816
536.000000	0.268571
537.000000	0.270249
538.000000	0.271908
539.000000	0.273685
540.000000	0.275413
541.000000	0.277120
542.000000	0.278874
543.000000	0.280557
544.000000	0.282298
545.000000	0.284093
546.000000	0.285939
547.000000	0.287759
548.000000	0.289528
549.000000	0.291163
550.000000	0.292876
551.000000	0.294665
552.000000	0.296403
553.000000	0.298088
554.000000	0.299785
555.000000	0.301540
556.000000	0.303315
557.000000	0.304921
558.000000	0.306463
559.000000	0.308023
560.000000	0.309543
561.000000	0.311094
562.000000	0.312631
563.000000	0.314066
564.000000	0.315480
565.000000	0.316836
566.000000	0.318045
567.000000	0.319246
568.000000	0.320492
569.000000	0.321709
570.000000	0.322879
571.000000	0.323978
572.000000	0.325014
573.000000	0.325980
574.000000	0.326861
575.000000	0.327708
576.000000	0.328594
577.000000	0.329378
578.000000	0.330027
579.000000	0.330619
580.000000	0.331226
581.000000	0.331862
582.000000	0.332465
583.000000	0.333018
584.000000	0.333536
585.000000	0.334062
586.000000	0.334450
587.000000	0.334794
588.000000	0.335210
589.000000	0.335555
590.000000	0.335881
591.000000	0.336202
592.000000	0.336386
593.000000	0.336592
594.000000	0.336838
595.000000	0.337014
596.000000	0.337085
597.000000	0.337142
598.000000	0.337209
599.000000	0.337262
600.000000	0.337299
601.000000	0.337262
602.000000	0.337353
603.000000	0.337432
604.000000	0.337438
605.000000	0.337410
606.000000	0.337368
607.000000	0.337299
608.000000	0.337165
609.000000	0.337120
610.000000	0.337077
611.000000	0.336924
612.000000	0.336826
613.000000	0.336802
614.000000	0.336844
615.000000	0.336731
616.000000	0.336572
617.000000	0.336448
618.000000	0.336565
619.000000	0.336635
620.000000	0.336602
621.000000	0.336575
622.000000	0.336556
623.000000	0.336529
624.000000	0.336507
625.000000	0.336645
626.000000	0.336759
627.000000	0.336787
628.000000	0.336871
629.000000	0.336975
630.000000	0.336984
631.000000	0.337063
632.000000	0.337122
633.000000	0.337175
634.000000	0.337226
635.000000	0.337250
636.000000	0.337306
637.000000	0.337406
638.000000	0.337556
639.000000	0.337575
640.000000	0.337577
641.000000	0.337755
642.000000	0.337811
643.000000	0.337831
644.000000	0.337989
645.000000	0.338061
646.000000	0.338178
647.000000	0.338384
648.000000	0.338473
649.000000	0.338645
650.000000	0.338915
651.000000	0.339144
652.000000	0.339336
653.000000	0.339557
654.000000	0.339803
655.000000	0.340069
656.000000	0.340337
657.000000	0.340549
658.000000	0.340842
659.000000	0.341143
660.000000	0.341412
661.000000	0.341735
662.000000	0.342030
663.000000	0.342356
664.000000	0.342733
665.000000	0.343176
666.000000	0.343606
667.000000	0.343919
668.000000	0.344260
669.000000	0.344632
670.000000	0.345029
671.000000	0.345407
672.000000	0.345873
673.000000	0.346389
674.000000	0.346826
675.000000	0.347276
676.000000	0.347756
677.000000	0.348267
678.000000	0.348690
679.000000	0.349126
680.000000	0.349650
681.000000	0.350168
682.000000	0.350748
683.000000	0.351331
684.000000	0.351997
685.000000	0.352647
686.000000	0.353271
687.000000	0.353832
688.000000	0.354421
689.000000	0.355041
690.000000	0.355718
691.000000	0.356418
692.000000	0.357033
693.000000	0.357634
694.000000	0.358295
695.000000	0.359017
696.000000	0.359775
697.000000	0.360531
698.000000	0.361297
699.000000	0.362085
700.000000	0.362892
701.000000	0.363616
702.000000	0.364353
703.000000	0.365107
704.000000	0.365813
705.000000	0.366584
706.000000	0.367355
707.000000	0.368097
708.000000	0.368813
709.000000	0.369546
710.000000	0.370346
711.000000	0.371127
712.000000	0.371924
713.000000	0.372750
714.000000	0.373506
715.000000	0.374260
716.000000	0.375064
717.000000	0.375923
718.000000	0.376707
719.000000	0.377465
720.000000	0.378269
721.000000	0.379055
722.000000	0.379765
723.000000	0.380476
724.000000	0.381235
725.000000	0.381959
726.000000	0.382746
727.000000	0.383543
728.000000	0.384232
729.000000	0.384934
730.000000	0.385687
731.000000	0.386428
732.000000	0.387139
733.000000	0.387844
734.000000	0.388465
735.000000	0.389038
736.000000	0.389701
737.000000	0.390308
738.000000	0.390852
739.000000	0.391476
740.000000	0.392052
741.000000	0.392590
742.000000	0.393163
743.000000	0.393727
744.000000	0.394215
745.000000	0.394678
746.000000	0.395184
747.000000	0.395665
748.000000	0.396055
749.000000	0.396407
750.000000	0.396741
751.000000	0.397119
752.000000	0.397498
753.000000	0.397879
754.000000	0.398267
755.000000	0.398604
756.000000	0.398874
757.000000	0.399030
758.000000	0.399182
759.000000	0.399368
760.000000	0.399520
761.000000	0.399736
762.000000	0.399884
763.000000	0.399952
764.000000	0.400098
765.000000	0.400201
766.000000	0.400212
767.000000	0.400125
768.000000	0.400076
769.000000	0.400029
770.000000	0.399951
771.000000	0.399796
772.000000	0.399720
773.000000	0.399639
774.000000	0.399543
775.000000	0.399398
776.000000	0.399284
777.000000	0.399205
778.000000	0.399015
779.000000	0.398812
780.000000	0.398623
781.000000	0.398377
782.000000	0.398097
783.000000	0.397874
784.000000	0.397564
785.000000	0.397191
786.000000	0.396775
787.000000	0.396355
788.000000	0.396030
789.000000	0.395668
790.000000	0.395252
791.000000	0.394886
792.000000	0.394520
793.000000	0.394091
794.000000	0.393593
795.000000	0.393181
796.000000	0.392767
797.000000	0.392314
798.000000	0.391857
799.000000	0.391403
800.000000	0.390939
801.000000	0.390460
802.000000	0.390025
803.000000	0.389590
804.000000	0.389133
805.000000	0.388506
806.000000	0.387786
807.000000	0.387155
808.000000	0.386644
809.000000	0.386154
810.000000	0.385650
811.000000	0.385095
812.000000	0.384468
813.000000	0.383927
814.000000	0.383458
815.000000	0.382917
816.000000	0.382257
817.000000	0.381588
818.000000	0.380937
819.000000	0.380380
820.000000	0.379816
821.000000	0.379174
822.000000	0.378625
823.000000	0.378121
824.000000	0.377551
825.000000	0.376948
826.000000	0.376408
827.000000	0.375840
828.000000	0.375245
829.000000	0.374663
830.000000	0.374107
831.000000	0.373578
832.000000	0.372887
833.000000	0.372294
834.000000	0.371817
835.000000	0.371414
836.000000	0.370821
837.000000	0.370223
838.000000	0.369659
839.000000	0.369000
840.000000	0.368398
841.000000	0.367859
842.000000	0.367305
843.000000	0.366753
844.000000	0.366181
845.000000	0.365553
846.000000	0.364904
847.000000	0.364363
848.000000	0.363864
849.000000	0.363346
850.000000	0.362821
851.000000	0.362326
852.000000	0.361890
853.000000	0.361392
854.000000	0.360918
855.000000	0.360538
856.000000	0.360077
857.000000	0.359430
858.000000	0.358941
859.000000	0.358608
860.000000	0.358106
861.000000	0.357620
862.000000	0.357179
863.000000	0.356674
864.000000	0.356171
865.000000	0.355660
866.000000	0.355161
867.000000	0.354661
868.000000	0.354246
869.000000	0.353828
870.000000	0.353397
871.000000	0.353002
872.000000	0.352535
873.000000	0.351953
874.000000	0.351624
875.000000	0.351272
876.000000	0.350862
877.000000	0.350390
878.000000	0.350013
879.000000	0.349767
880.000000	0.349460
881.000000	0.349057
882.000000	0.348652
883.000000	0.348337
884.000000	0.348087
885.000000	0.347688
886.000000	0.347319
887.000000	0.347103
888.000000	0.346900
889.000000	0.346634
890.000000	0.346286
891.000000	0.346104
892.000000	0.345922
893.000000	0.345694
894.000000	0.345509
895.000000	0.345192
896.000000	0.344916
897.000000	0.344646
898.000000	0.344312
899.000000	0.344093
900.000000	0.343858
901.000000	0.343546
902.000000	0.343360
903.000000	0.343236
904.000000	0.343111
905.000000	0.342849
906.000000	0.342721
907.000000	0.342615
908.000000	0.342549
909.000000	0.342483
910.000000	0.342225
911.000000	0.341992
912.000000	0.341977
913.000000	0.341859
914.000000	0.341596
915.000000	0.341394
916.000000	0.341433
917.000000	0.341424
918.000000	0.341458
919.000000	0.341540
920.000000	0.341350
921.000000	0.341145
922.000000	0.341027
923.000000	0.340965
924.000000	0.340803
925.000000	0.340682
926.000000	0.340699
927.000000	0.340706
928.000000	0.340527
929.000000	0.340345
930.000000	0.340381
931.000000	0.340249
932.000000	0.340189
933.000000	0.340258
934.000000	0.340173
935.000000	0.340167
936.000000	0.340262
937.000000	0.340278
938.000000	0.340060
939.000000	0.340017
940.000000	0.340157
941.000000	0.340370
942.000000	0.340163
943.000000	0.340002
944.000000	0.340043
945.000000	0.340149
946.000000	0.340116
947.000000	0.340143
948.000000	0.340357
949.000000	0.340267
950.000000	0.340137
951.000000	0.340076
952.000000	0.340144
953.000000	0.340140
954.000000	0.340189
955.000000	0.340297
956.000000	0.340313
957.000000	0.340419
958.000000	0.340551
959.000000	0.340691
960.000000	0.340775
961.000000	0.340938
962.000000	0.341185
963.000000	0.341421
964.000000	0.341524
965.000000	0.341693
966.000000	0.341894
967.000000	0.341774
968.000000	0.341861
969.000000	0.342000
970.000000	0.341938
971.000000	0.342184
972.000000	0.342476
973.000000	0.342670
974.000000	0.343066
975.000000	0.343227
976.000000	0.343182
977.000000	0.343115
978.000000	0.343348
979.000000	0.343738
980.000000	0.343813
981.000000	0.343670
982.000000	0.343907
983.000000	0.344330
984.000000	0.344774
985.000000	0.345013
986.000000	0.345160
987.000000	0.345474
988.000000	0.345918
989.000000	0.346213
990.000000	0.346656
991.000000	0.347104
992.000000	0.347427
993.000000	0.348064
994.000000	0.348223
995.000000	0.348162
996.000000	0.348421
997.000000	0.348844
998.000000	0.349179
999.000000	0.349472
1000.000000	0.349917
1001.000000	0.349489
1002.000000	0.349291
1003.000000	0.349788
1004.000000	0.350283
1005.000000	0.350862
1006.000000	0.351266
1007.000000	0.351995
1008.000000	0.352250
1009.000000	0.351827
1010.000000	0.352479
1011.000000	0.352616
1012.000000	0.352456
1013.000000	0.353459
1014.000000	0.353766
1015.000000	0.353980
1016.000000	0.355173
1017.000000	0.355929
1018.000000	0.355703
1019.000000	0.355929
1020.000000	0.356331
1021.000000	0.356776
1022.000000	0.357695
1023.000000	0.358464
1024.000000	0.359410
1025.000000	0.359482
1026.000000	0.359958
1027.000000	0.360270
1028.000000	0.360387
1029.000000	0.361372
1030.000000	0.361869
1031.000000	0.362166
1032.000000	0.363054
1033.000000	0.363259
1034.000000	0.363563
1035.000000	0.363590
1036.000000	0.364071
1037.000000	0.364602
1038.000000	0.365056
1039.000000	0.365837
1040.000000	0.366519
1041.000000	0.366599
1042.000000	0.367105
1043.000000	0.367990
1044.000000	0.368420
1045.000000	0.368832
1046.000000	0.369752
1047.000000	0.370494
1048.000000	0.370952
1049.000000	0.371553
1050.000000	0.372353
1051.000000	0.373083
1052.000000	0.373851
1053.000000	0.374180
1054.000000	0.374407
1055.000000	0.374997
1056.000000	0.375406
1057.000000	0.376071
1058.000000	0.377256
1059.000000	0.377904
1060.000000	0.378400
1061.000000	0.378882
1062.000000	0.379421
1063.000000	0.380459
1064.000000	0.381336
1065.000000	0.382420
1066.000000	0.383192
1067.000000	0.383748
1068.000000	0.384286
1069.000000	0.384427
1070.000000	0.385068
1071.000000	0.386071
1072.000000	0.386867
1073.000000	0.387943
1074.000000	0.388988
1075.000000	0.389243
1076.000000	0.389993
1077.000000	0.390648
1078.000000	0.390948
1079.000000	0.391662
1080.000000	0.392711
1081.000000	0.393499
1082.000000	0.394425
1083.000000	0.395342
1084.000000	0.396199
1085.000000	0.397119
1086.000000	0.398346
1087.000000	0.399131
1088.000000	0.399392
1089.000000	0.399931
1090.000000	0.400585
1091.000000	0.400623
1092.000000	0.401010
1093.000000	0.402218
1094.000000	0.402985
1095.000000	0.403566
1096.000000	0.404473
1097.000000	0.405572
1098.000000	0.406450
1099.000000	0.407429
1100.000000	0.408216
1101.000000	0.408514
1102.000000	0.409274
1103.000000	0.410152
1104.000000	0.411029
1105.000000	0.412135
1106.000000	0.413166
1107.000000	0.414117
1108.000000	0.414978
1109.000000	0.415866
1110.000000	0.416755
1111.000000	0.417664
1112.000000	0.418608
1113.000000	0.419334
1114.000000	0.420009
1115.000000	0.420669
1116.000000	0.421034
1117.000000	0.421680
1118.000000	0.422484
1119.000000	0.423229
1120.000000	0.424014
1121.000000	0.424798
1122.000000	0.425717
1123.000000	0.426821
1124.000000	0.427691
1125.000000	0.428639
1126.000000	0.429799
1127.000000	0.430543
1128.000000	0.431092
1129.000000	0.431418
1130.000000	0.432064
1131.000000	0.432505
1132.000000	0.433221
1133.000000	0.434484
1134.000000	0.435297
1135.000000	0.435864
1136.000000	0.436471
1137.000000	0.436955
1138.000000	0.437436
1139.000000	0.437832
1140.000000	0.438618
1141.000000	0.439559
1142.000000	0.440421
1143.000000	0.441503
1144.000000	0.442522
1145.000000	0.443225
1146.000000	0.443769
1147.000000	0.444234
1148.000000	0.444373
1149.000000	0.444839
1150.000000	0.445358
1151.000000	0.445863
1152.000000	0.446350
1153.000000	0.447034
1154.000000	0.447676
1155.000000	0.448336
1156.000000	0.449301
1157.000000	0.450046
1158.000000	0.450560
1159.000000	0.451106
1160.000000	0.451520
1161.000000	0.452055
1162.000000	0.452653
1163.000000	0.453507
1164.000000	0.454292
1165.000000	0.455064
1166.000000	0.455758
1167.000000	0.456266
1168.000000	0.456888
1169.000000	0.457561
1170.000000	0.458251
1171.000000	0.459122
1172.000000	0.459831
1173.000000	0.460388
1174.000000	0.460979
1175.000000	0.461450
1176.000000	0.461941
1177.000000	0.462548
1178.000000	0.463185
1179.000000	0.463910
1180.000000	0.464415
1181.000000	0.464987
1182.000000	0.465433
1183.000000	0.465990
1184.000000	0.466680
1185.000000	0.467268
1186.000000	0.467991
1187.000000	0.468535
1188.000000	0.468834
1189.000000	0.469339
1190.000000	0.470085
1191.000000	0.470602
1192.000000	0.471141
1193.000000	0.471879
1194.000000	0.472533
1195.000000	0.473040
1196.000000	0.473463
1197.000000	0.473962
1198.000000	0.474272
1199.000000	0.474715
1200.000000	0.475213
1201.000000	0.476002
1202.000000	0.476647
1203.000000	0.477127
1204.000000	0.477646
1205.000000	0.478119
1206.000000	0.478464
1207.000000	0.478827
1208.000000	0.479122
1209.000000	0.479387
1210.000000	0.479713
1211.000000	0.480014
1212.000000	0.480410
1213.000000	0.480966
1214.000000	0.481448
1215.000000	0.481945
1216.000000	0.482343
1217.000000	0.482601
1218.000000	0.482916
1219.000000	0.483235
1220.000000	0.483676
1221.000000	0.483977
1222.000000	0.484280
1223.000000	0.484654
1224.000000	0.484997
1225.000000	0.485352
1226.000000	0.485638
1227.000000	0.485874
1228.000000	0.486164
1229.000000	0.486404
1230.000000	0.486689
1231.000000	0.486881
1232.000000	0.487123
1233.000000	0.487572
1234.000000	0.488092
1235.000000	0.488460
1236.000000	0.488711
1237.000000	0.489093
1238.000000	0.489434
1239.000000	0.489743
1240.000000	0.490180
1241.000000	0.490370
1242.000000	0.490570
1243.000000	0.490781
1244.000000	0.491116
1245.000000	0.491771
1246.000000	0.492158
1247.000000	0.492380
1248.000000	0.492639
1249.000000	0.492754
1250.000000	0.492935
1251.000000	0.493340
1252.000000	0.493605
1253.000000	0.493929
1254.000000	0.494133
1255.000000	0.494243
1256.000000	0.494322
1257.000000	0.494250
1258.000000	0.494470
1259.000000	0.494732
1260.000000	0.495038
1261.000000	0.495537
1262.000000	0.495802
1263.000000	0.495949
1264.000000	0.496012
1265.000000	0.496257
1266.000000	0.496294
1267.000000	0.496514
1268.000000	0.496779
1269.000000	0.496851
1270.000000	0.497174
1271.000000	0.497262
1272.000000	0.497387
1273.000000	0.497638
1274.000000	0.497740
1275.000000	0.497839
1276.000000	0.498058
1277.000000	0.498186
1278.000000	0.497964
1279.000000	0.498003
1280.000000	0.498018
1281.000000	0.498081
1282.000000	0.498410
1283.000000	0.498666
1284.000000	0.498808
1285.000000	0.498944
1286.000000	0.498973
1287.000000	0.499104
1288.000000	0.499237
1289.000000	0.499294
1290.000000	0.499398
1291.000000	0.499342
1292.000000	0.499261
1293.000000	0.499146
1294.000000	0.498942
1295.000000	0.498962
1296.000000	0.499207
1297.000000	0.499443
1298.000000	0.499662
1299.000000	0.499870
1300.000000	0.499979
1301.000000	0.499901
1302.000000	0.499856
1303.000000	0.500046
1304.000000	0.500010
1305.000000	0.500038
1306.000000	0.500009
1307.000000	0.499861
1308.000000	0.499871
1309.000000	0.500010
1310.000000	0.500003
1311.000000	0.500079
1312.000000	0.499944
1313.000000	0.499759
1314.000000	0.499628
1315.000000	0.499385
1316.000000	0.499349
1317.000000	0.499350
1318.000000	0.499234
1319.000000	0.498956
1320.000000	0.498735
1321.000000	0.498607
1322.000000	0.498381
1323.000000	0.498290
1324.000000	0.498375
1325.000000	0.498193
1326.000000	0.497769
1327.000000	0.497508
1328.000000	0.497489
1329.000000	0.497396
1330.000000	0.497518
1331.000000	0.497455
1332.000000	0.497382
1333.000000	0.497261
1334.000000	0.497051
1335.000000	0.497064
1336.000000	0.497268
1337.000000	0.497271
1338.000000	0.497205
1339.000000	0.497042
1340.000000	0.496919
1341.000000	0.496736
1342.000000	0.496494
1343.000000	0.496537
1344.000000	0.496485
1345.000000	0.496132
1346.000000	0.496042
1347.000000	0.495691
1348.000000	0.495242
1349.000000	0.494839
1350.000000	0.494486
1351.000000	0.494167
1352.000000	0.493808
1353.000000	0.493570
1354.000000	0.493429
1355.000000	0.493225
1356.000000	0.493227
1357.000000	0.493136
1358.000000	0.492945
1359.000000	0.492836
1360.000000	0.492730
1361.000000	0.492723
1362.000000	0.492592
1363.000000	0.492433
1364.000000	0.492215
1365.000000	0.491854
1366.000000	0.491569
1367.000000	0.491278
1368.000000	0.490897
1369.000000	0.490794
1370.000000	0.490422
1371.000000	0.489886
1372.000000	0.489279
1373.000000	0.488458
1374.000000	0.487574
1375.000000	0.486686
1376.000000	0.485916
1377.000000	0.485027
1378.000000	0.483961
1379.000000	0.482653
1380.000000	0.481282
1381.000000	0.479764
1382.000000	0.477925
1383.000000	0.476029
1384.000000	0.473928
1385.000000	0.471764
1386.000000	0.469788
1387.000000	0.467774
1388.000000	0.465452
1389.000000	0.462977
1390.000000	0.460499
1391.000000	0.457882
1392.000000	0.455340
1393.000000	0.452725
1394.000000	0.450116
1395.000000	0.447571
1396.000000	0.445067
1397.000000	0.442402
1398.000000	0.439650
1399.000000	0.436967
1400.000000	0.434136
1401.000000	0.431377
1402.000000	0.428778
1403.000000	0.426138
1404.000000	0.423597
1405.000000	0.421086
1406.000000	0.418521
1407.000000	0.416070
1408.000000	0.413524
1409.000000	0.411135
1410.000000	0.409129
1411.000000	0.407179
1412.000000	0.405330
1413.000000	0.403779
1414.000000	0.402353
1415.000000	0.401296
1416.000000	0.400642
1417.000000	0.400289
1418.000000	0.400222
1419.000000	0.400370
1420.000000	0.400504
1421.000000	0.400697
1422.000000	0.400814
1423.000000	0.400870
1424.000000	0.400732
1425.000000	0.400555
1426.000000	0.400178
1427.000000	0.399675
1428.000000	0.399140
1429.000000	0.398451
1430.000000	0.397840
1431.000000	0.397393
1432.000000	0.397228
1433.000000	0.397256
1434.000000	0.397659
1435.000000	0.398404
1436.000000	0.399590
1437.000000	0.401078
1438.000000	0.402991
1439.000000	0.405551
1440.000000	0.408120
1441.000000	0.411050
1442.000000	0.414126
1443.000000	0.417329
1444.000000	0.420594
1445.000000	0.423840
1446.000000	0.426748
1447.000000	0.429366
1448.000000	0.431629
1449.000000	0.433655
1450.000000	0.435476
1451.000000	0.437011
1452.000000	0.438271
1453.000000	0.439290
1454.000000	0.440143
1455.000000	0.440865
1456.000000	0.441403
1457.000000	0.441872
1458.000000	0.442262
1459.000000	0.442548
1460.000000	0.442898
1461.000000	0.443217
1462.000000	0.443521
1463.000000	0.443867
1464.000000	0.444202
1465.000000	0.444638
1466.000000	0.445178
1467.000000	0.445774
1468.000000	0.446461
1469.000000	0.447315
1470.000000	0.447984
1471.000000	0.448704
1472.000000	0.449529
1473.000000	0.450338
1474.000000	0.451166
1475.000000	0.452018
1476.000000	0.452903
1477.000000	0.453743
1478.000000	0.454586
1479.000000	0.455530
1480.000000	0.456365
1481.000000	0.457111
1482.000000	0.457880
1483.000000	0.458638
1484.000000	0.459305
1485.000000	0.459973
1486.000000	0.460602
1487.000000	0.461284
1488.000000	0.461984
1489.000000	0.462777
1490.000000	0.463465
1491.000000	0.464211
1492.000000	0.464939
1493.000000	0.465628
1494.000000	0.466303
1495.000000	0.466961
1496.000000	0.467590
1497.000000	0.468162
1498.000000	0.468708
1499.000000	0.469217
1500.000000	0.469749
1501.000000	0.470304
1502.000000	0.470815
1503.000000	0.471401
1504.000000	0.471970
1505.000000	0.472400
1506.000000	0.472910
1507.000000	0.473380
1508.000000	0.473842
1509.000000	0.474431
1510.000000	0.474976
1511.000000	0.475602
1512.000000	0.476086
1513.000000	0.476471
1514.000000	0.477247
1515.000000	0.477739
1516.000000	0.478147
1517.000000	0.478828
1518.000000	0.479132
1519.000000	0.479271
1520.000000	0.479684
1521.000000	0.479956
1522.000000	0.480283
1523.000000	0.480835
1524.000000	0.481269
1525.000000	0.481729
1526.000000	0.482236
1527.000000	0.482655
1528.000000	0.483042
1529.000000	0.483368
1530.000000	0.483548
1531.000000	0.483942
1532.000000	0.484452
1533.000000	0.484816
1534.000000	0.485274
1535.000000	0.485720
1536.000000	0.485941
1537.000000	0.486300
1538.000000	0.486683
1539.000000	0.486866
1540.000000	0.487046
1541.000000	0.487370
1542.000000	0.487658
1543.000000	0.487830
1544.000000	0.488078
1545.000000	0.488374
1546.000000	0.488590
1547.000000	0.488923
1548.000000	0.489281
1549.000000	0.489500
1550.000000	0.489687
1551.000000	0.489918
1552.000000	0.490151
1553.000000	0.490334
1554.000000	0.490573
1555.000000	0.490823
1556.000000	0.491007
1557.000000	0.491178
1558.000000	0.491403
1559.000000	0.491541
1560.000000	0.491733
1561.000000	0.492025
1562.000000	0.492254
1563.000000	0.492586
1564.000000	0.492787
1565.000000	0.492932
1566.000000	0.492959
1567.000000	0.493000
1568.000000	0.493062
1569.000000	0.493167
1570.000000	0.493263
1571.000000	0.493342
1572.000000	0.493475
1573.000000	0.493677
1574.000000	0.493803
1575.000000	0.493931
1576.000000	0.494140
1577.000000	0.494336
1578.000000	0.494491
1579.000000	0.494799
1580.000000	0.495002
1581.000000	0.495161
1582.000000	0.495395
1583.000000	0.495689
1584.000000	0.495868
1585.000000	0.496222
1586.000000	0.496384
1587.000000	0.496344
1588.000000	0.496450
1589.000000	0.496574
1590.000000	0.496642
1591.000000	0.496827
1592.000000	0.496888
1593.000000	0.496819
1594.000000	0.496796
1595.000000	0.496836
1596.000000	0.496892
1597.000000	0.497035
1598.000000	0.497093
1599.000000	0.497160
1600.000000	0.497184
1601.000000	0.497296
1602.000000	0.497330
1603.000000	0.497338
1604.000000	0.497398
1605.000000	0.497511
1606.000000	0.497567
1607.000000	0.497715
1608.000000	0.497836
1609.000000	0.497998
1610.000000	0.498022
1611.000000	0.498045
1612.000000	0.498119
1613.000000	0.498327
1614.000000	0.498328
1615.000000	0.498355
1616.000000	0.498419
1617.000000	0.498240
1618.000000	0.498215
1619.000000	0.498349
1620.000000	0.498405
1621.000000	0.498415
1622.000000	0.498590
1623.000000	0.498800
1624.000000	0.498969
1625.000000	0.499024
1626.000000	0.499041
1627.000000	0.499030
1628.000000	0.499101
1629.000000	0.499152
1630.000000	0.499251
1631.000000	0.499308
1632.000000	0.499295
1633.000000	0.499356
1634.000000	0.499268
1635.000000	0.499063
1636.000000	0.499001
1637.000000	0.498961
1638.000000	0.498893
1639.000000	0.499021
1640.000000	0.498941
1641.000000	0.498835
1642.000000	0.498720
1643.000000	0.498549
1644.000000	0.498482
1645.000000	0.498448
1646.000000	0.498319
1647.000000	0.498289
1648.000000	0.498165
1649.000000	0.498100
1650.000000	0.498045
1651.000000	0.497986
1652.000000	0.498028
1653.000000	0.498007
1654.000000	0.498089
1655.000000	0.498257
1656.000000	0.498202
1657.000000	0.498199
1658.000000	0.498150
1659.000000	0.498105
1660.000000	0.498181
1661.000000	0.498211
1662.000000	0.498230
1663.000000	0.498261
1664.000000	0.498229
1665.000000	0.498077
1666.000000	0.498216
1667.000000	0.498362
1668.000000	0.498410
1669.000000	0.498533
1670.000000	0.498508
1671.000000	0.498473
1672.000000	0.498511
1673.000000	0.498553
1674.000000	0.498568
1675.000000	0.498637
1676.000000	0.498724
1677.000000	0.498689
1678.000000	0.498564
1679.000000	0.498556
1680.000000	0.498590
1681.000000	0.498648
1682.000000	0.498714
1683.000000	0.498798
1684.000000	0.498906
1685.000000	0.498905
1686.000000	0.498838
1687.000000	0.498773
1688.000000	0.498591
1689.000000	0.498494
1690.000000	0.498448
1691.000000	0.498502
1692.000000	0.498376
1693.000000	0.498206
1694.000000	0.498110
1695.000000	0.498188
1696.000000	0.498292
1697.000000	0.498282
1698.000000	0.498267
1699.000000	0.498258
1700.000000	0.498183
1701.000000	0.498345
1702.000000	0.498392
1703.000000	0.498320
1704.000000	0.498462
1705.000000	0.498460
1706.000000	0.498276
1707.000000	0.498226
1708.000000	0.498251
1709.000000	0.498064
1710.000000	0.497897
1711.000000	0.497842
1712.000000	0.497792
1713.000000	0.497693
1714.000000	0.497741
1715.000000	0.497762
1716.000000	0.497777
1717.000000	0.497660
1718.000000	0.497435
1719.000000	0.497271
1720.000000	0.497028
1721.000000	0.496920
1722.000000	0.497080
1723.000000	0.496992
1724.000000	0.496760
1725.000000	0.496731
1726.000000	0.496597
1727.000000	0.496465
1728.000000	0.496406
1729.000000	0.496124
1730.000000	0.495806
1731.000000	0.495617
1732.000000	0.495426
1733.000000	0.495464
1734.000000	0.495538
1735.000000	0.495407
1736.000000	0.495256
1737.000000	0.495013
1738.000000	0.494542
1739.000000	0.494334
1740.000000	0.494253
1741.000000	0.494004
1742.000000	0.493753
1743.000000	0.493628
1744.000000	0.493387
1745.000000	0.493356
1746.000000	0.493554
1747.000000	0.493499
1748.000000	0.493322
1749.000000	0.492952
1750.000000	0.492590
1751.000000	0.492414
1752.000000	0.492303
1753.000000	0.491879
1754.000000	0.491676
1755.000000	0.491600
1756.000000	0.491396
1757.000000	0.491276
1758.000000	0.491124
1759.000000	0.490670
1760.000000	0.490521
1761.000000	0.490653
1762.000000	0.490508
1763.000000	0.490371
1764.000000	0.490239
1765.000000	0.489868
1766.000000	0.489609
1767.000000	0.489382
1768.000000	0.489054
1769.000000	0.488756
1770.000000	0.488545
1771.000000	0.488255
1772.000000	0.488089
1773.000000	0.487914
1774.000000	0.487811
1775.000000	0.487936
1776.000000	0.487936
1777.000000	0.487873
1778.000000	0.487774
1779.000000	0.487594
1780.000000	0.487522
1781.000000	0.487457
1782.000000	0.487246
1783.000000	0.487047
1784.000000	0.486977
1785.000000	0.486723
1786.000000	0.486832
1787.000000	0.487155
1788.000000	0.486989
1789.000000	0.486769
1790.000000	0.486568
1791.000000	0.486285
1792.000000	0.486153
1793.000000	0.486125
1794.000000	0.486084
1795.000000	0.486123
1796.000000	0.486390
1797.000000	0.486577
1798.000000	0.486699
1799.000000	0.486790
1800.000000	0.487016
1801.000000	0.486308
1802.000000	0.486857
1803.000000	0.487340
1804.000000	0.487326
1805.000000	0.486830
1806.000000	0.486510
1807.000000	0.485530
1808.000000	0.485269
1809.000000	0.485834
1810.000000	0.485305
1811.000000	0.485474
1812.000000	0.486171
1813.000000	0.486502
1814.000000	0.487204
1815.000000	0.487142
1816.000000	0.486565
1817.000000	0.485939
1818.000000	0.484843
1819.000000	0.483902
1820.000000	0.483824
1821.000000	0.483259
1822.000000	0.482923
1823.000000	0.482619
1824.000000	0.482502
1825.000000	0.482208
1826.000000	0.482342
1827.000000	0.482828
1828.000000	0.482892
1829.000000	0.483418
1830.000000	0.484349
1831.000000	0.484437
1832.000000	0.484036
1833.000000	0.484080
1834.000000	0.483993
1835.000000	0.483682
1836.000000	0.483406
1837.000000	0.483197
1838.000000	0.482419
1839.000000	0.481784
1840.000000	0.481486
1841.000000	0.481282
1842.000000	0.480828
1843.000000	0.480025
1844.000000	0.479315
1845.000000	0.477960
1846.000000	0.477675
1847.000000	0.477620
1848.000000	0.477719
1849.000000	0.478360
1850.000000	0.479062
1851.000000	0.479038
1852.000000	0.478426
1853.000000	0.478075
1854.000000	0.476998
1855.000000	0.476169
1856.000000	0.475409
1857.000000	0.474351
1858.000000	0.473407
1859.000000	0.473011
1860.000000	0.471990
1861.000000	0.471010
1862.000000	0.469675
1863.000000	0.467777
1864.000000	0.466189
1865.000000	0.464766
1866.000000	0.463087
1867.000000	0.461158
1868.000000	0.459714
1869.000000	0.457595
1870.000000	0.455138
1871.000000	0.452324
1872.000000	0.448580
1873.000000	0.445592
1874.000000	0.442869
1875.000000	0.439643
1876.000000	0.435993
1877.000000	0.432705
1878.000000	0.428706
1879.000000	0.423918
1880.000000	0.419875
1881.000000	0.415218
1882.000000	0.410044
1883.000000	0.405025
1884.000000	0.399635
1885.000000	0.393529
1886.000000	0.387379
1887.000000	0.381014
1888.000000	0.374362
1889.000000	0.367014
1890.000000	0.359804
1891.000000	0.352672
1892.000000	0.344746
1893.000000	0.337474
1894.000000	0.330759
1895.000000	0.323470
1896.000000	0.316076
1897.000000	0.309030
1898.000000	0.302100
1899.000000	0.295395
1900.000000	0.289992
1901.000000	0.285226
1902.000000	0.280482
1903.000000	0.276596
1904.000000	0.273037
1905.000000	0.269828
1906.000000	0.267068
1907.000000	0.264796
1908.000000	0.263145
1909.000000	0.262104
1910.000000	0.261120
1911.000000	0.261226
1912.000000	0.261487
1913.000000	0.261907
1914.000000	0.263383
1915.000000	0.264561
1916.000000	0.266333
1917.000000	0.268028
1918.000000	0.270100
1919.000000	0.271622
1920.000000	0.273606
1921.000000	0.275279
1922.000000	0.277300
1923.000000	0.280138
1924.000000	0.282416
1925.000000	0.284827
1926.000000	0.286853
1927.000000	0.287834
1928.000000	0.289018
1929.000000	0.290043
1930.000000	0.291344
1931.000000	0.292932
1932.000000	0.294806
1933.000000	0.296962
1934.000000	0.298363
1935.000000	0.299247
1936.000000	0.300673
1937.000000	0.301251
1938.000000	0.301757
1939.000000	0.302812
1940.000000	0.304153
1941.000000	0.304956
1942.000000	0.306385
1943.000000	0.307851
1944.000000	0.308218
1945.000000	0.308561
1946.000000	0.309040
1947.000000	0.309499
1948.000000	0.310599
1949.000000	0.312250
1950.000000	0.313618
1951.000000	0.314744
1952.000000	0.315986
1953.000000	0.316997
1954.000000	0.317860
1955.000000	0.318774
1956.000000	0.319406
1957.000000	0.320332
1958.000000	0.321268
1959.000000	0.322423
1960.000000	0.323641
1961.000000	0.324704
1962.000000	0.325660
1963.000000	0.326498
1964.000000	0.326938
1965.000000	0.327497
1966.000000	0.328027
1967.000000	0.328324
1968.000000	0.328888
1969.000000	0.330095
1970.000000	0.331580
1971.000000	0.332803
1972.000000	0.333906
1973.000000	0.334686
1974.000000	0.334885
1975.000000	0.335654
1976.000000	0.336655
1977.000000	0.337604
1978.000000	0.338402
1979.000000	0.339678
1980.000000	0.340618
1981.000000	0.341253
1982.000000	0.343333
1983.000000	0.345266
1984.000000	0.346822
1985.000000	0.349087
1986.000000	0.350494
1987.000000	0.350997
1988.000000	0.351969
1989.000000	0.353493
1990.000000	0.354369
1991.000000	0.355749
1992.000000	0.356534
1993.000000	0.357182
1994.000000	0.358579
1995.000000	0.359491
1996.000000	0.360637
1997.000000	0.362037
1998.000000	0.363720
1999.000000	0.364983
2000.000000	0.366436
2001.000000	0.367520
2002.000000	0.369085
2003.000000	0.370275
2004.000000	0.371189
2005.000000	0.373089
2006.000000	0.374158
2007.000000	0.374810
2008.000000	0.375837
2009.000000	0.377223
2010.000000	0.378328
2011.000000	0.379114
2012.000000	0.379982
2013.000000	0.380722
2014.000000	0.381427
2015.000000	0.382707
2016.000000	0.383597
2017.000000	0.384455
2018.000000	0.385802
2019.000000	0.386239
2020.000000	0.386652
2021.000000	0.387436
2022.000000	0.388052
2023.000000	0.388845
2024.000000	0.390221
2025.000000	0.391443
2026.000000	0.392194
2027.000000	0.393976
2028.000000	0.395293
2029.000000	0.395736
2030.000000	0.396768
2031.000000	0.397559
2032.000000	0.397967
2033.000000	0.398937
2034.000000	0.399610
2035.000000	0.399745
2036.000000	0.400424
2037.000000	0.401933
2038.000000	0.402993
2039.000000	0.404298
2040.000000	0.405437
2041.000000	0.406035
2042.000000	0.406343
2043.000000	0.406750
2044.000000	0.407414
2045.000000	0.407819
2046.000000	0.408004
2047.000000	0.408611
2048.000000	0.409160
2049.000000	0.410042
2050.000000	0.411111
2051.000000	0.411736
2052.000000	0.411849
2053.000000	0.412307
2054.000000	0.412898
2055.000000	0.413870
2056.000000	0.415781
2057.000000	0.417188
2058.000000	0.417758
2059.000000	0.418062
2060.000000	0.418177
2061.000000	0.417374
2062.000000	0.417248
2063.000000	0.417416
2064.000000	0.417353
2065.000000	0.417500
2066.000000	0.417487
2067.000000	0.417554
2068.000000	0.418313
2069.000000	0.419147
2070.000000	0.420438
2071.000000	0.420936
2072.000000	0.421378
2073.000000	0.421860
2074.000000	0.421456
2075.000000	0.421625
2076.000000	0.422227
2077.000000	0.422493
2078.000000	0.422802
2079.000000	0.422793
2080.000000	0.422477
2081.000000	0.422550
2082.000000	0.422721
2083.000000	0.422670
2084.000000	0.422553
2085.000000	0.422262
2086.000000	0.422712
2087.000000	0.423125
2088.000000	0.423957
2089.000000	0.425571
2090.000000	0.426590
2091.000000	0.427417
2092.000000	0.428129
2093.000000	0.428945
2094.000000	0.429264
2095.000000	0.429143
2096.000000	0.429055
2097.000000	0.428512
2098.000000	0.427983
2099.000000	0.428087
2100.000000	0.428650
2101.000000	0.428704
2102.000000	0.428935
2103.000000	0.429565
2104.000000	0.429316
2105.000000	0.429542
2106.000000	0.430636
2107.000000	0.431007
2108.000000	0.430898
2109.000000	0.430785
2110.000000	0.429773
2111.000000	0.429484
2112.000000	0.429274
2113.000000	0.428875
2114.000000	0.429113
2115.000000	0.430127
2116.000000	0.430062
2117.000000	0.430147
2118.000000	0.430620
2119.000000	0.430423
2120.000000	0.430626
2121.000000	0.431139
2122.000000	0.431479
2123.000000	0.431654
2124.000000	0.432035
2125.000000	0.432863
2126.000000	0.433075
2127.000000	0.432980
2128.000000	0.433166
2129.000000	0.433258
2130.000000	0.432783
2131.000000	0.432570
2132.000000	0.432176
2133.000000	0.431052
2134.000000	0.430619
2135.000000	0.430495
2136.000000	0.430602
2137.000000	0.430512
2138.000000	0.430657
2139.000000	0.430645
2140.000000	0.430126
2141.000000	0.430131
2142.000000	0.431080
2143.000000	0.430637
2144.000000	0.429647
2145.000000	0.429318
2146.000000	0.428759
2147.000000	0.428444
2148.000000	0.428218
2149.000000	0.428925
2150.000000	0.429312
2151.000000	0.428521
2152.000000	0.429134
2153.000000	0.428826
2154.000000	0.428021
2155.000000	0.426624
2156.000000	0.425694
2157.000000	0.424180
2158.000000	0.423457
2159.000000	0.423429
2160.000000	0.423381
2161.000000	0.423453
2162.000000	0.423648
2163.000000	0.423937
2164.000000	0.424226
2165.000000	0.424930
2166.000000	0.425103
2167.000000	0.424781
2168.000000	0.424489
2169.000000	0.424272
2170.000000	0.422883
2171.000000	0.422217
2172.000000	0.422043
2173.000000	0.421592
2174.000000	0.420981
2175.000000	0.421111
2176.000000	0.421831
2177.000000	0.421710
2178.000000	0.421652
2179.000000	0.421193
2180.000000	0.419187
2181.000000	0.419099
2182.000000	0.419279
2183.000000	0.419610
2184.000000	0.420330
2185.000000	0.420062
2186.000000	0.418901
2187.000000	0.418932
2188.000000	0.417548
2189.000000	0.416060
2190.000000	0.415120
2191.000000	0.414564
2192.000000	0.413930
2193.000000	0.414588
2194.000000	0.413743
2195.000000	0.411200
2196.000000	0.410179
2197.000000	0.409566
2198.000000	0.409125
2199.000000	0.410410
2200.000000	0.410423
2201.000000	0.409520
2202.000000	0.408571
2203.000000	0.406623
2204.000000	0.404828
2205.000000	0.403561
2206.000000	0.403796
2207.000000	0.404156
2208.000000	0.404003
2209.000000	0.405095
2210.000000	0.406266
2211.000000	0.407746
2212.000000	0.409561
2213.000000	0.409871
2214.000000	0.407284
2215.000000	0.408071
2216.000000	0.411207
2217.000000	0.411711
2218.000000	0.412779
2219.000000	0.412687
2220.000000	0.408919
2221.000000	0.408141
2222.000000	0.409880
2223.000000	0.409745
2224.000000	0.409622
2225.000000	0.408595
2226.000000	0.407783
2227.000000	0.408151
2228.000000	0.410358
2229.000000	0.410708
2230.000000	0.409418
2231.000000	0.408133
2232.000000	0.405153
2233.000000	0.403859
2234.000000	0.401113
2235.000000	0.399842
2236.000000	0.400437
2237.000000	0.402901
2238.000000	0.403129
2239.000000	0.405310
2240.000000	0.404803
2241.000000	0.400602
2242.000000	0.399802
2243.000000	0.398777
2244.000000	0.399297
2245.000000	0.402700
2246.000000	0.403363
2247.000000	0.405083
2248.000000	0.405274
2249.000000	0.402766
2250.000000	0.400849
2251.000000	0.401090
2252.000000	0.399699
2253.000000	0.399566
2254.000000	0.400561
2255.000000	0.398987
2256.000000	0.398275
2257.000000	0.397039
2258.000000	0.396673
2259.000000	0.398687
2260.000000	0.397273
2261.000000	0.393908
2262.000000	0.388318
2263.000000	0.384144
2264.000000	0.376534
2265.000000	0.374050
2266.000000	0.377601
2267.000000	0.374510
2268.000000	0.369408
2269.000000	0.366011
2270.000000	0.359695
2271.000000	0.354900
2272.000000	0.352893
2273.000000	0.349104
2274.000000	0.343549
2275.000000	0.338961
2276.000000	0.334871
2277.000000	0.330808
2278.000000	0.325960
2279.000000	0.320877
2280.000000	0.318394
2281.000000	0.315431
2282.000000	0.311852
2283.000000	0.311368
2284.000000	0.309700
2285.000000	0.307894
2286.000000	0.309571
2287.000000	0.309764
2288.000000	0.311049
2289.000000	0.314309
2290.000000	0.314672
2291.000000	0.316349
2292.000000	0.319488
2293.000000	0.321359
2294.000000	0.324342
2295.000000	0.330425
2296.000000	0.333079
2297.000000	0.333204
2298.000000	0.335385
2299.000000	0.336891
2300.000000	0.339683
2301.000000	0.344627
2302.000000	0.348067
2303.000000	0.351265
2304.000000	0.354019
2305.000000	0.356380
2306.000000	0.358220
2307.000000	0.358995
2308.000000	0.361027
2309.000000	0.363828
2310.000000	0.364614
2311.000000	0.365514
2312.000000	0.366092
2313.000000	0.363108
2314.000000	0.360269
2315.000000	0.358905
2316.000000	0.359414
2317.000000	0.360633
2318.000000	0.364004
2319.000000	0.369612
2320.000000	0.371060
2321.000000	0.372849
2322.000000	0.373072
2323.000000	0.370314
2324.000000	0.368542
2325.000000	0.365389
2326.000000	0.363902
2327.000000	0.365354
2328.000000	0.367013
2329.000000	0.369640
2330.000000	0.371086
2331.000000	0.366529
2332.000000	0.361817
2333.000000	0.357628
2334.000000	0.353762
2335.000000	0.353302
2336.000000	0.357066
2337.000000	0.356870
2338.000000	0.357471
2339.000000	0.356447
2340.000000	0.352826
2341.000000	0.351158
2342.000000	0.348666
2343.000000	0.348784
2344.000000	0.351356
2345.000000	0.351628
2346.000000	0.352913
2347.000000	0.353512
2348.000000	0.352711
2349.000000	0.351852
2350.000000	0.349806
2351.000000	0.345905
2352.000000	0.340096
2353.000000	0.335435
2354.000000	0.334559
2355.000000	0.337689
2356.000000	0.336479
2357.000000	0.333680
2358.000000	0.331211
2359.000000	0.325420
2360.000000	0.325372
2361.000000	0.327322
2362.000000	0.326074
2363.000000	0.325377
2364.000000	0.324115
2365.000000	0.321843
2366.000000	0.323926
2367.000000	0.327762
2368.000000	0.329593
2369.000000	0.333976
2370.000000	0.331433
2371.000000	0.325596
2372.000000	0.326419
2373.000000	0.324086
2374.000000	0.320743
2375.000000	0.322455
2376.000000	0.319009
2377.000000	0.317481
2378.000000	0.325413
2379.000000	0.326203
2380.000000	0.322142
2381.000000	0.317733
2382.000000	0.304619
2383.000000	0.296715
2384.000000	0.299799
2385.000000	0.301500
2386.000000	0.305172
2387.000000	0.307424
2388.000000	0.301483
2389.000000	0.294339
2390.000000	0.290040
2391.000000	0.288361
2392.000000	0.290178
2393.000000	0.298638
2394.000000	0.300584
2395.000000	0.294791
2396.000000	0.291482
2397.000000	0.282634
2398.000000	0.280691
2399.000000	0.284065
2400.000000	0.279774
2401.000000	0.279439
2402.000000	0.273400
2403.000000	0.265069
2404.000000	0.263840
2405.000000	0.261235
2406.000000	0.265010
2407.000000	0.275021
2408.000000	0.278728
2409.000000	0.278957
2410.000000	0.280254
2411.000000	0.273697
2412.000000	0.270798
2413.000000	0.275716
2414.000000	0.275179
2415.000000	0.275126
2416.000000	0.279180
2417.000000	0.281862
2418.000000	0.282149
2419.000000	0.286496
2420.000000	0.292848
2421.000000	0.290484
2422.000000	0.286049
2423.000000	0.281227
2424.000000	0.267458
2425.000000	0.260527
2426.000000	0.255922
2427.000000	0.242598
2428.000000	0.252113
2429.000000	0.259611
2430.000000	0.256384
2431.000000	0.269890
2432.000000	0.261553
2433.000000	0.243504
2434.000000	0.237971
2435.000000	0.230009
2436.000000	0.218899
2437.000000	0.220670
2438.000000	0.230697
2439.000000	0.233509
2440.000000	0.244229
2441.000000	0.256445
2442.000000	0.267093
2443.000000	0.271801
2444.000000	0.275394
2445.000000	0.279896
2446.000000	0.269284
2447.000000	0.261370
2448.000000	0.248671
2449.000000	0.222748
2450.000000	0.212464
2451.000000	0.215830
2452.000000	0.223520
2453.000000	0.237638
2454.000000	0.237053
2455.000000	0.226169
2456.000000	0.222216
2457.000000	0.227785
2458.000000	0.243318
2459.000000	0.261579
2460.000000	0.269000
2461.000000	0.249393
2462.000000	0.227141
2463.000000	0.213685
2464.000000	0.209678
2465.000000	0.203646
2466.000000	0.193834
2467.000000	0.201471
2468.000000	0.182935
2469.000000	0.165582
2470.000000	0.191255
2471.000000	0.188524
2472.000000	0.187217
2473.000000	0.203084
2474.000000	0.191092
2475.000000	0.208334
2476.000000	0.229943
2477.000000	0.239375
2478.000000	0.263041
2479.000000	0.245290
2480.000000	0.230893
2481.000000	0.234850
2482.000000	0.227120
2483.000000	0.227591
2484.000000	0.212041
2485.000000	0.176518
2486.000000	0.147937
2487.000000	0.101949
2488.000000	0.046617
2489.000000	0.046885
2490.000000	0.081890
2491.000000	0.113985
2492.000000	0.137993
2493.000000	0.143140
2494.000000	0.159315
2495.000000	0.204723
2496.000000	0.228983
2497.000000	0.239645
2498.000000	0.239384
2499.000000	0.230969
2500.000000	0.210581
