# Wavelength	Nau-2_30_FV7_70_00001.asd.rts.txt
350.000000	0.173023
351.000000	0.168970
352.000000	0.161411
353.000000	0.159173
354.000000	0.163918
355.000000	0.160678
356.000000	0.156999
357.000000	0.155596
358.000000	0.153753
359.000000	0.159293
360.000000	0.166019
361.000000	0.166006
362.000000	0.166922
363.000000	0.165413
364.000000	0.161130
365.000000	0.165241
366.000000	0.167444
367.000000	0.164320
368.000000	0.157938
369.000000	0.155490
370.000000	0.156912
371.000000	0.158979
372.000000	0.156014
373.000000	0.152540
374.000000	0.153836
375.000000	0.165154
376.000000	0.167465
377.000000	0.160283
378.000000	0.160344
379.000000	0.162607
380.000000	0.163524
381.000000	0.161513
382.000000	0.167410
383.000000	0.170712
384.000000	0.165976
385.000000	0.166285
386.000000	0.167542
387.000000	0.168056
388.000000	0.168380
389.000000	0.167634
390.000000	0.166345
391.000000	0.165448
392.000000	0.166520
393.000000	0.168101
394.000000	0.168892
395.000000	0.169463
396.000000	0.169495
397.000000	0.169223
398.000000	0.169896
399.000000	0.169306
400.000000	0.169091
401.000000	0.172033
402.000000	0.171329
403.000000	0.170202
404.000000	0.171848
405.000000	0.171320
406.000000	0.171052
407.000000	0.171989
408.000000	0.172170
409.000000	0.172249
410.000000	0.172651
411.000000	0.173712
412.000000	0.173965
413.000000	0.173424
414.000000	0.172773
415.000000	0.174280
416.000000	0.175447
417.000000	0.175039
418.000000	0.175078
419.000000	0.175134
420.000000	0.175376
421.000000	0.176492
422.000000	0.176815
423.000000	0.176755
424.000000	0.177361
425.000000	0.178285
426.000000	0.178848
427.000000	0.178701
428.000000	0.178442
429.000000	0.178884
430.000000	0.179881
431.000000	0.179938
432.000000	0.180253
433.000000	0.180688
434.000000	0.180655
435.000000	0.180702
436.000000	0.180654
437.000000	0.180459
438.000000	0.181481
439.000000	0.182014
440.000000	0.181479
441.000000	0.181316
442.000000	0.181529
443.000000	0.181891
444.000000	0.182038
445.000000	0.182365
446.000000	0.182810
447.000000	0.183090
448.000000	0.183362
449.000000	0.183748
450.000000	0.184285
451.000000	0.184802
452.000000	0.185155
453.000000	0.185364
454.000000	0.185819
455.000000	0.186395
456.000000	0.186767
457.000000	0.186476
458.000000	0.186942
459.000000	0.187596
460.000000	0.187803
461.000000	0.187960
462.000000	0.188203
463.000000	0.188511
464.000000	0.189023
465.000000	0.189566
466.000000	0.189960
467.000000	0.190111
468.000000	0.190437
469.000000	0.190748
470.000000	0.190879
471.000000	0.190995
472.000000	0.191168
473.000000	0.191456
474.000000	0.191863
475.000000	0.192094
476.000000	0.192240
477.000000	0.192569
478.000000	0.192706
479.000000	0.192945
480.000000	0.193510
481.000000	0.193630
482.000000	0.193679
483.000000	0.193925
484.000000	0.194272
485.000000	0.194509
486.000000	0.194713
487.000000	0.195068
488.000000	0.195232
489.000000	0.195277
490.000000	0.195535
491.000000	0.195875
492.000000	0.196203
493.000000	0.196370
494.000000	0.196667
495.000000	0.196966
496.000000	0.197147
497.000000	0.197362
498.000000	0.197589
499.000000	0.197851
500.000000	0.198069
501.000000	0.198350
502.000000	0.198621
503.000000	0.198683
504.000000	0.198906
505.000000	0.199215
506.000000	0.199480
507.000000	0.199747
508.000000	0.200064
509.000000	0.200403
510.000000	0.200697
511.000000	0.200919
512.000000	0.201137
513.000000	0.201460
514.000000	0.201806
515.000000	0.202181
516.000000	0.202550
517.000000	0.202807
518.000000	0.203099
519.000000	0.203457
520.000000	0.203728
521.000000	0.204085
522.000000	0.204565
523.000000	0.204985
524.000000	0.205492
525.000000	0.206033
526.000000	0.206493
527.000000	0.207039
528.000000	0.207607
529.000000	0.208155
530.000000	0.208768
531.000000	0.209499
532.000000	0.210283
533.000000	0.211050
534.000000	0.211891
535.000000	0.212783
536.000000	0.213616
537.000000	0.214408
538.000000	0.215175
539.000000	0.215929
540.000000	0.216701
541.000000	0.217386
542.000000	0.217959
543.000000	0.218628
544.000000	0.219359
545.000000	0.220047
546.000000	0.220640
547.000000	0.221359
548.000000	0.222200
549.000000	0.222916
550.000000	0.223665
551.000000	0.224481
552.000000	0.225322
553.000000	0.226165
554.000000	0.227063
555.000000	0.228035
556.000000	0.228965
557.000000	0.229922
558.000000	0.230999
559.000000	0.232022
560.000000	0.232989
561.000000	0.233964
562.000000	0.234925
563.000000	0.235872
564.000000	0.236771
565.000000	0.237529
566.000000	0.238404
567.000000	0.239262
568.000000	0.239991
569.000000	0.240628
570.000000	0.241295
571.000000	0.241970
572.000000	0.242523
573.000000	0.243031
574.000000	0.243483
575.000000	0.243895
576.000000	0.244357
577.000000	0.244742
578.000000	0.245025
579.000000	0.245377
580.000000	0.245707
581.000000	0.245977
582.000000	0.246240
583.000000	0.246384
584.000000	0.246457
585.000000	0.246602
586.000000	0.246701
587.000000	0.246759
588.000000	0.246803
589.000000	0.246809
590.000000	0.246824
591.000000	0.246876
592.000000	0.246940
593.000000	0.246992
594.000000	0.247018
595.000000	0.247031
596.000000	0.246934
597.000000	0.246808
598.000000	0.246705
599.000000	0.246474
600.000000	0.246262
601.000000	0.246136
602.000000	0.246034
603.000000	0.245858
604.000000	0.245628
605.000000	0.245572
606.000000	0.245404
607.000000	0.245160
608.000000	0.245075
609.000000	0.244854
610.000000	0.244620
611.000000	0.244550
612.000000	0.244429
613.000000	0.244227
614.000000	0.244000
615.000000	0.243866
616.000000	0.243691
617.000000	0.243445
618.000000	0.243293
619.000000	0.243105
620.000000	0.242911
621.000000	0.242835
622.000000	0.242715
623.000000	0.242569
624.000000	0.242422
625.000000	0.242205
626.000000	0.242068
627.000000	0.242041
628.000000	0.241937
629.000000	0.241923
630.000000	0.241882
631.000000	0.241788
632.000000	0.241782
633.000000	0.241809
634.000000	0.241786
635.000000	0.241813
636.000000	0.241837
637.000000	0.241816
638.000000	0.241814
639.000000	0.241819
640.000000	0.241860
641.000000	0.241872
642.000000	0.241853
643.000000	0.241848
644.000000	0.241917
645.000000	0.242040
646.000000	0.242169
647.000000	0.242251
648.000000	0.242323
649.000000	0.242480
650.000000	0.242697
651.000000	0.242836
652.000000	0.242989
653.000000	0.243144
654.000000	0.243198
655.000000	0.243400
656.000000	0.243710
657.000000	0.244000
658.000000	0.244303
659.000000	0.244609
660.000000	0.244914
661.000000	0.245266
662.000000	0.245633
663.000000	0.246007
664.000000	0.246303
665.000000	0.246640
666.000000	0.247006
667.000000	0.247358
668.000000	0.247829
669.000000	0.248288
670.000000	0.248675
671.000000	0.249086
672.000000	0.249586
673.000000	0.250158
674.000000	0.250729
675.000000	0.251270
676.000000	0.251794
677.000000	0.252343
678.000000	0.252928
679.000000	0.253481
680.000000	0.253994
681.000000	0.254622
682.000000	0.255299
683.000000	0.255941
684.000000	0.256635
685.000000	0.257333
686.000000	0.258044
687.000000	0.258750
688.000000	0.259422
689.000000	0.260139
690.000000	0.260962
691.000000	0.261739
692.000000	0.262441
693.000000	0.263166
694.000000	0.264025
695.000000	0.264820
696.000000	0.265590
697.000000	0.266456
698.000000	0.267276
699.000000	0.268103
700.000000	0.268983
701.000000	0.269802
702.000000	0.270645
703.000000	0.271522
704.000000	0.272392
705.000000	0.273284
706.000000	0.274161
707.000000	0.275050
708.000000	0.275965
709.000000	0.276859
710.000000	0.277724
711.000000	0.278652
712.000000	0.279579
713.000000	0.280480
714.000000	0.281339
715.000000	0.282179
716.000000	0.283035
717.000000	0.283916
718.000000	0.284791
719.000000	0.285645
720.000000	0.286489
721.000000	0.287348
722.000000	0.288212
723.000000	0.289112
724.000000	0.289959
725.000000	0.290819
726.000000	0.291751
727.000000	0.292655
728.000000	0.293537
729.000000	0.294401
730.000000	0.295203
731.000000	0.295974
732.000000	0.296726
733.000000	0.297484
734.000000	0.298182
735.000000	0.298843
736.000000	0.299590
737.000000	0.300333
738.000000	0.301037
739.000000	0.301803
740.000000	0.302523
741.000000	0.303160
742.000000	0.303845
743.000000	0.304570
744.000000	0.305261
745.000000	0.305925
746.000000	0.306592
747.000000	0.307203
748.000000	0.307851
749.000000	0.308459
750.000000	0.308951
751.000000	0.309441
752.000000	0.309955
753.000000	0.310502
754.000000	0.311045
755.000000	0.311647
756.000000	0.312198
757.000000	0.312555
758.000000	0.313032
759.000000	0.313475
760.000000	0.313758
761.000000	0.314157
762.000000	0.314500
763.000000	0.314809
764.000000	0.315284
765.000000	0.315686
766.000000	0.316016
767.000000	0.316314
768.000000	0.316590
769.000000	0.316880
770.000000	0.317185
771.000000	0.317441
772.000000	0.317677
773.000000	0.317879
774.000000	0.318152
775.000000	0.318402
776.000000	0.318619
777.000000	0.318798
778.000000	0.318987
779.000000	0.319220
780.000000	0.319466
781.000000	0.319604
782.000000	0.319697
783.000000	0.319812
784.000000	0.319839
785.000000	0.319906
786.000000	0.319999
787.000000	0.320090
788.000000	0.320157
789.000000	0.320211
790.000000	0.320246
791.000000	0.320303
792.000000	0.320401
793.000000	0.320491
794.000000	0.320548
795.000000	0.320664
796.000000	0.320673
797.000000	0.320574
798.000000	0.320549
799.000000	0.320551
800.000000	0.320575
801.000000	0.320625
802.000000	0.320730
803.000000	0.320778
804.000000	0.320771
805.000000	0.320809
806.000000	0.320780
807.000000	0.320774
808.000000	0.320814
809.000000	0.320910
810.000000	0.320949
811.000000	0.320842
812.000000	0.320667
813.000000	0.320607
814.000000	0.320636
815.000000	0.320562
816.000000	0.320483
817.000000	0.320479
818.000000	0.320512
819.000000	0.320597
820.000000	0.320624
821.000000	0.320538
822.000000	0.320536
823.000000	0.320448
824.000000	0.320266
825.000000	0.320166
826.000000	0.320140
827.000000	0.320082
828.000000	0.319983
829.000000	0.319896
830.000000	0.319811
831.000000	0.319752
832.000000	0.319591
833.000000	0.319493
834.000000	0.319434
835.000000	0.319410
836.000000	0.319431
837.000000	0.319441
838.000000	0.319421
839.000000	0.319332
840.000000	0.319186
841.000000	0.319019
842.000000	0.318852
843.000000	0.318848
844.000000	0.318887
845.000000	0.318836
846.000000	0.318636
847.000000	0.318442
848.000000	0.318221
849.000000	0.317959
850.000000	0.317794
851.000000	0.317676
852.000000	0.317609
853.000000	0.317577
854.000000	0.317502
855.000000	0.317448
856.000000	0.317320
857.000000	0.317081
858.000000	0.316932
859.000000	0.316858
860.000000	0.316721
861.000000	0.316508
862.000000	0.316320
863.000000	0.316209
864.000000	0.316108
865.000000	0.315906
866.000000	0.315630
867.000000	0.315492
868.000000	0.315440
869.000000	0.315360
870.000000	0.315240
871.000000	0.315125
872.000000	0.314981
873.000000	0.314763
874.000000	0.314638
875.000000	0.314448
876.000000	0.314185
877.000000	0.313857
878.000000	0.313662
879.000000	0.313526
880.000000	0.313297
881.000000	0.313280
882.000000	0.313190
883.000000	0.313010
884.000000	0.312780
885.000000	0.312625
886.000000	0.312433
887.000000	0.312203
888.000000	0.312112
889.000000	0.311934
890.000000	0.311603
891.000000	0.311337
892.000000	0.311019
893.000000	0.310718
894.000000	0.310535
895.000000	0.310189
896.000000	0.309863
897.000000	0.309581
898.000000	0.309317
899.000000	0.309080
900.000000	0.308822
901.000000	0.308558
902.000000	0.308528
903.000000	0.308353
904.000000	0.308213
905.000000	0.308254
906.000000	0.308271
907.000000	0.308212
908.000000	0.308079
909.000000	0.307757
910.000000	0.307439
911.000000	0.307196
912.000000	0.307025
913.000000	0.306704
914.000000	0.306417
915.000000	0.306237
916.000000	0.305970
917.000000	0.305665
918.000000	0.305350
919.000000	0.305058
920.000000	0.304949
921.000000	0.304698
922.000000	0.304302
923.000000	0.303918
924.000000	0.303700
925.000000	0.303485
926.000000	0.303168
927.000000	0.302681
928.000000	0.302375
929.000000	0.302223
930.000000	0.302056
931.000000	0.301762
932.000000	0.301363
933.000000	0.301000
934.000000	0.300820
935.000000	0.300585
936.000000	0.300374
937.000000	0.300172
938.000000	0.299904
939.000000	0.299654
940.000000	0.299390
941.000000	0.299157
942.000000	0.298793
943.000000	0.298421
944.000000	0.298070
945.000000	0.297981
946.000000	0.297716
947.000000	0.297380
948.000000	0.297129
949.000000	0.296808
950.000000	0.296414
951.000000	0.296040
952.000000	0.295960
953.000000	0.295889
954.000000	0.295641
955.000000	0.295158
956.000000	0.294918
957.000000	0.294681
958.000000	0.294407
959.000000	0.294222
960.000000	0.293870
961.000000	0.293557
962.000000	0.293356
963.000000	0.293212
964.000000	0.293192
965.000000	0.293053
966.000000	0.292582
967.000000	0.292312
968.000000	0.292276
969.000000	0.292224
970.000000	0.291925
971.000000	0.291504
972.000000	0.291297
973.000000	0.291182
974.000000	0.290676
975.000000	0.290541
976.000000	0.290477
977.000000	0.290150
978.000000	0.289859
979.000000	0.289649
980.000000	0.289372
981.000000	0.289254
982.000000	0.289145
983.000000	0.289117
984.000000	0.289124
985.000000	0.288855
986.000000	0.288487
987.000000	0.288282
988.000000	0.288244
989.000000	0.288179
990.000000	0.288294
991.000000	0.288243
992.000000	0.287778
993.000000	0.287787
994.000000	0.287663
995.000000	0.287477
996.000000	0.287404
997.000000	0.287215
998.000000	0.286818
999.000000	0.286455
1000.000000	0.286553
1001.000000	0.287058
1002.000000	0.286362
1003.000000	0.286406
1004.000000	0.286240
1005.000000	0.286196
1006.000000	0.285957
1007.000000	0.285778
1008.000000	0.285195
1009.000000	0.284700
1010.000000	0.284657
1011.000000	0.285080
1012.000000	0.285237
1013.000000	0.284821
1014.000000	0.284672
1015.000000	0.284526
1016.000000	0.284677
1017.000000	0.285089
1018.000000	0.285141
1019.000000	0.285221
1020.000000	0.285234
1021.000000	0.284810
1022.000000	0.284306
1023.000000	0.284343
1024.000000	0.284169
1025.000000	0.284146
1026.000000	0.284861
1027.000000	0.285343
1028.000000	0.285444
1029.000000	0.285231
1030.000000	0.284526
1031.000000	0.283970
1032.000000	0.283899
1033.000000	0.284250
1034.000000	0.284786
1035.000000	0.286340
1036.000000	0.286632
1037.000000	0.286463
1038.000000	0.286282
1039.000000	0.285517
1040.000000	0.285059
1041.000000	0.285261
1042.000000	0.285181
1043.000000	0.285092
1044.000000	0.285171
1045.000000	0.285075
1046.000000	0.285211
1047.000000	0.285356
1048.000000	0.285492
1049.000000	0.285709
1050.000000	0.286103
1051.000000	0.286319
1052.000000	0.286466
1053.000000	0.286756
1054.000000	0.287376
1055.000000	0.287576
1056.000000	0.287820
1057.000000	0.287731
1058.000000	0.287470
1059.000000	0.287331
1060.000000	0.287794
1061.000000	0.288448
1062.000000	0.288841
1063.000000	0.289321
1064.000000	0.289625
1065.000000	0.289583
1066.000000	0.289864
1067.000000	0.290273
1068.000000	0.290434
1069.000000	0.290686
1070.000000	0.290643
1071.000000	0.290168
1072.000000	0.290110
1073.000000	0.290228
1074.000000	0.290163
1075.000000	0.290401
1076.000000	0.290708
1077.000000	0.290889
1078.000000	0.291357
1079.000000	0.291793
1080.000000	0.292618
1081.000000	0.292811
1082.000000	0.292789
1083.000000	0.292898
1084.000000	0.292616
1085.000000	0.292784
1086.000000	0.293324
1087.000000	0.293641
1088.000000	0.294062
1089.000000	0.294210
1090.000000	0.293946
1091.000000	0.294023
1092.000000	0.293936
1093.000000	0.293892
1094.000000	0.293972
1095.000000	0.294065
1096.000000	0.294332
1097.000000	0.294866
1098.000000	0.295129
1099.000000	0.295335
1100.000000	0.295657
1101.000000	0.295929
1102.000000	0.295975
1103.000000	0.295878
1104.000000	0.296001
1105.000000	0.295808
1106.000000	0.295986
1107.000000	0.296761
1108.000000	0.297179
1109.000000	0.297606
1110.000000	0.297885
1111.000000	0.298175
1112.000000	0.298210
1113.000000	0.298656
1114.000000	0.299435
1115.000000	0.299774
1116.000000	0.300221
1117.000000	0.300340
1118.000000	0.299857
1119.000000	0.299819
1120.000000	0.299852
1121.000000	0.299947
1122.000000	0.300362
1123.000000	0.300787
1124.000000	0.301188
1125.000000	0.301351
1126.000000	0.301155
1127.000000	0.301140
1128.000000	0.301116
1129.000000	0.300921
1130.000000	0.301049
1131.000000	0.301538
1132.000000	0.301649
1133.000000	0.301643
1134.000000	0.301857
1135.000000	0.301982
1136.000000	0.302177
1137.000000	0.302690
1138.000000	0.302835
1139.000000	0.302795
1140.000000	0.302915
1141.000000	0.302822
1142.000000	0.302954
1143.000000	0.303385
1144.000000	0.303609
1145.000000	0.303526
1146.000000	0.303539
1147.000000	0.303580
1148.000000	0.303317
1149.000000	0.303409
1150.000000	0.303877
1151.000000	0.304028
1152.000000	0.304021
1153.000000	0.304159
1154.000000	0.304161
1155.000000	0.304283
1156.000000	0.304686
1157.000000	0.304822
1158.000000	0.304779
1159.000000	0.304808
1160.000000	0.304675
1161.000000	0.304621
1162.000000	0.304704
1163.000000	0.304904
1164.000000	0.304841
1165.000000	0.304987
1166.000000	0.305142
1167.000000	0.305354
1168.000000	0.305337
1169.000000	0.305255
1170.000000	0.305315
1171.000000	0.305332
1172.000000	0.305398
1173.000000	0.305640
1174.000000	0.305722
1175.000000	0.305548
1176.000000	0.305548
1177.000000	0.305791
1178.000000	0.305860
1179.000000	0.305890
1180.000000	0.305856
1181.000000	0.305815
1182.000000	0.305677
1183.000000	0.305613
1184.000000	0.305743
1185.000000	0.305764
1186.000000	0.305761
1187.000000	0.305764
1188.000000	0.305760
1189.000000	0.305733
1190.000000	0.305738
1191.000000	0.305777
1192.000000	0.305960
1193.000000	0.306123
1194.000000	0.306115
1195.000000	0.306217
1196.000000	0.306344
1197.000000	0.306391
1198.000000	0.306448
1199.000000	0.306585
1200.000000	0.306770
1201.000000	0.306772
1202.000000	0.306867
1203.000000	0.307069
1204.000000	0.306957
1205.000000	0.306805
1206.000000	0.306728
1207.000000	0.306705
1208.000000	0.306669
1209.000000	0.306747
1210.000000	0.306785
1211.000000	0.306813
1212.000000	0.306804
1213.000000	0.306782
1214.000000	0.306893
1215.000000	0.307062
1216.000000	0.307139
1217.000000	0.307264
1218.000000	0.307306
1219.000000	0.307180
1220.000000	0.307239
1221.000000	0.307429
1222.000000	0.307505
1223.000000	0.307663
1224.000000	0.307761
1225.000000	0.307533
1226.000000	0.307466
1227.000000	0.307573
1228.000000	0.307566
1229.000000	0.307571
1230.000000	0.307707
1231.000000	0.307695
1232.000000	0.307587
1233.000000	0.307717
1234.000000	0.308074
1235.000000	0.308103
1236.000000	0.307877
1237.000000	0.307886
1238.000000	0.307737
1239.000000	0.307676
1240.000000	0.307759
1241.000000	0.307987
1242.000000	0.307979
1243.000000	0.307878
1244.000000	0.307937
1245.000000	0.307964
1246.000000	0.307952
1247.000000	0.308127
1248.000000	0.308246
1249.000000	0.308154
1250.000000	0.308018
1251.000000	0.307960
1252.000000	0.307876
1253.000000	0.307776
1254.000000	0.307755
1255.000000	0.307700
1256.000000	0.307762
1257.000000	0.308093
1258.000000	0.308188
1259.000000	0.308121
1260.000000	0.308210
1261.000000	0.308116
1262.000000	0.308073
1263.000000	0.308155
1264.000000	0.308370
1265.000000	0.308229
1266.000000	0.308092
1267.000000	0.308234
1268.000000	0.308228
1269.000000	0.308146
1270.000000	0.308282
1271.000000	0.308290
1272.000000	0.308249
1273.000000	0.308399
1274.000000	0.308594
1275.000000	0.308693
1276.000000	0.308724
1277.000000	0.308897
1278.000000	0.309042
1279.000000	0.309106
1280.000000	0.309120
1281.000000	0.309135
1282.000000	0.309151
1283.000000	0.309241
1284.000000	0.309364
1285.000000	0.309379
1286.000000	0.309312
1287.000000	0.309196
1288.000000	0.309144
1289.000000	0.309117
1290.000000	0.309087
1291.000000	0.309045
1292.000000	0.309036
1293.000000	0.309115
1294.000000	0.309171
1295.000000	0.309265
1296.000000	0.309238
1297.000000	0.309061
1298.000000	0.308999
1299.000000	0.308964
1300.000000	0.309042
1301.000000	0.309166
1302.000000	0.309103
1303.000000	0.308987
1304.000000	0.308975
1305.000000	0.309057
1306.000000	0.309014
1307.000000	0.309055
1308.000000	0.309061
1309.000000	0.308827
1310.000000	0.308795
1311.000000	0.308911
1312.000000	0.309127
1313.000000	0.309185
1314.000000	0.309171
1315.000000	0.309109
1316.000000	0.309038
1317.000000	0.309032
1318.000000	0.309138
1319.000000	0.309249
1320.000000	0.309298
1321.000000	0.309217
1322.000000	0.309191
1323.000000	0.309190
1324.000000	0.309121
1325.000000	0.309086
1326.000000	0.309004
1327.000000	0.308838
1328.000000	0.308764
1329.000000	0.308695
1330.000000	0.308676
1331.000000	0.308658
1332.000000	0.308757
1333.000000	0.308803
1334.000000	0.308925
1335.000000	0.309004
1336.000000	0.308947
1337.000000	0.308985
1338.000000	0.308983
1339.000000	0.309070
1340.000000	0.309129
1341.000000	0.309357
1342.000000	0.309533
1343.000000	0.309548
1344.000000	0.309634
1345.000000	0.309608
1346.000000	0.309513
1347.000000	0.309361
1348.000000	0.309300
1349.000000	0.309138
1350.000000	0.308965
1351.000000	0.308961
1352.000000	0.308886
1353.000000	0.308840
1354.000000	0.308934
1355.000000	0.308847
1356.000000	0.308797
1357.000000	0.308698
1358.000000	0.308495
1359.000000	0.308402
1360.000000	0.308321
1361.000000	0.308266
1362.000000	0.308233
1363.000000	0.308260
1364.000000	0.308246
1365.000000	0.308195
1366.000000	0.308184
1367.000000	0.308196
1368.000000	0.308123
1369.000000	0.308197
1370.000000	0.308125
1371.000000	0.307909
1372.000000	0.307739
1373.000000	0.307564
1374.000000	0.307439
1375.000000	0.307433
1376.000000	0.307444
1377.000000	0.307382
1378.000000	0.307319
1379.000000	0.307035
1380.000000	0.306782
1381.000000	0.306690
1382.000000	0.306456
1383.000000	0.306325
1384.000000	0.306215
1385.000000	0.305943
1386.000000	0.305803
1387.000000	0.305691
1388.000000	0.305451
1389.000000	0.305221
1390.000000	0.304925
1391.000000	0.304584
1392.000000	0.304355
1393.000000	0.303989
1394.000000	0.303624
1395.000000	0.303217
1396.000000	0.302633
1397.000000	0.302143
1398.000000	0.301650
1399.000000	0.301195
1400.000000	0.300808
1401.000000	0.300329
1402.000000	0.299857
1403.000000	0.299383
1404.000000	0.298945
1405.000000	0.298607
1406.000000	0.298343
1407.000000	0.298088
1408.000000	0.297814
1409.000000	0.297507
1410.000000	0.297175
1411.000000	0.296930
1412.000000	0.296691
1413.000000	0.296536
1414.000000	0.296564
1415.000000	0.296544
1416.000000	0.296500
1417.000000	0.296565
1418.000000	0.296544
1419.000000	0.296523
1420.000000	0.296422
1421.000000	0.296339
1422.000000	0.296407
1423.000000	0.296513
1424.000000	0.296534
1425.000000	0.296673
1426.000000	0.296638
1427.000000	0.296613
1428.000000	0.296781
1429.000000	0.296818
1430.000000	0.296896
1431.000000	0.297048
1432.000000	0.297119
1433.000000	0.297207
1434.000000	0.297274
1435.000000	0.297311
1436.000000	0.297410
1437.000000	0.297539
1438.000000	0.297583
1439.000000	0.297659
1440.000000	0.297825
1441.000000	0.297983
1442.000000	0.298224
1443.000000	0.298508
1444.000000	0.298817
1445.000000	0.299119
1446.000000	0.299362
1447.000000	0.299573
1448.000000	0.299748
1449.000000	0.299933
1450.000000	0.300116
1451.000000	0.300459
1452.000000	0.300810
1453.000000	0.300938
1454.000000	0.300995
1455.000000	0.300983
1456.000000	0.301014
1457.000000	0.301232
1458.000000	0.301537
1459.000000	0.301712
1460.000000	0.301715
1461.000000	0.301721
1462.000000	0.301704
1463.000000	0.301623
1464.000000	0.301716
1465.000000	0.301894
1466.000000	0.301922
1467.000000	0.302088
1468.000000	0.302225
1469.000000	0.302262
1470.000000	0.302399
1471.000000	0.302536
1472.000000	0.302610
1473.000000	0.302808
1474.000000	0.302978
1475.000000	0.303111
1476.000000	0.303264
1477.000000	0.303381
1478.000000	0.303507
1479.000000	0.303536
1480.000000	0.303526
1481.000000	0.303549
1482.000000	0.303529
1483.000000	0.303631
1484.000000	0.303850
1485.000000	0.304042
1486.000000	0.304314
1487.000000	0.304522
1488.000000	0.304757
1489.000000	0.304913
1490.000000	0.304810
1491.000000	0.304875
1492.000000	0.304941
1493.000000	0.304963
1494.000000	0.305012
1495.000000	0.305036
1496.000000	0.304933
1497.000000	0.304975
1498.000000	0.305139
1499.000000	0.305243
1500.000000	0.305341
1501.000000	0.305371
1502.000000	0.305291
1503.000000	0.305401
1504.000000	0.305505
1505.000000	0.305525
1506.000000	0.305601
1507.000000	0.305592
1508.000000	0.305671
1509.000000	0.305629
1510.000000	0.305471
1511.000000	0.305493
1512.000000	0.305452
1513.000000	0.305558
1514.000000	0.305869
1515.000000	0.305878
1516.000000	0.305847
1517.000000	0.305769
1518.000000	0.305579
1519.000000	0.305469
1520.000000	0.305360
1521.000000	0.305258
1522.000000	0.305289
1523.000000	0.305425
1524.000000	0.305542
1525.000000	0.305654
1526.000000	0.305693
1527.000000	0.305731
1528.000000	0.305887
1529.000000	0.305965
1530.000000	0.305945
1531.000000	0.305916
1532.000000	0.305806
1533.000000	0.305783
1534.000000	0.305879
1535.000000	0.305958
1536.000000	0.305939
1537.000000	0.305943
1538.000000	0.306013
1539.000000	0.306028
1540.000000	0.306015
1541.000000	0.306145
1542.000000	0.306218
1543.000000	0.306132
1544.000000	0.306088
1545.000000	0.306188
1546.000000	0.306337
1547.000000	0.306418
1548.000000	0.306518
1549.000000	0.306547
1550.000000	0.306459
1551.000000	0.306522
1552.000000	0.306698
1553.000000	0.306725
1554.000000	0.306606
1555.000000	0.306523
1556.000000	0.306427
1557.000000	0.306318
1558.000000	0.306379
1559.000000	0.306623
1560.000000	0.306672
1561.000000	0.306760
1562.000000	0.306773
1563.000000	0.306695
1564.000000	0.306630
1565.000000	0.306589
1566.000000	0.306428
1567.000000	0.306212
1568.000000	0.306143
1569.000000	0.306172
1570.000000	0.306179
1571.000000	0.306311
1572.000000	0.306300
1573.000000	0.306120
1574.000000	0.306122
1575.000000	0.306197
1576.000000	0.306302
1577.000000	0.306550
1578.000000	0.306637
1579.000000	0.306691
1580.000000	0.306749
1581.000000	0.306844
1582.000000	0.306869
1583.000000	0.306841
1584.000000	0.306787
1585.000000	0.306724
1586.000000	0.306740
1587.000000	0.306902
1588.000000	0.306864
1589.000000	0.306673
1590.000000	0.306634
1591.000000	0.306567
1592.000000	0.306543
1593.000000	0.306737
1594.000000	0.306751
1595.000000	0.306649
1596.000000	0.306646
1597.000000	0.306744
1598.000000	0.306702
1599.000000	0.306658
1600.000000	0.306574
1601.000000	0.306420
1602.000000	0.306345
1603.000000	0.306349
1604.000000	0.306307
1605.000000	0.306229
1606.000000	0.306282
1607.000000	0.306507
1608.000000	0.306580
1609.000000	0.306757
1610.000000	0.306812
1611.000000	0.306632
1612.000000	0.306695
1613.000000	0.307075
1614.000000	0.307140
1615.000000	0.307157
1616.000000	0.307292
1617.000000	0.307252
1618.000000	0.307256
1619.000000	0.307422
1620.000000	0.307463
1621.000000	0.307396
1622.000000	0.307434
1623.000000	0.307503
1624.000000	0.307534
1625.000000	0.307421
1626.000000	0.307280
1627.000000	0.307078
1628.000000	0.307037
1629.000000	0.307056
1630.000000	0.307053
1631.000000	0.307111
1632.000000	0.307045
1633.000000	0.306858
1634.000000	0.306745
1635.000000	0.306701
1636.000000	0.306568
1637.000000	0.306340
1638.000000	0.306293
1639.000000	0.306362
1640.000000	0.306381
1641.000000	0.306641
1642.000000	0.306669
1643.000000	0.306505
1644.000000	0.306519
1645.000000	0.306583
1646.000000	0.306534
1647.000000	0.306567
1648.000000	0.306508
1649.000000	0.306357
1650.000000	0.306351
1651.000000	0.306461
1652.000000	0.306547
1653.000000	0.306623
1654.000000	0.306693
1655.000000	0.306701
1656.000000	0.306695
1657.000000	0.306776
1658.000000	0.306774
1659.000000	0.306832
1660.000000	0.306901
1661.000000	0.306822
1662.000000	0.306829
1663.000000	0.306902
1664.000000	0.306901
1665.000000	0.306884
1666.000000	0.306907
1667.000000	0.306799
1668.000000	0.306807
1669.000000	0.306859
1670.000000	0.306759
1671.000000	0.306818
1672.000000	0.306700
1673.000000	0.306338
1674.000000	0.306274
1675.000000	0.306157
1676.000000	0.306283
1677.000000	0.306325
1678.000000	0.306324
1679.000000	0.306394
1680.000000	0.306356
1681.000000	0.306330
1682.000000	0.306331
1683.000000	0.306323
1684.000000	0.306259
1685.000000	0.306251
1686.000000	0.306191
1687.000000	0.306070
1688.000000	0.306061
1689.000000	0.306060
1690.000000	0.306020
1691.000000	0.306083
1692.000000	0.305947
1693.000000	0.305764
1694.000000	0.305670
1695.000000	0.305644
1696.000000	0.305699
1697.000000	0.305636
1698.000000	0.305548
1699.000000	0.305476
1700.000000	0.305341
1701.000000	0.305327
1702.000000	0.305252
1703.000000	0.305079
1704.000000	0.304916
1705.000000	0.304821
1706.000000	0.304696
1707.000000	0.304695
1708.000000	0.304915
1709.000000	0.304878
1710.000000	0.304724
1711.000000	0.304777
1712.000000	0.304913
1713.000000	0.304954
1714.000000	0.305177
1715.000000	0.305287
1716.000000	0.305191
1717.000000	0.305189
1718.000000	0.305195
1719.000000	0.305260
1720.000000	0.305473
1721.000000	0.305490
1722.000000	0.305530
1723.000000	0.305481
1724.000000	0.305157
1725.000000	0.305133
1726.000000	0.305164
1727.000000	0.305181
1728.000000	0.305297
1729.000000	0.305244
1730.000000	0.305252
1731.000000	0.305178
1732.000000	0.305028
1733.000000	0.304936
1734.000000	0.304674
1735.000000	0.304502
1736.000000	0.304331
1737.000000	0.304172
1738.000000	0.303986
1739.000000	0.303997
1740.000000	0.304131
1741.000000	0.304117
1742.000000	0.304176
1743.000000	0.304246
1744.000000	0.304193
1745.000000	0.304198
1746.000000	0.304327
1747.000000	0.304192
1748.000000	0.304107
1749.000000	0.304064
1750.000000	0.304011
1751.000000	0.304179
1752.000000	0.304294
1753.000000	0.304182
1754.000000	0.304177
1755.000000	0.304082
1756.000000	0.304078
1757.000000	0.304267
1758.000000	0.304348
1759.000000	0.304353
1760.000000	0.304417
1761.000000	0.304438
1762.000000	0.304448
1763.000000	0.304583
1764.000000	0.304568
1765.000000	0.304347
1766.000000	0.304270
1767.000000	0.304066
1768.000000	0.303988
1769.000000	0.304198
1770.000000	0.304239
1771.000000	0.304221
1772.000000	0.304179
1773.000000	0.303947
1774.000000	0.303881
1775.000000	0.303965
1776.000000	0.303979
1777.000000	0.303980
1778.000000	0.304003
1779.000000	0.304040
1780.000000	0.303979
1781.000000	0.303837
1782.000000	0.303772
1783.000000	0.303707
1784.000000	0.303588
1785.000000	0.303567
1786.000000	0.303416
1787.000000	0.303255
1788.000000	0.303191
1789.000000	0.303076
1790.000000	0.303210
1791.000000	0.303160
1792.000000	0.303185
1793.000000	0.303147
1794.000000	0.302885
1795.000000	0.302801
1796.000000	0.302868
1797.000000	0.302818
1798.000000	0.302712
1799.000000	0.302696
1800.000000	0.302623
1801.000000	0.303077
1802.000000	0.302825
1803.000000	0.302129
1804.000000	0.302672
1805.000000	0.305371
1806.000000	0.306318
1807.000000	0.307070
1808.000000	0.307591
1809.000000	0.307901
1810.000000	0.307064
1811.000000	0.306798
1812.000000	0.306491
1813.000000	0.306293
1814.000000	0.306085
1815.000000	0.305972
1816.000000	0.305750
1817.000000	0.305731
1818.000000	0.306066
1819.000000	0.306372
1820.000000	0.305910
1821.000000	0.306380
1822.000000	0.305964
1823.000000	0.304257
1824.000000	0.303707
1825.000000	0.303108
1826.000000	0.303219
1827.000000	0.303678
1828.000000	0.305267
1829.000000	0.306013
1830.000000	0.305607
1831.000000	0.305429
1832.000000	0.304098
1833.000000	0.303893
1834.000000	0.304346
1835.000000	0.304666
1836.000000	0.305209
1837.000000	0.305560
1838.000000	0.305449
1839.000000	0.306055
1840.000000	0.306365
1841.000000	0.306801
1842.000000	0.306837
1843.000000	0.306477
1844.000000	0.306118
1845.000000	0.305434
1846.000000	0.305026
1847.000000	0.304224
1848.000000	0.304236
1849.000000	0.304782
1850.000000	0.304180
1851.000000	0.304015
1852.000000	0.304236
1853.000000	0.304081
1854.000000	0.303205
1855.000000	0.302943
1856.000000	0.302832
1857.000000	0.302712
1858.000000	0.302425
1859.000000	0.302341
1860.000000	0.302527
1861.000000	0.302031
1862.000000	0.301922
1863.000000	0.302574
1864.000000	0.302385
1865.000000	0.301512
1866.000000	0.301304
1867.000000	0.301156
1868.000000	0.300671
1869.000000	0.300557
1870.000000	0.300335
1871.000000	0.299677
1872.000000	0.298856
1873.000000	0.298195
1874.000000	0.297444
1875.000000	0.296991
1876.000000	0.296510
1877.000000	0.295807
1878.000000	0.295229
1879.000000	0.294627
1880.000000	0.293981
1881.000000	0.293748
1882.000000	0.293070
1883.000000	0.292443
1884.000000	0.291552
1885.000000	0.289763
1886.000000	0.288393
1887.000000	0.287226
1888.000000	0.285862
1889.000000	0.283911
1890.000000	0.281934
1891.000000	0.280127
1892.000000	0.278242
1893.000000	0.276765
1894.000000	0.275780
1895.000000	0.274550
1896.000000	0.273420
1897.000000	0.272197
1898.000000	0.270854
1899.000000	0.269709
1900.000000	0.268094
1901.000000	0.266237
1902.000000	0.264942
1903.000000	0.263642
1904.000000	0.263050
1905.000000	0.263036
1906.000000	0.262833
1907.000000	0.262643
1908.000000	0.263149
1909.000000	0.263357
1910.000000	0.263347
1911.000000	0.264521
1912.000000	0.265108
1913.000000	0.265939
1914.000000	0.267153
1915.000000	0.267146
1916.000000	0.267582
1917.000000	0.268317
1918.000000	0.269347
1919.000000	0.270408
1920.000000	0.271604
1921.000000	0.273160
1922.000000	0.274236
1923.000000	0.274561
1924.000000	0.275475
1925.000000	0.275400
1926.000000	0.274595
1927.000000	0.274622
1928.000000	0.274761
1929.000000	0.274917
1930.000000	0.275455
1931.000000	0.276211
1932.000000	0.276409
1933.000000	0.276039
1934.000000	0.275895
1935.000000	0.276455
1936.000000	0.277294
1937.000000	0.278024
1938.000000	0.278133
1939.000000	0.278446
1940.000000	0.278392
1941.000000	0.278698
1942.000000	0.279178
1943.000000	0.279858
1944.000000	0.279888
1945.000000	0.279270
1946.000000	0.279282
1947.000000	0.279438
1948.000000	0.279371
1949.000000	0.279443
1950.000000	0.279450
1951.000000	0.279335
1952.000000	0.278940
1953.000000	0.278927
1954.000000	0.279655
1955.000000	0.280502
1956.000000	0.280990
1957.000000	0.281483
1958.000000	0.281746
1959.000000	0.281553
1960.000000	0.281328
1961.000000	0.281258
1962.000000	0.281306
1963.000000	0.281528
1964.000000	0.281310
1965.000000	0.281148
1966.000000	0.281623
1967.000000	0.281491
1968.000000	0.281639
1969.000000	0.282963
1970.000000	0.283409
1971.000000	0.283312
1972.000000	0.283910
1973.000000	0.283829
1974.000000	0.282661
1975.000000	0.282551
1976.000000	0.283011
1977.000000	0.283094
1978.000000	0.283352
1979.000000	0.283987
1980.000000	0.284017
1981.000000	0.283924
1982.000000	0.284142
1983.000000	0.284051
1984.000000	0.283946
1985.000000	0.283934
1986.000000	0.283756
1987.000000	0.283109
1988.000000	0.283529
1989.000000	0.284036
1990.000000	0.284610
1991.000000	0.285846
1992.000000	0.285877
1993.000000	0.285515
1994.000000	0.285857
1995.000000	0.285604
1996.000000	0.286112
1997.000000	0.286274
1998.000000	0.286438
1999.000000	0.286526
2000.000000	0.286815
2001.000000	0.286199
2002.000000	0.285602
2003.000000	0.285652
2004.000000	0.285643
2005.000000	0.286337
2006.000000	0.287702
2007.000000	0.288890
2008.000000	0.289635
2009.000000	0.290047
2010.000000	0.290321
2011.000000	0.290112
2012.000000	0.290010
2013.000000	0.289684
2014.000000	0.289582
2015.000000	0.289239
2016.000000	0.288675
2017.000000	0.288367
2018.000000	0.287917
2019.000000	0.287911
2020.000000	0.288545
2021.000000	0.289006
2022.000000	0.289842
2023.000000	0.290238
2024.000000	0.290470
2025.000000	0.290666
2026.000000	0.290448
2027.000000	0.290501
2028.000000	0.290757
2029.000000	0.290672
2030.000000	0.290874
2031.000000	0.290852
2032.000000	0.290422
2033.000000	0.290859
2034.000000	0.291007
2035.000000	0.291235
2036.000000	0.291256
2037.000000	0.291523
2038.000000	0.291358
2039.000000	0.290644
2040.000000	0.290590
2041.000000	0.291036
2042.000000	0.291249
2043.000000	0.291920
2044.000000	0.292716
2045.000000	0.292634
2046.000000	0.292417
2047.000000	0.292310
2048.000000	0.291882
2049.000000	0.291909
2050.000000	0.291895
2051.000000	0.291826
2052.000000	0.291757
2053.000000	0.291721
2054.000000	0.291927
2055.000000	0.292049
2056.000000	0.292299
2057.000000	0.292070
2058.000000	0.291474
2059.000000	0.291448
2060.000000	0.291925
2061.000000	0.293203
2062.000000	0.293634
2063.000000	0.294762
2064.000000	0.294545
2065.000000	0.292918
2066.000000	0.292202
2067.000000	0.291666
2068.000000	0.291113
2069.000000	0.291017
2070.000000	0.291605
2071.000000	0.292019
2072.000000	0.292453
2073.000000	0.292831
2074.000000	0.292489
2075.000000	0.292093
2076.000000	0.290874
2077.000000	0.290630
2078.000000	0.290640
2079.000000	0.290758
2080.000000	0.291818
2081.000000	0.291923
2082.000000	0.291314
2083.000000	0.291374
2084.000000	0.290804
2085.000000	0.290695
2086.000000	0.291433
2087.000000	0.291487
2088.000000	0.291996
2089.000000	0.292532
2090.000000	0.292814
2091.000000	0.292989
2092.000000	0.293360
2093.000000	0.293604
2094.000000	0.293924
2095.000000	0.294797
2096.000000	0.294815
2097.000000	0.294229
2098.000000	0.293834
2099.000000	0.292926
2100.000000	0.292034
2101.000000	0.291745
2102.000000	0.291741
2103.000000	0.291371
2104.000000	0.291159
2105.000000	0.291181
2106.000000	0.291159
2107.000000	0.291405
2108.000000	0.292326
2109.000000	0.292755
2110.000000	0.292854
2111.000000	0.292919
2112.000000	0.293017
2113.000000	0.292081
2114.000000	0.292027
2115.000000	0.291884
2116.000000	0.291514
2117.000000	0.291653
2118.000000	0.291329
2119.000000	0.290920
2120.000000	0.290771
2121.000000	0.290668
2122.000000	0.290846
2123.000000	0.291474
2124.000000	0.291707
2125.000000	0.292245
2126.000000	0.291984
2127.000000	0.290745
2128.000000	0.290246
2129.000000	0.289244
2130.000000	0.289014
2131.000000	0.289594
2132.000000	0.290877
2133.000000	0.292223
2134.000000	0.293503
2135.000000	0.293608
2136.000000	0.293388
2137.000000	0.293463
2138.000000	0.293088
2139.000000	0.292844
2140.000000	0.293137
2141.000000	0.292731
2142.000000	0.291177
2143.000000	0.290873
2144.000000	0.291357
2145.000000	0.291827
2146.000000	0.293277
2147.000000	0.294528
2148.000000	0.294471
2149.000000	0.294302
2150.000000	0.293728
2151.000000	0.292968
2152.000000	0.292518
2153.000000	0.291195
2154.000000	0.291286
2155.000000	0.292231
2156.000000	0.292670
2157.000000	0.294432
2158.000000	0.294829
2159.000000	0.293637
2160.000000	0.293689
2161.000000	0.293706
2162.000000	0.293954
2163.000000	0.295217
2164.000000	0.295659
2165.000000	0.295592
2166.000000	0.295913
2167.000000	0.295538
2168.000000	0.295005
2169.000000	0.294806
2170.000000	0.293901
2171.000000	0.292958
2172.000000	0.291676
2173.000000	0.290857
2174.000000	0.289479
2175.000000	0.289621
2176.000000	0.291141
2177.000000	0.291944
2178.000000	0.293919
2179.000000	0.294410
2180.000000	0.293073
2181.000000	0.293319
2182.000000	0.293253
2183.000000	0.293281
2184.000000	0.294470
2185.000000	0.294754
2186.000000	0.292776
2187.000000	0.291636
2188.000000	0.290848
2189.000000	0.289980
2190.000000	0.292273
2191.000000	0.294093
2192.000000	0.294820
2193.000000	0.295715
2194.000000	0.295551
2195.000000	0.293573
2196.000000	0.292449
2197.000000	0.290807
2198.000000	0.289495
2199.000000	0.287476
2200.000000	0.286849
2201.000000	0.287193
2202.000000	0.287862
2203.000000	0.289991
2204.000000	0.292048
2205.000000	0.293358
2206.000000	0.293895
2207.000000	0.292400
2208.000000	0.291994
2209.000000	0.291482
2210.000000	0.291647
2211.000000	0.292285
2212.000000	0.292577
2213.000000	0.292099
2214.000000	0.290020
2215.000000	0.289739
2216.000000	0.290469
2217.000000	0.289978
2218.000000	0.288806
2219.000000	0.289323
2220.000000	0.289377
2221.000000	0.290692
2222.000000	0.296284
2223.000000	0.297862
2224.000000	0.298075
2225.000000	0.296460
2226.000000	0.294835
2227.000000	0.292740
2228.000000	0.291305
2229.000000	0.290065
2230.000000	0.287807
2231.000000	0.286188
2232.000000	0.286737
2233.000000	0.289099
2234.000000	0.291042
2235.000000	0.292860
2236.000000	0.292677
2237.000000	0.289671
2238.000000	0.288468
2239.000000	0.286413
2240.000000	0.285471
2241.000000	0.285926
2242.000000	0.286127
2243.000000	0.286813
2244.000000	0.287063
2245.000000	0.287554
2246.000000	0.287086
2247.000000	0.284433
2248.000000	0.284454
2249.000000	0.285869
2250.000000	0.287157
2251.000000	0.288000
2252.000000	0.287779
2253.000000	0.284937
2254.000000	0.281874
2255.000000	0.280049
2256.000000	0.279625
2257.000000	0.281990
2258.000000	0.284243
2259.000000	0.286381
2260.000000	0.289828
2261.000000	0.289590
2262.000000	0.286393
2263.000000	0.283782
2264.000000	0.278340
2265.000000	0.276108
2266.000000	0.274559
2267.000000	0.274869
2268.000000	0.278105
2269.000000	0.279462
2270.000000	0.282283
2271.000000	0.282496
2272.000000	0.279971
2273.000000	0.278951
2274.000000	0.276913
2275.000000	0.276232
2276.000000	0.276573
2277.000000	0.277256
2278.000000	0.279580
2279.000000	0.278593
2280.000000	0.275456
2281.000000	0.276055
2282.000000	0.275618
2283.000000	0.274174
2284.000000	0.277366
2285.000000	0.278880
2286.000000	0.276999
2287.000000	0.277129
2288.000000	0.274606
2289.000000	0.269714
2290.000000	0.267714
2291.000000	0.266420
2292.000000	0.266109
2293.000000	0.267369
2294.000000	0.268407
2295.000000	0.270169
2296.000000	0.271893
2297.000000	0.273780
2298.000000	0.274822
2299.000000	0.276826
2300.000000	0.276464
2301.000000	0.273882
2302.000000	0.272943
2303.000000	0.269884
2304.000000	0.269523
2305.000000	0.272382
2306.000000	0.273181
2307.000000	0.274139
2308.000000	0.275553
2309.000000	0.274467
2310.000000	0.273105
2311.000000	0.272113
2312.000000	0.271187
2313.000000	0.270607
2314.000000	0.270764
2315.000000	0.272767
2316.000000	0.275107
2317.000000	0.277671
2318.000000	0.279223
2319.000000	0.278073
2320.000000	0.275831
2321.000000	0.274170
2322.000000	0.273085
2323.000000	0.275173
2324.000000	0.278787
2325.000000	0.279687
2326.000000	0.280049
2327.000000	0.279785
2328.000000	0.279548
2329.000000	0.281379
2330.000000	0.282799
2331.000000	0.282327
2332.000000	0.280670
2333.000000	0.278446
2334.000000	0.277539
2335.000000	0.277553
2336.000000	0.278553
2337.000000	0.278712
2338.000000	0.279458
2339.000000	0.279541
2340.000000	0.279328
2341.000000	0.279555
2342.000000	0.280006
2343.000000	0.279492
2344.000000	0.277702
2345.000000	0.276247
2346.000000	0.274293
2347.000000	0.273683
2348.000000	0.274045
2349.000000	0.274526
2350.000000	0.273464
2351.000000	0.274414
2352.000000	0.274441
2353.000000	0.275538
2354.000000	0.280020
2355.000000	0.280899
2356.000000	0.279701
2357.000000	0.279483
2358.000000	0.278500
2359.000000	0.277820
2360.000000	0.278274
2361.000000	0.279100
2362.000000	0.278840
2363.000000	0.277865
2364.000000	0.273734
2365.000000	0.269284
2366.000000	0.270500
2367.000000	0.271342
2368.000000	0.271606
2369.000000	0.274975
2370.000000	0.271498
2371.000000	0.267614
2372.000000	0.268870
2373.000000	0.266498
2374.000000	0.265538
2375.000000	0.267264
2376.000000	0.270833
2377.000000	0.274136
2378.000000	0.275116
2379.000000	0.275964
2380.000000	0.270831
2381.000000	0.267962
2382.000000	0.268262
2383.000000	0.263425
2384.000000	0.261099
2385.000000	0.261211
2386.000000	0.262066
2387.000000	0.263571
2388.000000	0.261944
2389.000000	0.257394
2390.000000	0.254097
2391.000000	0.256314
2392.000000	0.262271
2393.000000	0.269230
2394.000000	0.276221
2395.000000	0.277908
2396.000000	0.276475
2397.000000	0.272034
2398.000000	0.264359
2399.000000	0.257509
2400.000000	0.248250
2401.000000	0.244540
2402.000000	0.244600
2403.000000	0.244724
2404.000000	0.247987
2405.000000	0.250197
2406.000000	0.254621
2407.000000	0.260451
2408.000000	0.263770
2409.000000	0.263766
2410.000000	0.265797
2411.000000	0.262640
2412.000000	0.250854
2413.000000	0.247205
2414.000000	0.243501
2415.000000	0.235725
2416.000000	0.245593
2417.000000	0.259312
2418.000000	0.263763
2419.000000	0.273348
2420.000000	0.273931
2421.000000	0.270772
2422.000000	0.271946
2423.000000	0.268267
2424.000000	0.261254
2425.000000	0.256466
2426.000000	0.258835
2427.000000	0.260348
2428.000000	0.270232
2429.000000	0.283769
2430.000000	0.283652
2431.000000	0.276773
2432.000000	0.273600
2433.000000	0.273591
2434.000000	0.263568
2435.000000	0.253912
2436.000000	0.251226
2437.000000	0.243708
2438.000000	0.240120
2439.000000	0.247602
2440.000000	0.257578
2441.000000	0.261589
2442.000000	0.269333
2443.000000	0.281096
2444.000000	0.280818
2445.000000	0.270793
2446.000000	0.259508
2447.000000	0.248102
2448.000000	0.239766
2449.000000	0.242724
2450.000000	0.241901
2451.000000	0.232054
2452.000000	0.225889
2453.000000	0.206915
2454.000000	0.202971
2455.000000	0.215846
2456.000000	0.212411
2457.000000	0.225306
2458.000000	0.225306
2459.000000	0.214807
2460.000000	0.222419
2461.000000	0.220980
2462.000000	0.230989
2463.000000	0.242555
2464.000000	0.248895
2465.000000	0.280832
2466.000000	0.307684
2467.000000	0.322698
2468.000000	0.341474
2469.000000	0.314987
2470.000000	0.288536
2471.000000	0.279893
2472.000000	0.253800
2473.000000	0.240326
2474.000000	0.235540
2475.000000	0.242083
2476.000000	0.250662
2477.000000	0.261790
2478.000000	0.274311
2479.000000	0.250755
2480.000000	0.216574
2481.000000	0.179501
2482.000000	0.154011
2483.000000	0.148557
2484.000000	0.171728
2485.000000	0.207323
2486.000000	0.231817
2487.000000	0.271946
2488.000000	0.279642
2489.000000	0.246921
2490.000000	0.240072
2491.000000	0.228044
2492.000000	0.214424
2493.000000	0.240600
2494.000000	0.252839
2495.000000	0.231371
2496.000000	0.223751
2497.000000	0.225201
2498.000000	0.221403
2499.000000	0.212943
2500.000000	0.232512
