# Wavelength	NAu-1-20_HEX-40_FV7-40_00001.asd.rts.txt
350.000000	0.200392
351.000000	0.191491
352.000000	0.157853
353.000000	0.148168
354.000000	0.173451
355.000000	0.173664
356.000000	0.169708
357.000000	0.171919
358.000000	0.183411
359.000000	0.172800
360.000000	0.160625
361.000000	0.172288
362.000000	0.176331
363.000000	0.175078
364.000000	0.173939
365.000000	0.180318
366.000000	0.183381
367.000000	0.181863
368.000000	0.182837
369.000000	0.181218
370.000000	0.178457
371.000000	0.177516
372.000000	0.176263
373.000000	0.177603
374.000000	0.182389
375.000000	0.184239
376.000000	0.180978
377.000000	0.176538
378.000000	0.181560
379.000000	0.185434
380.000000	0.186100
381.000000	0.185361
382.000000	0.186909
383.000000	0.188228
384.000000	0.187870
385.000000	0.188416
386.000000	0.189670
387.000000	0.191392
388.000000	0.192990
389.000000	0.194707
390.000000	0.195469
391.000000	0.193972
392.000000	0.194493
393.000000	0.196753
394.000000	0.199050
395.000000	0.197110
396.000000	0.196295
397.000000	0.198196
398.000000	0.199808
399.000000	0.201045
400.000000	0.201872
401.000000	0.202313
402.000000	0.202732
403.000000	0.203751
404.000000	0.205575
405.000000	0.205927
406.000000	0.207577
407.000000	0.210607
408.000000	0.210009
409.000000	0.210223
410.000000	0.211672
411.000000	0.212605
412.000000	0.212234
413.000000	0.212110
414.000000	0.213679
415.000000	0.214308
416.000000	0.214598
417.000000	0.215116
418.000000	0.215889
419.000000	0.216244
420.000000	0.216321
421.000000	0.216977
422.000000	0.217292
423.000000	0.217216
424.000000	0.217096
425.000000	0.217540
426.000000	0.218008
427.000000	0.218083
428.000000	0.218210
429.000000	0.218331
430.000000	0.218514
431.000000	0.219045
432.000000	0.219166
433.000000	0.219155
434.000000	0.219811
435.000000	0.219957
436.000000	0.219989
437.000000	0.220330
438.000000	0.220189
439.000000	0.219966
440.000000	0.219932
441.000000	0.219703
442.000000	0.219684
443.000000	0.219768
444.000000	0.219643
445.000000	0.219675
446.000000	0.219828
447.000000	0.219894
448.000000	0.220681
449.000000	0.221372
450.000000	0.221607
451.000000	0.222695
452.000000	0.223934
453.000000	0.225038
454.000000	0.226355
455.000000	0.227707
456.000000	0.229023
457.000000	0.230146
458.000000	0.231744
459.000000	0.233217
460.000000	0.234070
461.000000	0.234847
462.000000	0.235849
463.000000	0.236925
464.000000	0.237600
465.000000	0.238386
466.000000	0.239137
467.000000	0.239426
468.000000	0.240179
469.000000	0.240816
470.000000	0.240804
471.000000	0.241543
472.000000	0.242261
473.000000	0.242531
474.000000	0.243303
475.000000	0.243716
476.000000	0.243794
477.000000	0.244164
478.000000	0.244613
479.000000	0.245167
480.000000	0.245577
481.000000	0.245785
482.000000	0.246202
483.000000	0.246863
484.000000	0.247122
485.000000	0.247355
486.000000	0.247879
487.000000	0.248298
488.000000	0.248776
489.000000	0.249258
490.000000	0.249528
491.000000	0.249828
492.000000	0.250226
493.000000	0.250607
494.000000	0.251043
495.000000	0.251475
496.000000	0.251861
497.000000	0.252433
498.000000	0.252924
499.000000	0.253343
500.000000	0.253840
501.000000	0.254401
502.000000	0.254958
503.000000	0.255339
504.000000	0.255891
505.000000	0.256478
506.000000	0.256920
507.000000	0.257201
508.000000	0.257696
509.000000	0.258463
510.000000	0.259064
511.000000	0.259604
512.000000	0.260130
513.000000	0.260607
514.000000	0.261138
515.000000	0.261743
516.000000	0.262340
517.000000	0.262893
518.000000	0.263423
519.000000	0.263898
520.000000	0.264499
521.000000	0.265104
522.000000	0.265654
523.000000	0.266140
524.000000	0.266608
525.000000	0.267159
526.000000	0.267961
527.000000	0.268576
528.000000	0.269054
529.000000	0.269614
530.000000	0.270308
531.000000	0.270983
532.000000	0.271509
533.000000	0.272197
534.000000	0.272932
535.000000	0.273637
536.000000	0.274294
537.000000	0.274965
538.000000	0.275657
539.000000	0.276335
540.000000	0.276900
541.000000	0.277418
542.000000	0.278011
543.000000	0.278721
544.000000	0.279410
545.000000	0.279949
546.000000	0.280440
547.000000	0.281059
548.000000	0.281800
549.000000	0.282424
550.000000	0.283004
551.000000	0.283604
552.000000	0.284224
553.000000	0.284841
554.000000	0.285444
555.000000	0.286053
556.000000	0.286767
557.000000	0.287401
558.000000	0.288006
559.000000	0.288547
560.000000	0.289143
561.000000	0.289836
562.000000	0.290458
563.000000	0.290945
564.000000	0.291477
565.000000	0.292097
566.000000	0.292575
567.000000	0.293070
568.000000	0.293655
569.000000	0.294250
570.000000	0.294790
571.000000	0.295272
572.000000	0.295783
573.000000	0.296291
574.000000	0.296736
575.000000	0.297119
576.000000	0.297535
577.000000	0.297954
578.000000	0.298383
579.000000	0.298702
580.000000	0.299059
581.000000	0.299472
582.000000	0.299732
583.000000	0.300061
584.000000	0.300495
585.000000	0.300968
586.000000	0.301232
587.000000	0.301439
588.000000	0.301791
589.000000	0.302105
590.000000	0.302354
591.000000	0.302547
592.000000	0.302732
593.000000	0.302989
594.000000	0.303304
595.000000	0.303567
596.000000	0.303830
597.000000	0.304112
598.000000	0.304317
599.000000	0.304460
600.000000	0.304640
601.000000	0.304847
602.000000	0.305031
603.000000	0.305199
604.000000	0.305370
605.000000	0.305553
606.000000	0.305707
607.000000	0.305847
608.000000	0.306022
609.000000	0.306088
610.000000	0.306185
611.000000	0.306462
612.000000	0.306595
613.000000	0.306682
614.000000	0.306851
615.000000	0.307061
616.000000	0.307194
617.000000	0.307228
618.000000	0.307349
619.000000	0.307478
620.000000	0.307569
621.000000	0.307649
622.000000	0.307664
623.000000	0.307758
624.000000	0.308013
625.000000	0.308195
626.000000	0.308312
627.000000	0.308405
628.000000	0.308549
629.000000	0.308783
630.000000	0.308939
631.000000	0.309028
632.000000	0.309116
633.000000	0.309225
634.000000	0.309343
635.000000	0.309497
636.000000	0.309690
637.000000	0.309883
638.000000	0.309997
639.000000	0.310159
640.000000	0.310392
641.000000	0.310462
642.000000	0.310615
643.000000	0.310827
644.000000	0.311000
645.000000	0.311121
646.000000	0.311252
647.000000	0.311406
648.000000	0.311529
649.000000	0.311723
650.000000	0.311974
651.000000	0.312178
652.000000	0.312279
653.000000	0.312368
654.000000	0.312519
655.000000	0.312713
656.000000	0.312978
657.000000	0.313252
658.000000	0.313402
659.000000	0.313563
660.000000	0.313777
661.000000	0.313980
662.000000	0.314119
663.000000	0.314275
664.000000	0.314501
665.000000	0.314763
666.000000	0.314991
667.000000	0.315112
668.000000	0.315338
669.000000	0.315602
670.000000	0.315856
671.000000	0.316107
672.000000	0.316373
673.000000	0.316632
674.000000	0.316857
675.000000	0.317063
676.000000	0.317266
677.000000	0.317499
678.000000	0.317765
679.000000	0.318033
680.000000	0.318277
681.000000	0.318437
682.000000	0.318666
683.000000	0.318934
684.000000	0.319273
685.000000	0.319540
686.000000	0.319798
687.000000	0.320107
688.000000	0.320396
689.000000	0.320636
690.000000	0.320866
691.000000	0.321152
692.000000	0.321404
693.000000	0.321653
694.000000	0.321885
695.000000	0.322126
696.000000	0.322353
697.000000	0.322544
698.000000	0.322906
699.000000	0.323311
700.000000	0.323632
701.000000	0.323877
702.000000	0.324183
703.000000	0.324542
704.000000	0.324818
705.000000	0.325063
706.000000	0.325293
707.000000	0.325603
708.000000	0.325794
709.000000	0.326002
710.000000	0.326371
711.000000	0.326743
712.000000	0.327048
713.000000	0.327308
714.000000	0.327603
715.000000	0.327901
716.000000	0.328199
717.000000	0.328473
718.000000	0.328693
719.000000	0.328937
720.000000	0.329265
721.000000	0.329539
722.000000	0.329775
723.000000	0.330060
724.000000	0.330372
725.000000	0.330604
726.000000	0.330842
727.000000	0.331076
728.000000	0.331339
729.000000	0.331612
730.000000	0.331826
731.000000	0.332063
732.000000	0.332291
733.000000	0.332533
734.000000	0.332756
735.000000	0.332892
736.000000	0.333098
737.000000	0.333328
738.000000	0.333452
739.000000	0.333629
740.000000	0.333800
741.000000	0.333970
742.000000	0.334174
743.000000	0.334364
744.000000	0.334489
745.000000	0.334595
746.000000	0.334729
747.000000	0.334840
748.000000	0.335051
749.000000	0.335305
750.000000	0.335495
751.000000	0.335575
752.000000	0.335685
753.000000	0.335863
754.000000	0.336035
755.000000	0.336146
756.000000	0.336247
757.000000	0.336361
758.000000	0.336486
759.000000	0.336627
760.000000	0.336725
761.000000	0.336884
762.000000	0.337033
763.000000	0.337132
764.000000	0.337239
765.000000	0.337324
766.000000	0.337386
767.000000	0.337423
768.000000	0.337429
769.000000	0.337394
770.000000	0.337351
771.000000	0.337390
772.000000	0.337485
773.000000	0.337524
774.000000	0.337524
775.000000	0.337600
776.000000	0.337689
777.000000	0.337714
778.000000	0.337698
779.000000	0.337721
780.000000	0.337769
781.000000	0.337708
782.000000	0.337657
783.000000	0.337677
784.000000	0.337620
785.000000	0.337593
786.000000	0.337564
787.000000	0.337524
788.000000	0.337554
789.000000	0.337510
790.000000	0.337410
791.000000	0.337404
792.000000	0.337376
793.000000	0.337351
794.000000	0.337362
795.000000	0.337343
796.000000	0.337268
797.000000	0.337138
798.000000	0.336990
799.000000	0.336920
800.000000	0.336888
801.000000	0.336818
802.000000	0.336665
803.000000	0.336577
804.000000	0.336622
805.000000	0.336555
806.000000	0.336433
807.000000	0.336362
808.000000	0.336307
809.000000	0.336240
810.000000	0.336136
811.000000	0.335990
812.000000	0.335918
813.000000	0.335890
814.000000	0.335863
815.000000	0.335807
816.000000	0.335684
817.000000	0.335616
818.000000	0.335607
819.000000	0.335476
820.000000	0.335394
821.000000	0.335331
822.000000	0.335109
823.000000	0.334980
824.000000	0.334840
825.000000	0.334620
826.000000	0.334488
827.000000	0.334400
828.000000	0.334359
829.000000	0.334357
830.000000	0.334178
831.000000	0.333992
832.000000	0.333972
833.000000	0.333842
834.000000	0.333630
835.000000	0.333448
836.000000	0.333354
837.000000	0.333286
838.000000	0.333196
839.000000	0.333002
840.000000	0.332825
841.000000	0.332685
842.000000	0.332526
843.000000	0.332356
844.000000	0.332173
845.000000	0.332000
846.000000	0.331970
847.000000	0.331878
848.000000	0.331808
849.000000	0.331860
850.000000	0.331548
851.000000	0.331241
852.000000	0.331136
853.000000	0.331026
854.000000	0.330809
855.000000	0.330618
856.000000	0.330439
857.000000	0.330181
858.000000	0.330031
859.000000	0.329947
860.000000	0.329740
861.000000	0.329549
862.000000	0.329408
863.000000	0.329228
864.000000	0.329050
865.000000	0.328874
866.000000	0.328733
867.000000	0.328631
868.000000	0.328566
869.000000	0.328468
870.000000	0.328369
871.000000	0.328256
872.000000	0.328102
873.000000	0.327864
874.000000	0.327703
875.000000	0.327504
876.000000	0.327290
877.000000	0.327065
878.000000	0.326826
879.000000	0.326678
880.000000	0.326510
881.000000	0.326301
882.000000	0.326222
883.000000	0.326214
884.000000	0.326055
885.000000	0.325817
886.000000	0.325505
887.000000	0.325218
888.000000	0.325159
889.000000	0.325029
890.000000	0.324750
891.000000	0.324579
892.000000	0.324480
893.000000	0.324292
894.000000	0.324071
895.000000	0.323808
896.000000	0.323543
897.000000	0.323340
898.000000	0.323242
899.000000	0.323121
900.000000	0.322963
901.000000	0.322760
902.000000	0.322648
903.000000	0.322519
904.000000	0.322313
905.000000	0.321959
906.000000	0.321927
907.000000	0.321859
908.000000	0.321669
909.000000	0.321412
910.000000	0.321191
911.000000	0.321053
912.000000	0.320990
913.000000	0.320767
914.000000	0.320524
915.000000	0.320411
916.000000	0.320375
917.000000	0.320082
918.000000	0.319721
919.000000	0.319470
920.000000	0.319337
921.000000	0.319042
922.000000	0.318687
923.000000	0.318532
924.000000	0.318583
925.000000	0.318541
926.000000	0.318331
927.000000	0.318204
928.000000	0.318041
929.000000	0.317848
930.000000	0.317655
931.000000	0.317367
932.000000	0.317162
933.000000	0.317041
934.000000	0.316704
935.000000	0.316465
936.000000	0.316440
937.000000	0.316446
938.000000	0.315976
939.000000	0.315773
940.000000	0.315746
941.000000	0.315494
942.000000	0.315273
943.000000	0.315223
944.000000	0.315171
945.000000	0.314862
946.000000	0.314714
947.000000	0.314794
948.000000	0.314862
949.000000	0.314315
950.000000	0.313972
951.000000	0.313929
952.000000	0.313681
953.000000	0.313567
954.000000	0.313503
955.000000	0.313305
956.000000	0.313027
957.000000	0.312799
958.000000	0.312589
959.000000	0.312405
960.000000	0.312055
961.000000	0.311706
962.000000	0.311495
963.000000	0.311534
964.000000	0.311361
965.000000	0.311115
966.000000	0.310896
967.000000	0.310807
968.000000	0.310731
969.000000	0.310537
970.000000	0.310292
971.000000	0.310376
972.000000	0.310374
973.000000	0.310146
974.000000	0.310152
975.000000	0.309956
976.000000	0.309736
977.000000	0.309674
978.000000	0.309620
979.000000	0.309552
980.000000	0.309258
981.000000	0.309026
982.000000	0.309104
983.000000	0.309026
984.000000	0.308742
985.000000	0.308540
986.000000	0.308729
987.000000	0.308638
988.000000	0.307921
989.000000	0.307797
990.000000	0.308053
991.000000	0.308218
992.000000	0.307967
993.000000	0.308005
994.000000	0.307962
995.000000	0.307940
996.000000	0.307993
997.000000	0.308390
998.000000	0.308399
999.000000	0.307911
1000.000000	0.307615
1001.000000	0.308543
1002.000000	0.307824
1003.000000	0.307557
1004.000000	0.307502
1005.000000	0.307417
1006.000000	0.307135
1007.000000	0.307359
1008.000000	0.307103
1009.000000	0.306312
1010.000000	0.306004
1011.000000	0.306300
1012.000000	0.306627
1013.000000	0.306692
1014.000000	0.306859
1015.000000	0.306591
1016.000000	0.306432
1017.000000	0.306704
1018.000000	0.307012
1019.000000	0.307235
1020.000000	0.307985
1021.000000	0.307836
1022.000000	0.307093
1023.000000	0.307093
1024.000000	0.306778
1025.000000	0.307407
1026.000000	0.308083
1027.000000	0.307762
1028.000000	0.307851
1029.000000	0.307616
1030.000000	0.307012
1031.000000	0.307237
1032.000000	0.307534
1033.000000	0.307642
1034.000000	0.307934
1035.000000	0.308825
1036.000000	0.309007
1037.000000	0.308553
1038.000000	0.308485
1039.000000	0.308267
1040.000000	0.308603
1041.000000	0.309135
1042.000000	0.309998
1043.000000	0.310645
1044.000000	0.310904
1045.000000	0.311082
1046.000000	0.311191
1047.000000	0.311213
1048.000000	0.310921
1049.000000	0.311067
1050.000000	0.311545
1051.000000	0.311428
1052.000000	0.311062
1053.000000	0.311031
1054.000000	0.310929
1055.000000	0.310884
1056.000000	0.311142
1057.000000	0.311535
1058.000000	0.311637
1059.000000	0.312044
1060.000000	0.312994
1061.000000	0.313604
1062.000000	0.313830
1063.000000	0.313872
1064.000000	0.314066
1065.000000	0.314065
1066.000000	0.314409
1067.000000	0.314977
1068.000000	0.315303
1069.000000	0.315639
1070.000000	0.315877
1071.000000	0.316022
1072.000000	0.316207
1073.000000	0.316448
1074.000000	0.316671
1075.000000	0.316703
1076.000000	0.317044
1077.000000	0.317484
1078.000000	0.317815
1079.000000	0.318222
1080.000000	0.318903
1081.000000	0.319136
1082.000000	0.319201
1083.000000	0.319383
1084.000000	0.319336
1085.000000	0.319592
1086.000000	0.320132
1087.000000	0.320475
1088.000000	0.320834
1089.000000	0.321013
1090.000000	0.320985
1091.000000	0.320861
1092.000000	0.321092
1093.000000	0.321172
1094.000000	0.321397
1095.000000	0.321802
1096.000000	0.322079
1097.000000	0.322149
1098.000000	0.322642
1099.000000	0.323402
1100.000000	0.323877
1101.000000	0.324497
1102.000000	0.324823
1103.000000	0.324576
1104.000000	0.324818
1105.000000	0.325311
1106.000000	0.325666
1107.000000	0.326219
1108.000000	0.326489
1109.000000	0.326445
1110.000000	0.326480
1111.000000	0.326810
1112.000000	0.327250
1113.000000	0.327624
1114.000000	0.328278
1115.000000	0.328661
1116.000000	0.328816
1117.000000	0.329079
1118.000000	0.329515
1119.000000	0.329574
1120.000000	0.329318
1121.000000	0.329270
1122.000000	0.329108
1123.000000	0.329311
1124.000000	0.329583
1125.000000	0.329884
1126.000000	0.330244
1127.000000	0.330512
1128.000000	0.330757
1129.000000	0.331069
1130.000000	0.331284
1131.000000	0.331371
1132.000000	0.331600
1133.000000	0.331957
1134.000000	0.332219
1135.000000	0.332532
1136.000000	0.332659
1137.000000	0.332553
1138.000000	0.332582
1139.000000	0.332563
1140.000000	0.332825
1141.000000	0.333382
1142.000000	0.333685
1143.000000	0.333934
1144.000000	0.334247
1145.000000	0.334196
1146.000000	0.334180
1147.000000	0.334272
1148.000000	0.334329
1149.000000	0.334492
1150.000000	0.334760
1151.000000	0.334992
1152.000000	0.335302
1153.000000	0.335436
1154.000000	0.335293
1155.000000	0.335455
1156.000000	0.335735
1157.000000	0.335912
1158.000000	0.336266
1159.000000	0.336418
1160.000000	0.336207
1161.000000	0.336232
1162.000000	0.336508
1163.000000	0.336708
1164.000000	0.336780
1165.000000	0.336835
1166.000000	0.336843
1167.000000	0.336570
1168.000000	0.336541
1169.000000	0.336696
1170.000000	0.336757
1171.000000	0.336922
1172.000000	0.336973
1173.000000	0.336806
1174.000000	0.336858
1175.000000	0.337002
1176.000000	0.337002
1177.000000	0.337066
1178.000000	0.337207
1179.000000	0.337280
1180.000000	0.337329
1181.000000	0.337568
1182.000000	0.337792
1183.000000	0.338055
1184.000000	0.338229
1185.000000	0.338280
1186.000000	0.338262
1187.000000	0.338373
1188.000000	0.338350
1189.000000	0.338428
1190.000000	0.338831
1191.000000	0.338945
1192.000000	0.338994
1193.000000	0.339128
1194.000000	0.339108
1195.000000	0.339074
1196.000000	0.338875
1197.000000	0.338874
1198.000000	0.338951
1199.000000	0.339010
1200.000000	0.339183
1201.000000	0.339385
1202.000000	0.339202
1203.000000	0.339171
1204.000000	0.339269
1205.000000	0.339182
1206.000000	0.339194
1207.000000	0.339488
1208.000000	0.339499
1209.000000	0.339427
1210.000000	0.339437
1211.000000	0.339375
1212.000000	0.339385
1213.000000	0.339528
1214.000000	0.339574
1215.000000	0.339570
1216.000000	0.339620
1217.000000	0.339532
1218.000000	0.339618
1219.000000	0.339941
1220.000000	0.340112
1221.000000	0.340282
1222.000000	0.340535
1223.000000	0.340499
1224.000000	0.340436
1225.000000	0.340273
1226.000000	0.340014
1227.000000	0.339881
1228.000000	0.339742
1229.000000	0.339663
1230.000000	0.339692
1231.000000	0.339643
1232.000000	0.339748
1233.000000	0.339882
1234.000000	0.339985
1235.000000	0.340060
1236.000000	0.340016
1237.000000	0.340082
1238.000000	0.340185
1239.000000	0.340211
1240.000000	0.340230
1241.000000	0.340260
1242.000000	0.340250
1243.000000	0.340256
1244.000000	0.340337
1245.000000	0.340537
1246.000000	0.340585
1247.000000	0.340650
1248.000000	0.340706
1249.000000	0.340644
1250.000000	0.340518
1251.000000	0.340455
1252.000000	0.340459
1253.000000	0.340571
1254.000000	0.340567
1255.000000	0.340555
1256.000000	0.340605
1257.000000	0.340671
1258.000000	0.340784
1259.000000	0.340938
1260.000000	0.341034
1261.000000	0.340984
1262.000000	0.340993
1263.000000	0.341020
1264.000000	0.341072
1265.000000	0.341201
1266.000000	0.341169
1267.000000	0.341111
1268.000000	0.341134
1269.000000	0.341010
1270.000000	0.341063
1271.000000	0.341147
1272.000000	0.341142
1273.000000	0.341242
1274.000000	0.341339
1275.000000	0.341345
1276.000000	0.341284
1277.000000	0.341394
1278.000000	0.341459
1279.000000	0.341430
1280.000000	0.341382
1281.000000	0.341291
1282.000000	0.341129
1283.000000	0.341095
1284.000000	0.341045
1285.000000	0.341043
1286.000000	0.341054
1287.000000	0.341017
1288.000000	0.341108
1289.000000	0.341215
1290.000000	0.341290
1291.000000	0.341413
1292.000000	0.341490
1293.000000	0.341423
1294.000000	0.341243
1295.000000	0.341148
1296.000000	0.341074
1297.000000	0.340960
1298.000000	0.340933
1299.000000	0.340844
1300.000000	0.340848
1301.000000	0.340971
1302.000000	0.340943
1303.000000	0.341022
1304.000000	0.341043
1305.000000	0.341047
1306.000000	0.341010
1307.000000	0.341122
1308.000000	0.341122
1309.000000	0.340987
1310.000000	0.340889
1311.000000	0.340777
1312.000000	0.340643
1313.000000	0.340630
1314.000000	0.340516
1315.000000	0.340463
1316.000000	0.340561
1317.000000	0.340511
1318.000000	0.340546
1319.000000	0.340485
1320.000000	0.340101
1321.000000	0.339786
1322.000000	0.339610
1323.000000	0.339647
1324.000000	0.339880
1325.000000	0.339951
1326.000000	0.339923
1327.000000	0.339936
1328.000000	0.339965
1329.000000	0.339826
1330.000000	0.339666
1331.000000	0.339507
1332.000000	0.339210
1333.000000	0.339052
1334.000000	0.339060
1335.000000	0.339049
1336.000000	0.339060
1337.000000	0.339015
1338.000000	0.338905
1339.000000	0.338891
1340.000000	0.338654
1341.000000	0.338399
1342.000000	0.338285
1343.000000	0.338011
1344.000000	0.337797
1345.000000	0.337626
1346.000000	0.337435
1347.000000	0.337328
1348.000000	0.337260
1349.000000	0.337025
1350.000000	0.336778
1351.000000	0.336393
1352.000000	0.336178
1353.000000	0.336253
1354.000000	0.336312
1355.000000	0.336313
1356.000000	0.336272
1357.000000	0.336125
1358.000000	0.335942
1359.000000	0.335736
1360.000000	0.335591
1361.000000	0.335509
1362.000000	0.335394
1363.000000	0.335271
1364.000000	0.335203
1365.000000	0.335098
1366.000000	0.335010
1367.000000	0.334945
1368.000000	0.334938
1369.000000	0.334937
1370.000000	0.334747
1371.000000	0.334471
1372.000000	0.334103
1373.000000	0.333718
1374.000000	0.333541
1375.000000	0.333341
1376.000000	0.333294
1377.000000	0.333299
1378.000000	0.332953
1379.000000	0.332522
1380.000000	0.332237
1381.000000	0.331748
1382.000000	0.331263
1383.000000	0.330901
1384.000000	0.330258
1385.000000	0.329751
1386.000000	0.329441
1387.000000	0.328986
1388.000000	0.328556
1389.000000	0.328078
1390.000000	0.327482
1391.000000	0.326912
1392.000000	0.326432
1393.000000	0.325899
1394.000000	0.325401
1395.000000	0.324862
1396.000000	0.324312
1397.000000	0.323666
1398.000000	0.322935
1399.000000	0.322210
1400.000000	0.321435
1401.000000	0.320611
1402.000000	0.319831
1403.000000	0.318885
1404.000000	0.317949
1405.000000	0.317083
1406.000000	0.316214
1407.000000	0.315348
1408.000000	0.314540
1409.000000	0.313790
1410.000000	0.313014
1411.000000	0.312267
1412.000000	0.311476
1413.000000	0.310740
1414.000000	0.310138
1415.000000	0.309544
1416.000000	0.308952
1417.000000	0.308314
1418.000000	0.307584
1419.000000	0.306908
1420.000000	0.306196
1421.000000	0.305684
1422.000000	0.305128
1423.000000	0.304549
1424.000000	0.304014
1425.000000	0.303456
1426.000000	0.302860
1427.000000	0.302299
1428.000000	0.301738
1429.000000	0.301058
1430.000000	0.300428
1431.000000	0.299855
1432.000000	0.299310
1433.000000	0.298852
1434.000000	0.298443
1435.000000	0.298118
1436.000000	0.297838
1437.000000	0.297630
1438.000000	0.297369
1439.000000	0.297156
1440.000000	0.297065
1441.000000	0.297003
1442.000000	0.297023
1443.000000	0.297145
1444.000000	0.297179
1445.000000	0.297121
1446.000000	0.297077
1447.000000	0.296998
1448.000000	0.296964
1449.000000	0.297022
1450.000000	0.297094
1451.000000	0.297080
1452.000000	0.296925
1453.000000	0.296764
1454.000000	0.296549
1455.000000	0.296417
1456.000000	0.296401
1457.000000	0.296309
1458.000000	0.296300
1459.000000	0.296283
1460.000000	0.296229
1461.000000	0.296170
1462.000000	0.296045
1463.000000	0.295915
1464.000000	0.295788
1465.000000	0.295808
1466.000000	0.295845
1467.000000	0.295818
1468.000000	0.295812
1469.000000	0.295787
1470.000000	0.295689
1471.000000	0.295659
1472.000000	0.295782
1473.000000	0.295987
1474.000000	0.296029
1475.000000	0.296236
1476.000000	0.296458
1477.000000	0.296588
1478.000000	0.296983
1479.000000	0.297343
1480.000000	0.297570
1481.000000	0.297776
1482.000000	0.297953
1483.000000	0.298209
1484.000000	0.298438
1485.000000	0.298769
1486.000000	0.299258
1487.000000	0.299599
1488.000000	0.299919
1489.000000	0.300195
1490.000000	0.300231
1491.000000	0.300469
1492.000000	0.300757
1493.000000	0.301030
1494.000000	0.301344
1495.000000	0.301608
1496.000000	0.301781
1497.000000	0.302043
1498.000000	0.302367
1499.000000	0.302672
1500.000000	0.303044
1501.000000	0.303295
1502.000000	0.303452
1503.000000	0.303643
1504.000000	0.303684
1505.000000	0.303769
1506.000000	0.303958
1507.000000	0.304164
1508.000000	0.304448
1509.000000	0.304670
1510.000000	0.304875
1511.000000	0.305047
1512.000000	0.305115
1513.000000	0.305233
1514.000000	0.305456
1515.000000	0.305550
1516.000000	0.305623
1517.000000	0.305786
1518.000000	0.305975
1519.000000	0.306162
1520.000000	0.306390
1521.000000	0.306589
1522.000000	0.306762
1523.000000	0.306843
1524.000000	0.306859
1525.000000	0.306966
1526.000000	0.307053
1527.000000	0.307224
1528.000000	0.307464
1529.000000	0.307554
1530.000000	0.307578
1531.000000	0.307657
1532.000000	0.307704
1533.000000	0.307810
1534.000000	0.307978
1535.000000	0.308072
1536.000000	0.308009
1537.000000	0.308061
1538.000000	0.308177
1539.000000	0.308091
1540.000000	0.308114
1541.000000	0.308279
1542.000000	0.308308
1543.000000	0.308351
1544.000000	0.308453
1545.000000	0.308453
1546.000000	0.308458
1547.000000	0.308492
1548.000000	0.308381
1549.000000	0.308282
1550.000000	0.308167
1551.000000	0.307982
1552.000000	0.307952
1553.000000	0.308011
1554.000000	0.308179
1555.000000	0.308387
1556.000000	0.308530
1557.000000	0.308679
1558.000000	0.308687
1559.000000	0.308405
1560.000000	0.308328
1561.000000	0.308283
1562.000000	0.308243
1563.000000	0.308347
1564.000000	0.308365
1565.000000	0.308334
1566.000000	0.308300
1567.000000	0.308335
1568.000000	0.308367
1569.000000	0.308509
1570.000000	0.308537
1571.000000	0.308500
1572.000000	0.308466
1573.000000	0.308355
1574.000000	0.308322
1575.000000	0.308366
1576.000000	0.308395
1577.000000	0.308428
1578.000000	0.308435
1579.000000	0.308483
1580.000000	0.308502
1581.000000	0.308608
1582.000000	0.308578
1583.000000	0.308408
1584.000000	0.308289
1585.000000	0.308230
1586.000000	0.308207
1587.000000	0.308261
1588.000000	0.308250
1589.000000	0.308175
1590.000000	0.308130
1591.000000	0.308102
1592.000000	0.308112
1593.000000	0.308186
1594.000000	0.308267
1595.000000	0.308411
1596.000000	0.308546
1597.000000	0.308770
1598.000000	0.308828
1599.000000	0.308841
1600.000000	0.308843
1601.000000	0.308800
1602.000000	0.308819
1603.000000	0.308932
1604.000000	0.308956
1605.000000	0.309004
1606.000000	0.308973
1607.000000	0.308889
1608.000000	0.308856
1609.000000	0.308814
1610.000000	0.308847
1611.000000	0.309019
1612.000000	0.309080
1613.000000	0.309233
1614.000000	0.309293
1615.000000	0.309345
1616.000000	0.309401
1617.000000	0.309343
1618.000000	0.309343
1619.000000	0.309304
1620.000000	0.309310
1621.000000	0.309408
1622.000000	0.309587
1623.000000	0.309805
1624.000000	0.309950
1625.000000	0.309993
1626.000000	0.310004
1627.000000	0.309927
1628.000000	0.310008
1629.000000	0.310182
1630.000000	0.310301
1631.000000	0.310411
1632.000000	0.310448
1633.000000	0.310362
1634.000000	0.310402
1635.000000	0.310565
1636.000000	0.310632
1637.000000	0.310726
1638.000000	0.310822
1639.000000	0.310890
1640.000000	0.310967
1641.000000	0.311191
1642.000000	0.311272
1643.000000	0.311295
1644.000000	0.311386
1645.000000	0.311431
1646.000000	0.311483
1647.000000	0.311636
1648.000000	0.311680
1649.000000	0.311714
1650.000000	0.311858
1651.000000	0.312069
1652.000000	0.312265
1653.000000	0.312511
1654.000000	0.312664
1655.000000	0.312671
1656.000000	0.312678
1657.000000	0.312743
1658.000000	0.312749
1659.000000	0.312832
1660.000000	0.312919
1661.000000	0.312858
1662.000000	0.312861
1663.000000	0.312917
1664.000000	0.312874
1665.000000	0.312701
1666.000000	0.312843
1667.000000	0.312989
1668.000000	0.313163
1669.000000	0.313553
1670.000000	0.313711
1671.000000	0.313845
1672.000000	0.314032
1673.000000	0.314183
1674.000000	0.314281
1675.000000	0.314313
1676.000000	0.314224
1677.000000	0.314309
1678.000000	0.314399
1679.000000	0.314600
1680.000000	0.314732
1681.000000	0.314718
1682.000000	0.314800
1683.000000	0.314866
1684.000000	0.314972
1685.000000	0.315085
1686.000000	0.315066
1687.000000	0.315130
1688.000000	0.315129
1689.000000	0.315251
1690.000000	0.315408
1691.000000	0.315486
1692.000000	0.315639
1693.000000	0.315800
1694.000000	0.315912
1695.000000	0.316064
1696.000000	0.316011
1697.000000	0.316025
1698.000000	0.316070
1699.000000	0.316203
1700.000000	0.316519
1701.000000	0.316779
1702.000000	0.316937
1703.000000	0.316961
1704.000000	0.316860
1705.000000	0.316840
1706.000000	0.316834
1707.000000	0.316830
1708.000000	0.316860
1709.000000	0.316827
1710.000000	0.316843
1711.000000	0.316839
1712.000000	0.316850
1713.000000	0.316826
1714.000000	0.316722
1715.000000	0.316779
1716.000000	0.316995
1717.000000	0.317077
1718.000000	0.317178
1719.000000	0.317218
1720.000000	0.317156
1721.000000	0.317171
1722.000000	0.317246
1723.000000	0.317281
1724.000000	0.317311
1725.000000	0.317398
1726.000000	0.317386
1727.000000	0.317503
1728.000000	0.317687
1729.000000	0.317742
1730.000000	0.317933
1731.000000	0.318051
1732.000000	0.318140
1733.000000	0.318199
1734.000000	0.318072
1735.000000	0.318069
1736.000000	0.317942
1737.000000	0.318054
1738.000000	0.318441
1739.000000	0.318542
1740.000000	0.318583
1741.000000	0.318671
1742.000000	0.318656
1743.000000	0.318741
1744.000000	0.318954
1745.000000	0.318975
1746.000000	0.318849
1747.000000	0.318937
1748.000000	0.318894
1749.000000	0.318767
1750.000000	0.318720
1751.000000	0.318754
1752.000000	0.318903
1753.000000	0.319215
1754.000000	0.319288
1755.000000	0.319091
1756.000000	0.319027
1757.000000	0.318874
1758.000000	0.318801
1759.000000	0.318830
1760.000000	0.318887
1761.000000	0.318913
1762.000000	0.318954
1763.000000	0.319082
1764.000000	0.319227
1765.000000	0.319356
1766.000000	0.319476
1767.000000	0.319577
1768.000000	0.319601
1769.000000	0.319609
1770.000000	0.319719
1771.000000	0.319911
1772.000000	0.319887
1773.000000	0.319652
1774.000000	0.319638
1775.000000	0.319627
1776.000000	0.319671
1777.000000	0.319945
1778.000000	0.319953
1779.000000	0.319766
1780.000000	0.319681
1781.000000	0.319526
1782.000000	0.319450
1783.000000	0.319389
1784.000000	0.319672
1785.000000	0.319824
1786.000000	0.320022
1787.000000	0.320276
1788.000000	0.319989
1789.000000	0.319758
1790.000000	0.319804
1791.000000	0.319888
1792.000000	0.320520
1793.000000	0.320855
1794.000000	0.321156
1795.000000	0.321239
1796.000000	0.320949
1797.000000	0.320853
1798.000000	0.320645
1799.000000	0.320554
1800.000000	0.320712
1801.000000	0.320293
1802.000000	0.320645
1803.000000	0.320974
1804.000000	0.321195
1805.000000	0.321167
1806.000000	0.321128
1807.000000	0.320746
1808.000000	0.320890
1809.000000	0.321473
1810.000000	0.321495
1811.000000	0.321703
1812.000000	0.322416
1813.000000	0.322578
1814.000000	0.322231
1815.000000	0.322232
1816.000000	0.322315
1817.000000	0.322250
1818.000000	0.322208
1819.000000	0.322240
1820.000000	0.322589
1821.000000	0.322518
1822.000000	0.322531
1823.000000	0.322539
1824.000000	0.322403
1825.000000	0.321972
1826.000000	0.321872
1827.000000	0.321680
1828.000000	0.321676
1829.000000	0.321628
1830.000000	0.321360
1831.000000	0.321351
1832.000000	0.321367
1833.000000	0.321319
1834.000000	0.321341
1835.000000	0.321510
1836.000000	0.321824
1837.000000	0.321551
1838.000000	0.320892
1839.000000	0.320605
1840.000000	0.319636
1841.000000	0.319132
1842.000000	0.318839
1843.000000	0.318972
1844.000000	0.318932
1845.000000	0.319155
1846.000000	0.319034
1847.000000	0.318287
1848.000000	0.318305
1849.000000	0.318706
1850.000000	0.317923
1851.000000	0.317934
1852.000000	0.318802
1853.000000	0.318577
1854.000000	0.317600
1855.000000	0.317224
1856.000000	0.316719
1857.000000	0.316027
1858.000000	0.315467
1859.000000	0.314792
1860.000000	0.314336
1861.000000	0.313242
1862.000000	0.312393
1863.000000	0.312080
1864.000000	0.311349
1865.000000	0.309950
1866.000000	0.309423
1867.000000	0.309689
1868.000000	0.308876
1869.000000	0.308122
1870.000000	0.307294
1871.000000	0.305515
1872.000000	0.303863
1873.000000	0.302317
1874.000000	0.300644
1875.000000	0.299277
1876.000000	0.297915
1877.000000	0.296262
1878.000000	0.294982
1879.000000	0.293518
1880.000000	0.291450
1881.000000	0.289334
1882.000000	0.287326
1883.000000	0.285240
1884.000000	0.283221
1885.000000	0.281657
1886.000000	0.279314
1887.000000	0.276645
1888.000000	0.273194
1889.000000	0.269996
1890.000000	0.266675
1891.000000	0.263648
1892.000000	0.261664
1893.000000	0.259205
1894.000000	0.256477
1895.000000	0.253503
1896.000000	0.250518
1897.000000	0.246824
1898.000000	0.243388
1899.000000	0.240781
1900.000000	0.238375
1901.000000	0.235567
1902.000000	0.233143
1903.000000	0.230607
1904.000000	0.227694
1905.000000	0.225319
1906.000000	0.222776
1907.000000	0.220108
1908.000000	0.217420
1909.000000	0.216019
1910.000000	0.215243
1911.000000	0.214356
1912.000000	0.213429
1913.000000	0.211692
1914.000000	0.209221
1915.000000	0.207089
1916.000000	0.205538
1917.000000	0.204257
1918.000000	0.203472
1919.000000	0.202752
1920.000000	0.202180
1921.000000	0.201784
1922.000000	0.201203
1923.000000	0.200510
1924.000000	0.199826
1925.000000	0.199499
1926.000000	0.199381
1927.000000	0.199768
1928.000000	0.199841
1929.000000	0.200285
1930.000000	0.200069
1931.000000	0.199204
1932.000000	0.198143
1933.000000	0.197916
1934.000000	0.198321
1935.000000	0.198790
1936.000000	0.199560
1937.000000	0.200000
1938.000000	0.199657
1939.000000	0.199446
1940.000000	0.199122
1941.000000	0.199147
1942.000000	0.199142
1943.000000	0.198916
1944.000000	0.198877
1945.000000	0.198532
1946.000000	0.197990
1947.000000	0.197847
1948.000000	0.197749
1949.000000	0.197810
1950.000000	0.197845
1951.000000	0.197514
1952.000000	0.196919
1953.000000	0.196344
1954.000000	0.195921
1955.000000	0.195632
1956.000000	0.195523
1957.000000	0.195381
1958.000000	0.195896
1959.000000	0.196373
1960.000000	0.196528
1961.000000	0.196996
1962.000000	0.196952
1963.000000	0.196250
1964.000000	0.195689
1965.000000	0.195334
1966.000000	0.194817
1967.000000	0.195135
1968.000000	0.195223
1969.000000	0.195489
1970.000000	0.196450
1971.000000	0.196588
1972.000000	0.196189
1973.000000	0.196029
1974.000000	0.195616
1975.000000	0.195508
1976.000000	0.195517
1977.000000	0.195943
1978.000000	0.196685
1979.000000	0.197440
1980.000000	0.197637
1981.000000	0.198347
1982.000000	0.199169
1983.000000	0.199797
1984.000000	0.200446
1985.000000	0.201782
1986.000000	0.202101
1987.000000	0.201848
1988.000000	0.201612
1989.000000	0.201164
1990.000000	0.201245
1991.000000	0.201630
1992.000000	0.201539
1993.000000	0.201947
1994.000000	0.202829
1995.000000	0.203417
1996.000000	0.204239
1997.000000	0.204934
1998.000000	0.205290
1999.000000	0.206073
2000.000000	0.207267
2001.000000	0.208042
2002.000000	0.208732
2003.000000	0.209274
2004.000000	0.209480
2005.000000	0.210337
2006.000000	0.211334
2007.000000	0.212519
2008.000000	0.213417
2009.000000	0.213840
2010.000000	0.214639
2011.000000	0.215501
2012.000000	0.216330
2013.000000	0.217181
2014.000000	0.218170
2015.000000	0.219030
2016.000000	0.219891
2017.000000	0.220934
2018.000000	0.221755
2019.000000	0.222265
2020.000000	0.223143
2021.000000	0.223929
2022.000000	0.224487
2023.000000	0.225293
2024.000000	0.226388
2025.000000	0.227114
2026.000000	0.227656
2027.000000	0.228178
2028.000000	0.228337
2029.000000	0.228836
2030.000000	0.229457
2031.000000	0.230030
2032.000000	0.230579
2033.000000	0.231956
2034.000000	0.232891
2035.000000	0.233844
2036.000000	0.234509
2037.000000	0.235035
2038.000000	0.235486
2039.000000	0.235584
2040.000000	0.236288
2041.000000	0.237149
2042.000000	0.238066
2043.000000	0.238781
2044.000000	0.239155
2045.000000	0.239181
2046.000000	0.239382
2047.000000	0.239868
2048.000000	0.240667
2049.000000	0.241203
2050.000000	0.241700
2051.000000	0.241963
2052.000000	0.241544
2053.000000	0.241666
2054.000000	0.242206
2055.000000	0.242651
2056.000000	0.243343
2057.000000	0.244011
2058.000000	0.244937
2059.000000	0.245693
2060.000000	0.246369
2061.000000	0.247208
2062.000000	0.247787
2063.000000	0.248075
2064.000000	0.248450
2065.000000	0.249164
2066.000000	0.249593
2067.000000	0.250042
2068.000000	0.250371
2069.000000	0.251359
2070.000000	0.251841
2071.000000	0.252620
2072.000000	0.253427
2073.000000	0.253539
2074.000000	0.254052
2075.000000	0.254408
2076.000000	0.254692
2077.000000	0.255006
2078.000000	0.255150
2079.000000	0.255398
2080.000000	0.255970
2081.000000	0.256279
2082.000000	0.256432
2083.000000	0.256739
2084.000000	0.257025
2085.000000	0.257472
2086.000000	0.258646
2087.000000	0.260329
2088.000000	0.261364
2089.000000	0.261950
2090.000000	0.262546
2091.000000	0.262600
2092.000000	0.262743
2093.000000	0.262929
2094.000000	0.263356
2095.000000	0.263531
2096.000000	0.264184
2097.000000	0.265596
2098.000000	0.266279
2099.000000	0.266654
2100.000000	0.267466
2101.000000	0.267474
2102.000000	0.267970
2103.000000	0.269030
2104.000000	0.269520
2105.000000	0.270044
2106.000000	0.270755
2107.000000	0.271133
2108.000000	0.271166
2109.000000	0.271132
2110.000000	0.270584
2111.000000	0.270427
2112.000000	0.269769
2113.000000	0.270047
2114.000000	0.270722
2115.000000	0.271035
2116.000000	0.271763
2117.000000	0.271691
2118.000000	0.271276
2119.000000	0.271561
2120.000000	0.271900
2121.000000	0.272156
2122.000000	0.272805
2123.000000	0.274302
2124.000000	0.274877
2125.000000	0.275350
2126.000000	0.275621
2127.000000	0.275149
2128.000000	0.274993
2129.000000	0.274794
2130.000000	0.274795
2131.000000	0.274029
2132.000000	0.273660
2133.000000	0.273677
2134.000000	0.272924
2135.000000	0.273047
2136.000000	0.274008
2137.000000	0.274570
2138.000000	0.275588
2139.000000	0.275924
2140.000000	0.275878
2141.000000	0.275894
2142.000000	0.275231
2143.000000	0.275078
2144.000000	0.275414
2145.000000	0.275668
2146.000000	0.276007
2147.000000	0.277268
2148.000000	0.277561
2149.000000	0.277532
2150.000000	0.277156
2151.000000	0.276835
2152.000000	0.276926
2153.000000	0.276733
2154.000000	0.276541
2155.000000	0.276342
2156.000000	0.276270
2157.000000	0.275976
2158.000000	0.276293
2159.000000	0.277381
2160.000000	0.277936
2161.000000	0.278705
2162.000000	0.279002
2163.000000	0.278254
2164.000000	0.278209
2165.000000	0.278017
2166.000000	0.278762
2167.000000	0.279480
2168.000000	0.280200
2169.000000	0.280697
2170.000000	0.279660
2171.000000	0.279097
2172.000000	0.278004
2173.000000	0.277832
2174.000000	0.278107
2175.000000	0.278302
2176.000000	0.279061
2177.000000	0.278979
2178.000000	0.278411
2179.000000	0.278225
2180.000000	0.277845
2181.000000	0.277822
2182.000000	0.278045
2183.000000	0.277077
2184.000000	0.276342
2185.000000	0.276183
2186.000000	0.275977
2187.000000	0.276360
2188.000000	0.275728
2189.000000	0.274443
2190.000000	0.273878
2191.000000	0.274006
2192.000000	0.274189
2193.000000	0.275700
2194.000000	0.276231
2195.000000	0.276777
2196.000000	0.276162
2197.000000	0.273906
2198.000000	0.273364
2199.000000	0.272650
2200.000000	0.272380
2201.000000	0.274274
2202.000000	0.274643
2203.000000	0.273293
2204.000000	0.273424
2205.000000	0.272416
2206.000000	0.271877
2207.000000	0.271697
2208.000000	0.269493
2209.000000	0.268931
2210.000000	0.271842
2211.000000	0.274298
2212.000000	0.276986
2213.000000	0.277824
2214.000000	0.276619
2215.000000	0.275714
2216.000000	0.273885
2217.000000	0.272729
2218.000000	0.270918
2219.000000	0.271092
2220.000000	0.273074
2221.000000	0.273240
2222.000000	0.273527
2223.000000	0.274012
2224.000000	0.272867
2225.000000	0.273229
2226.000000	0.275974
2227.000000	0.277943
2228.000000	0.278525
2229.000000	0.278989
2230.000000	0.278310
2231.000000	0.277836
2232.000000	0.279957
2233.000000	0.281644
2234.000000	0.282516
2235.000000	0.283505
2236.000000	0.282529
2237.000000	0.278900
2238.000000	0.277181
2239.000000	0.274093
2240.000000	0.273267
2241.000000	0.274780
2242.000000	0.274413
2243.000000	0.274615
2244.000000	0.274864
2245.000000	0.273370
2246.000000	0.273828
2247.000000	0.276549
2248.000000	0.276917
2249.000000	0.277141
2250.000000	0.276381
2251.000000	0.275287
2252.000000	0.274121
2253.000000	0.272134
2254.000000	0.271115
2255.000000	0.270796
2256.000000	0.270604
2257.000000	0.271720
2258.000000	0.273965
2259.000000	0.273614
2260.000000	0.272512
2261.000000	0.271896
2262.000000	0.270790
2263.000000	0.270008
2264.000000	0.269428
2265.000000	0.268641
2266.000000	0.268139
2267.000000	0.267685
2268.000000	0.266993
2269.000000	0.267213
2270.000000	0.267787
2271.000000	0.268136
2272.000000	0.269398
2273.000000	0.269405
2274.000000	0.268899
2275.000000	0.267400
2276.000000	0.264572
2277.000000	0.262459
2278.000000	0.258725
2279.000000	0.258139
2280.000000	0.258711
2281.000000	0.258289
2282.000000	0.258125
2283.000000	0.255845
2284.000000	0.253539
2285.000000	0.251100
2286.000000	0.250971
2287.000000	0.253906
2288.000000	0.257293
2289.000000	0.261420
2290.000000	0.262811
2291.000000	0.263222
2292.000000	0.262929
2293.000000	0.260838
2294.000000	0.259723
2295.000000	0.259043
2296.000000	0.258541
2297.000000	0.258265
2298.000000	0.257136
2299.000000	0.256018
2300.000000	0.254871
2301.000000	0.251558
2302.000000	0.251418
2303.000000	0.253802
2304.000000	0.254535
2305.000000	0.256760
2306.000000	0.257583
2307.000000	0.256827
2308.000000	0.256506
2309.000000	0.255850
2310.000000	0.256007
2311.000000	0.256795
2312.000000	0.257703
2313.000000	0.258035
2314.000000	0.256895
2315.000000	0.256911
2316.000000	0.255371
2317.000000	0.251989
2318.000000	0.252434
2319.000000	0.252419
2320.000000	0.250724
2321.000000	0.253349
2322.000000	0.254258
2323.000000	0.251694
2324.000000	0.251614
2325.000000	0.251071
2326.000000	0.248277
2327.000000	0.247059
2328.000000	0.245683
2329.000000	0.243235
2330.000000	0.241776
2331.000000	0.241860
2332.000000	0.242286
2333.000000	0.242554
2334.000000	0.241117
2335.000000	0.239855
2336.000000	0.237463
2337.000000	0.235618
2338.000000	0.233351
2339.000000	0.233259
2340.000000	0.232792
2341.000000	0.233775
2342.000000	0.237830
2343.000000	0.238344
2344.000000	0.239448
2345.000000	0.238843
2346.000000	0.234506
2347.000000	0.233637
2348.000000	0.234066
2349.000000	0.232533
2350.000000	0.233756
2351.000000	0.234623
2352.000000	0.233537
2353.000000	0.234109
2354.000000	0.232547
2355.000000	0.230590
2356.000000	0.230865
2357.000000	0.229961
2358.000000	0.229146
2359.000000	0.227791
2360.000000	0.224610
2361.000000	0.222717
2362.000000	0.223768
2363.000000	0.225055
2364.000000	0.223379
2365.000000	0.221513
2366.000000	0.217230
2367.000000	0.214463
2368.000000	0.215872
2369.000000	0.214741
2370.000000	0.214889
2371.000000	0.214164
2372.000000	0.212556
2373.000000	0.214867
2374.000000	0.213674
2375.000000	0.208903
2376.000000	0.203749
2377.000000	0.198433
2378.000000	0.200075
2379.000000	0.205303
2380.000000	0.208013
2381.000000	0.212428
2382.000000	0.209321
2383.000000	0.202015
2384.000000	0.201021
2385.000000	0.196998
2386.000000	0.194748
2387.000000	0.193061
2388.000000	0.188221
2389.000000	0.186010
2390.000000	0.180349
2391.000000	0.180117
2392.000000	0.185926
2393.000000	0.187638
2394.000000	0.189864
2395.000000	0.192188
2396.000000	0.193166
2397.000000	0.193237
2398.000000	0.195328
2399.000000	0.193858
2400.000000	0.185064
2401.000000	0.184040
2402.000000	0.185080
2403.000000	0.183990
2404.000000	0.187556
2405.000000	0.185285
2406.000000	0.183656
2407.000000	0.188049
2408.000000	0.192491
2409.000000	0.196968
2410.000000	0.199303
2411.000000	0.195414
2412.000000	0.191693
2413.000000	0.191023
2414.000000	0.184042
2415.000000	0.180618
2416.000000	0.180018
2417.000000	0.171317
2418.000000	0.167976
2419.000000	0.170528
2420.000000	0.170745
2421.000000	0.176185
2422.000000	0.183744
2423.000000	0.182180
2424.000000	0.185623
2425.000000	0.195028
2426.000000	0.188152
2427.000000	0.186826
2428.000000	0.183817
2429.000000	0.174359
2430.000000	0.180778
2431.000000	0.181004
2432.000000	0.183303
2433.000000	0.186254
2434.000000	0.180778
2435.000000	0.176333
2436.000000	0.169164
2437.000000	0.159102
2438.000000	0.153975
2439.000000	0.162939
2440.000000	0.162215
2441.000000	0.161195
2442.000000	0.173890
2443.000000	0.168402
2444.000000	0.168369
2445.000000	0.172955
2446.000000	0.156051
2447.000000	0.147096
2448.000000	0.141497
2449.000000	0.140786
2450.000000	0.149124
2451.000000	0.154666
2452.000000	0.153926
2453.000000	0.144159
2454.000000	0.138725
2455.000000	0.137124
2456.000000	0.146752
2457.000000	0.165985
2458.000000	0.186000
2459.000000	0.201569
2460.000000	0.198206
2461.000000	0.171181
2462.000000	0.146407
2463.000000	0.126941
2464.000000	0.109036
2465.000000	0.118760
2466.000000	0.125922
2467.000000	0.129439
2468.000000	0.135180
2469.000000	0.113927
2470.000000	0.089656
2471.000000	0.054260
2472.000000	0.041377
2473.000000	0.076952
2474.000000	0.110677
2475.000000	0.160540
2476.000000	0.182712
2477.000000	0.143342
2478.000000	0.111418
2479.000000	0.097436
2480.000000	0.092038
2481.000000	0.138230
2482.000000	0.189784
2483.000000	0.180641
2484.000000	0.163986
2485.000000	0.105364
2486.000000	0.044934
2487.000000	0.052086
2488.000000	0.052718
2489.000000	0.062407
2490.000000	0.103451
2491.000000	0.085914
2492.000000	0.072330
2493.000000	0.059749
2494.000000	0.063892
2495.000000	0.085648
2496.000000	0.078751
2497.000000	0.074161
2498.000000	0.058241
2499.000000	-0.024238
2500.000000	-0.048893
