# Wavelength	NAu-2-60_HEX-30_FV7-10_00001.asd.rts.txt
350.000000	0.109343
351.000000	0.088838
352.000000	0.087663
353.000000	0.103496
354.000000	0.123318
355.000000	0.115198
356.000000	0.100508
357.000000	0.094394
358.000000	0.108718
359.000000	0.115316
360.000000	0.112867
361.000000	0.107101
362.000000	0.104434
363.000000	0.101535
364.000000	0.097960
365.000000	0.104869
366.000000	0.109090
367.000000	0.107276
368.000000	0.104139
369.000000	0.102560
370.000000	0.102131
371.000000	0.101144
372.000000	0.097413
373.000000	0.096636
374.000000	0.101437
375.000000	0.105017
376.000000	0.103938
377.000000	0.100794
378.000000	0.104586
379.000000	0.104922
380.000000	0.102130
381.000000	0.100215
382.000000	0.099347
383.000000	0.100953
384.000000	0.104590
385.000000	0.104578
386.000000	0.102556
387.000000	0.100206
388.000000	0.099302
389.000000	0.099301
390.000000	0.099675
391.000000	0.099866
392.000000	0.101837
393.000000	0.102317
394.000000	0.099719
395.000000	0.099534
396.000000	0.100562
397.000000	0.101487
398.000000	0.100712
399.000000	0.100644
400.000000	0.101543
401.000000	0.102655
402.000000	0.102489
403.000000	0.101486
404.000000	0.100540
405.000000	0.100403
406.000000	0.101042
407.000000	0.101944
408.000000	0.101690
409.000000	0.101691
410.000000	0.101998
411.000000	0.101923
412.000000	0.102226
413.000000	0.102619
414.000000	0.102802
415.000000	0.103962
416.000000	0.104325
417.000000	0.103427
418.000000	0.104034
419.000000	0.104792
420.000000	0.105209
421.000000	0.105381
422.000000	0.105510
423.000000	0.105712
424.000000	0.106086
425.000000	0.106574
426.000000	0.107017
427.000000	0.107305
428.000000	0.107433
429.000000	0.108033
430.000000	0.109011
431.000000	0.109299
432.000000	0.109417
433.000000	0.109420
434.000000	0.109289
435.000000	0.109776
436.000000	0.110213
437.000000	0.110035
438.000000	0.110582
439.000000	0.111098
440.000000	0.111207
441.000000	0.111207
442.000000	0.111303
443.000000	0.111631
444.000000	0.112346
445.000000	0.112730
446.000000	0.112969
447.000000	0.113370
448.000000	0.113702
449.000000	0.114141
450.000000	0.114780
451.000000	0.115394
452.000000	0.115814
453.000000	0.116070
454.000000	0.116556
455.000000	0.116756
456.000000	0.117069
457.000000	0.118080
458.000000	0.118442
459.000000	0.118665
460.000000	0.119320
461.000000	0.119721
462.000000	0.120028
463.000000	0.120299
464.000000	0.120614
465.000000	0.120984
466.000000	0.121347
467.000000	0.121651
468.000000	0.122097
469.000000	0.122602
470.000000	0.123089
471.000000	0.123462
472.000000	0.123734
473.000000	0.123963
474.000000	0.124208
475.000000	0.124617
476.000000	0.125123
477.000000	0.125209
478.000000	0.125600
479.000000	0.126179
480.000000	0.126367
481.000000	0.126688
482.000000	0.127107
483.000000	0.127416
484.000000	0.127709
485.000000	0.127923
486.000000	0.128165
487.000000	0.128635
488.000000	0.128721
489.000000	0.128641
490.000000	0.129182
491.000000	0.129454
492.000000	0.129527
493.000000	0.129628
494.000000	0.129665
495.000000	0.129749
496.000000	0.129911
497.000000	0.130001
498.000000	0.130045
499.000000	0.130114
500.000000	0.130246
501.000000	0.130439
502.000000	0.130618
503.000000	0.130634
504.000000	0.130685
505.000000	0.130824
506.000000	0.131074
507.000000	0.131449
508.000000	0.131792
509.000000	0.132054
510.000000	0.132506
511.000000	0.132925
512.000000	0.133265
513.000000	0.133573
514.000000	0.133951
515.000000	0.134412
516.000000	0.134891
517.000000	0.135283
518.000000	0.135669
519.000000	0.136092
520.000000	0.136585
521.000000	0.137056
522.000000	0.137543
523.000000	0.138297
524.000000	0.138964
525.000000	0.139617
526.000000	0.140570
527.000000	0.141577
528.000000	0.142655
529.000000	0.143885
530.000000	0.145191
531.000000	0.146580
532.000000	0.148031
533.000000	0.149650
534.000000	0.151200
535.000000	0.152658
536.000000	0.154245
537.000000	0.155801
538.000000	0.157288
539.000000	0.158703
540.000000	0.160103
541.000000	0.161425
542.000000	0.162650
543.000000	0.163935
544.000000	0.165176
545.000000	0.166318
546.000000	0.167554
547.000000	0.168844
548.000000	0.170197
549.000000	0.171583
550.000000	0.173015
551.000000	0.174557
552.000000	0.176235
553.000000	0.177940
554.000000	0.179758
555.000000	0.181742
556.000000	0.183793
557.000000	0.185863
558.000000	0.188021
559.000000	0.190234
560.000000	0.192514
561.000000	0.194809
562.000000	0.196939
563.000000	0.199094
564.000000	0.201223
565.000000	0.203180
566.000000	0.205126
567.000000	0.206910
568.000000	0.208482
569.000000	0.210107
570.000000	0.211580
571.000000	0.212850
572.000000	0.214006
573.000000	0.215071
574.000000	0.215999
575.000000	0.216762
576.000000	0.217435
577.000000	0.218025
578.000000	0.218556
579.000000	0.218926
580.000000	0.219208
581.000000	0.219434
582.000000	0.219579
583.000000	0.219625
584.000000	0.219570
585.000000	0.219429
586.000000	0.219251
587.000000	0.219038
588.000000	0.218764
589.000000	0.218288
590.000000	0.217767
591.000000	0.217298
592.000000	0.216783
593.000000	0.216209
594.000000	0.215582
595.000000	0.214933
596.000000	0.214180
597.000000	0.213405
598.000000	0.212671
599.000000	0.211833
600.000000	0.210980
601.000000	0.210151
602.000000	0.209352
603.000000	0.208514
604.000000	0.207632
605.000000	0.206789
606.000000	0.206004
607.000000	0.205256
608.000000	0.204484
609.000000	0.203629
610.000000	0.202771
611.000000	0.202005
612.000000	0.201234
613.000000	0.200451
614.000000	0.199687
615.000000	0.198960
616.000000	0.198230
617.000000	0.197484
618.000000	0.196794
619.000000	0.196159
620.000000	0.195556
621.000000	0.194982
622.000000	0.194370
623.000000	0.193805
624.000000	0.193337
625.000000	0.192780
626.000000	0.192258
627.000000	0.191808
628.000000	0.191302
629.000000	0.190887
630.000000	0.190492
631.000000	0.190115
632.000000	0.189835
633.000000	0.189616
634.000000	0.189381
635.000000	0.189067
636.000000	0.188779
637.000000	0.188547
638.000000	0.188249
639.000000	0.188082
640.000000	0.188057
641.000000	0.187934
642.000000	0.187837
643.000000	0.187790
644.000000	0.187789
645.000000	0.187772
646.000000	0.187790
647.000000	0.187867
648.000000	0.188008
649.000000	0.188134
650.000000	0.188262
651.000000	0.188583
652.000000	0.188843
653.000000	0.189090
654.000000	0.189439
655.000000	0.189824
656.000000	0.190239
657.000000	0.190654
658.000000	0.191101
659.000000	0.191633
660.000000	0.192227
661.000000	0.192746
662.000000	0.193292
663.000000	0.193916
664.000000	0.194582
665.000000	0.195311
666.000000	0.196066
667.000000	0.196791
668.000000	0.197588
669.000000	0.198450
670.000000	0.199366
671.000000	0.200322
672.000000	0.201338
673.000000	0.202392
674.000000	0.203441
675.000000	0.204541
676.000000	0.205686
677.000000	0.206868
678.000000	0.208088
679.000000	0.209324
680.000000	0.210587
681.000000	0.211958
682.000000	0.213406
683.000000	0.214856
684.000000	0.216335
685.000000	0.217914
686.000000	0.219569
687.000000	0.221216
688.000000	0.222967
689.000000	0.224740
690.000000	0.226515
691.000000	0.228410
692.000000	0.230335
693.000000	0.232303
694.000000	0.234313
695.000000	0.236351
696.000000	0.238421
697.000000	0.240534
698.000000	0.242689
699.000000	0.244899
700.000000	0.247174
701.000000	0.249475
702.000000	0.251837
703.000000	0.254248
704.000000	0.256669
705.000000	0.259158
706.000000	0.261716
707.000000	0.264388
708.000000	0.266997
709.000000	0.269628
710.000000	0.272368
711.000000	0.275072
712.000000	0.277818
713.000000	0.280647
714.000000	0.283491
715.000000	0.286365
716.000000	0.289283
717.000000	0.292238
718.000000	0.295168
719.000000	0.298133
720.000000	0.301193
721.000000	0.304263
722.000000	0.307288
723.000000	0.310306
724.000000	0.313316
725.000000	0.316323
726.000000	0.319365
727.000000	0.322330
728.000000	0.325332
729.000000	0.328412
730.000000	0.331516
731.000000	0.334629
732.000000	0.337688
733.000000	0.340722
734.000000	0.343743
735.000000	0.346725
736.000000	0.349757
737.000000	0.352677
738.000000	0.355518
739.000000	0.358402
740.000000	0.361208
741.000000	0.363957
742.000000	0.366758
743.000000	0.369541
744.000000	0.372150
745.000000	0.374755
746.000000	0.377363
747.000000	0.379819
748.000000	0.382272
749.000000	0.384672
750.000000	0.386955
751.000000	0.389250
752.000000	0.391486
753.000000	0.393695
754.000000	0.395959
755.000000	0.398127
756.000000	0.400218
757.000000	0.402240
758.000000	0.404299
759.000000	0.406258
760.000000	0.407978
761.000000	0.409680
762.000000	0.411321
763.000000	0.412884
764.000000	0.414469
765.000000	0.416085
766.000000	0.417637
767.000000	0.419039
768.000000	0.420411
769.000000	0.421709
770.000000	0.422943
771.000000	0.424205
772.000000	0.425429
773.000000	0.426527
774.000000	0.427581
775.000000	0.428521
776.000000	0.429385
777.000000	0.430203
778.000000	0.431061
779.000000	0.431922
780.000000	0.432755
781.000000	0.433500
782.000000	0.434150
783.000000	0.434811
784.000000	0.435378
785.000000	0.436056
786.000000	0.436697
787.000000	0.437210
788.000000	0.437669
789.000000	0.438179
790.000000	0.438690
791.000000	0.439130
792.000000	0.439479
793.000000	0.439758
794.000000	0.440015
795.000000	0.440293
796.000000	0.440540
797.000000	0.440753
798.000000	0.441000
799.000000	0.441236
800.000000	0.441405
801.000000	0.441477
802.000000	0.441589
803.000000	0.441701
804.000000	0.441818
805.000000	0.441854
806.000000	0.441840
807.000000	0.441912
808.000000	0.442020
809.000000	0.442006
810.000000	0.441968
811.000000	0.441947
812.000000	0.441745
813.000000	0.441642
814.000000	0.441656
815.000000	0.441602
816.000000	0.441461
817.000000	0.441329
818.000000	0.441187
819.000000	0.441077
820.000000	0.440919
821.000000	0.440655
822.000000	0.440474
823.000000	0.440385
824.000000	0.440233
825.000000	0.440003
826.000000	0.439809
827.000000	0.439591
828.000000	0.439380
829.000000	0.439221
830.000000	0.439008
831.000000	0.438766
832.000000	0.438371
833.000000	0.438104
834.000000	0.437918
835.000000	0.437755
836.000000	0.437510
837.000000	0.437172
838.000000	0.436820
839.000000	0.436540
840.000000	0.436189
841.000000	0.435825
842.000000	0.435492
843.000000	0.435299
844.000000	0.435049
845.000000	0.434682
846.000000	0.434405
847.000000	0.434039
848.000000	0.433625
849.000000	0.433282
850.000000	0.432869
851.000000	0.432418
852.000000	0.432043
853.000000	0.431803
854.000000	0.431467
855.000000	0.431183
856.000000	0.430904
857.000000	0.430398
858.000000	0.429987
859.000000	0.429660
860.000000	0.429138
861.000000	0.428694
862.000000	0.428352
863.000000	0.427944
864.000000	0.427546
865.000000	0.427164
866.000000	0.426821
867.000000	0.426467
868.000000	0.426121
869.000000	0.425656
870.000000	0.425093
871.000000	0.424720
872.000000	0.424423
873.000000	0.424037
874.000000	0.423676
875.000000	0.423228
876.000000	0.422796
877.000000	0.422445
878.000000	0.421911
879.000000	0.421467
880.000000	0.421098
881.000000	0.420829
882.000000	0.420484
883.000000	0.420050
884.000000	0.419528
885.000000	0.419213
886.000000	0.418823
887.000000	0.418248
888.000000	0.417651
889.000000	0.417253
890.000000	0.416855
891.000000	0.416411
892.000000	0.415883
893.000000	0.415336
894.000000	0.414976
895.000000	0.414690
896.000000	0.414263
897.000000	0.413752
898.000000	0.413294
899.000000	0.412777
900.000000	0.412419
901.000000	0.412177
902.000000	0.411810
903.000000	0.411468
904.000000	0.411231
905.000000	0.410987
906.000000	0.410726
907.000000	0.410254
908.000000	0.409735
909.000000	0.409469
910.000000	0.409147
911.000000	0.408848
912.000000	0.408678
913.000000	0.408417
914.000000	0.408093
915.000000	0.407800
916.000000	0.407455
917.000000	0.407116
918.000000	0.406698
919.000000	0.406187
920.000000	0.405915
921.000000	0.405750
922.000000	0.405522
923.000000	0.405046
924.000000	0.404616
925.000000	0.404217
926.000000	0.403871
927.000000	0.403585
928.000000	0.403188
929.000000	0.402791
930.000000	0.402547
931.000000	0.402251
932.000000	0.401950
933.000000	0.401718
934.000000	0.401497
935.000000	0.401228
936.000000	0.400946
937.000000	0.400566
938.000000	0.400143
939.000000	0.399964
940.000000	0.399814
941.000000	0.399434
942.000000	0.399204
943.000000	0.399060
944.000000	0.398784
945.000000	0.398583
946.000000	0.398190
947.000000	0.397866
948.000000	0.397803
949.000000	0.397490
950.000000	0.397131
951.000000	0.396810
952.000000	0.396616
953.000000	0.396252
954.000000	0.395909
955.000000	0.395649
956.000000	0.395339
957.000000	0.395077
958.000000	0.394865
959.000000	0.394798
960.000000	0.394613
961.000000	0.394482
962.000000	0.394364
963.000000	0.394026
964.000000	0.393813
965.000000	0.393678
966.000000	0.393400
967.000000	0.393203
968.000000	0.393104
969.000000	0.392999
970.000000	0.392894
971.000000	0.392723
972.000000	0.392566
973.000000	0.392416
974.000000	0.392388
975.000000	0.392418
976.000000	0.392284
977.000000	0.391924
978.000000	0.391814
979.000000	0.391948
980.000000	0.391890
981.000000	0.391719
982.000000	0.391638
983.000000	0.391342
984.000000	0.391014
985.000000	0.391125
986.000000	0.391009
987.000000	0.391014
988.000000	0.391229
989.000000	0.391294
990.000000	0.391159
991.000000	0.391189
992.000000	0.391733
993.000000	0.392016
994.000000	0.391771
995.000000	0.391446
996.000000	0.391416
997.000000	0.391380
998.000000	0.391398
999.000000	0.391528
1000.000000	0.391434
1001.000000	0.391639
1002.000000	0.391392
1003.000000	0.391330
1004.000000	0.391348
1005.000000	0.391444
1006.000000	0.391196
1007.000000	0.391217
1008.000000	0.390619
1009.000000	0.389810
1010.000000	0.389657
1011.000000	0.390547
1012.000000	0.391954
1013.000000	0.392394
1014.000000	0.392608
1015.000000	0.392956
1016.000000	0.392257
1017.000000	0.391788
1018.000000	0.392116
1019.000000	0.392149
1020.000000	0.391945
1021.000000	0.391930
1022.000000	0.392543
1023.000000	0.392897
1024.000000	0.392895
1025.000000	0.393202
1026.000000	0.393893
1027.000000	0.394207
1028.000000	0.394298
1029.000000	0.394777
1030.000000	0.394971
1031.000000	0.394565
1032.000000	0.394252
1033.000000	0.394134
1034.000000	0.394169
1035.000000	0.394115
1036.000000	0.394340
1037.000000	0.395002
1038.000000	0.395320
1039.000000	0.395662
1040.000000	0.396111
1041.000000	0.396266
1042.000000	0.396483
1043.000000	0.396331
1044.000000	0.396153
1045.000000	0.396292
1046.000000	0.396146
1047.000000	0.396397
1048.000000	0.397071
1049.000000	0.397134
1050.000000	0.396924
1051.000000	0.397148
1052.000000	0.397262
1053.000000	0.397455
1054.000000	0.398254
1055.000000	0.398714
1056.000000	0.399175
1057.000000	0.399277
1058.000000	0.398966
1059.000000	0.399158
1060.000000	0.399698
1061.000000	0.400143
1062.000000	0.400564
1063.000000	0.401314
1064.000000	0.401884
1065.000000	0.402261
1066.000000	0.402437
1067.000000	0.402375
1068.000000	0.402594
1069.000000	0.402507
1070.000000	0.402608
1071.000000	0.403403
1072.000000	0.403823
1073.000000	0.403931
1074.000000	0.404334
1075.000000	0.404630
1076.000000	0.404505
1077.000000	0.404689
1078.000000	0.404972
1079.000000	0.405149
1080.000000	0.405462
1081.000000	0.405763
1082.000000	0.406019
1083.000000	0.406358
1084.000000	0.407043
1085.000000	0.407411
1086.000000	0.407420
1087.000000	0.407729
1088.000000	0.408021
1089.000000	0.408249
1090.000000	0.408473
1091.000000	0.408882
1092.000000	0.408940
1093.000000	0.409116
1094.000000	0.409244
1095.000000	0.409162
1096.000000	0.409432
1097.000000	0.409907
1098.000000	0.410243
1099.000000	0.410649
1100.000000	0.411062
1101.000000	0.411371
1102.000000	0.411577
1103.000000	0.411724
1104.000000	0.411969
1105.000000	0.412131
1106.000000	0.412281
1107.000000	0.412339
1108.000000	0.412557
1109.000000	0.412854
1110.000000	0.413210
1111.000000	0.413547
1112.000000	0.414052
1113.000000	0.414499
1114.000000	0.414870
1115.000000	0.415277
1116.000000	0.415893
1117.000000	0.416208
1118.000000	0.416335
1119.000000	0.416402
1120.000000	0.416251
1121.000000	0.416272
1122.000000	0.416375
1123.000000	0.416761
1124.000000	0.417049
1125.000000	0.417394
1126.000000	0.417757
1127.000000	0.418062
1128.000000	0.418347
1129.000000	0.418715
1130.000000	0.418947
1131.000000	0.419164
1132.000000	0.419237
1133.000000	0.419159
1134.000000	0.419328
1135.000000	0.419541
1136.000000	0.419603
1137.000000	0.419714
1138.000000	0.419730
1139.000000	0.419587
1140.000000	0.419715
1141.000000	0.420061
1142.000000	0.420188
1143.000000	0.420133
1144.000000	0.420305
1145.000000	0.420260
1146.000000	0.420085
1147.000000	0.420088
1148.000000	0.420114
1149.000000	0.420122
1150.000000	0.420128
1151.000000	0.420236
1152.000000	0.420272
1153.000000	0.420489
1154.000000	0.420852
1155.000000	0.421066
1156.000000	0.421285
1157.000000	0.421521
1158.000000	0.421677
1159.000000	0.421792
1160.000000	0.421887
1161.000000	0.422001
1162.000000	0.422111
1163.000000	0.422374
1164.000000	0.422582
1165.000000	0.422859
1166.000000	0.423104
1167.000000	0.423280
1168.000000	0.423405
1169.000000	0.423499
1170.000000	0.423743
1171.000000	0.424072
1172.000000	0.424384
1173.000000	0.424848
1174.000000	0.425052
1175.000000	0.424954
1176.000000	0.425037
1177.000000	0.425208
1178.000000	0.425381
1179.000000	0.425683
1180.000000	0.425827
1181.000000	0.425985
1182.000000	0.426089
1183.000000	0.426351
1184.000000	0.426591
1185.000000	0.426742
1186.000000	0.426904
1187.000000	0.426988
1188.000000	0.426925
1189.000000	0.426978
1190.000000	0.427100
1191.000000	0.427247
1192.000000	0.427565
1193.000000	0.427923
1194.000000	0.428201
1195.000000	0.428473
1196.000000	0.428622
1197.000000	0.428867
1198.000000	0.429251
1199.000000	0.429510
1200.000000	0.429689
1201.000000	0.429958
1202.000000	0.430178
1203.000000	0.430354
1204.000000	0.430541
1205.000000	0.430687
1206.000000	0.430841
1207.000000	0.431021
1208.000000	0.431241
1209.000000	0.431689
1210.000000	0.431943
1211.000000	0.432161
1212.000000	0.432281
1213.000000	0.432236
1214.000000	0.432381
1215.000000	0.432555
1216.000000	0.432746
1217.000000	0.433084
1218.000000	0.433251
1219.000000	0.433365
1220.000000	0.433414
1221.000000	0.433590
1222.000000	0.433708
1223.000000	0.434066
1224.000000	0.434446
1225.000000	0.434561
1226.000000	0.434833
1227.000000	0.434993
1228.000000	0.435147
1229.000000	0.435296
1230.000000	0.435447
1231.000000	0.435587
1232.000000	0.435843
1233.000000	0.436172
1234.000000	0.436603
1235.000000	0.436843
1236.000000	0.436800
1237.000000	0.437113
1238.000000	0.437470
1239.000000	0.437740
1240.000000	0.438189
1241.000000	0.438538
1242.000000	0.438583
1243.000000	0.438668
1244.000000	0.438900
1245.000000	0.439235
1246.000000	0.439510
1247.000000	0.439936
1248.000000	0.440293
1249.000000	0.440475
1250.000000	0.440713
1251.000000	0.440935
1252.000000	0.441138
1253.000000	0.441341
1254.000000	0.441586
1255.000000	0.441892
1256.000000	0.442097
1257.000000	0.442298
1258.000000	0.442547
1259.000000	0.442612
1260.000000	0.442843
1261.000000	0.443104
1262.000000	0.443377
1263.000000	0.443764
1264.000000	0.444033
1265.000000	0.444249
1266.000000	0.444458
1267.000000	0.444645
1268.000000	0.444829
1269.000000	0.445028
1270.000000	0.445235
1271.000000	0.445356
1272.000000	0.445545
1273.000000	0.445782
1274.000000	0.446037
1275.000000	0.446289
1276.000000	0.446648
1277.000000	0.446985
1278.000000	0.447169
1279.000000	0.447373
1280.000000	0.447454
1281.000000	0.447532
1282.000000	0.447737
1283.000000	0.447961
1284.000000	0.447986
1285.000000	0.448227
1286.000000	0.448572
1287.000000	0.448794
1288.000000	0.449195
1289.000000	0.449416
1290.000000	0.449341
1291.000000	0.449314
1292.000000	0.449407
1293.000000	0.449541
1294.000000	0.449613
1295.000000	0.449806
1296.000000	0.449996
1297.000000	0.450165
1298.000000	0.450449
1299.000000	0.450717
1300.000000	0.450863
1301.000000	0.450886
1302.000000	0.450943
1303.000000	0.451228
1304.000000	0.451284
1305.000000	0.451383
1306.000000	0.451413
1307.000000	0.451337
1308.000000	0.451395
1309.000000	0.451536
1310.000000	0.451594
1311.000000	0.451708
1312.000000	0.451746
1313.000000	0.451657
1314.000000	0.451640
1315.000000	0.451503
1316.000000	0.451495
1317.000000	0.451637
1318.000000	0.451589
1319.000000	0.451556
1320.000000	0.451571
1321.000000	0.451374
1322.000000	0.451263
1323.000000	0.451323
1324.000000	0.451282
1325.000000	0.451283
1326.000000	0.451356
1327.000000	0.451350
1328.000000	0.451434
1329.000000	0.451368
1330.000000	0.451165
1331.000000	0.451134
1332.000000	0.451224
1333.000000	0.451219
1334.000000	0.451339
1335.000000	0.451457
1336.000000	0.451525
1337.000000	0.451543
1338.000000	0.451510
1339.000000	0.451491
1340.000000	0.451352
1341.000000	0.451215
1342.000000	0.451087
1343.000000	0.450841
1344.000000	0.450536
1345.000000	0.450290
1346.000000	0.450302
1347.000000	0.450104
1348.000000	0.449854
1349.000000	0.449680
1350.000000	0.449493
1351.000000	0.449295
1352.000000	0.449234
1353.000000	0.449129
1354.000000	0.448865
1355.000000	0.448619
1356.000000	0.448530
1357.000000	0.448270
1358.000000	0.447996
1359.000000	0.447822
1360.000000	0.447601
1361.000000	0.447376
1362.000000	0.447099
1363.000000	0.446811
1364.000000	0.446547
1365.000000	0.446218
1366.000000	0.445943
1367.000000	0.445706
1368.000000	0.445364
1369.000000	0.445285
1370.000000	0.444957
1371.000000	0.444623
1372.000000	0.444233
1373.000000	0.443574
1374.000000	0.442942
1375.000000	0.442278
1376.000000	0.441732
1377.000000	0.441110
1378.000000	0.440381
1379.000000	0.439696
1380.000000	0.438865
1381.000000	0.437773
1382.000000	0.436510
1383.000000	0.435142
1384.000000	0.433513
1385.000000	0.431774
1386.000000	0.430271
1387.000000	0.428692
1388.000000	0.426822
1389.000000	0.424901
1390.000000	0.422623
1391.000000	0.419963
1392.000000	0.417363
1393.000000	0.414634
1394.000000	0.411851
1395.000000	0.408996
1396.000000	0.406038
1397.000000	0.402962
1398.000000	0.399730
1399.000000	0.396580
1400.000000	0.393344
1401.000000	0.390173
1402.000000	0.387073
1403.000000	0.383913
1404.000000	0.381082
1405.000000	0.378376
1406.000000	0.375863
1407.000000	0.373700
1408.000000	0.371549
1409.000000	0.369656
1410.000000	0.367941
1411.000000	0.366276
1412.000000	0.364753
1413.000000	0.363382
1414.000000	0.362150
1415.000000	0.361010
1416.000000	0.359974
1417.000000	0.359077
1418.000000	0.358299
1419.000000	0.357621
1420.000000	0.356755
1421.000000	0.355928
1422.000000	0.355192
1423.000000	0.354511
1424.000000	0.353922
1425.000000	0.353413
1426.000000	0.352699
1427.000000	0.352044
1428.000000	0.351533
1429.000000	0.351037
1430.000000	0.350630
1431.000000	0.350310
1432.000000	0.349885
1433.000000	0.349399
1434.000000	0.348997
1435.000000	0.348611
1436.000000	0.348320
1437.000000	0.348093
1438.000000	0.347912
1439.000000	0.347835
1440.000000	0.347898
1441.000000	0.348002
1442.000000	0.348365
1443.000000	0.348840
1444.000000	0.349451
1445.000000	0.350230
1446.000000	0.351109
1447.000000	0.352050
1448.000000	0.352991
1449.000000	0.353865
1450.000000	0.354675
1451.000000	0.355454
1452.000000	0.356163
1453.000000	0.356887
1454.000000	0.357522
1455.000000	0.358106
1456.000000	0.358649
1457.000000	0.359061
1458.000000	0.359562
1459.000000	0.360052
1460.000000	0.360523
1461.000000	0.361010
1462.000000	0.361335
1463.000000	0.361647
1464.000000	0.361950
1465.000000	0.362283
1466.000000	0.362762
1467.000000	0.363268
1468.000000	0.363848
1469.000000	0.364479
1470.000000	0.364942
1471.000000	0.365542
1472.000000	0.366182
1473.000000	0.366865
1474.000000	0.367624
1475.000000	0.368346
1476.000000	0.369023
1477.000000	0.369741
1478.000000	0.370596
1479.000000	0.371439
1480.000000	0.372170
1481.000000	0.372967
1482.000000	0.373873
1483.000000	0.374739
1484.000000	0.375620
1485.000000	0.376495
1486.000000	0.377294
1487.000000	0.378107
1488.000000	0.379047
1489.000000	0.379857
1490.000000	0.380411
1491.000000	0.381160
1492.000000	0.381841
1493.000000	0.382537
1494.000000	0.383300
1495.000000	0.384015
1496.000000	0.384655
1497.000000	0.385318
1498.000000	0.386030
1499.000000	0.386742
1500.000000	0.387367
1501.000000	0.387952
1502.000000	0.388541
1503.000000	0.389082
1504.000000	0.389681
1505.000000	0.390368
1506.000000	0.390950
1507.000000	0.391472
1508.000000	0.392066
1509.000000	0.392558
1510.000000	0.393011
1511.000000	0.393705
1512.000000	0.394315
1513.000000	0.394747
1514.000000	0.395389
1515.000000	0.395866
1516.000000	0.396158
1517.000000	0.396633
1518.000000	0.397141
1519.000000	0.397467
1520.000000	0.397909
1521.000000	0.398209
1522.000000	0.398405
1523.000000	0.398780
1524.000000	0.398968
1525.000000	0.399178
1526.000000	0.399520
1527.000000	0.399819
1528.000000	0.400026
1529.000000	0.400288
1530.000000	0.400589
1531.000000	0.400854
1532.000000	0.401351
1533.000000	0.401874
1534.000000	0.402126
1535.000000	0.402397
1536.000000	0.402683
1537.000000	0.403005
1538.000000	0.403499
1539.000000	0.403914
1540.000000	0.404105
1541.000000	0.404359
1542.000000	0.404557
1543.000000	0.404710
1544.000000	0.405030
1545.000000	0.405369
1546.000000	0.405723
1547.000000	0.406082
1548.000000	0.406278
1549.000000	0.406456
1550.000000	0.406631
1551.000000	0.406630
1552.000000	0.406696
1553.000000	0.406848
1554.000000	0.406879
1555.000000	0.407029
1556.000000	0.407222
1557.000000	0.407223
1558.000000	0.407347
1559.000000	0.407424
1560.000000	0.407500
1561.000000	0.407731
1562.000000	0.407777
1563.000000	0.407743
1564.000000	0.407797
1565.000000	0.407738
1566.000000	0.407748
1567.000000	0.407989
1568.000000	0.408098
1569.000000	0.408297
1570.000000	0.408463
1571.000000	0.408535
1572.000000	0.408674
1573.000000	0.408912
1574.000000	0.409001
1575.000000	0.409106
1576.000000	0.409175
1577.000000	0.409029
1578.000000	0.409036
1579.000000	0.409175
1580.000000	0.409257
1581.000000	0.409540
1582.000000	0.409645
1583.000000	0.409603
1584.000000	0.409607
1585.000000	0.409620
1586.000000	0.409764
1587.000000	0.410007
1588.000000	0.410181
1589.000000	0.410462
1590.000000	0.410624
1591.000000	0.410713
1592.000000	0.410872
1593.000000	0.411053
1594.000000	0.411134
1595.000000	0.411278
1596.000000	0.411390
1597.000000	0.411504
1598.000000	0.411562
1599.000000	0.411596
1600.000000	0.411608
1601.000000	0.411628
1602.000000	0.411685
1603.000000	0.411882
1604.000000	0.411948
1605.000000	0.411958
1606.000000	0.412020
1607.000000	0.412135
1608.000000	0.412187
1609.000000	0.412336
1610.000000	0.412404
1611.000000	0.412346
1612.000000	0.412366
1613.000000	0.412583
1614.000000	0.412715
1615.000000	0.412880
1616.000000	0.413166
1617.000000	0.413457
1618.000000	0.413667
1619.000000	0.413875
1620.000000	0.414062
1621.000000	0.414222
1622.000000	0.414469
1623.000000	0.414706
1624.000000	0.414996
1625.000000	0.415186
1626.000000	0.415285
1627.000000	0.415368
1628.000000	0.415563
1629.000000	0.415704
1630.000000	0.415941
1631.000000	0.416245
1632.000000	0.416425
1633.000000	0.416539
1634.000000	0.416789
1635.000000	0.417154
1636.000000	0.417421
1637.000000	0.417773
1638.000000	0.417958
1639.000000	0.417999
1640.000000	0.418206
1641.000000	0.418559
1642.000000	0.418853
1643.000000	0.419293
1644.000000	0.419555
1645.000000	0.419663
1646.000000	0.419783
1647.000000	0.419951
1648.000000	0.419960
1649.000000	0.419949
1650.000000	0.420092
1651.000000	0.420237
1652.000000	0.420451
1653.000000	0.420748
1654.000000	0.421065
1655.000000	0.421287
1656.000000	0.421495
1657.000000	0.421904
1658.000000	0.422165
1659.000000	0.422469
1660.000000	0.422761
1661.000000	0.422935
1662.000000	0.423112
1663.000000	0.423189
1664.000000	0.423366
1665.000000	0.423537
1666.000000	0.423861
1667.000000	0.424283
1668.000000	0.424418
1669.000000	0.424356
1670.000000	0.424509
1671.000000	0.424715
1672.000000	0.425051
1673.000000	0.425659
1674.000000	0.425912
1675.000000	0.426073
1676.000000	0.426359
1677.000000	0.426568
1678.000000	0.426741
1679.000000	0.427067
1680.000000	0.427089
1681.000000	0.427102
1682.000000	0.427349
1683.000000	0.427353
1684.000000	0.427478
1685.000000	0.427807
1686.000000	0.427824
1687.000000	0.427879
1688.000000	0.427852
1689.000000	0.427735
1690.000000	0.427555
1691.000000	0.427454
1692.000000	0.427488
1693.000000	0.427456
1694.000000	0.427473
1695.000000	0.427667
1696.000000	0.427560
1697.000000	0.427551
1698.000000	0.427701
1699.000000	0.427845
1700.000000	0.428087
1701.000000	0.428376
1702.000000	0.428417
1703.000000	0.428467
1704.000000	0.428626
1705.000000	0.428786
1706.000000	0.429079
1707.000000	0.429242
1708.000000	0.429204
1709.000000	0.429298
1710.000000	0.429602
1711.000000	0.429744
1712.000000	0.429984
1713.000000	0.430112
1714.000000	0.430040
1715.000000	0.430096
1716.000000	0.430330
1717.000000	0.430375
1718.000000	0.430247
1719.000000	0.430179
1720.000000	0.430071
1721.000000	0.430061
1722.000000	0.430215
1723.000000	0.430231
1724.000000	0.430202
1725.000000	0.430301
1726.000000	0.430241
1727.000000	0.430326
1728.000000	0.430584
1729.000000	0.430539
1730.000000	0.430519
1731.000000	0.430564
1732.000000	0.430496
1733.000000	0.430654
1734.000000	0.430862
1735.000000	0.430928
1736.000000	0.430900
1737.000000	0.430965
1738.000000	0.431031
1739.000000	0.431102
1740.000000	0.431216
1741.000000	0.431307
1742.000000	0.431362
1743.000000	0.431499
1744.000000	0.431759
1745.000000	0.431642
1746.000000	0.431279
1747.000000	0.431352
1748.000000	0.431236
1749.000000	0.431289
1750.000000	0.431312
1751.000000	0.431290
1752.000000	0.431393
1753.000000	0.431543
1754.000000	0.431588
1755.000000	0.431358
1756.000000	0.431297
1757.000000	0.431393
1758.000000	0.431368
1759.000000	0.431351
1760.000000	0.431273
1761.000000	0.430880
1762.000000	0.430762
1763.000000	0.430920
1764.000000	0.430877
1765.000000	0.430751
1766.000000	0.430748
1767.000000	0.430602
1768.000000	0.430440
1769.000000	0.430532
1770.000000	0.430577
1771.000000	0.430409
1772.000000	0.430380
1773.000000	0.430375
1774.000000	0.430474
1775.000000	0.430747
1776.000000	0.430876
1777.000000	0.430987
1778.000000	0.431119
1779.000000	0.431147
1780.000000	0.431245
1781.000000	0.431384
1782.000000	0.431507
1783.000000	0.431625
1784.000000	0.431987
1785.000000	0.432159
1786.000000	0.432001
1787.000000	0.432020
1788.000000	0.431991
1789.000000	0.431870
1790.000000	0.432205
1791.000000	0.432216
1792.000000	0.432096
1793.000000	0.432046
1794.000000	0.431834
1795.000000	0.431834
1796.000000	0.432101
1797.000000	0.432165
1798.000000	0.432159
1799.000000	0.432207
1800.000000	0.432277
1801.000000	0.431342
1802.000000	0.431880
1803.000000	0.433420
1804.000000	0.433448
1805.000000	0.432870
1806.000000	0.432336
1807.000000	0.430625
1808.000000	0.429767
1809.000000	0.428601
1810.000000	0.428665
1811.000000	0.429034
1812.000000	0.430144
1813.000000	0.430837
1814.000000	0.432590
1815.000000	0.432980
1816.000000	0.432402
1817.000000	0.432063
1818.000000	0.431045
1819.000000	0.430912
1820.000000	0.430967
1821.000000	0.430809
1822.000000	0.430378
1823.000000	0.429096
1824.000000	0.428982
1825.000000	0.429384
1826.000000	0.429465
1827.000000	0.430125
1828.000000	0.430351
1829.000000	0.429771
1830.000000	0.429012
1831.000000	0.428948
1832.000000	0.429392
1833.000000	0.429640
1834.000000	0.430640
1835.000000	0.430491
1836.000000	0.429287
1837.000000	0.428547
1838.000000	0.427104
1839.000000	0.425881
1840.000000	0.425869
1841.000000	0.426202
1842.000000	0.426185
1843.000000	0.426602
1844.000000	0.426583
1845.000000	0.425940
1846.000000	0.425512
1847.000000	0.425034
1848.000000	0.424292
1849.000000	0.423255
1850.000000	0.422416
1851.000000	0.421698
1852.000000	0.420949
1853.000000	0.420075
1854.000000	0.419146
1855.000000	0.418200
1856.000000	0.416941
1857.000000	0.415786
1858.000000	0.414956
1859.000000	0.413139
1860.000000	0.411088
1861.000000	0.409182
1862.000000	0.407413
1863.000000	0.405828
1864.000000	0.404070
1865.000000	0.402554
1866.000000	0.400581
1867.000000	0.398219
1868.000000	0.395860
1869.000000	0.393239
1870.000000	0.390570
1871.000000	0.387323
1872.000000	0.383730
1873.000000	0.379901
1874.000000	0.375705
1875.000000	0.371289
1876.000000	0.366279
1877.000000	0.360886
1878.000000	0.356177
1879.000000	0.350652
1880.000000	0.345483
1881.000000	0.340913
1882.000000	0.335964
1883.000000	0.330141
1884.000000	0.324036
1885.000000	0.317493
1886.000000	0.310622
1887.000000	0.302736
1888.000000	0.295379
1889.000000	0.288171
1890.000000	0.280225
1891.000000	0.273015
1892.000000	0.265779
1893.000000	0.258957
1894.000000	0.252088
1895.000000	0.245070
1896.000000	0.238088
1897.000000	0.231132
1898.000000	0.223701
1899.000000	0.217691
1900.000000	0.212436
1901.000000	0.207853
1902.000000	0.204141
1903.000000	0.200129
1904.000000	0.196233
1905.000000	0.192873
1906.000000	0.190413
1907.000000	0.188612
1908.000000	0.188031
1909.000000	0.187923
1910.000000	0.187837
1911.000000	0.187671
1912.000000	0.187389
1913.000000	0.187445
1914.000000	0.187438
1915.000000	0.187776
1916.000000	0.188451
1917.000000	0.188837
1918.000000	0.189094
1919.000000	0.189750
1920.000000	0.190561
1921.000000	0.191238
1922.000000	0.191891
1923.000000	0.192734
1924.000000	0.193000
1925.000000	0.192569
1926.000000	0.193001
1927.000000	0.193645
1928.000000	0.194215
1929.000000	0.194902
1930.000000	0.196430
1931.000000	0.197250
1932.000000	0.197838
1933.000000	0.198708
1934.000000	0.199148
1935.000000	0.200035
1936.000000	0.200664
1937.000000	0.200593
1938.000000	0.200387
1939.000000	0.200193
1940.000000	0.199568
1941.000000	0.199072
1942.000000	0.199156
1943.000000	0.199643
1944.000000	0.200085
1945.000000	0.201083
1946.000000	0.202137
1947.000000	0.202674
1948.000000	0.203021
1949.000000	0.202619
1950.000000	0.202494
1951.000000	0.202411
1952.000000	0.202395
1953.000000	0.202445
1954.000000	0.202950
1955.000000	0.202729
1956.000000	0.202404
1957.000000	0.202002
1958.000000	0.201224
1959.000000	0.200829
1960.000000	0.200519
1961.000000	0.200391
1962.000000	0.200451
1963.000000	0.201001
1964.000000	0.201079
1965.000000	0.201105
1966.000000	0.201534
1967.000000	0.201517
1968.000000	0.202034
1969.000000	0.203039
1970.000000	0.203274
1971.000000	0.203669
1972.000000	0.204076
1973.000000	0.204286
1974.000000	0.204239
1975.000000	0.204858
1976.000000	0.205811
1977.000000	0.206383
1978.000000	0.207683
1979.000000	0.208466
1980.000000	0.208629
1981.000000	0.209212
1982.000000	0.209412
1983.000000	0.209503
1984.000000	0.210173
1985.000000	0.211617
1986.000000	0.212351
1987.000000	0.213138
1988.000000	0.213864
1989.000000	0.214219
1990.000000	0.214988
1991.000000	0.216229
1992.000000	0.217633
1993.000000	0.219297
1994.000000	0.220681
1995.000000	0.221700
1996.000000	0.222842
1997.000000	0.223823
1998.000000	0.224254
1999.000000	0.225326
2000.000000	0.226731
2001.000000	0.228023
2002.000000	0.229353
2003.000000	0.231184
2004.000000	0.232520
2005.000000	0.233479
2006.000000	0.234671
2007.000000	0.235546
2008.000000	0.236471
2009.000000	0.236951
2010.000000	0.238125
2011.000000	0.239638
2012.000000	0.241045
2013.000000	0.242559
2014.000000	0.244197
2015.000000	0.245922
2016.000000	0.247357
2017.000000	0.248411
2018.000000	0.250062
2019.000000	0.251593
2020.000000	0.252329
2021.000000	0.253665
2022.000000	0.255563
2023.000000	0.256849
2024.000000	0.258203
2025.000000	0.259222
2026.000000	0.259868
2027.000000	0.259823
2028.000000	0.260141
2029.000000	0.261139
2030.000000	0.262118
2031.000000	0.263957
2032.000000	0.265668
2033.000000	0.266856
2034.000000	0.268062
2035.000000	0.268933
2036.000000	0.270153
2037.000000	0.271889
2038.000000	0.273217
2039.000000	0.274639
2040.000000	0.276162
2041.000000	0.276933
2042.000000	0.277541
2043.000000	0.278671
2044.000000	0.279207
2045.000000	0.279788
2046.000000	0.280591
2047.000000	0.281527
2048.000000	0.282567
2049.000000	0.283830
2050.000000	0.285150
2051.000000	0.286079
2052.000000	0.286801
2053.000000	0.287363
2054.000000	0.287742
2055.000000	0.288359
2056.000000	0.289569
2057.000000	0.290537
2058.000000	0.291503
2059.000000	0.292676
2060.000000	0.293332
2061.000000	0.293294
2062.000000	0.293834
2063.000000	0.294459
2064.000000	0.295075
2065.000000	0.296344
2066.000000	0.296975
2067.000000	0.297738
2068.000000	0.297931
2069.000000	0.298345
2070.000000	0.299445
2071.000000	0.300001
2072.000000	0.301662
2073.000000	0.303197
2074.000000	0.304166
2075.000000	0.305305
2076.000000	0.306674
2077.000000	0.307537
2078.000000	0.307839
2079.000000	0.308547
2080.000000	0.309402
2081.000000	0.310173
2082.000000	0.310939
2083.000000	0.312020
2084.000000	0.313098
2085.000000	0.313972
2086.000000	0.315020
2087.000000	0.316075
2088.000000	0.316402
2089.000000	0.316511
2090.000000	0.316826
2091.000000	0.316898
2092.000000	0.317389
2093.000000	0.318190
2094.000000	0.319048
2095.000000	0.320416
2096.000000	0.321383
2097.000000	0.322160
2098.000000	0.322889
2099.000000	0.323502
2100.000000	0.324000
2101.000000	0.325214
2102.000000	0.326078
2103.000000	0.326221
2104.000000	0.326803
2105.000000	0.327386
2106.000000	0.327553
2107.000000	0.328265
2108.000000	0.329434
2109.000000	0.330484
2110.000000	0.331693
2111.000000	0.332571
2112.000000	0.333241
2113.000000	0.333811
2114.000000	0.334397
2115.000000	0.334610
2116.000000	0.335346
2117.000000	0.336359
2118.000000	0.337156
2119.000000	0.337304
2120.000000	0.337580
2121.000000	0.337576
2122.000000	0.337782
2123.000000	0.337960
2124.000000	0.338394
2125.000000	0.339116
2126.000000	0.339337
2127.000000	0.339453
2128.000000	0.339717
2129.000000	0.339847
2130.000000	0.339554
2131.000000	0.339617
2132.000000	0.340087
2133.000000	0.339728
2134.000000	0.339985
2135.000000	0.340097
2136.000000	0.339956
2137.000000	0.340502
2138.000000	0.341780
2139.000000	0.342328
2140.000000	0.342982
2141.000000	0.343576
2142.000000	0.343597
2143.000000	0.343882
2144.000000	0.344607
2145.000000	0.345266
2146.000000	0.346169
2147.000000	0.347021
2148.000000	0.347326
2149.000000	0.348367
2150.000000	0.348893
2151.000000	0.348273
2152.000000	0.347582
2153.000000	0.346922
2154.000000	0.346704
2155.000000	0.346461
2156.000000	0.346954
2157.000000	0.348620
2158.000000	0.349300
2159.000000	0.350138
2160.000000	0.350294
2161.000000	0.349364
2162.000000	0.349120
2163.000000	0.348500
2164.000000	0.348361
2165.000000	0.348634
2166.000000	0.349345
2167.000000	0.349715
2168.000000	0.349934
2169.000000	0.350053
2170.000000	0.350006
2171.000000	0.349786
2172.000000	0.349443
2173.000000	0.349171
2174.000000	0.348599
2175.000000	0.348178
2176.000000	0.348031
2177.000000	0.347763
2178.000000	0.347044
2179.000000	0.347227
2180.000000	0.348680
2181.000000	0.348784
2182.000000	0.347929
2183.000000	0.346985
2184.000000	0.345803
2185.000000	0.344043
2186.000000	0.343291
2187.000000	0.343982
2188.000000	0.343650
2189.000000	0.344085
2190.000000	0.345438
2191.000000	0.345886
2192.000000	0.346586
2193.000000	0.347505
2194.000000	0.347927
2195.000000	0.348459
2196.000000	0.348814
2197.000000	0.348691
2198.000000	0.348076
2199.000000	0.346717
2200.000000	0.345594
2201.000000	0.343401
2202.000000	0.342880
2203.000000	0.343840
2204.000000	0.344206
2205.000000	0.343147
2206.000000	0.342538
2207.000000	0.341137
2208.000000	0.339003
2209.000000	0.340034
2210.000000	0.342907
2211.000000	0.343153
2212.000000	0.343546
2213.000000	0.343605
2214.000000	0.342873
2215.000000	0.341281
2216.000000	0.339266
2217.000000	0.337926
2218.000000	0.334195
2219.000000	0.333228
2220.000000	0.334837
2221.000000	0.335215
2222.000000	0.337631
2223.000000	0.337912
2224.000000	0.336044
2225.000000	0.335615
2226.000000	0.335057
2227.000000	0.332012
2228.000000	0.331305
2229.000000	0.331332
2230.000000	0.331246
2231.000000	0.331189
2232.000000	0.331444
2233.000000	0.331880
2234.000000	0.331756
2235.000000	0.333537
2236.000000	0.333647
2237.000000	0.332970
2238.000000	0.331907
2239.000000	0.330066
2240.000000	0.328156
2241.000000	0.325538
2242.000000	0.324612
2243.000000	0.323343
2244.000000	0.323772
2245.000000	0.327139
2246.000000	0.328109
2247.000000	0.328887
2248.000000	0.329076
2249.000000	0.327563
2250.000000	0.327058
2251.000000	0.326478
2252.000000	0.326483
2253.000000	0.326522
2254.000000	0.325473
2255.000000	0.324147
2256.000000	0.324442
2257.000000	0.325841
2258.000000	0.326634
2259.000000	0.328279
2260.000000	0.329458
2261.000000	0.329001
2262.000000	0.326474
2263.000000	0.325438
2264.000000	0.324267
2265.000000	0.322550
2266.000000	0.322173
2267.000000	0.319708
2268.000000	0.314959
2269.000000	0.311960
2270.000000	0.307667
2271.000000	0.305191
2272.000000	0.304138
2273.000000	0.303456
2274.000000	0.304740
2275.000000	0.304699
2276.000000	0.304550
2277.000000	0.304235
2278.000000	0.302990
2279.000000	0.300592
2280.000000	0.299206
2281.000000	0.297465
2282.000000	0.293728
2283.000000	0.290429
2284.000000	0.287734
2285.000000	0.283976
2286.000000	0.281333
2287.000000	0.279276
2288.000000	0.276066
2289.000000	0.271985
2290.000000	0.268568
2291.000000	0.267020
2292.000000	0.263959
2293.000000	0.261886
2294.000000	0.259456
2295.000000	0.255162
2296.000000	0.253534
2297.000000	0.253074
2298.000000	0.253162
2299.000000	0.256432
2300.000000	0.256548
2301.000000	0.254866
2302.000000	0.254807
2303.000000	0.252952
2304.000000	0.253314
2305.000000	0.256898
2306.000000	0.259365
2307.000000	0.261648
2308.000000	0.264675
2309.000000	0.267307
2310.000000	0.267624
2311.000000	0.269160
2312.000000	0.271129
2313.000000	0.273683
2314.000000	0.275323
2315.000000	0.276671
2316.000000	0.278070
2317.000000	0.277372
2318.000000	0.278732
2319.000000	0.278379
2320.000000	0.277988
2321.000000	0.279595
2322.000000	0.278652
2323.000000	0.278374
2324.000000	0.277057
2325.000000	0.276492
2326.000000	0.277094
2327.000000	0.277703
2328.000000	0.278992
2329.000000	0.278606
2330.000000	0.276158
2331.000000	0.275245
2332.000000	0.276372
2333.000000	0.275942
2334.000000	0.277273
2335.000000	0.276719
2336.000000	0.273248
2337.000000	0.271131
2338.000000	0.267842
2339.000000	0.266299
2340.000000	0.266467
2341.000000	0.264911
2342.000000	0.262876
2343.000000	0.261950
2344.000000	0.261020
2345.000000	0.261775
2346.000000	0.266122
2347.000000	0.267230
2348.000000	0.268278
2349.000000	0.264867
2350.000000	0.261258
2351.000000	0.255209
2352.000000	0.250295
2353.000000	0.248243
2354.000000	0.244612
2355.000000	0.245560
2356.000000	0.246741
2357.000000	0.244449
2358.000000	0.246415
2359.000000	0.245517
2360.000000	0.240968
2361.000000	0.241814
2362.000000	0.238780
2363.000000	0.233397
2364.000000	0.234290
2365.000000	0.233884
2366.000000	0.233602
2367.000000	0.235099
2368.000000	0.232916
2369.000000	0.230728
2370.000000	0.223516
2371.000000	0.216583
2372.000000	0.214342
2373.000000	0.208533
2374.000000	0.209957
2375.000000	0.214030
2376.000000	0.215388
2377.000000	0.216807
2378.000000	0.212164
2379.000000	0.206886
2380.000000	0.202580
2381.000000	0.198449
2382.000000	0.196338
2383.000000	0.191927
2384.000000	0.187340
2385.000000	0.188206
2386.000000	0.189321
2387.000000	0.192068
2388.000000	0.195584
2389.000000	0.191758
2390.000000	0.184882
2391.000000	0.179360
2392.000000	0.177122
2393.000000	0.177591
2394.000000	0.184851
2395.000000	0.194989
2396.000000	0.197675
2397.000000	0.198027
2398.000000	0.197253
2399.000000	0.191628
2400.000000	0.184111
2401.000000	0.180680
2402.000000	0.180842
2403.000000	0.183266
2404.000000	0.186510
2405.000000	0.186732
2406.000000	0.182286
2407.000000	0.175974
2408.000000	0.178346
2409.000000	0.178671
2410.000000	0.173854
2411.000000	0.177526
2412.000000	0.174281
2413.000000	0.172187
2414.000000	0.175119
2415.000000	0.175668
2416.000000	0.186285
2417.000000	0.192832
2418.000000	0.202870
2419.000000	0.212864
2420.000000	0.201993
2421.000000	0.193425
2422.000000	0.187200
2423.000000	0.176582
2424.000000	0.175500
2425.000000	0.171645
2426.000000	0.167176
2427.000000	0.178581
2428.000000	0.186810
2429.000000	0.193561
2430.000000	0.201124
2431.000000	0.182598
2432.000000	0.160363
2433.000000	0.161277
2434.000000	0.168770
2435.000000	0.176831
2436.000000	0.187839
2437.000000	0.182705
2438.000000	0.171765
2439.000000	0.166756
2440.000000	0.161855
2441.000000	0.167586
2442.000000	0.162425
2443.000000	0.156668
2444.000000	0.156911
2445.000000	0.138830
2446.000000	0.135157
2447.000000	0.139075
2448.000000	0.134541
2449.000000	0.152668
2450.000000	0.159440
2451.000000	0.149040
2452.000000	0.161372
2453.000000	0.157876
2454.000000	0.151857
2455.000000	0.164435
2456.000000	0.154444
2457.000000	0.134310
2458.000000	0.123683
2459.000000	0.112228
2460.000000	0.104127
2461.000000	0.116869
2462.000000	0.127617
2463.000000	0.120299
2464.000000	0.121481
2465.000000	0.134016
2466.000000	0.141668
2467.000000	0.158006
2468.000000	0.178156
2469.000000	0.158341
2470.000000	0.138001
2471.000000	0.120908
2472.000000	0.086514
2473.000000	0.078456
2474.000000	0.082052
2475.000000	0.091317
2476.000000	0.110112
2477.000000	0.095359
2478.000000	0.083289
2479.000000	0.077455
2480.000000	0.064463
2481.000000	0.086800
2482.000000	0.091739
2483.000000	0.069737
2484.000000	0.061988
2485.000000	0.039045
2486.000000	0.042730
2487.000000	0.069664
2488.000000	0.091982
2489.000000	0.087555
2490.000000	0.070790
2491.000000	0.014398
2492.000000	-0.000991
2493.000000	0.006571
2494.000000	-0.003384
2495.000000	0.010594
2496.000000	0.001550
2497.000000	-0.029907
2498.000000	-0.040185
2499.000000	-0.081209
2500.000000	-0.070305
