# Wavelength	NAu-1-10_HEX-80_FV7-10_00001.asd.rts.txt
350.000000	0.247478
351.000000	0.240847
352.000000	0.252098
353.000000	0.270248
354.000000	0.284846
355.000000	0.277509
356.000000	0.273243
357.000000	0.276793
358.000000	0.274221
359.000000	0.282191
360.000000	0.287196
361.000000	0.273629
362.000000	0.270587
363.000000	0.275100
364.000000	0.280118
365.000000	0.277426
366.000000	0.277892
367.000000	0.279782
368.000000	0.271070
369.000000	0.268305
370.000000	0.272177
371.000000	0.277370
372.000000	0.273312
373.000000	0.273529
374.000000	0.284079
375.000000	0.283603
376.000000	0.281056
377.000000	0.281010
378.000000	0.284980
379.000000	0.287432
380.000000	0.287411
381.000000	0.287031
382.000000	0.290872
383.000000	0.292964
384.000000	0.290322
385.000000	0.289359
386.000000	0.290470
387.000000	0.293097
388.000000	0.295436
389.000000	0.295295
390.000000	0.294732
391.000000	0.296669
392.000000	0.298605
393.000000	0.298976
394.000000	0.297845
395.000000	0.299714
396.000000	0.302652
397.000000	0.305251
398.000000	0.306787
399.000000	0.307839
400.000000	0.308863
401.000000	0.310110
402.000000	0.311693
403.000000	0.313492
404.000000	0.315307
405.000000	0.315783
406.000000	0.316525
407.000000	0.318114
408.000000	0.319216
409.000000	0.320085
410.000000	0.320956
411.000000	0.322053
412.000000	0.322970
413.000000	0.323781
414.000000	0.324698
415.000000	0.325883
416.000000	0.326923
417.000000	0.327596
418.000000	0.328096
419.000000	0.328677
420.000000	0.329170
421.000000	0.328963
422.000000	0.329554
423.000000	0.330473
424.000000	0.330808
425.000000	0.330901
426.000000	0.330729
427.000000	0.330436
428.000000	0.330942
429.000000	0.331396
430.000000	0.331515
431.000000	0.331705
432.000000	0.331953
433.000000	0.332120
434.000000	0.332140
435.000000	0.332110
436.000000	0.332075
437.000000	0.332082
438.000000	0.332472
439.000000	0.332566
440.000000	0.332246
441.000000	0.332064
442.000000	0.331923
443.000000	0.331608
444.000000	0.331005
445.000000	0.331086
446.000000	0.331833
447.000000	0.332645
448.000000	0.333132
449.000000	0.333705
450.000000	0.334725
451.000000	0.336187
452.000000	0.337689
453.000000	0.339029
454.000000	0.340483
455.000000	0.342474
456.000000	0.344785
457.000000	0.346682
458.000000	0.348387
459.000000	0.350149
460.000000	0.352075
461.000000	0.353188
462.000000	0.354577
463.000000	0.356300
464.000000	0.357164
465.000000	0.358096
466.000000	0.359131
467.000000	0.359977
468.000000	0.360886
469.000000	0.361465
470.000000	0.361617
471.000000	0.362495
472.000000	0.363287
473.000000	0.363590
474.000000	0.364409
475.000000	0.365096
476.000000	0.365620
477.000000	0.366081
478.000000	0.366302
479.000000	0.366722
480.000000	0.367469
481.000000	0.367902
482.000000	0.368490
483.000000	0.369314
484.000000	0.369839
485.000000	0.370124
486.000000	0.370508
487.000000	0.370935
488.000000	0.371535
489.000000	0.372205
490.000000	0.372635
491.000000	0.373165
492.000000	0.373839
493.000000	0.374408
494.000000	0.374802
495.000000	0.375358
496.000000	0.376141
497.000000	0.376623
498.000000	0.377120
499.000000	0.377803
500.000000	0.378396
501.000000	0.378941
502.000000	0.379603
503.000000	0.380455
504.000000	0.381014
505.000000	0.381475
506.000000	0.382095
507.000000	0.382716
508.000000	0.383316
509.000000	0.383902
510.000000	0.384787
511.000000	0.385473
512.000000	0.385948
513.000000	0.386489
514.000000	0.387242
515.000000	0.388097
516.000000	0.388782
517.000000	0.389574
518.000000	0.390387
519.000000	0.391036
520.000000	0.391719
521.000000	0.392465
522.000000	0.393250
523.000000	0.393929
524.000000	0.394694
525.000000	0.395531
526.000000	0.396388
527.000000	0.397179
528.000000	0.397940
529.000000	0.398788
530.000000	0.399528
531.000000	0.400311
532.000000	0.401124
533.000000	0.402023
534.000000	0.402848
535.000000	0.403599
536.000000	0.404515
537.000000	0.405353
538.000000	0.406177
539.000000	0.407119
540.000000	0.407893
541.000000	0.408639
542.000000	0.409532
543.000000	0.410261
544.000000	0.411033
545.000000	0.411863
546.000000	0.412764
547.000000	0.413658
548.000000	0.414567
549.000000	0.415436
550.000000	0.416241
551.000000	0.417043
552.000000	0.417841
553.000000	0.418630
554.000000	0.419449
555.000000	0.420297
556.000000	0.421014
557.000000	0.421699
558.000000	0.422553
559.000000	0.423368
560.000000	0.424076
561.000000	0.424807
562.000000	0.425568
563.000000	0.426277
564.000000	0.426966
565.000000	0.427549
566.000000	0.428284
567.000000	0.429015
568.000000	0.429622
569.000000	0.430224
570.000000	0.430839
571.000000	0.431438
572.000000	0.431982
573.000000	0.432513
574.000000	0.432968
575.000000	0.433365
576.000000	0.433945
577.000000	0.434476
578.000000	0.434870
579.000000	0.435347
580.000000	0.435825
581.000000	0.436245
582.000000	0.436572
583.000000	0.437041
584.000000	0.437597
585.000000	0.438019
586.000000	0.438335
587.000000	0.438639
588.000000	0.439021
589.000000	0.439354
590.000000	0.439671
591.000000	0.439994
592.000000	0.440275
593.000000	0.440598
594.000000	0.440929
595.000000	0.441113
596.000000	0.441323
597.000000	0.441604
598.000000	0.441796
599.000000	0.441859
600.000000	0.441983
601.000000	0.442208
602.000000	0.442491
603.000000	0.442774
604.000000	0.443016
605.000000	0.443144
606.000000	0.443204
607.000000	0.443241
608.000000	0.443315
609.000000	0.443509
610.000000	0.443714
611.000000	0.443805
612.000000	0.443952
613.000000	0.444134
614.000000	0.444346
615.000000	0.444445
616.000000	0.444533
617.000000	0.444618
618.000000	0.444774
619.000000	0.444926
620.000000	0.445060
621.000000	0.445255
622.000000	0.445277
623.000000	0.445266
624.000000	0.445362
625.000000	0.445477
626.000000	0.445607
627.000000	0.445761
628.000000	0.445959
629.000000	0.446239
630.000000	0.446404
631.000000	0.446560
632.000000	0.446759
633.000000	0.446951
634.000000	0.447057
635.000000	0.447143
636.000000	0.447259
637.000000	0.447413
638.000000	0.447645
639.000000	0.447856
640.000000	0.448071
641.000000	0.448169
642.000000	0.448270
643.000000	0.448401
644.000000	0.448559
645.000000	0.448657
646.000000	0.448807
647.000000	0.449040
648.000000	0.449252
649.000000	0.449495
650.000000	0.449728
651.000000	0.449870
652.000000	0.450009
653.000000	0.450215
654.000000	0.450422
655.000000	0.450595
656.000000	0.450813
657.000000	0.451058
658.000000	0.451293
659.000000	0.451483
660.000000	0.451640
661.000000	0.451946
662.000000	0.452220
663.000000	0.452491
664.000000	0.452750
665.000000	0.453003
666.000000	0.453230
667.000000	0.453384
668.000000	0.453628
669.000000	0.453891
670.000000	0.454133
671.000000	0.454381
672.000000	0.454656
673.000000	0.454951
674.000000	0.455261
675.000000	0.455492
676.000000	0.455723
677.000000	0.456077
678.000000	0.456346
679.000000	0.456643
680.000000	0.457023
681.000000	0.457235
682.000000	0.457494
683.000000	0.457762
684.000000	0.458090
685.000000	0.458402
686.000000	0.458733
687.000000	0.459068
688.000000	0.459375
689.000000	0.459657
690.000000	0.459971
691.000000	0.460297
692.000000	0.460619
693.000000	0.460998
694.000000	0.461312
695.000000	0.461652
696.000000	0.462011
697.000000	0.462348
698.000000	0.462662
699.000000	0.463005
700.000000	0.463408
701.000000	0.463750
702.000000	0.464052
703.000000	0.464330
704.000000	0.464673
705.000000	0.465052
706.000000	0.465379
707.000000	0.465686
708.000000	0.466053
709.000000	0.466446
710.000000	0.466850
711.000000	0.467272
712.000000	0.467647
713.000000	0.467998
714.000000	0.468383
715.000000	0.468752
716.000000	0.469083
717.000000	0.469337
718.000000	0.469670
719.000000	0.470002
720.000000	0.470284
721.000000	0.470631
722.000000	0.470964
723.000000	0.471322
724.000000	0.471620
725.000000	0.471838
726.000000	0.472129
727.000000	0.472460
728.000000	0.472849
729.000000	0.473212
730.000000	0.473436
731.000000	0.473759
732.000000	0.474038
733.000000	0.474291
734.000000	0.474566
735.000000	0.474805
736.000000	0.475142
737.000000	0.475389
738.000000	0.475568
739.000000	0.475784
740.000000	0.475890
741.000000	0.476194
742.000000	0.476460
743.000000	0.476625
744.000000	0.476948
745.000000	0.477186
746.000000	0.477371
747.000000	0.477475
748.000000	0.477598
749.000000	0.477815
750.000000	0.478080
751.000000	0.478273
752.000000	0.478432
753.000000	0.478604
754.000000	0.478809
755.000000	0.479058
756.000000	0.479292
757.000000	0.479381
758.000000	0.479450
759.000000	0.479574
760.000000	0.479675
761.000000	0.479802
762.000000	0.479915
763.000000	0.480006
764.000000	0.480205
765.000000	0.480259
766.000000	0.480321
767.000000	0.480527
768.000000	0.480597
769.000000	0.480638
770.000000	0.480705
771.000000	0.480738
772.000000	0.480789
773.000000	0.480786
774.000000	0.480810
775.000000	0.480749
776.000000	0.480657
777.000000	0.480578
778.000000	0.480585
779.000000	0.480635
780.000000	0.480681
781.000000	0.480631
782.000000	0.480603
783.000000	0.480674
784.000000	0.480629
785.000000	0.480554
786.000000	0.480471
787.000000	0.480386
788.000000	0.480306
789.000000	0.480242
790.000000	0.480178
791.000000	0.480157
792.000000	0.480182
793.000000	0.480181
794.000000	0.480118
795.000000	0.480076
796.000000	0.480024
797.000000	0.479924
798.000000	0.479745
799.000000	0.479645
800.000000	0.479586
801.000000	0.479490
802.000000	0.479419
803.000000	0.479405
804.000000	0.479445
805.000000	0.479245
806.000000	0.479042
807.000000	0.478958
808.000000	0.478819
809.000000	0.478642
810.000000	0.478491
811.000000	0.478369
812.000000	0.478151
813.000000	0.477969
814.000000	0.477856
815.000000	0.477793
816.000000	0.477770
817.000000	0.477719
818.000000	0.477492
819.000000	0.477432
820.000000	0.477402
821.000000	0.477250
822.000000	0.477059
823.000000	0.476786
824.000000	0.476480
825.000000	0.476374
826.000000	0.476217
827.000000	0.476087
828.000000	0.476064
829.000000	0.475910
830.000000	0.475676
831.000000	0.475488
832.000000	0.475261
833.000000	0.475048
834.000000	0.474902
835.000000	0.474886
836.000000	0.474907
837.000000	0.474762
838.000000	0.474471
839.000000	0.474171
840.000000	0.473949
841.000000	0.473783
842.000000	0.473573
843.000000	0.473388
844.000000	0.473239
845.000000	0.473081
846.000000	0.472925
847.000000	0.472730
848.000000	0.472508
849.000000	0.472332
850.000000	0.472167
851.000000	0.471965
852.000000	0.471789
853.000000	0.471681
854.000000	0.471514
855.000000	0.471395
856.000000	0.471201
857.000000	0.470945
858.000000	0.470807
859.000000	0.470705
860.000000	0.470475
861.000000	0.470324
862.000000	0.470247
863.000000	0.470048
864.000000	0.469791
865.000000	0.469536
866.000000	0.469358
867.000000	0.469238
868.000000	0.469200
869.000000	0.469115
870.000000	0.468975
871.000000	0.468759
872.000000	0.468539
873.000000	0.468295
874.000000	0.468158
875.000000	0.467955
876.000000	0.467699
877.000000	0.467380
878.000000	0.467077
879.000000	0.466876
880.000000	0.466625
881.000000	0.466508
882.000000	0.466418
883.000000	0.466280
884.000000	0.465971
885.000000	0.465841
886.000000	0.465671
887.000000	0.465417
888.000000	0.465325
889.000000	0.465290
890.000000	0.465048
891.000000	0.464687
892.000000	0.464563
893.000000	0.464368
894.000000	0.464162
895.000000	0.464098
896.000000	0.463860
897.000000	0.463509
898.000000	0.463232
899.000000	0.463047
900.000000	0.462908
901.000000	0.462776
902.000000	0.462831
903.000000	0.462643
904.000000	0.462383
905.000000	0.462202
906.000000	0.462257
907.000000	0.462198
908.000000	0.461995
909.000000	0.461712
910.000000	0.461472
911.000000	0.461284
912.000000	0.461140
913.000000	0.460977
914.000000	0.460795
915.000000	0.460697
916.000000	0.460599
917.000000	0.460388
918.000000	0.460291
919.000000	0.460359
920.000000	0.460177
921.000000	0.460021
922.000000	0.459891
923.000000	0.459635
924.000000	0.459486
925.000000	0.459357
926.000000	0.459199
927.000000	0.458911
928.000000	0.458649
929.000000	0.458372
930.000000	0.458040
931.000000	0.457965
932.000000	0.457948
933.000000	0.457883
934.000000	0.457642
935.000000	0.457283
936.000000	0.457020
937.000000	0.456865
938.000000	0.456794
939.000000	0.456854
940.000000	0.456806
941.000000	0.456541
942.000000	0.456363
943.000000	0.456360
944.000000	0.456271
945.000000	0.455912
946.000000	0.455648
947.000000	0.455638
948.000000	0.455740
949.000000	0.455435
950.000000	0.455089
951.000000	0.454825
952.000000	0.454673
953.000000	0.454497
954.000000	0.454307
955.000000	0.454060
956.000000	0.453959
957.000000	0.453730
958.000000	0.453442
959.000000	0.453442
960.000000	0.453372
961.000000	0.453260
962.000000	0.453118
963.000000	0.452997
964.000000	0.452840
965.000000	0.452730
966.000000	0.452571
967.000000	0.452457
968.000000	0.452205
969.000000	0.451913
970.000000	0.451933
971.000000	0.451694
972.000000	0.451676
973.000000	0.451798
974.000000	0.451516
975.000000	0.451401
976.000000	0.451378
977.000000	0.451219
978.000000	0.450679
979.000000	0.450641
980.000000	0.450725
981.000000	0.450775
982.000000	0.450960
983.000000	0.450967
984.000000	0.450767
985.000000	0.450458
986.000000	0.450627
987.000000	0.450623
988.000000	0.450043
989.000000	0.450228
990.000000	0.450313
991.000000	0.450211
992.000000	0.450171
993.000000	0.450321
994.000000	0.450211
995.000000	0.450052
996.000000	0.449957
997.000000	0.450095
998.000000	0.450362
999.000000	0.450679
1000.000000	0.450695
1001.000000	0.451204
1002.000000	0.450729
1003.000000	0.449803
1004.000000	0.449330
1005.000000	0.448533
1006.000000	0.448324
1007.000000	0.448784
1008.000000	0.449099
1009.000000	0.449134
1010.000000	0.448877
1011.000000	0.448589
1012.000000	0.447936
1013.000000	0.446978
1014.000000	0.447145
1015.000000	0.447374
1016.000000	0.447631
1017.000000	0.448443
1018.000000	0.449001
1019.000000	0.449387
1020.000000	0.449741
1021.000000	0.449726
1022.000000	0.449830
1023.000000	0.450219
1024.000000	0.450287
1025.000000	0.450775
1026.000000	0.451464
1027.000000	0.450954
1028.000000	0.450720
1029.000000	0.451256
1030.000000	0.451303
1031.000000	0.451112
1032.000000	0.451248
1033.000000	0.451382
1034.000000	0.451516
1035.000000	0.451925
1036.000000	0.452104
1037.000000	0.451959
1038.000000	0.452090
1039.000000	0.452215
1040.000000	0.452981
1041.000000	0.454132
1042.000000	0.454577
1043.000000	0.454779
1044.000000	0.454973
1045.000000	0.455077
1046.000000	0.454989
1047.000000	0.455042
1048.000000	0.455271
1049.000000	0.455276
1050.000000	0.455144
1051.000000	0.455094
1052.000000	0.454568
1053.000000	0.454647
1054.000000	0.455368
1055.000000	0.456073
1056.000000	0.457225
1057.000000	0.458395
1058.000000	0.459121
1059.000000	0.459148
1060.000000	0.459192
1061.000000	0.459595
1062.000000	0.459936
1063.000000	0.459869
1064.000000	0.459909
1065.000000	0.459595
1066.000000	0.459766
1067.000000	0.460042
1068.000000	0.460394
1069.000000	0.460891
1070.000000	0.461373
1071.000000	0.462244
1072.000000	0.462690
1073.000000	0.462845
1074.000000	0.463378
1075.000000	0.464068
1076.000000	0.464524
1077.000000	0.464690
1078.000000	0.464901
1079.000000	0.465002
1080.000000	0.464290
1081.000000	0.464603
1082.000000	0.466001
1083.000000	0.466473
1084.000000	0.466898
1085.000000	0.467294
1086.000000	0.467121
1087.000000	0.467347
1088.000000	0.467784
1089.000000	0.468107
1090.000000	0.468615
1091.000000	0.468635
1092.000000	0.468386
1093.000000	0.468620
1094.000000	0.468713
1095.000000	0.468397
1096.000000	0.468846
1097.000000	0.469933
1098.000000	0.470401
1099.000000	0.470727
1100.000000	0.471312
1101.000000	0.471699
1102.000000	0.472118
1103.000000	0.472994
1104.000000	0.473453
1105.000000	0.473488
1106.000000	0.473570
1107.000000	0.473111
1108.000000	0.473236
1109.000000	0.473867
1110.000000	0.474339
1111.000000	0.474655
1112.000000	0.475307
1113.000000	0.475580
1114.000000	0.475208
1115.000000	0.475530
1116.000000	0.476293
1117.000000	0.476694
1118.000000	0.477258
1119.000000	0.477438
1120.000000	0.477130
1121.000000	0.477175
1122.000000	0.477327
1123.000000	0.477780
1124.000000	0.478311
1125.000000	0.478668
1126.000000	0.478980
1127.000000	0.479054
1128.000000	0.478961
1129.000000	0.478590
1130.000000	0.478646
1131.000000	0.478647
1132.000000	0.478876
1133.000000	0.479590
1134.000000	0.480008
1135.000000	0.480359
1136.000000	0.480585
1137.000000	0.480615
1138.000000	0.480743
1139.000000	0.481106
1140.000000	0.481303
1141.000000	0.481415
1142.000000	0.481471
1143.000000	0.481190
1144.000000	0.481169
1145.000000	0.480938
1146.000000	0.480743
1147.000000	0.480648
1148.000000	0.480395
1149.000000	0.480436
1150.000000	0.480767
1151.000000	0.480885
1152.000000	0.481031
1153.000000	0.481033
1154.000000	0.480757
1155.000000	0.480636
1156.000000	0.480527
1157.000000	0.480432
1158.000000	0.480316
1159.000000	0.480208
1160.000000	0.479949
1161.000000	0.479907
1162.000000	0.480167
1163.000000	0.480504
1164.000000	0.480490
1165.000000	0.480447
1166.000000	0.480369
1167.000000	0.479904
1168.000000	0.479732
1169.000000	0.479764
1170.000000	0.479763
1171.000000	0.479833
1172.000000	0.479924
1173.000000	0.480032
1174.000000	0.480117
1175.000000	0.480212
1176.000000	0.480153
1177.000000	0.480118
1178.000000	0.480095
1179.000000	0.479936
1180.000000	0.479805
1181.000000	0.479833
1182.000000	0.479853
1183.000000	0.480010
1184.000000	0.480121
1185.000000	0.480246
1186.000000	0.480459
1187.000000	0.480494
1188.000000	0.480453
1189.000000	0.480359
1190.000000	0.480208
1191.000000	0.480119
1192.000000	0.480132
1193.000000	0.480298
1194.000000	0.480402
1195.000000	0.480462
1196.000000	0.480485
1197.000000	0.480521
1198.000000	0.480477
1199.000000	0.480547
1200.000000	0.480694
1201.000000	0.480882
1202.000000	0.480929
1203.000000	0.480942
1204.000000	0.480892
1205.000000	0.480772
1206.000000	0.480673
1207.000000	0.480752
1208.000000	0.480710
1209.000000	0.480675
1210.000000	0.480652
1211.000000	0.480636
1212.000000	0.480607
1213.000000	0.480543
1214.000000	0.480712
1215.000000	0.481099
1216.000000	0.481223
1217.000000	0.481329
1218.000000	0.481346
1219.000000	0.481157
1220.000000	0.481034
1221.000000	0.481158
1222.000000	0.481395
1223.000000	0.481656
1224.000000	0.481894
1225.000000	0.482022
1226.000000	0.482093
1227.000000	0.481942
1228.000000	0.481843
1229.000000	0.481659
1230.000000	0.481216
1231.000000	0.481028
1232.000000	0.481076
1233.000000	0.481248
1234.000000	0.481676
1235.000000	0.481873
1236.000000	0.481938
1237.000000	0.482063
1238.000000	0.481999
1239.000000	0.481964
1240.000000	0.481941
1241.000000	0.481940
1242.000000	0.481987
1243.000000	0.482042
1244.000000	0.481962
1245.000000	0.481944
1246.000000	0.481882
1247.000000	0.481887
1248.000000	0.482035
1249.000000	0.482296
1250.000000	0.482512
1251.000000	0.482612
1252.000000	0.482669
1253.000000	0.482746
1254.000000	0.482711
1255.000000	0.482479
1256.000000	0.482468
1257.000000	0.482530
1258.000000	0.482671
1259.000000	0.482931
1260.000000	0.483105
1261.000000	0.483096
1262.000000	0.483155
1263.000000	0.483285
1264.000000	0.483331
1265.000000	0.483281
1266.000000	0.483308
1267.000000	0.483275
1268.000000	0.483217
1269.000000	0.483321
1270.000000	0.483595
1271.000000	0.483689
1272.000000	0.483769
1273.000000	0.483962
1274.000000	0.483973
1275.000000	0.483945
1276.000000	0.483918
1277.000000	0.484052
1278.000000	0.484065
1279.000000	0.484047
1280.000000	0.484047
1281.000000	0.483976
1282.000000	0.483789
1283.000000	0.483805
1284.000000	0.483839
1285.000000	0.483852
1286.000000	0.483826
1287.000000	0.483899
1288.000000	0.483939
1289.000000	0.484002
1290.000000	0.484060
1291.000000	0.484050
1292.000000	0.483976
1293.000000	0.483898
1294.000000	0.483716
1295.000000	0.483466
1296.000000	0.483267
1297.000000	0.483157
1298.000000	0.483204
1299.000000	0.483220
1300.000000	0.483263
1301.000000	0.483239
1302.000000	0.483118
1303.000000	0.483117
1304.000000	0.482965
1305.000000	0.482839
1306.000000	0.482663
1307.000000	0.482472
1308.000000	0.482342
1309.000000	0.482182
1310.000000	0.482056
1311.000000	0.482105
1312.000000	0.481784
1313.000000	0.481602
1314.000000	0.481504
1315.000000	0.481153
1316.000000	0.481125
1317.000000	0.481096
1318.000000	0.480854
1319.000000	0.480569
1320.000000	0.480259
1321.000000	0.479845
1322.000000	0.479432
1323.000000	0.479135
1324.000000	0.478964
1325.000000	0.478667
1326.000000	0.478259
1327.000000	0.478001
1328.000000	0.477787
1329.000000	0.477347
1330.000000	0.476802
1331.000000	0.476421
1332.000000	0.476012
1333.000000	0.475624
1334.000000	0.475549
1335.000000	0.475280
1336.000000	0.474856
1337.000000	0.474472
1338.000000	0.474020
1339.000000	0.473441
1340.000000	0.472939
1341.000000	0.472465
1342.000000	0.471889
1343.000000	0.471425
1344.000000	0.471002
1345.000000	0.470467
1346.000000	0.470188
1347.000000	0.469797
1348.000000	0.469319
1349.000000	0.468727
1350.000000	0.467979
1351.000000	0.467306
1352.000000	0.466663
1353.000000	0.465901
1354.000000	0.465283
1355.000000	0.464630
1356.000000	0.464150
1357.000000	0.463669
1358.000000	0.463109
1359.000000	0.462693
1360.000000	0.462248
1361.000000	0.461865
1362.000000	0.461411
1363.000000	0.460918
1364.000000	0.460368
1365.000000	0.459668
1366.000000	0.459137
1367.000000	0.458637
1368.000000	0.458200
1369.000000	0.457842
1370.000000	0.457137
1371.000000	0.456449
1372.000000	0.455784
1373.000000	0.455065
1374.000000	0.454499
1375.000000	0.453862
1376.000000	0.453270
1377.000000	0.452786
1378.000000	0.452145
1379.000000	0.451261
1380.000000	0.450367
1381.000000	0.449338
1382.000000	0.448254
1383.000000	0.447354
1384.000000	0.446217
1385.000000	0.444923
1386.000000	0.443747
1387.000000	0.442445
1388.000000	0.441104
1389.000000	0.439713
1390.000000	0.438222
1391.000000	0.436732
1392.000000	0.435249
1393.000000	0.433608
1394.000000	0.431980
1395.000000	0.430273
1396.000000	0.428478
1397.000000	0.426461
1398.000000	0.424322
1399.000000	0.422200
1400.000000	0.419783
1401.000000	0.417492
1402.000000	0.415397
1403.000000	0.413063
1404.000000	0.410807
1405.000000	0.408631
1406.000000	0.406183
1407.000000	0.403772
1408.000000	0.401187
1409.000000	0.398517
1410.000000	0.396086
1411.000000	0.393557
1412.000000	0.390938
1413.000000	0.388437
1414.000000	0.385876
1415.000000	0.383441
1416.000000	0.381175
1417.000000	0.378800
1418.000000	0.376371
1419.000000	0.374052
1420.000000	0.371647
1421.000000	0.369430
1422.000000	0.367239
1423.000000	0.365069
1424.000000	0.362922
1425.000000	0.360875
1426.000000	0.358820
1427.000000	0.356802
1428.000000	0.354856
1429.000000	0.352887
1430.000000	0.351105
1431.000000	0.349455
1432.000000	0.347756
1433.000000	0.346108
1434.000000	0.344511
1435.000000	0.342948
1436.000000	0.341530
1437.000000	0.340229
1438.000000	0.339000
1439.000000	0.337942
1440.000000	0.336859
1441.000000	0.335857
1442.000000	0.334923
1443.000000	0.333971
1444.000000	0.332986
1445.000000	0.332082
1446.000000	0.331229
1447.000000	0.330406
1448.000000	0.329731
1449.000000	0.329131
1450.000000	0.328380
1451.000000	0.327629
1452.000000	0.326873
1453.000000	0.326231
1454.000000	0.325710
1455.000000	0.325211
1456.000000	0.324852
1457.000000	0.324448
1458.000000	0.324005
1459.000000	0.323551
1460.000000	0.323094
1461.000000	0.322717
1462.000000	0.322373
1463.000000	0.321974
1464.000000	0.321524
1465.000000	0.321101
1466.000000	0.320699
1467.000000	0.320459
1468.000000	0.320317
1469.000000	0.320245
1470.000000	0.320220
1471.000000	0.320280
1472.000000	0.320357
1473.000000	0.320565
1474.000000	0.320844
1475.000000	0.321035
1476.000000	0.321247
1477.000000	0.321608
1478.000000	0.322013
1479.000000	0.322551
1480.000000	0.323238
1481.000000	0.323842
1482.000000	0.324466
1483.000000	0.325165
1484.000000	0.325898
1485.000000	0.326651
1486.000000	0.327439
1487.000000	0.328278
1488.000000	0.329168
1489.000000	0.329989
1490.000000	0.330782
1491.000000	0.331530
1492.000000	0.332084
1493.000000	0.332804
1494.000000	0.333542
1495.000000	0.334253
1496.000000	0.335033
1497.000000	0.335745
1498.000000	0.336441
1499.000000	0.337070
1500.000000	0.337686
1501.000000	0.338352
1502.000000	0.338931
1503.000000	0.339613
1504.000000	0.340303
1505.000000	0.340785
1506.000000	0.341325
1507.000000	0.341759
1508.000000	0.342264
1509.000000	0.343009
1510.000000	0.343607
1511.000000	0.344145
1512.000000	0.344603
1513.000000	0.344913
1514.000000	0.345299
1515.000000	0.345692
1516.000000	0.346104
1517.000000	0.346457
1518.000000	0.346784
1519.000000	0.347072
1520.000000	0.347298
1521.000000	0.347442
1522.000000	0.347628
1523.000000	0.347935
1524.000000	0.348188
1525.000000	0.348464
1526.000000	0.348662
1527.000000	0.348790
1528.000000	0.349035
1529.000000	0.349264
1530.000000	0.349473
1531.000000	0.349686
1532.000000	0.349834
1533.000000	0.350043
1534.000000	0.350107
1535.000000	0.350151
1536.000000	0.350357
1537.000000	0.350526
1538.000000	0.350743
1539.000000	0.350991
1540.000000	0.351072
1541.000000	0.351179
1542.000000	0.351324
1543.000000	0.351538
1544.000000	0.351727
1545.000000	0.351788
1546.000000	0.351921
1547.000000	0.352002
1548.000000	0.352070
1549.000000	0.352226
1550.000000	0.352357
1551.000000	0.352518
1552.000000	0.352560
1553.000000	0.352520
1554.000000	0.352484
1555.000000	0.352368
1556.000000	0.352392
1557.000000	0.352480
1558.000000	0.352529
1559.000000	0.352542
1560.000000	0.352516
1561.000000	0.352459
1562.000000	0.352378
1563.000000	0.352275
1564.000000	0.352326
1565.000000	0.352451
1566.000000	0.352430
1567.000000	0.352588
1568.000000	0.352592
1569.000000	0.352489
1570.000000	0.352509
1571.000000	0.352571
1572.000000	0.352537
1573.000000	0.352511
1574.000000	0.352428
1575.000000	0.352253
1576.000000	0.352180
1577.000000	0.352099
1578.000000	0.352044
1579.000000	0.352117
1580.000000	0.352150
1581.000000	0.352249
1582.000000	0.352303
1583.000000	0.352377
1584.000000	0.352342
1585.000000	0.352350
1586.000000	0.352315
1587.000000	0.352121
1588.000000	0.352072
1589.000000	0.352108
1590.000000	0.352104
1591.000000	0.352214
1592.000000	0.352248
1593.000000	0.352252
1594.000000	0.352230
1595.000000	0.352198
1596.000000	0.352229
1597.000000	0.352313
1598.000000	0.352284
1599.000000	0.352264
1600.000000	0.352310
1601.000000	0.352406
1602.000000	0.352482
1603.000000	0.352649
1604.000000	0.352788
1605.000000	0.352888
1606.000000	0.353025
1607.000000	0.353337
1608.000000	0.353479
1609.000000	0.353581
1610.000000	0.353651
1611.000000	0.353643
1612.000000	0.353761
1613.000000	0.354015
1614.000000	0.354176
1615.000000	0.354460
1616.000000	0.354702
1617.000000	0.354769
1618.000000	0.355002
1619.000000	0.355370
1620.000000	0.355594
1621.000000	0.355818
1622.000000	0.356113
1623.000000	0.356260
1624.000000	0.356557
1625.000000	0.356895
1626.000000	0.357157
1627.000000	0.357461
1628.000000	0.357763
1629.000000	0.357926
1630.000000	0.358316
1631.000000	0.358780
1632.000000	0.359151
1633.000000	0.359655
1634.000000	0.360067
1635.000000	0.360372
1636.000000	0.360773
1637.000000	0.361260
1638.000000	0.361662
1639.000000	0.362155
1640.000000	0.362484
1641.000000	0.362748
1642.000000	0.363083
1643.000000	0.363419
1644.000000	0.363769
1645.000000	0.364150
1646.000000	0.364503
1647.000000	0.364855
1648.000000	0.365173
1649.000000	0.365600
1650.000000	0.366070
1651.000000	0.366591
1652.000000	0.367085
1653.000000	0.367566
1654.000000	0.368081
1655.000000	0.368484
1656.000000	0.368823
1657.000000	0.369287
1658.000000	0.369679
1659.000000	0.370129
1660.000000	0.370543
1661.000000	0.370844
1662.000000	0.371213
1663.000000	0.371489
1664.000000	0.371807
1665.000000	0.372221
1666.000000	0.372606
1667.000000	0.372854
1668.000000	0.373171
1669.000000	0.373471
1670.000000	0.373785
1671.000000	0.374210
1672.000000	0.374691
1673.000000	0.375236
1674.000000	0.375617
1675.000000	0.376041
1676.000000	0.376445
1677.000000	0.376725
1678.000000	0.376920
1679.000000	0.377179
1680.000000	0.377379
1681.000000	0.377632
1682.000000	0.377990
1683.000000	0.378442
1684.000000	0.378833
1685.000000	0.379070
1686.000000	0.379412
1687.000000	0.379748
1688.000000	0.379921
1689.000000	0.380255
1690.000000	0.380470
1691.000000	0.380588
1692.000000	0.380914
1693.000000	0.381212
1694.000000	0.381230
1695.000000	0.381463
1696.000000	0.381508
1697.000000	0.381607
1698.000000	0.382054
1699.000000	0.382329
1700.000000	0.382414
1701.000000	0.382723
1702.000000	0.382934
1703.000000	0.383018
1704.000000	0.383179
1705.000000	0.383388
1706.000000	0.383480
1707.000000	0.383748
1708.000000	0.384299
1709.000000	0.384564
1710.000000	0.384859
1711.000000	0.385145
1712.000000	0.385262
1713.000000	0.385487
1714.000000	0.385847
1715.000000	0.386172
1716.000000	0.386570
1717.000000	0.386886
1718.000000	0.387122
1719.000000	0.387335
1720.000000	0.387486
1721.000000	0.387767
1722.000000	0.388191
1723.000000	0.388464
1724.000000	0.388787
1725.000000	0.389037
1726.000000	0.388983
1727.000000	0.389139
1728.000000	0.389294
1729.000000	0.389441
1730.000000	0.389827
1731.000000	0.390092
1732.000000	0.390416
1733.000000	0.390625
1734.000000	0.390473
1735.000000	0.390687
1736.000000	0.390939
1737.000000	0.391172
1738.000000	0.391605
1739.000000	0.391991
1740.000000	0.392275
1741.000000	0.392557
1742.000000	0.392987
1743.000000	0.393289
1744.000000	0.393385
1745.000000	0.393634
1746.000000	0.393950
1747.000000	0.394201
1748.000000	0.394374
1749.000000	0.394467
1750.000000	0.394571
1751.000000	0.394847
1752.000000	0.395152
1753.000000	0.395328
1754.000000	0.395482
1755.000000	0.395384
1756.000000	0.395543
1757.000000	0.395992
1758.000000	0.396200
1759.000000	0.396339
1760.000000	0.396577
1761.000000	0.396666
1762.000000	0.396731
1763.000000	0.396974
1764.000000	0.397136
1765.000000	0.396987
1766.000000	0.397111
1767.000000	0.397379
1768.000000	0.397497
1769.000000	0.397754
1770.000000	0.397977
1771.000000	0.398027
1772.000000	0.398211
1773.000000	0.398363
1774.000000	0.398644
1775.000000	0.399125
1776.000000	0.399540
1777.000000	0.400030
1778.000000	0.400294
1779.000000	0.400390
1780.000000	0.400614
1781.000000	0.400708
1782.000000	0.400924
1783.000000	0.401352
1784.000000	0.401555
1785.000000	0.401753
1786.000000	0.402231
1787.000000	0.402612
1788.000000	0.403000
1789.000000	0.403372
1790.000000	0.403483
1791.000000	0.403691
1792.000000	0.404152
1793.000000	0.404481
1794.000000	0.404797
1795.000000	0.405115
1796.000000	0.405342
1797.000000	0.405559
1798.000000	0.405751
1799.000000	0.405992
1800.000000	0.406303
1801.000000	0.405413
1802.000000	0.406166
1803.000000	0.406466
1804.000000	0.406615
1805.000000	0.407167
1806.000000	0.407346
1807.000000	0.405888
1808.000000	0.406088
1809.000000	0.407689
1810.000000	0.408865
1811.000000	0.409171
1812.000000	0.409686
1813.000000	0.409726
1814.000000	0.408224
1815.000000	0.408144
1816.000000	0.409219
1817.000000	0.409239
1818.000000	0.409144
1819.000000	0.409145
1820.000000	0.408819
1821.000000	0.408774
1822.000000	0.408496
1823.000000	0.408284
1824.000000	0.407969
1825.000000	0.406966
1826.000000	0.406806
1827.000000	0.407170
1828.000000	0.407192
1829.000000	0.407585
1830.000000	0.407739
1831.000000	0.407734
1832.000000	0.407500
1833.000000	0.407321
1834.000000	0.406869
1835.000000	0.406772
1836.000000	0.406845
1837.000000	0.406826
1838.000000	0.406882
1839.000000	0.406895
1840.000000	0.406398
1841.000000	0.405477
1842.000000	0.404282
1843.000000	0.401797
1844.000000	0.400972
1845.000000	0.400505
1846.000000	0.400059
1847.000000	0.400274
1848.000000	0.400844
1849.000000	0.399808
1850.000000	0.398650
1851.000000	0.397897
1852.000000	0.396957
1853.000000	0.395755
1854.000000	0.394560
1855.000000	0.393327
1856.000000	0.391472
1857.000000	0.389902
1858.000000	0.389126
1859.000000	0.387819
1860.000000	0.386112
1861.000000	0.384778
1862.000000	0.382852
1863.000000	0.380603
1864.000000	0.378337
1865.000000	0.375556
1866.000000	0.372886
1867.000000	0.370325
1868.000000	0.367368
1869.000000	0.363959
1870.000000	0.361474
1871.000000	0.358227
1872.000000	0.355029
1873.000000	0.351847
1874.000000	0.348827
1875.000000	0.345097
1876.000000	0.340967
1877.000000	0.336260
1878.000000	0.331179
1879.000000	0.326466
1880.000000	0.322385
1881.000000	0.318305
1882.000000	0.313791
1883.000000	0.309230
1884.000000	0.304478
1885.000000	0.299183
1886.000000	0.293844
1887.000000	0.288395
1888.000000	0.282567
1889.000000	0.276842
1890.000000	0.270560
1891.000000	0.265228
1892.000000	0.260499
1893.000000	0.255056
1894.000000	0.249754
1895.000000	0.244113
1896.000000	0.238240
1897.000000	0.231830
1898.000000	0.226024
1899.000000	0.220874
1900.000000	0.215907
1901.000000	0.211251
1902.000000	0.206433
1903.000000	0.201368
1904.000000	0.196612
1905.000000	0.191701
1906.000000	0.186938
1907.000000	0.182231
1908.000000	0.178234
1909.000000	0.173886
1910.000000	0.169896
1911.000000	0.166670
1912.000000	0.163274
1913.000000	0.160079
1914.000000	0.156918
1915.000000	0.153815
1916.000000	0.150710
1917.000000	0.148064
1918.000000	0.145810
1919.000000	0.144294
1920.000000	0.142545
1921.000000	0.141152
1922.000000	0.140011
1923.000000	0.138581
1924.000000	0.137383
1925.000000	0.136381
1926.000000	0.135335
1927.000000	0.135076
1928.000000	0.134594
1929.000000	0.134379
1930.000000	0.133458
1931.000000	0.132915
1932.000000	0.132305
1933.000000	0.132017
1934.000000	0.132697
1935.000000	0.133332
1936.000000	0.133517
1937.000000	0.133500
1938.000000	0.133728
1939.000000	0.133531
1940.000000	0.133138
1941.000000	0.132732
1942.000000	0.132189
1943.000000	0.131361
1944.000000	0.131443
1945.000000	0.131945
1946.000000	0.132613
1947.000000	0.132976
1948.000000	0.132651
1949.000000	0.131968
1950.000000	0.131307
1951.000000	0.130679
1952.000000	0.130086
1953.000000	0.129432
1954.000000	0.129150
1955.000000	0.128489
1956.000000	0.127270
1957.000000	0.126382
1958.000000	0.125331
1959.000000	0.124227
1960.000000	0.123731
1961.000000	0.123626
1962.000000	0.123344
1963.000000	0.123193
1964.000000	0.122970
1965.000000	0.122905
1966.000000	0.122694
1967.000000	0.122481
1968.000000	0.122708
1969.000000	0.122701
1970.000000	0.122530
1971.000000	0.122555
1972.000000	0.122823
1973.000000	0.123035
1974.000000	0.123446
1975.000000	0.123629
1976.000000	0.123785
1977.000000	0.123971
1978.000000	0.123793
1979.000000	0.123878
1980.000000	0.124243
1981.000000	0.124327
1982.000000	0.124363
1983.000000	0.124572
1984.000000	0.124898
1985.000000	0.125151
1986.000000	0.125756
1987.000000	0.126668
1988.000000	0.127735
1989.000000	0.128896
1990.000000	0.130020
1991.000000	0.131075
1992.000000	0.132122
1993.000000	0.132957
1994.000000	0.133663
1995.000000	0.134475
1996.000000	0.135252
1997.000000	0.136230
1998.000000	0.137735
1999.000000	0.138816
2000.000000	0.139830
2001.000000	0.140500
2002.000000	0.141387
2003.000000	0.142697
2004.000000	0.143879
2005.000000	0.145274
2006.000000	0.146737
2007.000000	0.147544
2008.000000	0.148637
2009.000000	0.149811
2010.000000	0.151088
2011.000000	0.152514
2012.000000	0.153577
2013.000000	0.154429
2014.000000	0.155310
2015.000000	0.156153
2016.000000	0.157252
2017.000000	0.158733
2018.000000	0.160587
2019.000000	0.162474
2020.000000	0.164052
2021.000000	0.165603
2022.000000	0.167206
2023.000000	0.168296
2024.000000	0.169075
2025.000000	0.170025
2026.000000	0.170401
2027.000000	0.171368
2028.000000	0.172778
2029.000000	0.173614
2030.000000	0.175178
2031.000000	0.176155
2032.000000	0.176922
2033.000000	0.178501
2034.000000	0.179741
2035.000000	0.180921
2036.000000	0.182221
2037.000000	0.183629
2038.000000	0.185078
2039.000000	0.186903
2040.000000	0.188109
2041.000000	0.188894
2042.000000	0.190096
2043.000000	0.191128
2044.000000	0.192382
2045.000000	0.194127
2046.000000	0.195101
2047.000000	0.196118
2048.000000	0.196488
2049.000000	0.197647
2050.000000	0.199061
2051.000000	0.200261
2052.000000	0.201428
2053.000000	0.202568
2054.000000	0.203835
2055.000000	0.205201
2056.000000	0.205741
2057.000000	0.206408
2058.000000	0.207133
2059.000000	0.207484
2060.000000	0.208361
2061.000000	0.210023
2062.000000	0.211240
2063.000000	0.212243
2064.000000	0.213369
2065.000000	0.214926
2066.000000	0.215973
2067.000000	0.216988
2068.000000	0.218177
2069.000000	0.218562
2070.000000	0.219397
2071.000000	0.220838
2072.000000	0.222360
2073.000000	0.224300
2074.000000	0.226229
2075.000000	0.227476
2076.000000	0.228038
2077.000000	0.228951
2078.000000	0.229332
2079.000000	0.230234
2080.000000	0.231619
2081.000000	0.232713
2082.000000	0.233702
2083.000000	0.235234
2084.000000	0.236201
2085.000000	0.237194
2086.000000	0.238518
2087.000000	0.239805
2088.000000	0.240879
2089.000000	0.242567
2090.000000	0.244064
2091.000000	0.245451
2092.000000	0.246880
2093.000000	0.248598
2094.000000	0.249962
2095.000000	0.251439
2096.000000	0.252609
2097.000000	0.253370
2098.000000	0.253969
2099.000000	0.255058
2100.000000	0.255607
2101.000000	0.256237
2102.000000	0.256537
2103.000000	0.256733
2104.000000	0.256881
2105.000000	0.257475
2106.000000	0.258295
2107.000000	0.259857
2108.000000	0.262269
2109.000000	0.264153
2110.000000	0.266664
2111.000000	0.268145
2112.000000	0.268819
2113.000000	0.269072
2114.000000	0.269364
2115.000000	0.270030
2116.000000	0.270829
2117.000000	0.270852
2118.000000	0.271419
2119.000000	0.272002
2120.000000	0.272753
2121.000000	0.274083
2122.000000	0.274902
2123.000000	0.275591
2124.000000	0.276127
2125.000000	0.276356
2126.000000	0.276565
2127.000000	0.276560
2128.000000	0.276870
2129.000000	0.277277
2130.000000	0.277585
2131.000000	0.277525
2132.000000	0.277239
2133.000000	0.277218
2134.000000	0.277521
2135.000000	0.278667
2136.000000	0.280067
2137.000000	0.280936
2138.000000	0.281599
2139.000000	0.282374
2140.000000	0.283260
2141.000000	0.283505
2142.000000	0.283096
2143.000000	0.283020
2144.000000	0.282800
2145.000000	0.282747
2146.000000	0.282974
2147.000000	0.283979
2148.000000	0.284247
2149.000000	0.284446
2150.000000	0.284504
2151.000000	0.284550
2152.000000	0.283914
2153.000000	0.283279
2154.000000	0.283190
2155.000000	0.283239
2156.000000	0.283413
2157.000000	0.284424
2158.000000	0.284564
2159.000000	0.284001
2160.000000	0.284331
2161.000000	0.284897
2162.000000	0.285471
2163.000000	0.286848
2164.000000	0.287464
2165.000000	0.287328
2166.000000	0.287299
2167.000000	0.288158
2168.000000	0.288467
2169.000000	0.289021
2170.000000	0.288963
2171.000000	0.288647
2172.000000	0.287300
2173.000000	0.286759
2174.000000	0.286198
2175.000000	0.286546
2176.000000	0.287764
2177.000000	0.288390
2178.000000	0.289590
2179.000000	0.290082
2180.000000	0.289927
2181.000000	0.289896
2182.000000	0.289046
2183.000000	0.288457
2184.000000	0.288288
2185.000000	0.287260
2186.000000	0.286076
2187.000000	0.286508
2188.000000	0.286103
2189.000000	0.285355
2190.000000	0.286245
2191.000000	0.287929
2192.000000	0.289009
2193.000000	0.290859
2194.000000	0.291489
2195.000000	0.291355
2196.000000	0.290808
2197.000000	0.289112
2198.000000	0.288271
2199.000000	0.287110
2200.000000	0.286273
2201.000000	0.285529
2202.000000	0.285674
2203.000000	0.286438
2204.000000	0.287285
2205.000000	0.288394
2206.000000	0.289443
2207.000000	0.289238
2208.000000	0.288675
2209.000000	0.289157
2210.000000	0.290744
2211.000000	0.290288
2212.000000	0.291513
2213.000000	0.292579
2214.000000	0.293585
2215.000000	0.293588
2216.000000	0.293764
2217.000000	0.293262
2218.000000	0.290420
2219.000000	0.290133
2220.000000	0.291824
2221.000000	0.292505
2222.000000	0.294152
2223.000000	0.294444
2224.000000	0.293494
2225.000000	0.293013
2226.000000	0.290999
2227.000000	0.289478
2228.000000	0.289466
2229.000000	0.289252
2230.000000	0.290599
2231.000000	0.291538
2232.000000	0.291653
2233.000000	0.292426
2234.000000	0.290608
2235.000000	0.289909
2236.000000	0.290467
2237.000000	0.290946
2238.000000	0.291899
2239.000000	0.295905
2240.000000	0.296635
2241.000000	0.295152
2242.000000	0.295057
2243.000000	0.293948
2244.000000	0.293710
2245.000000	0.294821
2246.000000	0.295136
2247.000000	0.295366
2248.000000	0.295568
2249.000000	0.295556
2250.000000	0.295357
2251.000000	0.295449
2252.000000	0.295502
2253.000000	0.296609
2254.000000	0.297232
2255.000000	0.296337
2256.000000	0.295596
2257.000000	0.294620
2258.000000	0.291074
2259.000000	0.288900
2260.000000	0.286683
2261.000000	0.285653
2262.000000	0.285700
2263.000000	0.285892
2264.000000	0.287496
2265.000000	0.287902
2266.000000	0.287535
2267.000000	0.287353
2268.000000	0.287398
2269.000000	0.286539
2270.000000	0.285051
2271.000000	0.283455
2272.000000	0.280667
2273.000000	0.278985
2274.000000	0.278252
2275.000000	0.277297
2276.000000	0.275781
2277.000000	0.276223
2278.000000	0.276248
2279.000000	0.274269
2280.000000	0.275780
2281.000000	0.275204
2282.000000	0.271926
2283.000000	0.271453
2284.000000	0.269210
2285.000000	0.266148
2286.000000	0.267450
2287.000000	0.269001
2288.000000	0.269238
2289.000000	0.269345
2290.000000	0.267796
2291.000000	0.264937
2292.000000	0.261047
2293.000000	0.259999
2294.000000	0.259211
2295.000000	0.258843
2296.000000	0.258315
2297.000000	0.258704
2298.000000	0.258703
2299.000000	0.258776
2300.000000	0.259126
2301.000000	0.260312
2302.000000	0.260248
2303.000000	0.258413
2304.000000	0.258132
2305.000000	0.258909
2306.000000	0.258402
2307.000000	0.257452
2308.000000	0.258534
2309.000000	0.255490
2310.000000	0.253039
2311.000000	0.253327
2312.000000	0.249602
2313.000000	0.247366
2314.000000	0.245628
2315.000000	0.242192
2316.000000	0.240335
2317.000000	0.239694
2318.000000	0.240970
2319.000000	0.242052
2320.000000	0.242067
2321.000000	0.241805
2322.000000	0.239147
2323.000000	0.236986
2324.000000	0.235521
2325.000000	0.232750
2326.000000	0.232013
2327.000000	0.230126
2328.000000	0.226652
2329.000000	0.225030
2330.000000	0.222033
2331.000000	0.219568
2332.000000	0.218548
2333.000000	0.217047
2334.000000	0.215082
2335.000000	0.214118
2336.000000	0.214390
2337.000000	0.212879
2338.000000	0.210214
2339.000000	0.209430
2340.000000	0.206688
2341.000000	0.205200
2342.000000	0.207940
2343.000000	0.206721
2344.000000	0.204032
2345.000000	0.201925
2346.000000	0.197733
2347.000000	0.195128
2348.000000	0.193231
2349.000000	0.190935
2350.000000	0.189790
2351.000000	0.189949
2352.000000	0.188768
2353.000000	0.187550
2354.000000	0.186739
2355.000000	0.184000
2356.000000	0.183780
2357.000000	0.180430
2358.000000	0.178231
2359.000000	0.178715
2360.000000	0.174716
2361.000000	0.176407
2362.000000	0.174129
2363.000000	0.166734
2364.000000	0.162680
2365.000000	0.157187
2366.000000	0.154859
2367.000000	0.155259
2368.000000	0.157546
2369.000000	0.160767
2370.000000	0.162676
2371.000000	0.164069
2372.000000	0.162367
2373.000000	0.160755
2374.000000	0.162596
2375.000000	0.163694
2376.000000	0.163346
2377.000000	0.163443
2378.000000	0.159713
2379.000000	0.156844
2380.000000	0.156505
2381.000000	0.155060
2382.000000	0.153415
2383.000000	0.150124
2384.000000	0.147427
2385.000000	0.145188
2386.000000	0.146119
2387.000000	0.146964
2388.000000	0.144591
2389.000000	0.142902
2390.000000	0.138783
2391.000000	0.136114
2392.000000	0.136928
2393.000000	0.136048
2394.000000	0.137110
2395.000000	0.140321
2396.000000	0.139067
2397.000000	0.138298
2398.000000	0.140492
2399.000000	0.135111
2400.000000	0.133306
2401.000000	0.138862
2402.000000	0.130386
2403.000000	0.124488
2404.000000	0.123649
2405.000000	0.118255
2406.000000	0.122825
2407.000000	0.128767
2408.000000	0.129256
2409.000000	0.124506
2410.000000	0.124981
2411.000000	0.129900
2412.000000	0.130494
2413.000000	0.136554
2414.000000	0.139070
2415.000000	0.127361
2416.000000	0.116120
2417.000000	0.108089
2418.000000	0.100538
2419.000000	0.108028
2420.000000	0.120202
2421.000000	0.130542
2422.000000	0.136369
2423.000000	0.125880
2424.000000	0.114382
2425.000000	0.102059
2426.000000	0.088754
2427.000000	0.084172
2428.000000	0.086719
2429.000000	0.086437
2430.000000	0.083629
2431.000000	0.094673
2432.000000	0.108686
2433.000000	0.117309
2434.000000	0.128422
2435.000000	0.132461
2436.000000	0.125530
2437.000000	0.126014
2438.000000	0.136448
2439.000000	0.138830
2440.000000	0.134636
2441.000000	0.129917
2442.000000	0.117940
2443.000000	0.114741
2444.000000	0.119379
2445.000000	0.114080
2446.000000	0.118182
2447.000000	0.119492
2448.000000	0.112212
2449.000000	0.119709
2450.000000	0.121813
2451.000000	0.115475
2452.000000	0.115345
2453.000000	0.105543
2454.000000	0.086548
2455.000000	0.076582
2456.000000	0.069450
2457.000000	0.069156
2458.000000	0.080003
2459.000000	0.081734
2460.000000	0.092767
2461.000000	0.099497
2462.000000	0.088831
2463.000000	0.076838
2464.000000	0.060121
2465.000000	0.057131
2466.000000	0.051364
2467.000000	0.056876
2468.000000	0.067882
2469.000000	0.035818
2470.000000	0.025370
2471.000000	0.050062
2472.000000	0.054746
2473.000000	0.087600
2474.000000	0.114761
2475.000000	0.087289
2476.000000	0.065024
2477.000000	0.038454
2478.000000	0.017151
2479.000000	0.011954
2480.000000	0.018434
2481.000000	0.046194
2482.000000	0.063387
2483.000000	0.078540
2484.000000	0.088813
2485.000000	0.086108
2486.000000	0.082487
2487.000000	0.064262
2488.000000	0.039456
2489.000000	0.078956
2490.000000	0.119239
2491.000000	0.157179
2492.000000	0.158396
2493.000000	0.055675
2494.000000	0.024427
2495.000000	0.028223
2496.000000	0.025992
2497.000000	0.064693
2498.000000	0.087891
2499.000000	0.102905
2500.000000	0.118963
