# Wavelength	Nau-2_40_FV7_60_00001.asd.rts.txt
350.000000	0.141231
351.000000	0.127781
352.000000	0.125183
353.000000	0.130270
354.000000	0.137077
355.000000	0.135703
356.000000	0.135475
357.000000	0.136822
358.000000	0.131813
359.000000	0.130869
360.000000	0.133558
361.000000	0.135549
362.000000	0.123490
363.000000	0.124108
364.000000	0.145058
365.000000	0.143372
366.000000	0.137075
367.000000	0.133412
368.000000	0.132018
369.000000	0.136133
370.000000	0.140565
371.000000	0.138785
372.000000	0.133189
373.000000	0.131707
374.000000	0.137033
375.000000	0.137368
376.000000	0.135536
377.000000	0.133759
378.000000	0.134090
379.000000	0.135028
380.000000	0.135782
381.000000	0.136424
382.000000	0.138714
383.000000	0.138988
384.000000	0.136109
385.000000	0.136396
386.000000	0.138649
387.000000	0.141061
388.000000	0.140687
389.000000	0.141290
390.000000	0.142020
391.000000	0.140819
392.000000	0.143512
393.000000	0.145372
394.000000	0.143187
395.000000	0.142698
396.000000	0.142878
397.000000	0.143154
398.000000	0.144010
399.000000	0.143085
400.000000	0.141866
401.000000	0.143223
402.000000	0.143824
403.000000	0.143673
404.000000	0.143478
405.000000	0.143789
406.000000	0.143845
407.000000	0.143668
408.000000	0.144683
409.000000	0.145342
410.000000	0.145735
411.000000	0.146805
412.000000	0.146932
413.000000	0.146728
414.000000	0.147174
415.000000	0.148265
416.000000	0.148759
417.000000	0.148342
418.000000	0.148871
419.000000	0.149083
420.000000	0.148969
421.000000	0.149552
422.000000	0.149997
423.000000	0.150361
424.000000	0.150927
425.000000	0.150915
426.000000	0.150833
427.000000	0.151072
428.000000	0.151240
429.000000	0.151390
430.000000	0.151609
431.000000	0.152056
432.000000	0.152283
433.000000	0.152382
434.000000	0.152740
435.000000	0.152865
436.000000	0.153106
437.000000	0.153714
438.000000	0.153856
439.000000	0.153714
440.000000	0.153690
441.000000	0.154412
442.000000	0.155130
443.000000	0.155456
444.000000	0.155306
445.000000	0.155523
446.000000	0.156104
447.000000	0.156627
448.000000	0.156573
449.000000	0.156789
450.000000	0.157651
451.000000	0.157863
452.000000	0.157989
453.000000	0.158266
454.000000	0.158757
455.000000	0.159292
456.000000	0.159629
457.000000	0.159468
458.000000	0.159914
459.000000	0.160466
460.000000	0.160633
461.000000	0.161042
462.000000	0.161410
463.000000	0.161575
464.000000	0.162000
465.000000	0.162240
466.000000	0.162360
467.000000	0.162826
468.000000	0.163122
469.000000	0.163186
470.000000	0.163257
471.000000	0.163838
472.000000	0.164373
473.000000	0.164566
474.000000	0.164990
475.000000	0.165256
476.000000	0.165433
477.000000	0.165889
478.000000	0.165988
479.000000	0.166004
480.000000	0.166319
481.000000	0.166722
482.000000	0.167172
483.000000	0.167489
484.000000	0.167599
485.000000	0.167740
486.000000	0.168131
487.000000	0.168630
488.000000	0.168860
489.000000	0.168919
490.000000	0.169233
491.000000	0.169523
492.000000	0.169729
493.000000	0.169785
494.000000	0.169913
495.000000	0.170067
496.000000	0.170181
497.000000	0.170362
498.000000	0.170532
499.000000	0.170668
500.000000	0.170653
501.000000	0.170818
502.000000	0.171132
503.000000	0.171340
504.000000	0.171532
505.000000	0.171738
506.000000	0.171980
507.000000	0.172227
508.000000	0.172561
509.000000	0.172932
510.000000	0.173081
511.000000	0.173308
512.000000	0.173679
513.000000	0.174052
514.000000	0.174399
515.000000	0.174713
516.000000	0.174976
517.000000	0.175326
518.000000	0.175753
519.000000	0.176161
520.000000	0.176546
521.000000	0.176853
522.000000	0.177141
523.000000	0.177662
524.000000	0.178200
525.000000	0.178773
526.000000	0.179528
527.000000	0.180173
528.000000	0.180764
529.000000	0.181468
530.000000	0.182314
531.000000	0.183088
532.000000	0.183705
533.000000	0.184702
534.000000	0.185659
535.000000	0.186478
536.000000	0.187399
537.000000	0.188335
538.000000	0.189258
539.000000	0.190146
540.000000	0.190960
541.000000	0.191759
542.000000	0.192603
543.000000	0.193341
544.000000	0.194037
545.000000	0.194715
546.000000	0.195511
547.000000	0.196228
548.000000	0.196913
549.000000	0.197721
550.000000	0.198554
551.000000	0.199416
552.000000	0.200302
553.000000	0.201274
554.000000	0.202333
555.000000	0.203466
556.000000	0.204653
557.000000	0.205829
558.000000	0.207047
559.000000	0.208237
560.000000	0.209346
561.000000	0.210466
562.000000	0.211645
563.000000	0.212689
564.000000	0.213736
565.000000	0.214845
566.000000	0.215816
567.000000	0.216772
568.000000	0.217735
569.000000	0.218517
570.000000	0.219255
571.000000	0.219965
572.000000	0.220586
573.000000	0.221244
574.000000	0.221892
575.000000	0.222465
576.000000	0.222992
577.000000	0.223378
578.000000	0.223640
579.000000	0.224017
580.000000	0.224347
581.000000	0.224571
582.000000	0.224820
583.000000	0.224972
584.000000	0.225082
585.000000	0.225299
586.000000	0.225354
587.000000	0.225319
588.000000	0.225331
589.000000	0.225346
590.000000	0.225317
591.000000	0.225232
592.000000	0.225166
593.000000	0.225061
594.000000	0.224891
595.000000	0.224665
596.000000	0.224470
597.000000	0.224312
598.000000	0.224078
599.000000	0.223747
600.000000	0.223480
601.000000	0.223308
602.000000	0.222933
603.000000	0.222588
604.000000	0.222368
605.000000	0.222092
606.000000	0.221752
607.000000	0.221394
608.000000	0.221116
609.000000	0.220875
610.000000	0.220637
611.000000	0.220379
612.000000	0.220173
613.000000	0.219954
614.000000	0.219699
615.000000	0.219399
616.000000	0.219106
617.000000	0.218832
618.000000	0.218633
619.000000	0.218367
620.000000	0.218083
621.000000	0.217937
622.000000	0.217732
623.000000	0.217538
624.000000	0.217417
625.000000	0.217234
626.000000	0.217056
627.000000	0.216902
628.000000	0.216687
629.000000	0.216606
630.000000	0.216526
631.000000	0.216353
632.000000	0.216270
633.000000	0.216169
634.000000	0.215932
635.000000	0.215840
636.000000	0.215831
637.000000	0.215832
638.000000	0.215842
639.000000	0.215803
640.000000	0.215782
641.000000	0.215834
642.000000	0.215865
643.000000	0.215912
644.000000	0.216042
645.000000	0.216193
646.000000	0.216308
647.000000	0.216362
648.000000	0.216484
649.000000	0.216658
650.000000	0.216855
651.000000	0.217084
652.000000	0.217268
653.000000	0.217483
654.000000	0.217804
655.000000	0.218121
656.000000	0.218436
657.000000	0.218719
658.000000	0.218953
659.000000	0.219215
660.000000	0.219530
661.000000	0.219863
662.000000	0.220245
663.000000	0.220666
664.000000	0.221009
665.000000	0.221405
666.000000	0.221838
667.000000	0.222253
668.000000	0.222742
669.000000	0.223221
670.000000	0.223678
671.000000	0.224284
672.000000	0.224851
673.000000	0.225351
674.000000	0.225898
675.000000	0.226475
676.000000	0.227087
677.000000	0.227745
678.000000	0.228369
679.000000	0.228993
680.000000	0.229658
681.000000	0.230346
682.000000	0.231085
683.000000	0.231819
684.000000	0.232581
685.000000	0.233356
686.000000	0.234151
687.000000	0.234939
688.000000	0.235761
689.000000	0.236608
690.000000	0.237495
691.000000	0.238405
692.000000	0.239348
693.000000	0.240347
694.000000	0.241286
695.000000	0.242246
696.000000	0.243233
697.000000	0.244225
698.000000	0.245229
699.000000	0.246264
700.000000	0.247322
701.000000	0.248242
702.000000	0.249242
703.000000	0.250363
704.000000	0.251446
705.000000	0.252519
706.000000	0.253590
707.000000	0.254742
708.000000	0.255869
709.000000	0.256944
710.000000	0.257997
711.000000	0.259117
712.000000	0.260259
713.000000	0.261405
714.000000	0.262511
715.000000	0.263650
716.000000	0.264839
717.000000	0.266033
718.000000	0.267119
719.000000	0.268208
720.000000	0.269403
721.000000	0.270560
722.000000	0.271637
723.000000	0.272696
724.000000	0.273775
725.000000	0.274816
726.000000	0.275880
727.000000	0.276929
728.000000	0.278011
729.000000	0.279127
730.000000	0.280218
731.000000	0.281290
732.000000	0.282329
733.000000	0.283345
734.000000	0.284265
735.000000	0.285184
736.000000	0.286206
737.000000	0.287192
738.000000	0.288121
739.000000	0.289073
740.000000	0.289950
741.000000	0.290810
742.000000	0.291731
743.000000	0.292651
744.000000	0.293430
745.000000	0.294194
746.000000	0.295004
747.000000	0.295788
748.000000	0.296495
749.000000	0.297176
750.000000	0.297833
751.000000	0.298446
752.000000	0.299036
753.000000	0.299654
754.000000	0.300360
755.000000	0.301000
756.000000	0.301594
757.000000	0.302167
758.000000	0.302730
759.000000	0.303251
760.000000	0.303669
761.000000	0.304140
762.000000	0.304520
763.000000	0.304865
764.000000	0.305413
765.000000	0.305818
766.000000	0.306198
767.000000	0.306683
768.000000	0.307075
769.000000	0.307410
770.000000	0.307729
771.000000	0.308066
772.000000	0.308384
773.000000	0.308665
774.000000	0.309023
775.000000	0.309331
776.000000	0.309599
777.000000	0.309828
778.000000	0.309996
779.000000	0.310219
780.000000	0.310492
781.000000	0.310677
782.000000	0.310806
783.000000	0.311006
784.000000	0.311219
785.000000	0.311435
786.000000	0.311587
787.000000	0.311659
788.000000	0.311733
789.000000	0.311843
790.000000	0.311975
791.000000	0.312129
792.000000	0.312214
793.000000	0.312236
794.000000	0.312237
795.000000	0.312268
796.000000	0.312336
797.000000	0.312426
798.000000	0.312511
799.000000	0.312621
800.000000	0.312703
801.000000	0.312708
802.000000	0.312752
803.000000	0.312770
804.000000	0.312773
805.000000	0.312811
806.000000	0.312799
807.000000	0.312810
808.000000	0.312835
809.000000	0.312879
810.000000	0.312990
811.000000	0.313122
812.000000	0.312995
813.000000	0.312888
814.000000	0.312874
815.000000	0.312867
816.000000	0.312793
817.000000	0.312743
818.000000	0.312744
819.000000	0.312855
820.000000	0.312915
821.000000	0.312809
822.000000	0.312640
823.000000	0.312471
824.000000	0.312300
825.000000	0.312214
826.000000	0.312163
827.000000	0.312072
828.000000	0.311953
829.000000	0.311842
830.000000	0.311725
831.000000	0.311666
832.000000	0.311589
833.000000	0.311458
834.000000	0.311296
835.000000	0.311175
836.000000	0.311130
837.000000	0.311141
838.000000	0.311180
839.000000	0.311160
840.000000	0.311009
841.000000	0.310819
842.000000	0.310659
843.000000	0.310554
844.000000	0.310448
845.000000	0.310291
846.000000	0.310115
847.000000	0.309937
848.000000	0.309779
849.000000	0.309679
850.000000	0.309518
851.000000	0.309413
852.000000	0.309421
853.000000	0.309395
854.000000	0.309258
855.000000	0.309145
856.000000	0.309053
857.000000	0.308954
858.000000	0.308837
859.000000	0.308638
860.000000	0.308446
861.000000	0.308263
862.000000	0.308137
863.000000	0.308033
864.000000	0.307897
865.000000	0.307715
866.000000	0.307502
867.000000	0.307225
868.000000	0.307004
869.000000	0.306850
870.000000	0.306799
871.000000	0.306532
872.000000	0.306277
873.000000	0.306095
874.000000	0.305800
875.000000	0.305678
876.000000	0.305644
877.000000	0.305406
878.000000	0.305096
879.000000	0.304881
880.000000	0.304692
881.000000	0.304528
882.000000	0.304317
883.000000	0.304042
884.000000	0.303676
885.000000	0.303498
886.000000	0.303363
887.000000	0.303174
888.000000	0.302888
889.000000	0.302715
890.000000	0.302539
891.000000	0.302358
892.000000	0.302169
893.000000	0.301956
894.000000	0.301806
895.000000	0.301575
896.000000	0.301387
897.000000	0.301200
898.000000	0.300919
899.000000	0.300453
900.000000	0.300004
901.000000	0.299646
902.000000	0.299385
903.000000	0.299205
904.000000	0.299113
905.000000	0.298993
906.000000	0.298772
907.000000	0.298514
908.000000	0.298288
909.000000	0.297991
910.000000	0.297712
911.000000	0.297410
912.000000	0.297090
913.000000	0.296941
914.000000	0.296714
915.000000	0.296381
916.000000	0.295943
917.000000	0.295616
918.000000	0.295394
919.000000	0.295238
920.000000	0.295258
921.000000	0.295082
922.000000	0.294766
923.000000	0.294545
924.000000	0.294264
925.000000	0.293998
926.000000	0.293812
927.000000	0.293598
928.000000	0.293289
929.000000	0.292958
930.000000	0.292700
931.000000	0.292397
932.000000	0.292152
933.000000	0.291989
934.000000	0.291738
935.000000	0.291430
936.000000	0.291098
937.000000	0.290692
938.000000	0.290306
939.000000	0.290119
940.000000	0.290015
941.000000	0.289859
942.000000	0.289653
943.000000	0.289408
944.000000	0.289099
945.000000	0.289042
946.000000	0.288967
947.000000	0.288782
948.000000	0.288450
949.000000	0.288290
950.000000	0.288056
951.000000	0.287741
952.000000	0.287684
953.000000	0.287372
954.000000	0.287075
955.000000	0.286927
956.000000	0.286611
957.000000	0.286230
958.000000	0.285852
959.000000	0.285634
960.000000	0.285438
961.000000	0.285314
962.000000	0.285189
963.000000	0.284897
964.000000	0.284643
965.000000	0.284501
966.000000	0.284345
967.000000	0.284060
968.000000	0.283920
969.000000	0.283723
970.000000	0.283248
971.000000	0.282931
972.000000	0.282767
973.000000	0.282653
974.000000	0.282595
975.000000	0.282382
976.000000	0.282149
977.000000	0.281999
978.000000	0.281732
979.000000	0.281446
980.000000	0.281131
981.000000	0.281130
982.000000	0.281048
983.000000	0.280735
984.000000	0.280352
985.000000	0.280180
986.000000	0.279749
987.000000	0.279494
988.000000	0.279565
989.000000	0.279493
990.000000	0.279630
991.000000	0.279709
992.000000	0.279469
993.000000	0.279467
994.000000	0.279176
995.000000	0.278868
996.000000	0.278963
997.000000	0.278896
998.000000	0.278712
999.000000	0.278638
1000.000000	0.278797
1001.000000	0.279052
1002.000000	0.278596
1003.000000	0.278499
1004.000000	0.278370
1005.000000	0.278514
1006.000000	0.278583
1007.000000	0.278807
1008.000000	0.278498
1009.000000	0.278672
1010.000000	0.278240
1011.000000	0.277372
1012.000000	0.277650
1013.000000	0.277518
1014.000000	0.276924
1015.000000	0.277143
1016.000000	0.277364
1017.000000	0.277375
1018.000000	0.277876
1019.000000	0.277939
1020.000000	0.277718
1021.000000	0.277379
1022.000000	0.277003
1023.000000	0.276955
1024.000000	0.277025
1025.000000	0.276891
1026.000000	0.276694
1027.000000	0.276487
1028.000000	0.276441
1029.000000	0.276874
1030.000000	0.277097
1031.000000	0.276959
1032.000000	0.276764
1033.000000	0.276392
1034.000000	0.276374
1035.000000	0.276623
1036.000000	0.276971
1037.000000	0.277741
1038.000000	0.277977
1039.000000	0.278060
1040.000000	0.278455
1041.000000	0.278659
1042.000000	0.278890
1043.000000	0.279171
1044.000000	0.278843
1045.000000	0.278479
1046.000000	0.277870
1047.000000	0.277780
1048.000000	0.278111
1049.000000	0.278353
1050.000000	0.278740
1051.000000	0.278981
1052.000000	0.279143
1053.000000	0.279303
1054.000000	0.279718
1055.000000	0.279985
1056.000000	0.280329
1057.000000	0.280270
1058.000000	0.280542
1059.000000	0.280521
1060.000000	0.280268
1061.000000	0.280720
1062.000000	0.280987
1063.000000	0.281007
1064.000000	0.281160
1065.000000	0.281398
1066.000000	0.281572
1067.000000	0.281577
1068.000000	0.281815
1069.000000	0.282237
1070.000000	0.282570
1071.000000	0.283160
1072.000000	0.283360
1073.000000	0.283222
1074.000000	0.283298
1075.000000	0.283778
1076.000000	0.284131
1077.000000	0.284216
1078.000000	0.284515
1079.000000	0.284571
1080.000000	0.283933
1081.000000	0.284056
1082.000000	0.284887
1083.000000	0.285160
1084.000000	0.285385
1085.000000	0.285620
1086.000000	0.285478
1087.000000	0.285705
1088.000000	0.286319
1089.000000	0.286580
1090.000000	0.286661
1091.000000	0.286813
1092.000000	0.286962
1093.000000	0.287252
1094.000000	0.287552
1095.000000	0.288118
1096.000000	0.288362
1097.000000	0.288362
1098.000000	0.288548
1099.000000	0.288785
1100.000000	0.288866
1101.000000	0.288658
1102.000000	0.288877
1103.000000	0.289178
1104.000000	0.289512
1105.000000	0.290387
1106.000000	0.290786
1107.000000	0.290575
1108.000000	0.290753
1109.000000	0.291136
1110.000000	0.291380
1111.000000	0.291641
1112.000000	0.292213
1113.000000	0.292345
1114.000000	0.292101
1115.000000	0.292127
1116.000000	0.292044
1117.000000	0.292192
1118.000000	0.292532
1119.000000	0.292751
1120.000000	0.293097
1121.000000	0.293311
1122.000000	0.293531
1123.000000	0.293832
1124.000000	0.293803
1125.000000	0.293983
1126.000000	0.294209
1127.000000	0.294365
1128.000000	0.294531
1129.000000	0.294852
1130.000000	0.294996
1131.000000	0.294995
1132.000000	0.295107
1133.000000	0.295307
1134.000000	0.295439
1135.000000	0.295521
1136.000000	0.295623
1137.000000	0.295655
1138.000000	0.295717
1139.000000	0.295947
1140.000000	0.296125
1141.000000	0.296235
1142.000000	0.296341
1143.000000	0.296301
1144.000000	0.296451
1145.000000	0.296472
1146.000000	0.296572
1147.000000	0.296647
1148.000000	0.296701
1149.000000	0.296730
1150.000000	0.296680
1151.000000	0.296819
1152.000000	0.296965
1153.000000	0.297192
1154.000000	0.297584
1155.000000	0.297797
1156.000000	0.297977
1157.000000	0.298117
1158.000000	0.298117
1159.000000	0.298160
1160.000000	0.298201
1161.000000	0.298220
1162.000000	0.298241
1163.000000	0.298424
1164.000000	0.298463
1165.000000	0.298453
1166.000000	0.298576
1167.000000	0.298737
1168.000000	0.298749
1169.000000	0.298795
1170.000000	0.298846
1171.000000	0.298815
1172.000000	0.298858
1173.000000	0.298955
1174.000000	0.299018
1175.000000	0.299037
1176.000000	0.299030
1177.000000	0.299148
1178.000000	0.299154
1179.000000	0.299017
1180.000000	0.298913
1181.000000	0.298848
1182.000000	0.298781
1183.000000	0.298889
1184.000000	0.299028
1185.000000	0.299135
1186.000000	0.299289
1187.000000	0.299394
1188.000000	0.299474
1189.000000	0.299541
1190.000000	0.299690
1191.000000	0.299707
1192.000000	0.299665
1193.000000	0.299806
1194.000000	0.299835
1195.000000	0.299949
1196.000000	0.300216
1197.000000	0.300316
1198.000000	0.300350
1199.000000	0.300384
1200.000000	0.300284
1201.000000	0.300330
1202.000000	0.300326
1203.000000	0.300341
1204.000000	0.300377
1205.000000	0.300352
1206.000000	0.300354
1207.000000	0.300472
1208.000000	0.300459
1209.000000	0.300418
1210.000000	0.300492
1211.000000	0.300589
1212.000000	0.300661
1213.000000	0.300852
1214.000000	0.300992
1215.000000	0.301092
1216.000000	0.301119
1217.000000	0.301096
1218.000000	0.301085
1219.000000	0.301032
1220.000000	0.300968
1221.000000	0.300959
1222.000000	0.301005
1223.000000	0.301187
1224.000000	0.301279
1225.000000	0.301215
1226.000000	0.301197
1227.000000	0.301198
1228.000000	0.301302
1229.000000	0.301315
1230.000000	0.301505
1231.000000	0.301410
1232.000000	0.301060
1233.000000	0.301080
1234.000000	0.301197
1235.000000	0.301294
1236.000000	0.301499
1237.000000	0.301651
1238.000000	0.301697
1239.000000	0.301773
1240.000000	0.301855
1241.000000	0.301948
1242.000000	0.302110
1243.000000	0.302176
1244.000000	0.302277
1245.000000	0.302437
1246.000000	0.302427
1247.000000	0.302483
1248.000000	0.302620
1249.000000	0.302726
1250.000000	0.302689
1251.000000	0.302701
1252.000000	0.302694
1253.000000	0.302626
1254.000000	0.302554
1255.000000	0.302477
1256.000000	0.302428
1257.000000	0.302359
1258.000000	0.302394
1259.000000	0.302475
1260.000000	0.302633
1261.000000	0.302787
1262.000000	0.302863
1263.000000	0.302991
1264.000000	0.303078
1265.000000	0.303046
1266.000000	0.303162
1267.000000	0.303272
1268.000000	0.303273
1269.000000	0.303179
1270.000000	0.303122
1271.000000	0.303048
1272.000000	0.302937
1273.000000	0.302993
1274.000000	0.303098
1275.000000	0.303124
1276.000000	0.303208
1277.000000	0.303277
1278.000000	0.303172
1279.000000	0.303154
1280.000000	0.303120
1281.000000	0.303049
1282.000000	0.303036
1283.000000	0.303064
1284.000000	0.303009
1285.000000	0.302999
1286.000000	0.303053
1287.000000	0.302987
1288.000000	0.302875
1289.000000	0.302885
1290.000000	0.302883
1291.000000	0.302922
1292.000000	0.303016
1293.000000	0.303079
1294.000000	0.303105
1295.000000	0.303165
1296.000000	0.303372
1297.000000	0.303508
1298.000000	0.303655
1299.000000	0.303835
1300.000000	0.303851
1301.000000	0.303792
1302.000000	0.303769
1303.000000	0.303849
1304.000000	0.303852
1305.000000	0.303958
1306.000000	0.303993
1307.000000	0.303978
1308.000000	0.303965
1309.000000	0.304005
1310.000000	0.303991
1311.000000	0.303959
1312.000000	0.303832
1313.000000	0.303829
1314.000000	0.303732
1315.000000	0.303688
1316.000000	0.303868
1317.000000	0.303949
1318.000000	0.303985
1319.000000	0.303884
1320.000000	0.303736
1321.000000	0.303607
1322.000000	0.303501
1323.000000	0.303647
1324.000000	0.303798
1325.000000	0.303829
1326.000000	0.303918
1327.000000	0.303862
1328.000000	0.303742
1329.000000	0.303673
1330.000000	0.303660
1331.000000	0.303644
1332.000000	0.303659
1333.000000	0.303715
1334.000000	0.303972
1335.000000	0.304006
1336.000000	0.303913
1337.000000	0.303910
1338.000000	0.303767
1339.000000	0.303608
1340.000000	0.303898
1341.000000	0.304033
1342.000000	0.303937
1343.000000	0.303846
1344.000000	0.303570
1345.000000	0.303415
1346.000000	0.303610
1347.000000	0.303709
1348.000000	0.303712
1349.000000	0.303628
1350.000000	0.303541
1351.000000	0.303482
1352.000000	0.303520
1353.000000	0.303576
1354.000000	0.303633
1355.000000	0.303647
1356.000000	0.303639
1357.000000	0.303618
1358.000000	0.303548
1359.000000	0.303541
1360.000000	0.303552
1361.000000	0.303627
1362.000000	0.303621
1363.000000	0.303571
1364.000000	0.303568
1365.000000	0.303540
1366.000000	0.303536
1367.000000	0.303603
1368.000000	0.303531
1369.000000	0.303524
1370.000000	0.303347
1371.000000	0.303086
1372.000000	0.302909
1373.000000	0.302752
1374.000000	0.302678
1375.000000	0.302550
1376.000000	0.302554
1377.000000	0.302668
1378.000000	0.302653
1379.000000	0.302353
1380.000000	0.302177
1381.000000	0.302078
1382.000000	0.301670
1383.000000	0.301500
1384.000000	0.301335
1385.000000	0.300843
1386.000000	0.300403
1387.000000	0.300076
1388.000000	0.299753
1389.000000	0.299380
1390.000000	0.298948
1391.000000	0.298480
1392.000000	0.297961
1393.000000	0.297448
1394.000000	0.297068
1395.000000	0.296586
1396.000000	0.295978
1397.000000	0.295378
1398.000000	0.294668
1399.000000	0.294052
1400.000000	0.293507
1401.000000	0.292932
1402.000000	0.292429
1403.000000	0.291810
1404.000000	0.291314
1405.000000	0.290849
1406.000000	0.290416
1407.000000	0.290076
1408.000000	0.289591
1409.000000	0.289182
1410.000000	0.288923
1411.000000	0.288672
1412.000000	0.288650
1413.000000	0.288678
1414.000000	0.288482
1415.000000	0.288338
1416.000000	0.288238
1417.000000	0.288177
1418.000000	0.288315
1419.000000	0.288510
1420.000000	0.288399
1421.000000	0.288202
1422.000000	0.288095
1423.000000	0.288211
1424.000000	0.288370
1425.000000	0.288535
1426.000000	0.288602
1427.000000	0.288525
1428.000000	0.288492
1429.000000	0.288639
1430.000000	0.288824
1431.000000	0.288878
1432.000000	0.288919
1433.000000	0.288945
1434.000000	0.288953
1435.000000	0.288990
1436.000000	0.289123
1437.000000	0.289218
1438.000000	0.289349
1439.000000	0.289618
1440.000000	0.289832
1441.000000	0.290083
1442.000000	0.290395
1443.000000	0.290675
1444.000000	0.290943
1445.000000	0.291241
1446.000000	0.291597
1447.000000	0.292048
1448.000000	0.292486
1449.000000	0.292994
1450.000000	0.293461
1451.000000	0.293756
1452.000000	0.294013
1453.000000	0.294270
1454.000000	0.294477
1455.000000	0.294750
1456.000000	0.295070
1457.000000	0.295320
1458.000000	0.295541
1459.000000	0.295752
1460.000000	0.295965
1461.000000	0.296138
1462.000000	0.296285
1463.000000	0.296440
1464.000000	0.296565
1465.000000	0.296757
1466.000000	0.296923
1467.000000	0.296987
1468.000000	0.297085
1469.000000	0.297254
1470.000000	0.297425
1471.000000	0.297597
1472.000000	0.297798
1473.000000	0.298119
1474.000000	0.298266
1475.000000	0.298491
1476.000000	0.298710
1477.000000	0.298758
1478.000000	0.298988
1479.000000	0.299153
1480.000000	0.299202
1481.000000	0.299252
1482.000000	0.299228
1483.000000	0.299340
1484.000000	0.299550
1485.000000	0.299722
1486.000000	0.299949
1487.000000	0.300113
1488.000000	0.300234
1489.000000	0.300425
1490.000000	0.300553
1491.000000	0.300690
1492.000000	0.300802
1493.000000	0.300814
1494.000000	0.300677
1495.000000	0.300677
1496.000000	0.300717
1497.000000	0.300757
1498.000000	0.300857
1499.000000	0.300928
1500.000000	0.301117
1501.000000	0.301175
1502.000000	0.301239
1503.000000	0.301416
1504.000000	0.301427
1505.000000	0.301533
1506.000000	0.301763
1507.000000	0.301838
1508.000000	0.301993
1509.000000	0.302095
1510.000000	0.302095
1511.000000	0.302173
1512.000000	0.302119
1513.000000	0.302033
1514.000000	0.302047
1515.000000	0.301994
1516.000000	0.302034
1517.000000	0.302110
1518.000000	0.302107
1519.000000	0.302070
1520.000000	0.302041
1521.000000	0.301990
1522.000000	0.301969
1523.000000	0.302109
1524.000000	0.302353
1525.000000	0.302427
1526.000000	0.302336
1527.000000	0.302327
1528.000000	0.302272
1529.000000	0.302154
1530.000000	0.302160
1531.000000	0.302241
1532.000000	0.302311
1533.000000	0.302364
1534.000000	0.302424
1535.000000	0.302541
1536.000000	0.302529
1537.000000	0.302541
1538.000000	0.302595
1539.000000	0.302556
1540.000000	0.302511
1541.000000	0.302515
1542.000000	0.302528
1543.000000	0.302503
1544.000000	0.302524
1545.000000	0.302621
1546.000000	0.302741
1547.000000	0.302896
1548.000000	0.303051
1549.000000	0.303121
1550.000000	0.303143
1551.000000	0.303194
1552.000000	0.303224
1553.000000	0.303324
1554.000000	0.303450
1555.000000	0.303535
1556.000000	0.303589
1557.000000	0.303488
1558.000000	0.303484
1559.000000	0.303422
1560.000000	0.303417
1561.000000	0.303548
1562.000000	0.303507
1563.000000	0.303431
1564.000000	0.303455
1565.000000	0.303371
1566.000000	0.303357
1567.000000	0.303593
1568.000000	0.303650
1569.000000	0.303713
1570.000000	0.303794
1571.000000	0.303842
1572.000000	0.303835
1573.000000	0.303818
1574.000000	0.303781
1575.000000	0.303693
1576.000000	0.303658
1577.000000	0.303563
1578.000000	0.303602
1579.000000	0.303845
1580.000000	0.303919
1581.000000	0.304120
1582.000000	0.304182
1583.000000	0.303988
1584.000000	0.303921
1585.000000	0.304006
1586.000000	0.304028
1587.000000	0.304010
1588.000000	0.304058
1589.000000	0.304121
1590.000000	0.304181
1591.000000	0.304316
1592.000000	0.304459
1593.000000	0.304697
1594.000000	0.304748
1595.000000	0.304787
1596.000000	0.304767
1597.000000	0.304570
1598.000000	0.304512
1599.000000	0.304583
1600.000000	0.304508
1601.000000	0.304436
1602.000000	0.304415
1603.000000	0.304415
1604.000000	0.304367
1605.000000	0.304414
1606.000000	0.304364
1607.000000	0.304174
1608.000000	0.304110
1609.000000	0.304162
1610.000000	0.304184
1611.000000	0.304336
1612.000000	0.304297
1613.000000	0.304252
1614.000000	0.304214
1615.000000	0.304098
1616.000000	0.304073
1617.000000	0.304046
1618.000000	0.304044
1619.000000	0.304158
1620.000000	0.304116
1621.000000	0.303962
1622.000000	0.304010
1623.000000	0.303982
1624.000000	0.303973
1625.000000	0.304077
1626.000000	0.304077
1627.000000	0.303940
1628.000000	0.303929
1629.000000	0.303993
1630.000000	0.304021
1631.000000	0.303932
1632.000000	0.303943
1633.000000	0.304075
1634.000000	0.304075
1635.000000	0.304156
1636.000000	0.304091
1637.000000	0.303848
1638.000000	0.303695
1639.000000	0.303527
1640.000000	0.303483
1641.000000	0.303635
1642.000000	0.303631
1643.000000	0.303715
1644.000000	0.303628
1645.000000	0.303321
1646.000000	0.303142
1647.000000	0.302943
1648.000000	0.302860
1649.000000	0.303033
1650.000000	0.303029
1651.000000	0.303005
1652.000000	0.303095
1653.000000	0.303113
1654.000000	0.303168
1655.000000	0.303342
1656.000000	0.303267
1657.000000	0.303081
1658.000000	0.302960
1659.000000	0.302856
1660.000000	0.302864
1661.000000	0.302852
1662.000000	0.302893
1663.000000	0.303043
1664.000000	0.303050
1665.000000	0.302973
1666.000000	0.303022
1667.000000	0.302947
1668.000000	0.303012
1669.000000	0.303254
1670.000000	0.303243
1671.000000	0.303250
1672.000000	0.303289
1673.000000	0.303193
1674.000000	0.303161
1675.000000	0.303240
1676.000000	0.303292
1677.000000	0.303212
1678.000000	0.303179
1679.000000	0.303275
1680.000000	0.303178
1681.000000	0.303063
1682.000000	0.302998
1683.000000	0.302845
1684.000000	0.302884
1685.000000	0.303143
1686.000000	0.303250
1687.000000	0.303296
1688.000000	0.303314
1689.000000	0.303243
1690.000000	0.303133
1691.000000	0.303145
1692.000000	0.302969
1693.000000	0.302750
1694.000000	0.302757
1695.000000	0.302798
1696.000000	0.302745
1697.000000	0.302685
1698.000000	0.302672
1699.000000	0.302567
1700.000000	0.302352
1701.000000	0.302355
1702.000000	0.302205
1703.000000	0.302066
1704.000000	0.302217
1705.000000	0.302230
1706.000000	0.302180
1707.000000	0.302090
1708.000000	0.301862
1709.000000	0.301716
1710.000000	0.301651
1711.000000	0.301598
1712.000000	0.301654
1713.000000	0.301689
1714.000000	0.301776
1715.000000	0.301798
1716.000000	0.301793
1717.000000	0.301833
1718.000000	0.301793
1719.000000	0.301799
1720.000000	0.302004
1721.000000	0.302040
1722.000000	0.301996
1723.000000	0.301942
1724.000000	0.301810
1725.000000	0.301757
1726.000000	0.301621
1727.000000	0.301559
1728.000000	0.301517
1729.000000	0.301390
1730.000000	0.301396
1731.000000	0.301314
1732.000000	0.301112
1733.000000	0.301149
1734.000000	0.301150
1735.000000	0.301186
1736.000000	0.301342
1737.000000	0.301374
1738.000000	0.301378
1739.000000	0.301325
1740.000000	0.301198
1741.000000	0.301113
1742.000000	0.300945
1743.000000	0.301020
1744.000000	0.301248
1745.000000	0.301264
1746.000000	0.301295
1747.000000	0.301249
1748.000000	0.301175
1749.000000	0.301134
1750.000000	0.301139
1751.000000	0.301296
1752.000000	0.301448
1753.000000	0.301597
1754.000000	0.301646
1755.000000	0.301425
1756.000000	0.301368
1757.000000	0.301421
1758.000000	0.301399
1759.000000	0.301433
1760.000000	0.301394
1761.000000	0.301112
1762.000000	0.301022
1763.000000	0.301082
1764.000000	0.301072
1765.000000	0.301130
1766.000000	0.301089
1767.000000	0.300809
1768.000000	0.300679
1769.000000	0.300698
1770.000000	0.300673
1771.000000	0.300661
1772.000000	0.300620
1773.000000	0.300438
1774.000000	0.300403
1775.000000	0.300542
1776.000000	0.300559
1777.000000	0.300558
1778.000000	0.300486
1779.000000	0.300298
1780.000000	0.300182
1781.000000	0.299974
1782.000000	0.300023
1783.000000	0.300308
1784.000000	0.300443
1785.000000	0.300352
1786.000000	0.300308
1787.000000	0.300236
1788.000000	0.300330
1789.000000	0.300507
1790.000000	0.300480
1791.000000	0.300335
1792.000000	0.300137
1793.000000	0.299964
1794.000000	0.299637
1795.000000	0.299546
1796.000000	0.299609
1797.000000	0.299619
1798.000000	0.299759
1799.000000	0.299809
1800.000000	0.299892
1801.000000	0.300241
1802.000000	0.299949
1803.000000	0.299271
1804.000000	0.299643
1805.000000	0.301121
1806.000000	0.301684
1807.000000	0.302888
1808.000000	0.303135
1809.000000	0.302799
1810.000000	0.301400
1811.000000	0.300820
1812.000000	0.299912
1813.000000	0.299737
1814.000000	0.300285
1815.000000	0.300300
1816.000000	0.300235
1817.000000	0.300333
1818.000000	0.300382
1819.000000	0.300692
1820.000000	0.300956
1821.000000	0.300877
1822.000000	0.301023
1823.000000	0.301009
1824.000000	0.300753
1825.000000	0.300332
1826.000000	0.300285
1827.000000	0.300154
1828.000000	0.299767
1829.000000	0.299748
1830.000000	0.299934
1831.000000	0.299723
1832.000000	0.298978
1833.000000	0.298920
1834.000000	0.299009
1835.000000	0.299139
1836.000000	0.299733
1837.000000	0.299878
1838.000000	0.299853
1839.000000	0.299371
1840.000000	0.299177
1841.000000	0.299237
1842.000000	0.299289
1843.000000	0.299969
1844.000000	0.299827
1845.000000	0.298884
1846.000000	0.298413
1847.000000	0.297411
1848.000000	0.296753
1849.000000	0.296844
1850.000000	0.297259
1851.000000	0.297463
1852.000000	0.297653
1853.000000	0.297797
1854.000000	0.298101
1855.000000	0.297880
1856.000000	0.296951
1857.000000	0.296707
1858.000000	0.297066
1859.000000	0.296462
1860.000000	0.296283
1861.000000	0.296479
1862.000000	0.296166
1863.000000	0.295261
1864.000000	0.294800
1865.000000	0.294667
1866.000000	0.294224
1867.000000	0.293462
1868.000000	0.292705
1869.000000	0.292752
1870.000000	0.292429
1871.000000	0.292407
1872.000000	0.292660
1873.000000	0.292604
1874.000000	0.292328
1875.000000	0.291931
1876.000000	0.291396
1877.000000	0.290267
1878.000000	0.288497
1879.000000	0.286947
1880.000000	0.286052
1881.000000	0.284923
1882.000000	0.283983
1883.000000	0.283510
1884.000000	0.282638
1885.000000	0.281296
1886.000000	0.279889
1887.000000	0.278707
1888.000000	0.276462
1889.000000	0.274158
1890.000000	0.271762
1891.000000	0.269411
1892.000000	0.267798
1893.000000	0.265882
1894.000000	0.263837
1895.000000	0.261463
1896.000000	0.259003
1897.000000	0.256247
1898.000000	0.253730
1899.000000	0.251647
1900.000000	0.250206
1901.000000	0.248840
1902.000000	0.247819
1903.000000	0.247441
1904.000000	0.247430
1905.000000	0.247842
1906.000000	0.248169
1907.000000	0.248783
1908.000000	0.249026
1909.000000	0.249308
1910.000000	0.250029
1911.000000	0.250309
1912.000000	0.250723
1913.000000	0.251810
1914.000000	0.252103
1915.000000	0.252110
1916.000000	0.252877
1917.000000	0.253747
1918.000000	0.254710
1919.000000	0.256102
1920.000000	0.257740
1921.000000	0.258797
1922.000000	0.259360
1923.000000	0.259957
1924.000000	0.260400
1925.000000	0.260967
1926.000000	0.261746
1927.000000	0.262020
1928.000000	0.262182
1929.000000	0.262143
1930.000000	0.262370
1931.000000	0.262813
1932.000000	0.263007
1933.000000	0.263535
1934.000000	0.264166
1935.000000	0.263943
1936.000000	0.264280
1937.000000	0.265118
1938.000000	0.265536
1939.000000	0.265803
1940.000000	0.266202
1941.000000	0.266164
1942.000000	0.265780
1943.000000	0.265332
1944.000000	0.264906
1945.000000	0.265023
1946.000000	0.264882
1947.000000	0.264869
1948.000000	0.265615
1949.000000	0.266422
1950.000000	0.267211
1951.000000	0.267587
1952.000000	0.268016
1953.000000	0.267654
1954.000000	0.267396
1955.000000	0.267740
1956.000000	0.267844
1957.000000	0.267994
1958.000000	0.267959
1959.000000	0.267520
1960.000000	0.267960
1961.000000	0.268845
1962.000000	0.269383
1963.000000	0.270007
1964.000000	0.271079
1965.000000	0.271335
1966.000000	0.270831
1967.000000	0.271618
1968.000000	0.272016
1969.000000	0.272008
1970.000000	0.272611
1971.000000	0.272357
1972.000000	0.271896
1973.000000	0.271558
1974.000000	0.271348
1975.000000	0.271333
1976.000000	0.271425
1977.000000	0.271576
1978.000000	0.271947
1979.000000	0.272395
1980.000000	0.272960
1981.000000	0.273365
1982.000000	0.274265
1983.000000	0.275000
1984.000000	0.275246
1985.000000	0.275396
1986.000000	0.275331
1987.000000	0.274749
1988.000000	0.274345
1989.000000	0.274111
1990.000000	0.274384
1991.000000	0.274913
1992.000000	0.275343
1993.000000	0.276320
1994.000000	0.277173
1995.000000	0.277027
1996.000000	0.276799
1997.000000	0.276664
1998.000000	0.275910
1999.000000	0.275809
2000.000000	0.276194
2001.000000	0.276503
2002.000000	0.277050
2003.000000	0.277645
2004.000000	0.277780
2005.000000	0.278455
2006.000000	0.279419
2007.000000	0.279392
2008.000000	0.279532
2009.000000	0.279840
2010.000000	0.280000
2011.000000	0.279425
2012.000000	0.279668
2013.000000	0.280495
2014.000000	0.280494
2015.000000	0.281171
2016.000000	0.281684
2017.000000	0.281650
2018.000000	0.281787
2019.000000	0.281553
2020.000000	0.281328
2021.000000	0.280973
2022.000000	0.280325
2023.000000	0.279915
2024.000000	0.279247
2025.000000	0.279251
2026.000000	0.279681
2027.000000	0.280088
2028.000000	0.280410
2029.000000	0.280372
2030.000000	0.279576
2031.000000	0.279305
2032.000000	0.279730
2033.000000	0.280304
2034.000000	0.280805
2035.000000	0.282079
2036.000000	0.282431
2037.000000	0.282343
2038.000000	0.282308
2039.000000	0.282098
2040.000000	0.281647
2041.000000	0.281800
2042.000000	0.282384
2043.000000	0.283035
2044.000000	0.284163
2045.000000	0.284745
2046.000000	0.284847
2047.000000	0.284780
2048.000000	0.284045
2049.000000	0.283938
2050.000000	0.283536
2051.000000	0.283302
2052.000000	0.283195
2053.000000	0.283131
2054.000000	0.283274
2055.000000	0.283472
2056.000000	0.283725
2057.000000	0.284499
2058.000000	0.285443
2059.000000	0.285549
2060.000000	0.285676
2061.000000	0.285796
2062.000000	0.285740
2063.000000	0.285476
2064.000000	0.285167
2065.000000	0.284819
2066.000000	0.284516
2067.000000	0.284283
2068.000000	0.284096
2069.000000	0.284406
2070.000000	0.285608
2071.000000	0.286400
2072.000000	0.286956
2073.000000	0.287281
2074.000000	0.287155
2075.000000	0.287231
2076.000000	0.287154
2077.000000	0.287338
2078.000000	0.287804
2079.000000	0.287873
2080.000000	0.287973
2081.000000	0.287935
2082.000000	0.287575
2083.000000	0.287308
2084.000000	0.287117
2085.000000	0.287126
2086.000000	0.287132
2087.000000	0.287136
2088.000000	0.287128
2089.000000	0.286917
2090.000000	0.286593
2091.000000	0.285924
2092.000000	0.285738
2093.000000	0.285433
2094.000000	0.285625
2095.000000	0.286897
2096.000000	0.287336
2097.000000	0.287530
2098.000000	0.287611
2099.000000	0.287282
2100.000000	0.286874
2101.000000	0.286968
2102.000000	0.287339
2103.000000	0.288276
2104.000000	0.288484
2105.000000	0.288675
2106.000000	0.289134
2107.000000	0.288842
2108.000000	0.287374
2109.000000	0.287188
2110.000000	0.286764
2111.000000	0.286765
2112.000000	0.287849
2113.000000	0.288368
2114.000000	0.287612
2115.000000	0.287412
2116.000000	0.287120
2117.000000	0.286883
2118.000000	0.287394
2119.000000	0.287747
2120.000000	0.287846
2121.000000	0.287499
2122.000000	0.287445
2123.000000	0.287418
2124.000000	0.287333
2125.000000	0.287343
2126.000000	0.287366
2127.000000	0.287031
2128.000000	0.287423
2129.000000	0.288442
2130.000000	0.289047
2131.000000	0.289205
2132.000000	0.289175
2133.000000	0.288935
2134.000000	0.287749
2135.000000	0.287443
2136.000000	0.287982
2137.000000	0.287708
2138.000000	0.287259
2139.000000	0.287041
2140.000000	0.286484
2141.000000	0.286035
2142.000000	0.285185
2143.000000	0.285206
2144.000000	0.286136
2145.000000	0.286596
2146.000000	0.287665
2147.000000	0.289217
2148.000000	0.288416
2149.000000	0.288102
2150.000000	0.288287
2151.000000	0.287462
2152.000000	0.287701
2153.000000	0.288162
2154.000000	0.288063
2155.000000	0.287850
2156.000000	0.287549
2157.000000	0.286412
2158.000000	0.286432
2159.000000	0.286920
2160.000000	0.287401
2161.000000	0.288976
2162.000000	0.289631
2163.000000	0.290066
2164.000000	0.289994
2165.000000	0.288774
2166.000000	0.288479
2167.000000	0.288290
2168.000000	0.287347
2169.000000	0.287780
2170.000000	0.288156
2171.000000	0.287970
2172.000000	0.287616
2173.000000	0.287195
2174.000000	0.285770
2175.000000	0.285665
2176.000000	0.286360
2177.000000	0.286899
2178.000000	0.288377
2179.000000	0.289118
2180.000000	0.289673
2181.000000	0.289676
2182.000000	0.288032
2183.000000	0.287733
2184.000000	0.287294
2185.000000	0.286458
2186.000000	0.285833
2187.000000	0.285174
2188.000000	0.284608
2189.000000	0.283974
2190.000000	0.283799
2191.000000	0.284749
2192.000000	0.284546
2193.000000	0.283787
2194.000000	0.282711
2195.000000	0.280296
2196.000000	0.279268
2197.000000	0.278177
2198.000000	0.277767
2199.000000	0.279931
2200.000000	0.280569
2201.000000	0.280381
2202.000000	0.280534
2203.000000	0.280734
2204.000000	0.278591
2205.000000	0.278299
2206.000000	0.280301
2207.000000	0.282161
2208.000000	0.284896
2209.000000	0.285612
2210.000000	0.284317
2211.000000	0.282331
2212.000000	0.280071
2213.000000	0.279042
2214.000000	0.279000
2215.000000	0.278452
2216.000000	0.278527
2217.000000	0.278944
2218.000000	0.278768
2219.000000	0.279822
2220.000000	0.282382
2221.000000	0.283289
2222.000000	0.283794
2223.000000	0.284790
2224.000000	0.285737
2225.000000	0.286601
2226.000000	0.284795
2227.000000	0.284699
2228.000000	0.283486
2229.000000	0.279487
2230.000000	0.279552
2231.000000	0.279920
2232.000000	0.279671
2233.000000	0.280699
2234.000000	0.277812
2235.000000	0.276158
2236.000000	0.276587
2237.000000	0.277518
2238.000000	0.278129
2239.000000	0.282157
2240.000000	0.282568
2241.000000	0.279604
2242.000000	0.279382
2243.000000	0.279850
2244.000000	0.279558
2245.000000	0.280171
2246.000000	0.280089
2247.000000	0.277487
2248.000000	0.277859
2249.000000	0.280888
2250.000000	0.281511
2251.000000	0.283239
2252.000000	0.283289
2253.000000	0.279262
2254.000000	0.274905
2255.000000	0.272063
2256.000000	0.270688
2257.000000	0.272685
2258.000000	0.275962
2259.000000	0.278287
2260.000000	0.280809
2261.000000	0.280997
2262.000000	0.279616
2263.000000	0.277518
2264.000000	0.271643
2265.000000	0.270654
2266.000000	0.271410
2267.000000	0.271803
2268.000000	0.276221
2269.000000	0.277105
2270.000000	0.274398
2271.000000	0.273723
2272.000000	0.273011
2273.000000	0.272809
2274.000000	0.273890
2275.000000	0.274396
2276.000000	0.275220
2277.000000	0.275319
2278.000000	0.272753
2279.000000	0.271118
2280.000000	0.267597
2281.000000	0.263249
2282.000000	0.263167
2283.000000	0.262369
2284.000000	0.263251
2285.000000	0.265674
2286.000000	0.266074
2287.000000	0.266340
2288.000000	0.265306
2289.000000	0.265074
2290.000000	0.265339
2291.000000	0.264615
2292.000000	0.264435
2293.000000	0.264016
2294.000000	0.263380
2295.000000	0.262016
2296.000000	0.261473
2297.000000	0.260751
2298.000000	0.261045
2299.000000	0.262437
2300.000000	0.262752
2301.000000	0.263894
2302.000000	0.263610
2303.000000	0.261193
2304.000000	0.260460
2305.000000	0.260330
2306.000000	0.259892
2307.000000	0.259554
2308.000000	0.259799
2309.000000	0.259480
2310.000000	0.259883
2311.000000	0.260826
2312.000000	0.262128
2313.000000	0.263718
2314.000000	0.263999
2315.000000	0.265314
2316.000000	0.266347
2317.000000	0.266912
2318.000000	0.270108
2319.000000	0.271522
2320.000000	0.270957
2321.000000	0.271857
2322.000000	0.269602
2323.000000	0.268337
2324.000000	0.270784
2325.000000	0.271952
2326.000000	0.272383
2327.000000	0.274860
2328.000000	0.276458
2329.000000	0.274836
2330.000000	0.275291
2331.000000	0.274765
2332.000000	0.271455
2333.000000	0.269833
2334.000000	0.269804
2335.000000	0.269760
2336.000000	0.268615
2337.000000	0.268638
2338.000000	0.270158
2339.000000	0.270317
2340.000000	0.271037
2341.000000	0.270888
2342.000000	0.269628
2343.000000	0.269679
2344.000000	0.269380
2345.000000	0.268777
2346.000000	0.269044
2347.000000	0.267968
2348.000000	0.266369
2349.000000	0.263088
2350.000000	0.259464
2351.000000	0.259479
2352.000000	0.257906
2353.000000	0.259025
2354.000000	0.262058
2355.000000	0.265006
2356.000000	0.268806
2357.000000	0.272808
2358.000000	0.277538
2359.000000	0.276011
2360.000000	0.271815
2361.000000	0.267777
2362.000000	0.259955
2363.000000	0.258283
2364.000000	0.257763
2365.000000	0.257050
2366.000000	0.261855
2367.000000	0.263643
2368.000000	0.265737
2369.000000	0.269660
2370.000000	0.271718
2371.000000	0.275345
2372.000000	0.277492
2373.000000	0.276809
2374.000000	0.272261
2375.000000	0.265044
2376.000000	0.261608
2377.000000	0.257995
2378.000000	0.258248
2379.000000	0.258178
2380.000000	0.254554
2381.000000	0.258841
2382.000000	0.260584
2383.000000	0.263388
2384.000000	0.269531
2385.000000	0.267152
2386.000000	0.262986
2387.000000	0.260058
2388.000000	0.252538
2389.000000	0.245528
2390.000000	0.239310
2391.000000	0.230128
2392.000000	0.230233
2393.000000	0.228600
2394.000000	0.229155
2395.000000	0.239616
2396.000000	0.241106
2397.000000	0.245563
2398.000000	0.250383
2399.000000	0.249050
2400.000000	0.248957
2401.000000	0.245954
2402.000000	0.246933
2403.000000	0.244901
2404.000000	0.243434
2405.000000	0.245657
2406.000000	0.238917
2407.000000	0.239339
2408.000000	0.241619
2409.000000	0.240334
2410.000000	0.245033
2411.000000	0.248107
2412.000000	0.254668
2413.000000	0.254339
2414.000000	0.247660
2415.000000	0.250013
2416.000000	0.242855
2417.000000	0.242738
2418.000000	0.256337
2419.000000	0.254894
2420.000000	0.259002
2421.000000	0.259917
2422.000000	0.246249
2423.000000	0.239561
2424.000000	0.231339
2425.000000	0.224921
2426.000000	0.221712
2427.000000	0.224200
2428.000000	0.227569
2429.000000	0.231312
2430.000000	0.247550
2431.000000	0.254291
2432.000000	0.258087
2433.000000	0.261710
2434.000000	0.250635
2435.000000	0.247947
2436.000000	0.243309
2437.000000	0.234359
2438.000000	0.233994
2439.000000	0.221166
2440.000000	0.214280
2441.000000	0.219178
2442.000000	0.222345
2443.000000	0.236474
2444.000000	0.249159
2445.000000	0.251376
2446.000000	0.253850
2447.000000	0.249319
2448.000000	0.234058
2449.000000	0.225568
2450.000000	0.225130
2451.000000	0.226113
2452.000000	0.247860
2453.000000	0.269684
2454.000000	0.270502
2455.000000	0.276646
2456.000000	0.263985
2457.000000	0.242021
2458.000000	0.233093
2459.000000	0.224362
2460.000000	0.237187
2461.000000	0.249165
2462.000000	0.242038
2463.000000	0.233024
2464.000000	0.217024
2465.000000	0.200742
2466.000000	0.213145
2467.000000	0.233829
2468.000000	0.241382
2469.000000	0.253142
2470.000000	0.248302
2471.000000	0.220494
2472.000000	0.204050
2473.000000	0.188971
2474.000000	0.180516
2475.000000	0.192152
2476.000000	0.193287
2477.000000	0.199056
2478.000000	0.208017
2479.000000	0.220280
2480.000000	0.241859
2481.000000	0.254894
2482.000000	0.280023
2483.000000	0.289195
2484.000000	0.295089
2485.000000	0.295117
2486.000000	0.277358
2487.000000	0.322711
2488.000000	0.344268
2489.000000	0.344918
2490.000000	0.391724
2491.000000	0.358087
2492.000000	0.330773
2493.000000	0.321151
2494.000000	0.304235
2495.000000	0.262333
2496.000000	0.234464
2497.000000	0.214307
2498.000000	0.203944
2499.000000	0.202659
2500.000000	0.201158
