# Wavelength	NAu-1-10_HEX-60_FV7-30_00002.asd.rts.txt
350.000000	0.230095
351.000000	0.225118
352.000000	0.221472
353.000000	0.228167
354.000000	0.242926
355.000000	0.232898
356.000000	0.235038
357.000000	0.246486
358.000000	0.234387
359.000000	0.225281
360.000000	0.221239
361.000000	0.218666
362.000000	0.227467
363.000000	0.234584
364.000000	0.231685
365.000000	0.223666
366.000000	0.224082
367.000000	0.230533
368.000000	0.227213
369.000000	0.225439
370.000000	0.227551
371.000000	0.232537
372.000000	0.233371
373.000000	0.233029
374.000000	0.234725
375.000000	0.238421
376.000000	0.237030
377.000000	0.232169
378.000000	0.234252
379.000000	0.236600
380.000000	0.236162
381.000000	0.233001
382.000000	0.237836
383.000000	0.240787
384.000000	0.236865
385.000000	0.239116
386.000000	0.240795
387.000000	0.240668
388.000000	0.242978
389.000000	0.244916
390.000000	0.245859
391.000000	0.245719
392.000000	0.245464
393.000000	0.246553
394.000000	0.249060
395.000000	0.248644
396.000000	0.248466
397.000000	0.249516
398.000000	0.250087
399.000000	0.250607
400.000000	0.251703
401.000000	0.253870
402.000000	0.254766
403.000000	0.255178
404.000000	0.256055
405.000000	0.255600
406.000000	0.255589
407.000000	0.256571
408.000000	0.256829
409.000000	0.257024
410.000000	0.257664
411.000000	0.259183
412.000000	0.259980
413.000000	0.260376
414.000000	0.261040
415.000000	0.261605
416.000000	0.262155
417.000000	0.262696
418.000000	0.262947
419.000000	0.263272
420.000000	0.263812
421.000000	0.264551
422.000000	0.264643
423.000000	0.264599
424.000000	0.265258
425.000000	0.264968
426.000000	0.264879
427.000000	0.265693
428.000000	0.265766
429.000000	0.266020
430.000000	0.266656
431.000000	0.266876
432.000000	0.267385
433.000000	0.267864
434.000000	0.267703
435.000000	0.267497
436.000000	0.267607
437.000000	0.268116
438.000000	0.268309
439.000000	0.268273
440.000000	0.268281
441.000000	0.268560
442.000000	0.268775
443.000000	0.268740
444.000000	0.268533
445.000000	0.268743
446.000000	0.269130
447.000000	0.269137
448.000000	0.269521
449.000000	0.270116
450.000000	0.270764
451.000000	0.271549
452.000000	0.272558
453.000000	0.273513
454.000000	0.273872
455.000000	0.274785
456.000000	0.276053
457.000000	0.276776
458.000000	0.277774
459.000000	0.278984
460.000000	0.280185
461.000000	0.280825
462.000000	0.281567
463.000000	0.282480
464.000000	0.283127
465.000000	0.283606
466.000000	0.283973
467.000000	0.284449
468.000000	0.284876
469.000000	0.285154
470.000000	0.285419
471.000000	0.285797
472.000000	0.286284
473.000000	0.286846
474.000000	0.287312
475.000000	0.287529
476.000000	0.287777
477.000000	0.288472
478.000000	0.288844
479.000000	0.289137
480.000000	0.289567
481.000000	0.289722
482.000000	0.289939
483.000000	0.290329
484.000000	0.290990
485.000000	0.291278
486.000000	0.291327
487.000000	0.292105
488.000000	0.292655
489.000000	0.292859
490.000000	0.293089
491.000000	0.293592
492.000000	0.294113
493.000000	0.294206
494.000000	0.294627
495.000000	0.295117
496.000000	0.295441
497.000000	0.295961
498.000000	0.296444
499.000000	0.296874
500.000000	0.297276
501.000000	0.297645
502.000000	0.298069
503.000000	0.298563
504.000000	0.298863
505.000000	0.299128
506.000000	0.299555
507.000000	0.300076
508.000000	0.300590
509.000000	0.301016
510.000000	0.301458
511.000000	0.301904
512.000000	0.302400
513.000000	0.302983
514.000000	0.303352
515.000000	0.303696
516.000000	0.304252
517.000000	0.304866
518.000000	0.305428
519.000000	0.305826
520.000000	0.306372
521.000000	0.306908
522.000000	0.307392
523.000000	0.307927
524.000000	0.308518
525.000000	0.309078
526.000000	0.309518
527.000000	0.310021
528.000000	0.310528
529.000000	0.311013
530.000000	0.311543
531.000000	0.312123
532.000000	0.312643
533.000000	0.313125
534.000000	0.313645
535.000000	0.314194
536.000000	0.314716
537.000000	0.315232
538.000000	0.315765
539.000000	0.316318
540.000000	0.316820
541.000000	0.317267
542.000000	0.317726
543.000000	0.318275
544.000000	0.318872
545.000000	0.319405
546.000000	0.319906
547.000000	0.320398
548.000000	0.320921
549.000000	0.321417
550.000000	0.321933
551.000000	0.322493
552.000000	0.323045
553.000000	0.323573
554.000000	0.324059
555.000000	0.324542
556.000000	0.325214
557.000000	0.325733
558.000000	0.326169
559.000000	0.326710
560.000000	0.327205
561.000000	0.327696
562.000000	0.328132
563.000000	0.328615
564.000000	0.329147
565.000000	0.329590
566.000000	0.330064
567.000000	0.330584
568.000000	0.331090
569.000000	0.331441
570.000000	0.331835
571.000000	0.332300
572.000000	0.332755
573.000000	0.333213
574.000000	0.333633
575.000000	0.334037
576.000000	0.334504
577.000000	0.334892
578.000000	0.335198
579.000000	0.335662
580.000000	0.336173
581.000000	0.336625
582.000000	0.336915
583.000000	0.337208
584.000000	0.337535
585.000000	0.337860
586.000000	0.338165
587.000000	0.338449
588.000000	0.338723
589.000000	0.339017
590.000000	0.339303
591.000000	0.339579
592.000000	0.339941
593.000000	0.340274
594.000000	0.340522
595.000000	0.340692
596.000000	0.340902
597.000000	0.341195
598.000000	0.341456
599.000000	0.341599
600.000000	0.341786
601.000000	0.342056
602.000000	0.342286
603.000000	0.342464
604.000000	0.342637
605.000000	0.342935
606.000000	0.343146
607.000000	0.343285
608.000000	0.343502
609.000000	0.343790
610.000000	0.344053
611.000000	0.344195
612.000000	0.344290
613.000000	0.344495
614.000000	0.344849
615.000000	0.344896
616.000000	0.344928
617.000000	0.345034
618.000000	0.345240
619.000000	0.345394
620.000000	0.345422
621.000000	0.345383
622.000000	0.345465
623.000000	0.345571
624.000000	0.345611
625.000000	0.345748
626.000000	0.345844
627.000000	0.345871
628.000000	0.345984
629.000000	0.346188
630.000000	0.346326
631.000000	0.346476
632.000000	0.346640
633.000000	0.346781
634.000000	0.346877
635.000000	0.347165
636.000000	0.347494
637.000000	0.347723
638.000000	0.347846
639.000000	0.347988
640.000000	0.348224
641.000000	0.348398
642.000000	0.348544
643.000000	0.348682
644.000000	0.348842
645.000000	0.349062
646.000000	0.349256
647.000000	0.349353
648.000000	0.349518
649.000000	0.349680
650.000000	0.349828
651.000000	0.350114
652.000000	0.350303
653.000000	0.350442
654.000000	0.350601
655.000000	0.350770
656.000000	0.351003
657.000000	0.351265
658.000000	0.351505
659.000000	0.351690
660.000000	0.351822
661.000000	0.352031
662.000000	0.352227
663.000000	0.352429
664.000000	0.352590
665.000000	0.352810
666.000000	0.353022
667.000000	0.353132
668.000000	0.353396
669.000000	0.353645
670.000000	0.353811
671.000000	0.354096
672.000000	0.354360
673.000000	0.354579
674.000000	0.354840
675.000000	0.355000
676.000000	0.355137
677.000000	0.355396
678.000000	0.355708
679.000000	0.355987
680.000000	0.356198
681.000000	0.356383
682.000000	0.356600
683.000000	0.356782
684.000000	0.357005
685.000000	0.357135
686.000000	0.357298
687.000000	0.357612
688.000000	0.357829
689.000000	0.358029
690.000000	0.358327
691.000000	0.358620
692.000000	0.358879
693.000000	0.359161
694.000000	0.359425
695.000000	0.359645
696.000000	0.359852
697.000000	0.360097
698.000000	0.360332
699.000000	0.360610
700.000000	0.360958
701.000000	0.361230
702.000000	0.361478
703.000000	0.361703
704.000000	0.361902
705.000000	0.362127
706.000000	0.362332
707.000000	0.362546
708.000000	0.362785
709.000000	0.363051
710.000000	0.363348
711.000000	0.363582
712.000000	0.363791
713.000000	0.364023
714.000000	0.364272
715.000000	0.364532
716.000000	0.364780
717.000000	0.364961
718.000000	0.365158
719.000000	0.365374
720.000000	0.365605
721.000000	0.365798
722.000000	0.365972
723.000000	0.366191
724.000000	0.366344
725.000000	0.366574
726.000000	0.366895
727.000000	0.367077
728.000000	0.367295
729.000000	0.367521
730.000000	0.367655
731.000000	0.367770
732.000000	0.367935
733.000000	0.368199
734.000000	0.368452
735.000000	0.368676
736.000000	0.368944
737.000000	0.369067
738.000000	0.369114
739.000000	0.369232
740.000000	0.369334
741.000000	0.369567
742.000000	0.369756
743.000000	0.369859
744.000000	0.370082
745.000000	0.370252
746.000000	0.370380
747.000000	0.370426
748.000000	0.370552
749.000000	0.370710
750.000000	0.370831
751.000000	0.371024
752.000000	0.371187
753.000000	0.371320
754.000000	0.371478
755.000000	0.371644
756.000000	0.371767
757.000000	0.371756
758.000000	0.371803
759.000000	0.371925
760.000000	0.372028
761.000000	0.372159
762.000000	0.372179
763.000000	0.372156
764.000000	0.372368
765.000000	0.372417
766.000000	0.372452
767.000000	0.372636
768.000000	0.372730
769.000000	0.372815
770.000000	0.372929
771.000000	0.373009
772.000000	0.373096
773.000000	0.373132
774.000000	0.373188
775.000000	0.373244
776.000000	0.373319
777.000000	0.373394
778.000000	0.373430
779.000000	0.373420
780.000000	0.373395
781.000000	0.373391
782.000000	0.373473
783.000000	0.373617
784.000000	0.373594
785.000000	0.373673
786.000000	0.373691
787.000000	0.373590
788.000000	0.373574
789.000000	0.373609
790.000000	0.373646
791.000000	0.373676
792.000000	0.373679
793.000000	0.373662
794.000000	0.373647
795.000000	0.373657
796.000000	0.373624
797.000000	0.373532
798.000000	0.373425
799.000000	0.373403
800.000000	0.373394
801.000000	0.373319
802.000000	0.373358
803.000000	0.373411
804.000000	0.373454
805.000000	0.373498
806.000000	0.373425
807.000000	0.373327
808.000000	0.373218
809.000000	0.373153
810.000000	0.373164
811.000000	0.373203
812.000000	0.373068
813.000000	0.372955
814.000000	0.372912
815.000000	0.372878
816.000000	0.372828
817.000000	0.372776
818.000000	0.372636
819.000000	0.372444
820.000000	0.372298
821.000000	0.372170
822.000000	0.372035
823.000000	0.372083
824.000000	0.372109
825.000000	0.371962
826.000000	0.371952
827.000000	0.371924
828.000000	0.371835
829.000000	0.371774
830.000000	0.371771
831.000000	0.371818
832.000000	0.371684
833.000000	0.371585
834.000000	0.371488
835.000000	0.371396
836.000000	0.371350
837.000000	0.371358
838.000000	0.371361
839.000000	0.371202
840.000000	0.371153
841.000000	0.371122
842.000000	0.370953
843.000000	0.370839
844.000000	0.370764
845.000000	0.370693
846.000000	0.370679
847.000000	0.370619
848.000000	0.370542
849.000000	0.370527
850.000000	0.370454
851.000000	0.370326
852.000000	0.370207
853.000000	0.370099
854.000000	0.369940
855.000000	0.369856
856.000000	0.369781
857.000000	0.369666
858.000000	0.369651
859.000000	0.369662
860.000000	0.369544
861.000000	0.369480
862.000000	0.369460
863.000000	0.369328
864.000000	0.369228
865.000000	0.369098
866.000000	0.368929
867.000000	0.368727
868.000000	0.368579
869.000000	0.368401
870.000000	0.368188
871.000000	0.368016
872.000000	0.367901
873.000000	0.367789
874.000000	0.367789
875.000000	0.367638
876.000000	0.367404
877.000000	0.367201
878.000000	0.366912
879.000000	0.366787
880.000000	0.366730
881.000000	0.366512
882.000000	0.366301
883.000000	0.366123
884.000000	0.365884
885.000000	0.365701
886.000000	0.365557
887.000000	0.365462
888.000000	0.365396
889.000000	0.365350
890.000000	0.365123
891.000000	0.364777
892.000000	0.364617
893.000000	0.364519
894.000000	0.364480
895.000000	0.364275
896.000000	0.364031
897.000000	0.363797
898.000000	0.363589
899.000000	0.363333
900.000000	0.363101
901.000000	0.362897
902.000000	0.362780
903.000000	0.362672
904.000000	0.362614
905.000000	0.362544
906.000000	0.362554
907.000000	0.362340
908.000000	0.361982
909.000000	0.361763
910.000000	0.361659
911.000000	0.361604
912.000000	0.361516
913.000000	0.361232
914.000000	0.360797
915.000000	0.360468
916.000000	0.360436
917.000000	0.360338
918.000000	0.360154
919.000000	0.359920
920.000000	0.359752
921.000000	0.359577
922.000000	0.359378
923.000000	0.359155
924.000000	0.359114
925.000000	0.358974
926.000000	0.358697
927.000000	0.358630
928.000000	0.358371
929.000000	0.358011
930.000000	0.357754
931.000000	0.357386
932.000000	0.357077
933.000000	0.356987
934.000000	0.357096
935.000000	0.357007
936.000000	0.356829
937.000000	0.356632
938.000000	0.356518
939.000000	0.356303
940.000000	0.356005
941.000000	0.355924
942.000000	0.355716
943.000000	0.355454
944.000000	0.355087
945.000000	0.354732
946.000000	0.354481
947.000000	0.354348
948.000000	0.354201
949.000000	0.353903
950.000000	0.353641
951.000000	0.353439
952.000000	0.353292
953.000000	0.353253
954.000000	0.353140
955.000000	0.352770
956.000000	0.352382
957.000000	0.352231
958.000000	0.352116
959.000000	0.351847
960.000000	0.351721
961.000000	0.351585
962.000000	0.351384
963.000000	0.351278
964.000000	0.350894
965.000000	0.350631
966.000000	0.350621
967.000000	0.350348
968.000000	0.349953
969.000000	0.349552
970.000000	0.349356
971.000000	0.349011
972.000000	0.349093
973.000000	0.349459
974.000000	0.349261
975.000000	0.348977
976.000000	0.348773
977.000000	0.348667
978.000000	0.348482
979.000000	0.348259
980.000000	0.347954
981.000000	0.347989
982.000000	0.347900
983.000000	0.347798
984.000000	0.347740
985.000000	0.347527
986.000000	0.347554
987.000000	0.347593
988.000000	0.347339
989.000000	0.347075
990.000000	0.346903
991.000000	0.346858
992.000000	0.346918
993.000000	0.346725
994.000000	0.346589
995.000000	0.346561
996.000000	0.346116
997.000000	0.346230
998.000000	0.346273
999.000000	0.345983
1000.000000	0.345644
1001.000000	0.345636
1002.000000	0.345939
1003.000000	0.346326
1004.000000	0.346266
1005.000000	0.345675
1006.000000	0.345378
1007.000000	0.344844
1008.000000	0.344915
1009.000000	0.345223
1010.000000	0.345534
1011.000000	0.345479
1012.000000	0.345254
1013.000000	0.344723
1014.000000	0.343960
1015.000000	0.343875
1016.000000	0.343730
1017.000000	0.343353
1018.000000	0.343917
1019.000000	0.344501
1020.000000	0.345982
1021.000000	0.345845
1022.000000	0.345311
1023.000000	0.345125
1024.000000	0.344158
1025.000000	0.342835
1026.000000	0.343094
1027.000000	0.343780
1028.000000	0.343939
1029.000000	0.344474
1030.000000	0.345032
1031.000000	0.344870
1032.000000	0.344563
1033.000000	0.344984
1034.000000	0.345119
1035.000000	0.345130
1036.000000	0.345156
1037.000000	0.345224
1038.000000	0.345107
1039.000000	0.344936
1040.000000	0.344833
1041.000000	0.344880
1042.000000	0.345302
1043.000000	0.345508
1044.000000	0.346216
1045.000000	0.347018
1046.000000	0.346674
1047.000000	0.346729
1048.000000	0.346666
1049.000000	0.346728
1050.000000	0.346671
1051.000000	0.346990
1052.000000	0.347500
1053.000000	0.347791
1054.000000	0.348697
1055.000000	0.349131
1056.000000	0.349356
1057.000000	0.349306
1058.000000	0.349233
1059.000000	0.348817
1060.000000	0.349051
1061.000000	0.349558
1062.000000	0.349856
1063.000000	0.350409
1064.000000	0.350917
1065.000000	0.351408
1066.000000	0.351588
1067.000000	0.351713
1068.000000	0.351801
1069.000000	0.351242
1070.000000	0.351274
1071.000000	0.352038
1072.000000	0.352255
1073.000000	0.352327
1074.000000	0.352558
1075.000000	0.352737
1076.000000	0.352683
1077.000000	0.352346
1078.000000	0.352420
1079.000000	0.352762
1080.000000	0.353196
1081.000000	0.353596
1082.000000	0.354865
1083.000000	0.355136
1084.000000	0.354530
1085.000000	0.354680
1086.000000	0.354833
1087.000000	0.355052
1088.000000	0.355725
1089.000000	0.356000
1090.000000	0.355895
1091.000000	0.355781
1092.000000	0.356070
1093.000000	0.356407
1094.000000	0.356743
1095.000000	0.357275
1096.000000	0.357644
1097.000000	0.357852
1098.000000	0.358210
1099.000000	0.358661
1100.000000	0.358938
1101.000000	0.358977
1102.000000	0.359247
1103.000000	0.359623
1104.000000	0.359841
1105.000000	0.359953
1106.000000	0.360310
1107.000000	0.360683
1108.000000	0.360878
1109.000000	0.361248
1110.000000	0.361648
1111.000000	0.361910
1112.000000	0.361910
1113.000000	0.362062
1114.000000	0.362335
1115.000000	0.362524
1116.000000	0.362674
1117.000000	0.362738
1118.000000	0.362637
1119.000000	0.362740
1120.000000	0.362756
1121.000000	0.362979
1122.000000	0.363740
1123.000000	0.364343
1124.000000	0.364712
1125.000000	0.365028
1126.000000	0.365089
1127.000000	0.365157
1128.000000	0.365187
1129.000000	0.365127
1130.000000	0.365326
1131.000000	0.365680
1132.000000	0.365843
1133.000000	0.366118
1134.000000	0.366370
1135.000000	0.366519
1136.000000	0.366553
1137.000000	0.366597
1138.000000	0.366563
1139.000000	0.366352
1140.000000	0.366381
1141.000000	0.366446
1142.000000	0.366580
1143.000000	0.366861
1144.000000	0.367076
1145.000000	0.367016
1146.000000	0.367035
1147.000000	0.367029
1148.000000	0.366764
1149.000000	0.366733
1150.000000	0.366802
1151.000000	0.367007
1152.000000	0.367243
1153.000000	0.367517
1154.000000	0.368037
1155.000000	0.368198
1156.000000	0.368161
1157.000000	0.368215
1158.000000	0.368140
1159.000000	0.368027
1160.000000	0.367877
1161.000000	0.367751
1162.000000	0.367587
1163.000000	0.367605
1164.000000	0.367486
1165.000000	0.367541
1166.000000	0.367617
1167.000000	0.367660
1168.000000	0.367675
1169.000000	0.367782
1170.000000	0.367905
1171.000000	0.368086
1172.000000	0.368191
1173.000000	0.368292
1174.000000	0.368339
1175.000000	0.368212
1176.000000	0.368144
1177.000000	0.368266
1178.000000	0.368252
1179.000000	0.368077
1180.000000	0.367970
1181.000000	0.367930
1182.000000	0.367948
1183.000000	0.367929
1184.000000	0.367951
1185.000000	0.367956
1186.000000	0.367862
1187.000000	0.367865
1188.000000	0.367985
1189.000000	0.367945
1190.000000	0.367858
1191.000000	0.367859
1192.000000	0.367982
1193.000000	0.368144
1194.000000	0.368315
1195.000000	0.368343
1196.000000	0.368107
1197.000000	0.368072
1198.000000	0.368083
1199.000000	0.368118
1200.000000	0.368299
1201.000000	0.368412
1202.000000	0.368363
1203.000000	0.368302
1204.000000	0.368235
1205.000000	0.368206
1206.000000	0.368184
1207.000000	0.368363
1208.000000	0.368378
1209.000000	0.368428
1210.000000	0.368384
1211.000000	0.368160
1212.000000	0.368144
1213.000000	0.368249
1214.000000	0.368332
1215.000000	0.368601
1216.000000	0.368656
1217.000000	0.368491
1218.000000	0.368400
1219.000000	0.368258
1220.000000	0.368232
1221.000000	0.368296
1222.000000	0.368201
1223.000000	0.368268
1224.000000	0.368325
1225.000000	0.368217
1226.000000	0.368295
1227.000000	0.368320
1228.000000	0.368333
1229.000000	0.368339
1230.000000	0.368404
1231.000000	0.368340
1232.000000	0.368305
1233.000000	0.368411
1234.000000	0.368522
1235.000000	0.368568
1236.000000	0.368604
1237.000000	0.368613
1238.000000	0.368399
1239.000000	0.368370
1240.000000	0.368477
1241.000000	0.368467
1242.000000	0.368460
1243.000000	0.368505
1244.000000	0.368430
1245.000000	0.368519
1246.000000	0.368564
1247.000000	0.368659
1248.000000	0.368936
1249.000000	0.369032
1250.000000	0.369068
1251.000000	0.369193
1252.000000	0.369180
1253.000000	0.368998
1254.000000	0.368957
1255.000000	0.368934
1256.000000	0.368945
1257.000000	0.369051
1258.000000	0.369145
1259.000000	0.369157
1260.000000	0.369223
1261.000000	0.369284
1262.000000	0.369319
1263.000000	0.369373
1264.000000	0.369385
1265.000000	0.369462
1266.000000	0.369329
1267.000000	0.369187
1268.000000	0.369385
1269.000000	0.369537
1270.000000	0.369611
1271.000000	0.369643
1272.000000	0.369589
1273.000000	0.369567
1274.000000	0.369555
1275.000000	0.369496
1276.000000	0.369516
1277.000000	0.369520
1278.000000	0.369342
1279.000000	0.369246
1280.000000	0.369098
1281.000000	0.368959
1282.000000	0.368865
1283.000000	0.368876
1284.000000	0.368944
1285.000000	0.368950
1286.000000	0.368921
1287.000000	0.368836
1288.000000	0.368943
1289.000000	0.369021
1290.000000	0.368922
1291.000000	0.368941
1292.000000	0.369003
1293.000000	0.368794
1294.000000	0.368757
1295.000000	0.368941
1296.000000	0.368846
1297.000000	0.368711
1298.000000	0.368636
1299.000000	0.368523
1300.000000	0.368465
1301.000000	0.368390
1302.000000	0.368310
1303.000000	0.368463
1304.000000	0.368371
1305.000000	0.368205
1306.000000	0.368133
1307.000000	0.368116
1308.000000	0.368052
1309.000000	0.368014
1310.000000	0.368039
1311.000000	0.368078
1312.000000	0.368075
1313.000000	0.368055
1314.000000	0.367944
1315.000000	0.367815
1316.000000	0.367692
1317.000000	0.367624
1318.000000	0.367596
1319.000000	0.367562
1320.000000	0.367318
1321.000000	0.367111
1322.000000	0.367137
1323.000000	0.367088
1324.000000	0.367072
1325.000000	0.367016
1326.000000	0.366922
1327.000000	0.366774
1328.000000	0.366654
1329.000000	0.366425
1330.000000	0.366084
1331.000000	0.365828
1332.000000	0.365656
1333.000000	0.365452
1334.000000	0.365351
1335.000000	0.365263
1336.000000	0.365117
1337.000000	0.364970
1338.000000	0.364832
1339.000000	0.364614
1340.000000	0.364296
1341.000000	0.364166
1342.000000	0.363992
1343.000000	0.363885
1344.000000	0.363821
1345.000000	0.363610
1346.000000	0.363530
1347.000000	0.363249
1348.000000	0.363053
1349.000000	0.362831
1350.000000	0.362541
1351.000000	0.362448
1352.000000	0.362324
1353.000000	0.362137
1354.000000	0.362078
1355.000000	0.361963
1356.000000	0.361820
1357.000000	0.361460
1358.000000	0.361028
1359.000000	0.360716
1360.000000	0.360497
1361.000000	0.360563
1362.000000	0.360440
1363.000000	0.360294
1364.000000	0.360040
1365.000000	0.359528
1366.000000	0.359233
1367.000000	0.358997
1368.000000	0.358756
1369.000000	0.358708
1370.000000	0.358521
1371.000000	0.358160
1372.000000	0.357872
1373.000000	0.357533
1374.000000	0.357170
1375.000000	0.356890
1376.000000	0.356718
1377.000000	0.356643
1378.000000	0.356555
1379.000000	0.356321
1380.000000	0.356140
1381.000000	0.355720
1382.000000	0.355103
1383.000000	0.354704
1384.000000	0.354064
1385.000000	0.353422
1386.000000	0.353142
1387.000000	0.352786
1388.000000	0.352326
1389.000000	0.351802
1390.000000	0.351162
1391.000000	0.350395
1392.000000	0.349744
1393.000000	0.349125
1394.000000	0.348667
1395.000000	0.348053
1396.000000	0.347453
1397.000000	0.346697
1398.000000	0.345742
1399.000000	0.344829
1400.000000	0.343860
1401.000000	0.342848
1402.000000	0.341863
1403.000000	0.340819
1404.000000	0.339737
1405.000000	0.338598
1406.000000	0.337441
1407.000000	0.336413
1408.000000	0.335206
1409.000000	0.334083
1410.000000	0.333117
1411.000000	0.331819
1412.000000	0.330617
1413.000000	0.329582
1414.000000	0.328350
1415.000000	0.327292
1416.000000	0.326256
1417.000000	0.325064
1418.000000	0.323890
1419.000000	0.322781
1420.000000	0.321614
1421.000000	0.320630
1422.000000	0.319648
1423.000000	0.318603
1424.000000	0.317530
1425.000000	0.316516
1426.000000	0.315422
1427.000000	0.314276
1428.000000	0.313298
1429.000000	0.312341
1430.000000	0.311419
1431.000000	0.310692
1432.000000	0.309868
1433.000000	0.308988
1434.000000	0.308186
1435.000000	0.307492
1436.000000	0.306819
1437.000000	0.306173
1438.000000	0.305564
1439.000000	0.305042
1440.000000	0.304527
1441.000000	0.304124
1442.000000	0.303680
1443.000000	0.303188
1444.000000	0.302587
1445.000000	0.302128
1446.000000	0.301685
1447.000000	0.301245
1448.000000	0.301025
1449.000000	0.300769
1450.000000	0.300427
1451.000000	0.300206
1452.000000	0.299786
1453.000000	0.299234
1454.000000	0.298731
1455.000000	0.298303
1456.000000	0.298142
1457.000000	0.298072
1458.000000	0.298001
1459.000000	0.297897
1460.000000	0.297645
1461.000000	0.297325
1462.000000	0.297041
1463.000000	0.296821
1464.000000	0.296607
1465.000000	0.296431
1466.000000	0.296362
1467.000000	0.296238
1468.000000	0.296078
1469.000000	0.296142
1470.000000	0.296103
1471.000000	0.296067
1472.000000	0.296137
1473.000000	0.296152
1474.000000	0.296184
1475.000000	0.296280
1476.000000	0.296353
1477.000000	0.296567
1478.000000	0.296862
1479.000000	0.297219
1480.000000	0.297694
1481.000000	0.298019
1482.000000	0.298273
1483.000000	0.298641
1484.000000	0.298976
1485.000000	0.299341
1486.000000	0.299792
1487.000000	0.300233
1488.000000	0.300706
1489.000000	0.301159
1490.000000	0.301513
1491.000000	0.301924
1492.000000	0.302251
1493.000000	0.302608
1494.000000	0.302997
1495.000000	0.303351
1496.000000	0.303669
1497.000000	0.304014
1498.000000	0.304399
1499.000000	0.304703
1500.000000	0.305004
1501.000000	0.305288
1502.000000	0.305584
1503.000000	0.305964
1504.000000	0.306326
1505.000000	0.306613
1506.000000	0.306827
1507.000000	0.307087
1508.000000	0.307482
1509.000000	0.307852
1510.000000	0.308189
1511.000000	0.308458
1512.000000	0.308585
1513.000000	0.308749
1514.000000	0.308946
1515.000000	0.309047
1516.000000	0.309195
1517.000000	0.309281
1518.000000	0.309329
1519.000000	0.309436
1520.000000	0.309655
1521.000000	0.309835
1522.000000	0.310016
1523.000000	0.310257
1524.000000	0.310292
1525.000000	0.310220
1526.000000	0.310231
1527.000000	0.310287
1528.000000	0.310434
1529.000000	0.310707
1530.000000	0.310863
1531.000000	0.310954
1532.000000	0.311099
1533.000000	0.311199
1534.000000	0.311287
1535.000000	0.311410
1536.000000	0.311419
1537.000000	0.311417
1538.000000	0.311476
1539.000000	0.311546
1540.000000	0.311626
1541.000000	0.311749
1542.000000	0.311799
1543.000000	0.311861
1544.000000	0.311967
1545.000000	0.312015
1546.000000	0.312162
1547.000000	0.312286
1548.000000	0.312304
1549.000000	0.312267
1550.000000	0.312143
1551.000000	0.312160
1552.000000	0.312223
1553.000000	0.312207
1554.000000	0.312218
1555.000000	0.312205
1556.000000	0.312203
1557.000000	0.312167
1558.000000	0.312208
1559.000000	0.312289
1560.000000	0.312281
1561.000000	0.312303
1562.000000	0.312321
1563.000000	0.312356
1564.000000	0.312348
1565.000000	0.312272
1566.000000	0.312206
1567.000000	0.312235
1568.000000	0.312174
1569.000000	0.312185
1570.000000	0.312214
1571.000000	0.312167
1572.000000	0.312147
1573.000000	0.312193
1574.000000	0.312156
1575.000000	0.312085
1576.000000	0.312065
1577.000000	0.312042
1578.000000	0.312041
1579.000000	0.312099
1580.000000	0.312104
1581.000000	0.312175
1582.000000	0.312225
1583.000000	0.312253
1584.000000	0.312228
1585.000000	0.312242
1586.000000	0.312318
1587.000000	0.312425
1588.000000	0.312449
1589.000000	0.312515
1590.000000	0.312490
1591.000000	0.312321
1592.000000	0.312310
1593.000000	0.312390
1594.000000	0.312450
1595.000000	0.312650
1596.000000	0.312725
1597.000000	0.312776
1598.000000	0.312749
1599.000000	0.312650
1600.000000	0.312565
1601.000000	0.312465
1602.000000	0.312497
1603.000000	0.312686
1604.000000	0.312691
1605.000000	0.312763
1606.000000	0.312708
1607.000000	0.312449
1608.000000	0.312396
1609.000000	0.312452
1610.000000	0.312467
1611.000000	0.312594
1612.000000	0.312690
1613.000000	0.312879
1614.000000	0.312959
1615.000000	0.313050
1616.000000	0.313161
1617.000000	0.313151
1618.000000	0.313193
1619.000000	0.313251
1620.000000	0.313378
1621.000000	0.313559
1622.000000	0.313788
1623.000000	0.314108
1624.000000	0.314308
1625.000000	0.314296
1626.000000	0.314347
1627.000000	0.314395
1628.000000	0.314502
1629.000000	0.314588
1630.000000	0.314821
1631.000000	0.315136
1632.000000	0.315309
1633.000000	0.315550
1634.000000	0.315703
1635.000000	0.315687
1636.000000	0.315810
1637.000000	0.316021
1638.000000	0.316228
1639.000000	0.316565
1640.000000	0.316748
1641.000000	0.316923
1642.000000	0.317170
1643.000000	0.317379
1644.000000	0.317650
1645.000000	0.318104
1646.000000	0.318254
1647.000000	0.318228
1648.000000	0.318387
1649.000000	0.318617
1650.000000	0.318816
1651.000000	0.319193
1652.000000	0.319403
1653.000000	0.319344
1654.000000	0.319553
1655.000000	0.319846
1656.000000	0.319955
1657.000000	0.320145
1658.000000	0.320287
1659.000000	0.320412
1660.000000	0.320528
1661.000000	0.320573
1662.000000	0.320737
1663.000000	0.320853
1664.000000	0.321017
1665.000000	0.321306
1666.000000	0.321578
1667.000000	0.321685
1668.000000	0.321949
1669.000000	0.322313
1670.000000	0.322619
1671.000000	0.323131
1672.000000	0.323321
1673.000000	0.323287
1674.000000	0.323374
1675.000000	0.323558
1676.000000	0.323854
1677.000000	0.324177
1678.000000	0.324187
1679.000000	0.324193
1680.000000	0.324307
1681.000000	0.324344
1682.000000	0.324614
1683.000000	0.324929
1684.000000	0.325073
1685.000000	0.325237
1686.000000	0.325230
1687.000000	0.325162
1688.000000	0.325108
1689.000000	0.325147
1690.000000	0.325170
1691.000000	0.325279
1692.000000	0.325477
1693.000000	0.325611
1694.000000	0.325736
1695.000000	0.325898
1696.000000	0.325970
1697.000000	0.326035
1698.000000	0.326169
1699.000000	0.326350
1700.000000	0.326633
1701.000000	0.326823
1702.000000	0.326744
1703.000000	0.326759
1704.000000	0.326768
1705.000000	0.326834
1706.000000	0.327196
1707.000000	0.327302
1708.000000	0.327128
1709.000000	0.327098
1710.000000	0.327128
1711.000000	0.327170
1712.000000	0.327395
1713.000000	0.327502
1714.000000	0.327462
1715.000000	0.327615
1716.000000	0.327856
1717.000000	0.328118
1718.000000	0.328570
1719.000000	0.328774
1720.000000	0.328946
1721.000000	0.329040
1722.000000	0.328908
1723.000000	0.328960
1724.000000	0.329075
1725.000000	0.329228
1726.000000	0.329418
1727.000000	0.329514
1728.000000	0.329518
1729.000000	0.329504
1730.000000	0.329545
1731.000000	0.329597
1732.000000	0.329679
1733.000000	0.329832
1734.000000	0.329836
1735.000000	0.329999
1736.000000	0.330307
1737.000000	0.330376
1738.000000	0.330413
1739.000000	0.330480
1740.000000	0.330413
1741.000000	0.330357
1742.000000	0.330371
1743.000000	0.330420
1744.000000	0.330347
1745.000000	0.330420
1746.000000	0.330636
1747.000000	0.330871
1748.000000	0.330897
1749.000000	0.330686
1750.000000	0.330665
1751.000000	0.330804
1752.000000	0.330959
1753.000000	0.331164
1754.000000	0.331332
1755.000000	0.331311
1756.000000	0.331350
1757.000000	0.331439
1758.000000	0.331585
1759.000000	0.331716
1760.000000	0.331888
1761.000000	0.332112
1762.000000	0.332322
1763.000000	0.332634
1764.000000	0.332790
1765.000000	0.332837
1766.000000	0.332887
1767.000000	0.332648
1768.000000	0.332636
1769.000000	0.332907
1770.000000	0.333044
1771.000000	0.333255
1772.000000	0.333226
1773.000000	0.332838
1774.000000	0.332785
1775.000000	0.332743
1776.000000	0.332954
1777.000000	0.333610
1778.000000	0.333648
1779.000000	0.333426
1780.000000	0.333465
1781.000000	0.333195
1782.000000	0.333291
1783.000000	0.333847
1784.000000	0.334110
1785.000000	0.334304
1786.000000	0.334416
1787.000000	0.334586
1788.000000	0.334892
1789.000000	0.334968
1790.000000	0.335209
1791.000000	0.335353
1792.000000	0.335306
1793.000000	0.335471
1794.000000	0.335929
1795.000000	0.336140
1796.000000	0.336317
1797.000000	0.336422
1798.000000	0.336246
1799.000000	0.336233
1800.000000	0.336401
1801.000000	0.336846
1802.000000	0.336758
1803.000000	0.335276
1804.000000	0.334981
1805.000000	0.335496
1806.000000	0.335641
1807.000000	0.335498
1808.000000	0.335710
1809.000000	0.336000
1810.000000	0.336562
1811.000000	0.337277
1812.000000	0.338814
1813.000000	0.338887
1814.000000	0.338429
1815.000000	0.338137
1816.000000	0.337002
1817.000000	0.336133
1818.000000	0.335107
1819.000000	0.335009
1820.000000	0.335479
1821.000000	0.335515
1822.000000	0.335815
1823.000000	0.337116
1824.000000	0.337411
1825.000000	0.336976
1826.000000	0.336774
1827.000000	0.336248
1828.000000	0.335756
1829.000000	0.335568
1830.000000	0.335445
1831.000000	0.336010
1832.000000	0.337625
1833.000000	0.338116
1834.000000	0.339090
1835.000000	0.339043
1836.000000	0.337363
1837.000000	0.336795
1838.000000	0.336412
1839.000000	0.335471
1840.000000	0.335203
1841.000000	0.334486
1842.000000	0.334172
1843.000000	0.333623
1844.000000	0.333621
1845.000000	0.334611
1846.000000	0.334693
1847.000000	0.334289
1848.000000	0.333835
1849.000000	0.333284
1850.000000	0.332377
1851.000000	0.331698
1852.000000	0.330842
1853.000000	0.330368
1854.000000	0.329885
1855.000000	0.329443
1856.000000	0.328931
1857.000000	0.329406
1858.000000	0.329112
1859.000000	0.328377
1860.000000	0.327466
1861.000000	0.326432
1862.000000	0.325249
1863.000000	0.323509
1864.000000	0.322333
1865.000000	0.321364
1866.000000	0.320199
1867.000000	0.319024
1868.000000	0.318198
1869.000000	0.316963
1870.000000	0.316167
1871.000000	0.314818
1872.000000	0.313048
1873.000000	0.311214
1874.000000	0.308569
1875.000000	0.306559
1876.000000	0.304384
1877.000000	0.302605
1878.000000	0.300798
1879.000000	0.298906
1880.000000	0.297655
1881.000000	0.296039
1882.000000	0.293472
1883.000000	0.290868
1884.000000	0.288027
1885.000000	0.283795
1886.000000	0.280253
1887.000000	0.276863
1888.000000	0.273759
1889.000000	0.270587
1890.000000	0.267719
1891.000000	0.264218
1892.000000	0.260559
1893.000000	0.257353
1894.000000	0.253897
1895.000000	0.250383
1896.000000	0.247452
1897.000000	0.244186
1898.000000	0.239978
1899.000000	0.236391
1900.000000	0.232935
1901.000000	0.229499
1902.000000	0.225984
1903.000000	0.222222
1904.000000	0.218551
1905.000000	0.214881
1906.000000	0.211442
1907.000000	0.208342
1908.000000	0.205125
1909.000000	0.202272
1910.000000	0.199693
1911.000000	0.196865
1912.000000	0.194929
1913.000000	0.192858
1914.000000	0.190347
1915.000000	0.188138
1916.000000	0.186055
1917.000000	0.184098
1918.000000	0.182304
1919.000000	0.180612
1920.000000	0.179268
1921.000000	0.178034
1922.000000	0.177155
1923.000000	0.177010
1924.000000	0.176139
1925.000000	0.175038
1926.000000	0.174026
1927.000000	0.173113
1928.000000	0.172861
1929.000000	0.173604
1930.000000	0.174248
1931.000000	0.174246
1932.000000	0.174476
1933.000000	0.173932
1934.000000	0.173317
1935.000000	0.173344
1936.000000	0.172848
1937.000000	0.172565
1938.000000	0.172692
1939.000000	0.172668
1940.000000	0.172651
1941.000000	0.172925
1942.000000	0.172752
1943.000000	0.171899
1944.000000	0.170974
1945.000000	0.170187
1946.000000	0.169969
1947.000000	0.169628
1948.000000	0.169634
1949.000000	0.169965
1950.000000	0.169355
1951.000000	0.168790
1952.000000	0.168435
1953.000000	0.167786
1954.000000	0.166688
1955.000000	0.165982
1956.000000	0.164957
1957.000000	0.164484
1958.000000	0.164130
1959.000000	0.163804
1960.000000	0.164178
1961.000000	0.164465
1962.000000	0.164627
1963.000000	0.164798
1964.000000	0.164994
1965.000000	0.165068
1966.000000	0.164845
1967.000000	0.164815
1968.000000	0.164806
1969.000000	0.164498
1970.000000	0.164422
1971.000000	0.163863
1972.000000	0.163375
1973.000000	0.163131
1974.000000	0.162818
1975.000000	0.162992
1976.000000	0.163794
1977.000000	0.164344
1978.000000	0.164648
1979.000000	0.165748
1980.000000	0.166453
1981.000000	0.167018
1982.000000	0.167718
1983.000000	0.168070
1984.000000	0.168530
1985.000000	0.168972
1986.000000	0.169185
1987.000000	0.169461
1988.000000	0.169579
1989.000000	0.169347
1990.000000	0.169428
1991.000000	0.169928
1992.000000	0.170784
1993.000000	0.172057
1994.000000	0.173547
1995.000000	0.174005
1996.000000	0.174387
1997.000000	0.174883
1998.000000	0.174740
1999.000000	0.175009
2000.000000	0.175870
2001.000000	0.176257
2002.000000	0.176507
2003.000000	0.177384
2004.000000	0.178152
2005.000000	0.179344
2006.000000	0.180959
2007.000000	0.182317
2008.000000	0.183504
2009.000000	0.184944
2010.000000	0.186093
2011.000000	0.186677
2012.000000	0.187360
2013.000000	0.188141
2014.000000	0.188020
2015.000000	0.188766
2016.000000	0.190021
2017.000000	0.191109
2018.000000	0.192790
2019.000000	0.194183
2020.000000	0.195026
2021.000000	0.196019
2022.000000	0.197055
2023.000000	0.197948
2024.000000	0.198694
2025.000000	0.199624
2026.000000	0.200419
2027.000000	0.201300
2028.000000	0.202688
2029.000000	0.203599
2030.000000	0.204416
2031.000000	0.205419
2032.000000	0.205839
2033.000000	0.206309
2034.000000	0.206725
2035.000000	0.206806
2036.000000	0.207383
2037.000000	0.208439
2038.000000	0.209255
2039.000000	0.210126
2040.000000	0.211424
2041.000000	0.212665
2042.000000	0.213649
2043.000000	0.215096
2044.000000	0.216180
2045.000000	0.216878
2046.000000	0.217503
2047.000000	0.218053
2048.000000	0.218370
2049.000000	0.219062
2050.000000	0.219312
2051.000000	0.220056
2052.000000	0.221077
2053.000000	0.221998
2054.000000	0.223292
2055.000000	0.224898
2056.000000	0.225702
2057.000000	0.226760
2058.000000	0.227840
2059.000000	0.228165
2060.000000	0.228628
2061.000000	0.228905
2062.000000	0.229475
2063.000000	0.230083
2064.000000	0.230615
2065.000000	0.231879
2066.000000	0.232374
2067.000000	0.232407
2068.000000	0.232669
2069.000000	0.233119
2070.000000	0.233906
2071.000000	0.234424
2072.000000	0.235046
2073.000000	0.236058
2074.000000	0.236085
2075.000000	0.236814
2076.000000	0.238376
2077.000000	0.239241
2078.000000	0.239553
2079.000000	0.240530
2080.000000	0.241710
2081.000000	0.242725
2082.000000	0.244099
2083.000000	0.245417
2084.000000	0.246127
2085.000000	0.246589
2086.000000	0.246473
2087.000000	0.246799
2088.000000	0.247061
2089.000000	0.247009
2090.000000	0.247556
2091.000000	0.248510
2092.000000	0.249529
2093.000000	0.251200
2094.000000	0.252290
2095.000000	0.253561
2096.000000	0.254244
2097.000000	0.254363
2098.000000	0.254238
2099.000000	0.253894
2100.000000	0.253700
2101.000000	0.253861
2102.000000	0.254256
2103.000000	0.255202
2104.000000	0.256239
2105.000000	0.257203
2106.000000	0.258412
2107.000000	0.259370
2108.000000	0.260067
2109.000000	0.260959
2110.000000	0.261995
2111.000000	0.262555
2112.000000	0.262703
2113.000000	0.262980
2114.000000	0.263212
2115.000000	0.263164
2116.000000	0.263802
2117.000000	0.264744
2118.000000	0.264667
2119.000000	0.264317
2120.000000	0.264565
2121.000000	0.264395
2122.000000	0.264932
2123.000000	0.266848
2124.000000	0.267609
2125.000000	0.267917
2126.000000	0.268330
2127.000000	0.268286
2128.000000	0.268525
2129.000000	0.268787
2130.000000	0.269248
2131.000000	0.269888
2132.000000	0.270375
2133.000000	0.271230
2134.000000	0.272486
2135.000000	0.271973
2136.000000	0.271576
2137.000000	0.271442
2138.000000	0.270590
2139.000000	0.270461
2140.000000	0.271275
2141.000000	0.271570
2142.000000	0.271684
2143.000000	0.271695
2144.000000	0.271838
2145.000000	0.272055
2146.000000	0.272236
2147.000000	0.272712
2148.000000	0.273260
2149.000000	0.273635
2150.000000	0.274155
2151.000000	0.274513
2152.000000	0.273298
2153.000000	0.272742
2154.000000	0.272784
2155.000000	0.272563
2156.000000	0.272811
2157.000000	0.274687
2158.000000	0.275139
2159.000000	0.274878
2160.000000	0.274929
2161.000000	0.274638
2162.000000	0.274681
2163.000000	0.275018
2164.000000	0.274841
2165.000000	0.274460
2166.000000	0.274017
2167.000000	0.273406
2168.000000	0.272770
2169.000000	0.273165
2170.000000	0.273460
2171.000000	0.273891
2172.000000	0.275006
2173.000000	0.275244
2174.000000	0.275090
2175.000000	0.275129
2176.000000	0.274634
2177.000000	0.274539
2178.000000	0.275110
2179.000000	0.275064
2180.000000	0.274200
2181.000000	0.274395
2182.000000	0.274631
2183.000000	0.274410
2184.000000	0.274676
2185.000000	0.275090
2186.000000	0.273872
2187.000000	0.273102
2188.000000	0.273281
2189.000000	0.273436
2190.000000	0.274012
2191.000000	0.275454
2192.000000	0.275562
2193.000000	0.274242
2194.000000	0.274223
2195.000000	0.274496
2196.000000	0.274122
2197.000000	0.274176
2198.000000	0.273988
2199.000000	0.272253
2200.000000	0.272253
2201.000000	0.273721
2202.000000	0.274802
2203.000000	0.276941
2204.000000	0.277919
2205.000000	0.278259
2206.000000	0.278635
2207.000000	0.277152
2208.000000	0.276981
2209.000000	0.276547
2210.000000	0.275592
2211.000000	0.275453
2212.000000	0.275716
2213.000000	0.276152
2214.000000	0.277014
2215.000000	0.277381
2216.000000	0.278452
2217.000000	0.278204
2218.000000	0.277072
2219.000000	0.276318
2220.000000	0.274191
2221.000000	0.273602
2222.000000	0.273479
2223.000000	0.273921
2224.000000	0.275452
2225.000000	0.276787
2226.000000	0.279523
2227.000000	0.281375
2228.000000	0.280967
2229.000000	0.281167
2230.000000	0.280951
2231.000000	0.280296
2232.000000	0.279954
2233.000000	0.279944
2234.000000	0.279344
2235.000000	0.278207
2236.000000	0.276833
2237.000000	0.275539
2238.000000	0.274722
2239.000000	0.272255
2240.000000	0.272507
2241.000000	0.275192
2242.000000	0.276247
2243.000000	0.277824
2244.000000	0.279362
2245.000000	0.280763
2246.000000	0.282138
2247.000000	0.283874
2248.000000	0.285110
2249.000000	0.286408
2250.000000	0.285312
2251.000000	0.285863
2252.000000	0.287543
2253.000000	0.288272
2254.000000	0.290013
2255.000000	0.288536
2256.000000	0.284312
2257.000000	0.281724
2258.000000	0.276722
2259.000000	0.273930
2260.000000	0.274303
2261.000000	0.273886
2262.000000	0.274629
2263.000000	0.274941
2264.000000	0.275863
2265.000000	0.275051
2266.000000	0.272471
2267.000000	0.271207
2268.000000	0.269712
2269.000000	0.269360
2270.000000	0.271206
2271.000000	0.271084
2272.000000	0.269505
2273.000000	0.269074
2274.000000	0.267708
2275.000000	0.266739
2276.000000	0.266571
2277.000000	0.267641
2278.000000	0.266590
2279.000000	0.269266
2280.000000	0.270753
2281.000000	0.268966
2282.000000	0.267495
2283.000000	0.266258
2284.000000	0.264046
2285.000000	0.263459
2286.000000	0.263142
2287.000000	0.259996
2288.000000	0.259142
2289.000000	0.258780
2290.000000	0.257254
2291.000000	0.258554
2292.000000	0.259878
2293.000000	0.260008
2294.000000	0.261135
2295.000000	0.263450
2296.000000	0.263743
2297.000000	0.263216
2298.000000	0.263041
2299.000000	0.261907
2300.000000	0.261111
2301.000000	0.262015
2302.000000	0.261163
2303.000000	0.257880
2304.000000	0.255614
2305.000000	0.252387
2306.000000	0.250741
2307.000000	0.249633
2308.000000	0.250515
2309.000000	0.252442
2310.000000	0.253220
2311.000000	0.253197
2312.000000	0.254325
2313.000000	0.254267
2314.000000	0.253416
2315.000000	0.252698
2316.000000	0.250705
2317.000000	0.248088
2318.000000	0.244466
2319.000000	0.241792
2320.000000	0.240352
2321.000000	0.240434
2322.000000	0.243719
2323.000000	0.244252
2324.000000	0.242908
2325.000000	0.240961
2326.000000	0.236683
2327.000000	0.235446
2328.000000	0.236319
2329.000000	0.236601
2330.000000	0.236035
2331.000000	0.233718
2332.000000	0.231341
2333.000000	0.231912
2334.000000	0.233870
2335.000000	0.233929
2336.000000	0.234858
2337.000000	0.233146
2338.000000	0.226759
2339.000000	0.223701
2340.000000	0.220934
2341.000000	0.219344
2342.000000	0.219871
2343.000000	0.220056
2344.000000	0.220697
2345.000000	0.221474
2346.000000	0.223453
2347.000000	0.224100
2348.000000	0.224512
2349.000000	0.223769
2350.000000	0.222469
2351.000000	0.218442
2352.000000	0.216513
2353.000000	0.216240
2354.000000	0.212298
2355.000000	0.209000
2356.000000	0.204989
2357.000000	0.199841
2358.000000	0.198585
2359.000000	0.200096
2360.000000	0.201539
2361.000000	0.201262
2362.000000	0.200045
2363.000000	0.199281
2364.000000	0.197394
2365.000000	0.196153
2366.000000	0.195670
2367.000000	0.195236
2368.000000	0.195422
2369.000000	0.195517
2370.000000	0.196784
2371.000000	0.197889
2372.000000	0.198196
2373.000000	0.199054
2374.000000	0.195299
2375.000000	0.190929
2376.000000	0.191162
2377.000000	0.188846
2378.000000	0.189995
2379.000000	0.190669
2380.000000	0.186543
2381.000000	0.188216
2382.000000	0.188971
2383.000000	0.187454
2384.000000	0.186685
2385.000000	0.184014
2386.000000	0.180806
2387.000000	0.182756
2388.000000	0.185709
2389.000000	0.181413
2390.000000	0.177188
2391.000000	0.171143
2392.000000	0.166057
2393.000000	0.166945
2394.000000	0.167298
2395.000000	0.170859
2396.000000	0.171124
2397.000000	0.169818
2398.000000	0.176332
2399.000000	0.177433
2400.000000	0.174118
2401.000000	0.176098
2402.000000	0.177016
2403.000000	0.178198
2404.000000	0.187619
2405.000000	0.191974
2406.000000	0.183508
2407.000000	0.175502
2408.000000	0.166370
2409.000000	0.155636
2410.000000	0.151305
2411.000000	0.150277
2412.000000	0.151207
2413.000000	0.156231
2414.000000	0.159235
2415.000000	0.152313
2416.000000	0.147785
2417.000000	0.150954
2418.000000	0.153055
2419.000000	0.160839
2420.000000	0.168083
2421.000000	0.158637
2422.000000	0.150911
2423.000000	0.147506
2424.000000	0.134089
2425.000000	0.128321
2426.000000	0.130743
2427.000000	0.130645
2428.000000	0.134491
2429.000000	0.142616
2430.000000	0.146110
2431.000000	0.145683
2432.000000	0.147472
2433.000000	0.146337
2434.000000	0.138636
2435.000000	0.136991
2436.000000	0.141442
2437.000000	0.147166
2438.000000	0.160788
2439.000000	0.177099
2440.000000	0.184199
2441.000000	0.176107
2442.000000	0.163774
2443.000000	0.157492
2444.000000	0.151668
2445.000000	0.163053
2446.000000	0.176656
2447.000000	0.163296
2448.000000	0.157478
2449.000000	0.155448
2450.000000	0.155625
2451.000000	0.164691
2452.000000	0.159612
2453.000000	0.153189
2454.000000	0.143389
2455.000000	0.141618
2456.000000	0.152114
2457.000000	0.166222
2458.000000	0.179337
2459.000000	0.174617
2460.000000	0.171873
2461.000000	0.161067
2462.000000	0.143371
2463.000000	0.142850
2464.000000	0.146510
2465.000000	0.145107
2466.000000	0.149706
2467.000000	0.163903
2468.000000	0.172062
2469.000000	0.179098
2470.000000	0.191838
2471.000000	0.188470
2472.000000	0.182331
2473.000000	0.174146
2474.000000	0.150289
2475.000000	0.143109
2476.000000	0.118693
2477.000000	0.081587
2478.000000	0.078273
2479.000000	0.083248
2480.000000	0.113416
2481.000000	0.155688
2482.000000	0.159844
2483.000000	0.150547
2484.000000	0.119593
2485.000000	0.083712
2486.000000	0.105572
2487.000000	0.146504
2488.000000	0.173399
2489.000000	0.173438
2490.000000	0.152142
2491.000000	0.088944
2492.000000	0.062805
2493.000000	0.098701
2494.000000	0.095743
2495.000000	0.072616
2496.000000	0.050989
2497.000000	-0.018408
2498.000000	-0.018076
2499.000000	0.037093
2500.000000	0.064838
