# Wavelength	Nau-2_40_FV7_60_00000.asd.rts.txt
350.000000	0.142837
351.000000	0.148055
352.000000	0.134997
353.000000	0.134349
354.000000	0.152861
355.000000	0.146640
356.000000	0.139929
357.000000	0.134586
358.000000	0.115518
359.000000	0.122260
360.000000	0.139662
361.000000	0.142852
362.000000	0.136116
363.000000	0.135331
364.000000	0.144806
365.000000	0.140259
366.000000	0.138853
367.000000	0.141377
368.000000	0.135055
369.000000	0.137641
370.000000	0.143326
371.000000	0.141042
372.000000	0.134779
373.000000	0.133969
374.000000	0.141829
375.000000	0.145344
376.000000	0.143482
377.000000	0.139468
378.000000	0.141231
379.000000	0.140235
380.000000	0.139541
381.000000	0.144617
382.000000	0.144264
383.000000	0.142677
384.000000	0.143295
385.000000	0.141253
386.000000	0.143705
387.000000	0.149054
388.000000	0.145686
389.000000	0.144594
390.000000	0.145733
391.000000	0.145562
392.000000	0.147936
393.000000	0.148789
394.000000	0.145850
395.000000	0.145329
396.000000	0.145791
397.000000	0.146722
398.000000	0.149614
399.000000	0.149189
400.000000	0.146981
401.000000	0.147244
402.000000	0.148304
403.000000	0.149161
404.000000	0.149360
405.000000	0.149669
406.000000	0.150149
407.000000	0.150622
408.000000	0.150380
409.000000	0.150338
410.000000	0.150719
411.000000	0.151337
412.000000	0.151314
413.000000	0.151489
414.000000	0.152632
415.000000	0.152633
416.000000	0.152429
417.000000	0.152778
418.000000	0.153764
419.000000	0.154039
420.000000	0.153571
421.000000	0.153409
422.000000	0.153913
423.000000	0.154753
424.000000	0.155372
425.000000	0.155334
426.000000	0.155480
427.000000	0.156199
428.000000	0.155979
429.000000	0.156232
430.000000	0.157149
431.000000	0.157283
432.000000	0.157440
433.000000	0.157645
434.000000	0.157705
435.000000	0.157865
436.000000	0.158292
437.000000	0.158893
438.000000	0.158529
439.000000	0.158355
440.000000	0.158953
441.000000	0.159491
442.000000	0.160011
443.000000	0.160341
444.000000	0.160296
445.000000	0.160017
446.000000	0.160324
447.000000	0.161714
448.000000	0.161987
449.000000	0.161797
450.000000	0.161899
451.000000	0.162455
452.000000	0.163076
453.000000	0.163549
454.000000	0.163972
455.000000	0.164362
456.000000	0.164680
457.000000	0.164780
458.000000	0.165158
459.000000	0.165540
460.000000	0.165708
461.000000	0.166100
462.000000	0.166429
463.000000	0.166597
464.000000	0.167311
465.000000	0.167616
466.000000	0.167555
467.000000	0.167887
468.000000	0.168118
469.000000	0.168210
470.000000	0.168385
471.000000	0.168929
472.000000	0.169440
473.000000	0.169659
474.000000	0.169718
475.000000	0.169910
476.000000	0.170344
477.000000	0.170715
478.000000	0.170801
479.000000	0.170953
480.000000	0.171493
481.000000	0.171866
482.000000	0.172302
483.000000	0.172835
484.000000	0.172955
485.000000	0.172867
486.000000	0.172920
487.000000	0.173336
488.000000	0.173783
489.000000	0.174107
490.000000	0.174231
491.000000	0.174544
492.000000	0.174855
493.000000	0.174813
494.000000	0.174981
495.000000	0.175158
496.000000	0.175183
497.000000	0.175348
498.000000	0.175567
499.000000	0.175790
500.000000	0.175850
501.000000	0.176011
502.000000	0.176299
503.000000	0.176567
504.000000	0.176737
505.000000	0.176928
506.000000	0.177243
507.000000	0.177443
508.000000	0.177714
509.000000	0.178099
510.000000	0.178415
511.000000	0.178686
512.000000	0.178959
513.000000	0.179271
514.000000	0.179698
515.000000	0.180171
516.000000	0.180542
517.000000	0.180902
518.000000	0.181299
519.000000	0.181689
520.000000	0.182055
521.000000	0.182354
522.000000	0.182654
523.000000	0.183218
524.000000	0.183768
525.000000	0.184281
526.000000	0.184892
527.000000	0.185621
528.000000	0.186372
529.000000	0.187106
530.000000	0.188038
531.000000	0.188941
532.000000	0.189674
533.000000	0.190628
534.000000	0.191608
535.000000	0.192537
536.000000	0.193466
537.000000	0.194383
538.000000	0.195319
539.000000	0.196299
540.000000	0.197196
541.000000	0.197981
542.000000	0.198713
543.000000	0.199572
544.000000	0.200423
545.000000	0.201162
546.000000	0.201913
547.000000	0.202661
548.000000	0.203443
549.000000	0.204259
550.000000	0.205187
551.000000	0.206213
552.000000	0.207240
553.000000	0.208208
554.000000	0.209232
555.000000	0.210395
556.000000	0.211629
557.000000	0.212839
558.000000	0.214064
559.000000	0.215226
560.000000	0.216393
561.000000	0.217620
562.000000	0.218830
563.000000	0.219994
564.000000	0.221139
565.000000	0.222220
566.000000	0.223296
567.000000	0.224346
568.000000	0.225323
569.000000	0.226197
570.000000	0.227008
571.000000	0.227759
572.000000	0.228454
573.000000	0.229068
574.000000	0.229620
575.000000	0.230175
576.000000	0.230629
577.000000	0.230958
578.000000	0.231229
579.000000	0.231532
580.000000	0.231842
581.000000	0.232127
582.000000	0.232361
583.000000	0.232535
584.000000	0.232687
585.000000	0.232881
586.000000	0.232914
587.000000	0.232852
588.000000	0.232808
589.000000	0.232739
590.000000	0.232659
591.000000	0.232575
592.000000	0.232483
593.000000	0.232345
594.000000	0.232154
595.000000	0.231931
596.000000	0.231699
597.000000	0.231473
598.000000	0.231189
599.000000	0.230889
600.000000	0.230636
601.000000	0.230398
602.000000	0.230109
603.000000	0.229779
604.000000	0.229439
605.000000	0.229152
606.000000	0.228800
607.000000	0.228422
608.000000	0.228149
609.000000	0.227874
610.000000	0.227600
611.000000	0.227351
612.000000	0.227104
613.000000	0.226819
614.000000	0.226511
615.000000	0.226189
616.000000	0.225900
617.000000	0.225623
618.000000	0.225334
619.000000	0.225138
620.000000	0.224966
621.000000	0.224738
622.000000	0.224484
623.000000	0.224223
624.000000	0.223979
625.000000	0.223797
626.000000	0.223621
627.000000	0.223439
628.000000	0.223311
629.000000	0.223247
630.000000	0.223136
631.000000	0.223015
632.000000	0.222892
633.000000	0.222779
634.000000	0.222675
635.000000	0.222583
636.000000	0.222527
637.000000	0.222496
638.000000	0.222458
639.000000	0.222396
640.000000	0.222397
641.000000	0.222519
642.000000	0.222644
643.000000	0.222753
644.000000	0.222851
645.000000	0.222853
646.000000	0.222887
647.000000	0.223023
648.000000	0.223174
649.000000	0.223317
650.000000	0.223462
651.000000	0.223716
652.000000	0.223920
653.000000	0.224100
654.000000	0.224304
655.000000	0.224546
656.000000	0.224851
657.000000	0.225187
658.000000	0.225536
659.000000	0.225904
660.000000	0.226285
661.000000	0.226686
662.000000	0.227087
663.000000	0.227496
664.000000	0.227862
665.000000	0.228237
666.000000	0.228672
667.000000	0.229172
668.000000	0.229654
669.000000	0.230102
670.000000	0.230555
671.000000	0.231167
672.000000	0.231758
673.000000	0.232295
674.000000	0.232873
675.000000	0.233467
676.000000	0.234104
677.000000	0.234818
678.000000	0.235472
679.000000	0.236113
680.000000	0.236795
681.000000	0.237508
682.000000	0.238269
683.000000	0.239022
684.000000	0.239815
685.000000	0.240636
686.000000	0.241476
687.000000	0.242287
688.000000	0.243112
689.000000	0.243982
690.000000	0.244938
691.000000	0.245941
692.000000	0.246931
693.000000	0.247928
694.000000	0.248900
695.000000	0.249907
696.000000	0.250936
697.000000	0.251948
698.000000	0.252975
699.000000	0.254069
700.000000	0.255219
701.000000	0.256152
702.000000	0.257157
703.000000	0.258294
704.000000	0.259360
705.000000	0.260525
706.000000	0.261732
707.000000	0.262917
708.000000	0.264113
709.000000	0.265320
710.000000	0.266553
711.000000	0.267830
712.000000	0.269068
713.000000	0.270261
714.000000	0.271445
715.000000	0.272616
716.000000	0.273805
717.000000	0.275034
718.000000	0.276289
719.000000	0.277479
720.000000	0.278581
721.000000	0.279792
722.000000	0.281011
723.000000	0.282227
724.000000	0.283396
725.000000	0.284511
726.000000	0.285669
727.000000	0.286847
728.000000	0.287968
729.000000	0.289053
730.000000	0.290098
731.000000	0.291195
732.000000	0.292265
733.000000	0.293330
734.000000	0.294444
735.000000	0.295473
736.000000	0.296523
737.000000	0.297538
738.000000	0.298478
739.000000	0.299435
740.000000	0.300313
741.000000	0.301154
742.000000	0.302077
743.000000	0.303029
744.000000	0.303855
745.000000	0.304673
746.000000	0.305519
747.000000	0.306313
748.000000	0.307132
749.000000	0.307955
750.000000	0.308726
751.000000	0.309477
752.000000	0.310180
753.000000	0.310869
754.000000	0.311602
755.000000	0.312297
756.000000	0.312948
757.000000	0.313527
758.000000	0.314075
759.000000	0.314587
760.000000	0.315031
761.000000	0.315622
762.000000	0.316152
763.000000	0.316599
764.000000	0.317127
765.000000	0.317547
766.000000	0.317931
767.000000	0.318355
768.000000	0.318720
769.000000	0.319096
770.000000	0.319507
771.000000	0.319893
772.000000	0.320249
773.000000	0.320521
774.000000	0.320788
775.000000	0.321092
776.000000	0.321390
777.000000	0.321622
778.000000	0.321790
779.000000	0.321992
780.000000	0.322249
781.000000	0.322490
782.000000	0.322758
783.000000	0.323093
784.000000	0.323343
785.000000	0.323541
786.000000	0.323652
787.000000	0.323691
788.000000	0.323805
789.000000	0.323894
790.000000	0.323952
791.000000	0.324061
792.000000	0.324116
793.000000	0.324169
794.000000	0.324269
795.000000	0.324364
796.000000	0.324394
797.000000	0.324380
798.000000	0.324442
799.000000	0.324558
800.000000	0.324666
801.000000	0.324709
802.000000	0.324735
803.000000	0.324725
804.000000	0.324712
805.000000	0.324700
806.000000	0.324657
807.000000	0.324665
808.000000	0.324695
809.000000	0.324677
810.000000	0.324719
811.000000	0.324846
812.000000	0.324820
813.000000	0.324762
814.000000	0.324699
815.000000	0.324603
816.000000	0.324523
817.000000	0.324470
818.000000	0.324378
819.000000	0.324437
820.000000	0.324492
821.000000	0.324408
822.000000	0.324238
823.000000	0.324137
824.000000	0.324027
825.000000	0.323889
826.000000	0.323819
827.000000	0.323773
828.000000	0.323759
829.000000	0.323760
830.000000	0.323682
831.000000	0.323596
832.000000	0.323482
833.000000	0.323258
834.000000	0.323044
835.000000	0.322963
836.000000	0.322921
837.000000	0.322867
838.000000	0.322788
839.000000	0.322658
840.000000	0.322525
841.000000	0.322403
842.000000	0.322262
843.000000	0.322178
844.000000	0.322141
845.000000	0.322037
846.000000	0.321725
847.000000	0.321540
848.000000	0.321430
849.000000	0.321292
850.000000	0.321163
851.000000	0.321035
852.000000	0.320939
853.000000	0.320846
854.000000	0.320716
855.000000	0.320587
856.000000	0.320344
857.000000	0.320166
858.000000	0.320026
859.000000	0.319848
860.000000	0.319768
861.000000	0.319676
862.000000	0.319591
863.000000	0.319480
864.000000	0.319283
865.000000	0.319153
866.000000	0.319151
867.000000	0.319069
868.000000	0.318883
869.000000	0.318620
870.000000	0.318441
871.000000	0.318243
872.000000	0.318011
873.000000	0.317682
874.000000	0.317271
875.000000	0.316910
876.000000	0.316632
877.000000	0.316353
878.000000	0.316104
879.000000	0.315914
880.000000	0.315630
881.000000	0.315260
882.000000	0.314952
883.000000	0.314729
884.000000	0.314502
885.000000	0.314416
886.000000	0.314311
887.000000	0.314102
888.000000	0.313782
889.000000	0.313544
890.000000	0.313302
891.000000	0.313092
892.000000	0.312814
893.000000	0.312562
894.000000	0.312465
895.000000	0.312277
896.000000	0.312065
897.000000	0.311864
898.000000	0.311671
899.000000	0.311255
900.000000	0.310888
901.000000	0.310693
902.000000	0.310694
903.000000	0.310499
904.000000	0.310218
905.000000	0.309947
906.000000	0.309588
907.000000	0.309229
908.000000	0.308991
909.000000	0.308839
910.000000	0.308658
911.000000	0.308394
912.000000	0.308063
913.000000	0.307754
914.000000	0.307500
915.000000	0.307256
916.000000	0.306784
917.000000	0.306535
918.000000	0.306358
919.000000	0.306109
920.000000	0.306041
921.000000	0.305997
922.000000	0.305871
923.000000	0.305569
924.000000	0.305217
925.000000	0.304869
926.000000	0.304555
927.000000	0.304149
928.000000	0.303806
929.000000	0.303555
930.000000	0.303356
931.000000	0.303064
932.000000	0.302704
933.000000	0.302402
934.000000	0.302266
935.000000	0.301975
936.000000	0.301717
937.000000	0.301554
938.000000	0.301241
939.000000	0.301027
940.000000	0.300849
941.000000	0.300624
942.000000	0.300367
943.000000	0.300038
944.000000	0.299594
945.000000	0.299435
946.000000	0.299233
947.000000	0.298983
948.000000	0.298727
949.000000	0.298594
950.000000	0.298535
951.000000	0.298457
952.000000	0.298351
953.000000	0.298153
954.000000	0.297854
955.000000	0.297443
956.000000	0.297148
957.000000	0.296892
958.000000	0.296630
959.000000	0.296435
960.000000	0.296168
961.000000	0.295834
962.000000	0.295512
963.000000	0.295389
964.000000	0.295044
965.000000	0.294734
966.000000	0.294567
967.000000	0.294265
968.000000	0.294079
969.000000	0.293926
970.000000	0.293711
971.000000	0.293525
972.000000	0.293260
973.000000	0.292897
974.000000	0.292729
975.000000	0.292466
976.000000	0.292179
977.000000	0.291996
978.000000	0.292035
979.000000	0.292033
980.000000	0.291734
981.000000	0.291421
982.000000	0.291245
983.000000	0.291007
984.000000	0.290719
985.000000	0.290497
986.000000	0.290371
987.000000	0.290185
988.000000	0.289832
989.000000	0.289801
990.000000	0.289969
991.000000	0.290053
992.000000	0.289866
993.000000	0.289774
994.000000	0.289418
995.000000	0.289092
996.000000	0.289112
997.000000	0.288929
998.000000	0.288866
999.000000	0.289013
1000.000000	0.288723
1001.000000	0.289082
1002.000000	0.288966
1003.000000	0.288555
1004.000000	0.288236
1005.000000	0.287791
1006.000000	0.287182
1007.000000	0.286506
1008.000000	0.286013
1009.000000	0.285903
1010.000000	0.285491
1011.000000	0.285577
1012.000000	0.286313
1013.000000	0.286449
1014.000000	0.286382
1015.000000	0.286433
1016.000000	0.286591
1017.000000	0.286735
1018.000000	0.286749
1019.000000	0.286825
1020.000000	0.287333
1021.000000	0.287133
1022.000000	0.286402
1023.000000	0.286503
1024.000000	0.286713
1025.000000	0.286980
1026.000000	0.287159
1027.000000	0.287143
1028.000000	0.287457
1029.000000	0.287358
1030.000000	0.287005
1031.000000	0.287200
1032.000000	0.286826
1033.000000	0.286286
1034.000000	0.286070
1035.000000	0.285997
1036.000000	0.286205
1037.000000	0.286664
1038.000000	0.286953
1039.000000	0.287537
1040.000000	0.288321
1041.000000	0.288150
1042.000000	0.288175
1043.000000	0.288481
1044.000000	0.288096
1045.000000	0.288069
1046.000000	0.288291
1047.000000	0.288298
1048.000000	0.288043
1049.000000	0.288083
1050.000000	0.288217
1051.000000	0.288319
1052.000000	0.288502
1053.000000	0.288547
1054.000000	0.288629
1055.000000	0.288747
1056.000000	0.288693
1057.000000	0.289162
1058.000000	0.289372
1059.000000	0.289468
1060.000000	0.289924
1061.000000	0.289964
1062.000000	0.290331
1063.000000	0.291248
1064.000000	0.291586
1065.000000	0.291693
1066.000000	0.291952
1067.000000	0.291902
1068.000000	0.292045
1069.000000	0.292533
1070.000000	0.292713
1071.000000	0.292719
1072.000000	0.292718
1073.000000	0.292608
1074.000000	0.292576
1075.000000	0.292813
1076.000000	0.293211
1077.000000	0.293390
1078.000000	0.293899
1079.000000	0.294110
1080.000000	0.294018
1081.000000	0.294219
1082.000000	0.294617
1083.000000	0.294852
1084.000000	0.295280
1085.000000	0.295494
1086.000000	0.295510
1087.000000	0.295572
1088.000000	0.295168
1089.000000	0.295223
1090.000000	0.295502
1091.000000	0.295844
1092.000000	0.296105
1093.000000	0.296793
1094.000000	0.296953
1095.000000	0.296562
1096.000000	0.296787
1097.000000	0.297225
1098.000000	0.297456
1099.000000	0.297788
1100.000000	0.298077
1101.000000	0.298123
1102.000000	0.298262
1103.000000	0.298423
1104.000000	0.298736
1105.000000	0.299113
1106.000000	0.299406
1107.000000	0.299752
1108.000000	0.300088
1109.000000	0.300397
1110.000000	0.300652
1111.000000	0.300943
1112.000000	0.301375
1113.000000	0.301621
1114.000000	0.301738
1115.000000	0.301917
1116.000000	0.302144
1117.000000	0.302198
1118.000000	0.302054
1119.000000	0.302093
1120.000000	0.302040
1121.000000	0.302155
1122.000000	0.302673
1123.000000	0.303110
1124.000000	0.303307
1125.000000	0.303571
1126.000000	0.303846
1127.000000	0.303934
1128.000000	0.303935
1129.000000	0.303818
1130.000000	0.303996
1131.000000	0.304150
1132.000000	0.304370
1133.000000	0.305014
1134.000000	0.305250
1135.000000	0.305221
1136.000000	0.305238
1137.000000	0.305042
1138.000000	0.305042
1139.000000	0.305206
1140.000000	0.305398
1141.000000	0.305627
1142.000000	0.305886
1143.000000	0.306178
1144.000000	0.306449
1145.000000	0.306508
1146.000000	0.306701
1147.000000	0.306675
1148.000000	0.306363
1149.000000	0.306251
1150.000000	0.306047
1151.000000	0.306148
1152.000000	0.306401
1153.000000	0.306601
1154.000000	0.306897
1155.000000	0.307152
1156.000000	0.307423
1157.000000	0.307609
1158.000000	0.307821
1159.000000	0.307888
1160.000000	0.307684
1161.000000	0.307644
1162.000000	0.307728
1163.000000	0.307822
1164.000000	0.307854
1165.000000	0.307877
1166.000000	0.308047
1167.000000	0.308244
1168.000000	0.308286
1169.000000	0.308426
1170.000000	0.308496
1171.000000	0.308350
1172.000000	0.308430
1173.000000	0.308689
1174.000000	0.308799
1175.000000	0.308884
1176.000000	0.308884
1177.000000	0.308856
1178.000000	0.308834
1179.000000	0.308728
1180.000000	0.308637
1181.000000	0.308605
1182.000000	0.308621
1183.000000	0.308665
1184.000000	0.308860
1185.000000	0.309022
1186.000000	0.309255
1187.000000	0.309403
1188.000000	0.309603
1189.000000	0.309586
1190.000000	0.309419
1191.000000	0.309412
1192.000000	0.309432
1193.000000	0.309592
1194.000000	0.309802
1195.000000	0.309980
1196.000000	0.310163
1197.000000	0.310231
1198.000000	0.310289
1199.000000	0.310335
1200.000000	0.310277
1201.000000	0.310196
1202.000000	0.310168
1203.000000	0.310173
1204.000000	0.310264
1205.000000	0.310259
1206.000000	0.310201
1207.000000	0.310230
1208.000000	0.310194
1209.000000	0.310062
1210.000000	0.310087
1211.000000	0.310199
1212.000000	0.310274
1213.000000	0.310480
1214.000000	0.310614
1215.000000	0.310724
1216.000000	0.310773
1217.000000	0.310735
1218.000000	0.310692
1219.000000	0.310626
1220.000000	0.310573
1221.000000	0.310580
1222.000000	0.310535
1223.000000	0.310619
1224.000000	0.310752
1225.000000	0.310794
1226.000000	0.310947
1227.000000	0.310939
1228.000000	0.310865
1229.000000	0.310828
1230.000000	0.310724
1231.000000	0.310669
1232.000000	0.310806
1233.000000	0.310927
1234.000000	0.311087
1235.000000	0.311106
1236.000000	0.310847
1237.000000	0.310887
1238.000000	0.311005
1239.000000	0.311046
1240.000000	0.311179
1241.000000	0.311356
1242.000000	0.311335
1243.000000	0.311316
1244.000000	0.311454
1245.000000	0.311625
1246.000000	0.311787
1247.000000	0.311968
1248.000000	0.311999
1249.000000	0.312008
1250.000000	0.312028
1251.000000	0.312021
1252.000000	0.312103
1253.000000	0.312388
1254.000000	0.312495
1255.000000	0.312553
1256.000000	0.312626
1257.000000	0.312674
1258.000000	0.312720
1259.000000	0.312680
1260.000000	0.312706
1261.000000	0.312657
1262.000000	0.312633
1263.000000	0.312649
1264.000000	0.312737
1265.000000	0.312723
1266.000000	0.312719
1267.000000	0.312812
1268.000000	0.312885
1269.000000	0.312862
1270.000000	0.312955
1271.000000	0.312951
1272.000000	0.312866
1273.000000	0.312869
1274.000000	0.312919
1275.000000	0.312916
1276.000000	0.312891
1277.000000	0.312938
1278.000000	0.312951
1279.000000	0.312875
1280.000000	0.312725
1281.000000	0.312643
1282.000000	0.312558
1283.000000	0.312567
1284.000000	0.312526
1285.000000	0.312562
1286.000000	0.312635
1287.000000	0.312741
1288.000000	0.312817
1289.000000	0.312933
1290.000000	0.312910
1291.000000	0.312796
1292.000000	0.312788
1293.000000	0.312825
1294.000000	0.312962
1295.000000	0.313117
1296.000000	0.313033
1297.000000	0.312874
1298.000000	0.312859
1299.000000	0.312818
1300.000000	0.312851
1301.000000	0.313039
1302.000000	0.313104
1303.000000	0.313155
1304.000000	0.313190
1305.000000	0.313378
1306.000000	0.313426
1307.000000	0.313385
1308.000000	0.313394
1309.000000	0.313390
1310.000000	0.313403
1311.000000	0.313448
1312.000000	0.313486
1313.000000	0.313568
1314.000000	0.313541
1315.000000	0.313406
1316.000000	0.313339
1317.000000	0.313193
1318.000000	0.313035
1319.000000	0.313040
1320.000000	0.313101
1321.000000	0.313132
1322.000000	0.313174
1323.000000	0.313151
1324.000000	0.313217
1325.000000	0.313193
1326.000000	0.313117
1327.000000	0.313228
1328.000000	0.313360
1329.000000	0.313324
1330.000000	0.313281
1331.000000	0.313263
1332.000000	0.313162
1333.000000	0.313087
1334.000000	0.313176
1335.000000	0.313256
1336.000000	0.313234
1337.000000	0.313218
1338.000000	0.313208
1339.000000	0.313209
1340.000000	0.313108
1341.000000	0.312979
1342.000000	0.312926
1343.000000	0.312892
1344.000000	0.312824
1345.000000	0.312987
1346.000000	0.313203
1347.000000	0.313116
1348.000000	0.313017
1349.000000	0.312809
1350.000000	0.312752
1351.000000	0.312842
1352.000000	0.312835
1353.000000	0.312881
1354.000000	0.312918
1355.000000	0.312820
1356.000000	0.312941
1357.000000	0.313025
1358.000000	0.312996
1359.000000	0.312985
1360.000000	0.313002
1361.000000	0.313138
1362.000000	0.313158
1363.000000	0.313046
1364.000000	0.313093
1365.000000	0.313155
1366.000000	0.313186
1367.000000	0.313294
1368.000000	0.313324
1369.000000	0.313436
1370.000000	0.313329
1371.000000	0.313086
1372.000000	0.312943
1373.000000	0.312669
1374.000000	0.312403
1375.000000	0.312255
1376.000000	0.312192
1377.000000	0.312250
1378.000000	0.312189
1379.000000	0.311950
1380.000000	0.311858
1381.000000	0.311525
1382.000000	0.311137
1383.000000	0.310956
1384.000000	0.310667
1385.000000	0.310497
1386.000000	0.310328
1387.000000	0.310010
1388.000000	0.309669
1389.000000	0.309323
1390.000000	0.308858
1391.000000	0.308363
1392.000000	0.307889
1393.000000	0.307217
1394.000000	0.306314
1395.000000	0.305703
1396.000000	0.305150
1397.000000	0.304388
1398.000000	0.303562
1399.000000	0.302832
1400.000000	0.302000
1401.000000	0.301279
1402.000000	0.300753
1403.000000	0.300169
1404.000000	0.299597
1405.000000	0.298977
1406.000000	0.298486
1407.000000	0.298110
1408.000000	0.297566
1409.000000	0.297138
1410.000000	0.296831
1411.000000	0.296599
1412.000000	0.296520
1413.000000	0.296422
1414.000000	0.296395
1415.000000	0.296377
1416.000000	0.296323
1417.000000	0.296390
1418.000000	0.296284
1419.000000	0.296092
1420.000000	0.295946
1421.000000	0.295918
1422.000000	0.296053
1423.000000	0.296369
1424.000000	0.296571
1425.000000	0.296791
1426.000000	0.296891
1427.000000	0.296853
1428.000000	0.296908
1429.000000	0.296928
1430.000000	0.296947
1431.000000	0.297025
1432.000000	0.297100
1433.000000	0.297241
1434.000000	0.297360
1435.000000	0.297554
1436.000000	0.297722
1437.000000	0.297848
1438.000000	0.297956
1439.000000	0.298088
1440.000000	0.298284
1441.000000	0.298542
1442.000000	0.298814
1443.000000	0.299050
1444.000000	0.299314
1445.000000	0.299661
1446.000000	0.300058
1447.000000	0.300512
1448.000000	0.300948
1449.000000	0.301353
1450.000000	0.301755
1451.000000	0.302174
1452.000000	0.302527
1453.000000	0.302842
1454.000000	0.303006
1455.000000	0.303085
1456.000000	0.303362
1457.000000	0.303585
1458.000000	0.303762
1459.000000	0.304086
1460.000000	0.304323
1461.000000	0.304403
1462.000000	0.304511
1463.000000	0.304570
1464.000000	0.304582
1465.000000	0.304794
1466.000000	0.305040
1467.000000	0.305215
1468.000000	0.305376
1469.000000	0.305497
1470.000000	0.305557
1471.000000	0.305682
1472.000000	0.305883
1473.000000	0.306109
1474.000000	0.306147
1475.000000	0.306323
1476.000000	0.306590
1477.000000	0.306744
1478.000000	0.306955
1479.000000	0.307076
1480.000000	0.307096
1481.000000	0.307135
1482.000000	0.307206
1483.000000	0.307365
1484.000000	0.307587
1485.000000	0.307663
1486.000000	0.307658
1487.000000	0.307829
1488.000000	0.308015
1489.000000	0.308230
1490.000000	0.308580
1491.000000	0.308711
1492.000000	0.308553
1493.000000	0.308631
1494.000000	0.308691
1495.000000	0.308747
1496.000000	0.308922
1497.000000	0.309016
1498.000000	0.309030
1499.000000	0.309133
1500.000000	0.309293
1501.000000	0.309437
1502.000000	0.309589
1503.000000	0.309733
1504.000000	0.309795
1505.000000	0.309844
1506.000000	0.309956
1507.000000	0.310094
1508.000000	0.310377
1509.000000	0.310673
1510.000000	0.310797
1511.000000	0.310933
1512.000000	0.311002
1513.000000	0.311005
1514.000000	0.311166
1515.000000	0.311243
1516.000000	0.311319
1517.000000	0.311377
1518.000000	0.311342
1519.000000	0.311269
1520.000000	0.311192
1521.000000	0.311078
1522.000000	0.311025
1523.000000	0.311110
1524.000000	0.311103
1525.000000	0.311077
1526.000000	0.311080
1527.000000	0.311042
1528.000000	0.311186
1529.000000	0.311363
1530.000000	0.311336
1531.000000	0.311365
1532.000000	0.311336
1533.000000	0.311241
1534.000000	0.311273
1535.000000	0.311406
1536.000000	0.311431
1537.000000	0.311452
1538.000000	0.311561
1539.000000	0.311594
1540.000000	0.311574
1541.000000	0.311546
1542.000000	0.311595
1543.000000	0.311692
1544.000000	0.311839
1545.000000	0.312093
1546.000000	0.312216
1547.000000	0.312220
1548.000000	0.312233
1549.000000	0.312216
1550.000000	0.312172
1551.000000	0.312168
1552.000000	0.312114
1553.000000	0.312036
1554.000000	0.312071
1555.000000	0.312154
1556.000000	0.312234
1557.000000	0.312296
1558.000000	0.312380
1559.000000	0.312399
1560.000000	0.312341
1561.000000	0.312293
1562.000000	0.312259
1563.000000	0.312198
1564.000000	0.312213
1565.000000	0.312323
1566.000000	0.312236
1567.000000	0.312130
1568.000000	0.312043
1569.000000	0.311953
1570.000000	0.311991
1571.000000	0.312080
1572.000000	0.312126
1573.000000	0.312228
1574.000000	0.312305
1575.000000	0.312423
1576.000000	0.312486
1577.000000	0.312470
1578.000000	0.312513
1579.000000	0.312621
1580.000000	0.312672
1581.000000	0.312829
1582.000000	0.312914
1583.000000	0.312863
1584.000000	0.312831
1585.000000	0.312959
1586.000000	0.312978
1587.000000	0.312886
1588.000000	0.312910
1589.000000	0.312931
1590.000000	0.312954
1591.000000	0.313043
1592.000000	0.313183
1593.000000	0.313472
1594.000000	0.313558
1595.000000	0.313669
1596.000000	0.313644
1597.000000	0.313374
1598.000000	0.313281
1599.000000	0.313311
1600.000000	0.313240
1601.000000	0.313214
1602.000000	0.313177
1603.000000	0.313142
1604.000000	0.313071
1605.000000	0.313051
1606.000000	0.312977
1607.000000	0.312846
1608.000000	0.312764
1609.000000	0.312766
1610.000000	0.312737
1611.000000	0.312744
1612.000000	0.312722
1613.000000	0.312776
1614.000000	0.312764
1615.000000	0.312783
1616.000000	0.312764
1617.000000	0.312669
1618.000000	0.312614
1619.000000	0.312502
1620.000000	0.312472
1621.000000	0.312486
1622.000000	0.312572
1623.000000	0.312670
1624.000000	0.312798
1625.000000	0.312950
1626.000000	0.312969
1627.000000	0.312951
1628.000000	0.312970
1629.000000	0.312823
1630.000000	0.312862
1631.000000	0.313038
1632.000000	0.313052
1633.000000	0.313081
1634.000000	0.313105
1635.000000	0.313040
1636.000000	0.312951
1637.000000	0.312944
1638.000000	0.312841
1639.000000	0.312653
1640.000000	0.312525
1641.000000	0.312436
1642.000000	0.312441
1643.000000	0.312614
1644.000000	0.312626
1645.000000	0.312626
1646.000000	0.312546
1647.000000	0.312296
1648.000000	0.312210
1649.000000	0.312387
1650.000000	0.312371
1651.000000	0.312319
1652.000000	0.312319
1653.000000	0.312216
1654.000000	0.312159
1655.000000	0.312080
1656.000000	0.311990
1657.000000	0.311959
1658.000000	0.311894
1659.000000	0.311907
1660.000000	0.312045
1661.000000	0.312214
1662.000000	0.312150
1663.000000	0.312060
1664.000000	0.312019
1665.000000	0.311694
1666.000000	0.311760
1667.000000	0.312077
1668.000000	0.312156
1669.000000	0.312264
1670.000000	0.312166
1671.000000	0.311976
1672.000000	0.311981
1673.000000	0.311909
1674.000000	0.312042
1675.000000	0.312149
1676.000000	0.311978
1677.000000	0.311870
1678.000000	0.311667
1679.000000	0.311420
1680.000000	0.311294
1681.000000	0.311190
1682.000000	0.311161
1683.000000	0.311303
1684.000000	0.311543
1685.000000	0.311698
1686.000000	0.311653
1687.000000	0.311661
1688.000000	0.311516
1689.000000	0.311334
1690.000000	0.311469
1691.000000	0.311715
1692.000000	0.311741
1693.000000	0.311765
1694.000000	0.311828
1695.000000	0.311845
1696.000000	0.311962
1697.000000	0.311947
1698.000000	0.311758
1699.000000	0.311629
1700.000000	0.311439
1701.000000	0.311464
1702.000000	0.311481
1703.000000	0.311402
1704.000000	0.311458
1705.000000	0.311487
1706.000000	0.311423
1707.000000	0.311445
1708.000000	0.311553
1709.000000	0.311595
1710.000000	0.311818
1711.000000	0.311841
1712.000000	0.311741
1713.000000	0.311646
1714.000000	0.311414
1715.000000	0.311314
1716.000000	0.311387
1717.000000	0.311299
1718.000000	0.311057
1719.000000	0.310964
1720.000000	0.310890
1721.000000	0.310886
1722.000000	0.311141
1723.000000	0.311149
1724.000000	0.311054
1725.000000	0.311005
1726.000000	0.310718
1727.000000	0.310646
1728.000000	0.310683
1729.000000	0.310548
1730.000000	0.310533
1731.000000	0.310490
1732.000000	0.310382
1733.000000	0.310322
1734.000000	0.310166
1735.000000	0.310097
1736.000000	0.309968
1737.000000	0.309925
1738.000000	0.310041
1739.000000	0.310018
1740.000000	0.309926
1741.000000	0.309848
1742.000000	0.309726
1743.000000	0.309753
1744.000000	0.309836
1745.000000	0.309817
1746.000000	0.309835
1747.000000	0.309639
1748.000000	0.309574
1749.000000	0.309699
1750.000000	0.309705
1751.000000	0.309917
1752.000000	0.310080
1753.000000	0.309989
1754.000000	0.309917
1755.000000	0.309701
1756.000000	0.309602
1757.000000	0.309569
1758.000000	0.309522
1759.000000	0.309517
1760.000000	0.309516
1761.000000	0.309452
1762.000000	0.309401
1763.000000	0.309402
1764.000000	0.309415
1765.000000	0.309368
1766.000000	0.309382
1767.000000	0.309455
1768.000000	0.309357
1769.000000	0.309241
1770.000000	0.309204
1771.000000	0.309003
1772.000000	0.308983
1773.000000	0.309113
1774.000000	0.309119
1775.000000	0.309208
1776.000000	0.309207
1777.000000	0.309075
1778.000000	0.308965
1779.000000	0.308812
1780.000000	0.308698
1781.000000	0.308504
1782.000000	0.308465
1783.000000	0.308581
1784.000000	0.308723
1785.000000	0.308679
1786.000000	0.308684
1787.000000	0.308634
1788.000000	0.308515
1789.000000	0.308507
1790.000000	0.308537
1791.000000	0.308559
1792.000000	0.308896
1793.000000	0.308991
1794.000000	0.308953
1795.000000	0.308962
1796.000000	0.308755
1797.000000	0.308719
1798.000000	0.308854
1799.000000	0.308844
1800.000000	0.308917
1801.000000	0.308473
1802.000000	0.308937
1803.000000	0.309205
1804.000000	0.309455
1805.000000	0.309444
1806.000000	0.309772
1807.000000	0.310611
1808.000000	0.310567
1809.000000	0.310018
1810.000000	0.309913
1811.000000	0.309597
1812.000000	0.308444
1813.000000	0.308256
1814.000000	0.308845
1815.000000	0.309124
1816.000000	0.309750
1817.000000	0.309773
1818.000000	0.309885
1819.000000	0.309539
1820.000000	0.308437
1821.000000	0.307437
1822.000000	0.307258
1823.000000	0.307379
1824.000000	0.307338
1825.000000	0.308134
1826.000000	0.308279
1827.000000	0.307890
1828.000000	0.307418
1829.000000	0.306626
1830.000000	0.306173
1831.000000	0.306018
1832.000000	0.305913
1833.000000	0.305824
1834.000000	0.306211
1835.000000	0.306344
1836.000000	0.306299
1837.000000	0.306174
1838.000000	0.306154
1839.000000	0.305612
1840.000000	0.304809
1841.000000	0.304669
1842.000000	0.304302
1843.000000	0.303841
1844.000000	0.303643
1845.000000	0.303111
1846.000000	0.303264
1847.000000	0.303657
1848.000000	0.304618
1849.000000	0.305737
1850.000000	0.305979
1851.000000	0.305826
1852.000000	0.304644
1853.000000	0.304567
1854.000000	0.304356
1855.000000	0.304287
1856.000000	0.304862
1857.000000	0.304788
1858.000000	0.304656
1859.000000	0.304601
1860.000000	0.303874
1861.000000	0.303673
1862.000000	0.303355
1863.000000	0.302441
1864.000000	0.302410
1865.000000	0.303493
1866.000000	0.303544
1867.000000	0.303501
1868.000000	0.303288
1869.000000	0.302360
1870.000000	0.301492
1871.000000	0.300428
1872.000000	0.299519
1873.000000	0.298804
1874.000000	0.297872
1875.000000	0.297296
1876.000000	0.297059
1877.000000	0.296302
1878.000000	0.295455
1879.000000	0.294622
1880.000000	0.293092
1881.000000	0.291927
1882.000000	0.290748
1883.000000	0.289255
1884.000000	0.288010
1885.000000	0.286958
1886.000000	0.285376
1887.000000	0.283682
1888.000000	0.281710
1889.000000	0.278962
1890.000000	0.276272
1891.000000	0.274089
1892.000000	0.272023
1893.000000	0.270326
1894.000000	0.268882
1895.000000	0.266652
1896.000000	0.264028
1897.000000	0.261295
1898.000000	0.258492
1899.000000	0.255831
1900.000000	0.254033
1901.000000	0.252518
1902.000000	0.251437
1903.000000	0.250403
1904.000000	0.249515
1905.000000	0.248973
1906.000000	0.248578
1907.000000	0.248174
1908.000000	0.248646
1909.000000	0.249403
1910.000000	0.250315
1911.000000	0.251159
1912.000000	0.251745
1913.000000	0.253092
1914.000000	0.254357
1915.000000	0.255435
1916.000000	0.256847
1917.000000	0.257968
1918.000000	0.258852
1919.000000	0.259586
1920.000000	0.260383
1921.000000	0.261571
1922.000000	0.262488
1923.000000	0.262740
1924.000000	0.263441
1925.000000	0.263874
1926.000000	0.263863
1927.000000	0.264154
1928.000000	0.264377
1929.000000	0.264458
1930.000000	0.264735
1931.000000	0.265465
1932.000000	0.266291
1933.000000	0.267046
1934.000000	0.267613
1935.000000	0.267926
1936.000000	0.268359
1937.000000	0.269321
1938.000000	0.269749
1939.000000	0.270253
1940.000000	0.270769
1941.000000	0.271501
1942.000000	0.271604
1943.000000	0.272074
1944.000000	0.272188
1945.000000	0.271935
1946.000000	0.272029
1947.000000	0.272114
1948.000000	0.272594
1949.000000	0.272725
1950.000000	0.272727
1951.000000	0.272680
1952.000000	0.272522
1953.000000	0.272142
1954.000000	0.272437
1955.000000	0.273187
1956.000000	0.273877
1957.000000	0.274311
1958.000000	0.274146
1959.000000	0.273295
1960.000000	0.272544
1961.000000	0.272198
1962.000000	0.272123
1963.000000	0.272581
1964.000000	0.273106
1965.000000	0.273530
1966.000000	0.273799
1967.000000	0.273585
1968.000000	0.273726
1969.000000	0.274162
1970.000000	0.274583
1971.000000	0.275458
1972.000000	0.276455
1973.000000	0.276808
1974.000000	0.276815
1975.000000	0.276952
1976.000000	0.276821
1977.000000	0.276678
1978.000000	0.276578
1979.000000	0.276801
1980.000000	0.276945
1981.000000	0.276866
1982.000000	0.277644
1983.000000	0.278331
1984.000000	0.278811
1985.000000	0.279692
1986.000000	0.280008
1987.000000	0.279799
1988.000000	0.279967
1989.000000	0.280218
1990.000000	0.280067
1991.000000	0.280097
1992.000000	0.280199
1993.000000	0.280320
1994.000000	0.280752
1995.000000	0.281073
1996.000000	0.281203
1997.000000	0.281561
1998.000000	0.281861
1999.000000	0.282426
2000.000000	0.283332
2001.000000	0.284378
2002.000000	0.284837
2003.000000	0.285084
2004.000000	0.285259
2005.000000	0.284627
2006.000000	0.284562
2007.000000	0.284672
2008.000000	0.284800
2009.000000	0.285055
2010.000000	0.285607
2011.000000	0.286349
2012.000000	0.286490
2013.000000	0.286324
2014.000000	0.286493
2015.000000	0.286282
2016.000000	0.286961
2017.000000	0.288027
2018.000000	0.288209
2019.000000	0.287859
2020.000000	0.287107
2021.000000	0.287074
2022.000000	0.287389
2023.000000	0.287530
2024.000000	0.288243
2025.000000	0.288503
2026.000000	0.288358
2027.000000	0.287780
2028.000000	0.287532
2029.000000	0.287258
2030.000000	0.287362
2031.000000	0.287503
2032.000000	0.288076
2033.000000	0.288809
2034.000000	0.289272
2035.000000	0.290119
2036.000000	0.290340
2037.000000	0.290230
2038.000000	0.290236
2039.000000	0.290169
2040.000000	0.289450
2041.000000	0.289943
2042.000000	0.290610
2043.000000	0.291314
2044.000000	0.292279
2045.000000	0.292474
2046.000000	0.292067
2047.000000	0.291873
2048.000000	0.291343
2049.000000	0.291223
2050.000000	0.290903
2051.000000	0.290717
2052.000000	0.290534
2053.000000	0.290404
2054.000000	0.290692
2055.000000	0.290882
2056.000000	0.290433
2057.000000	0.290298
2058.000000	0.290513
2059.000000	0.290198
2060.000000	0.290502
2061.000000	0.291774
2062.000000	0.292244
2063.000000	0.292669
2064.000000	0.292762
2065.000000	0.292508
2066.000000	0.292435
2067.000000	0.292424
2068.000000	0.292714
2069.000000	0.292858
2070.000000	0.293269
2071.000000	0.293443
2072.000000	0.292904
2073.000000	0.292510
2074.000000	0.292856
2075.000000	0.292939
2076.000000	0.293104
2077.000000	0.293244
2078.000000	0.293084
2079.000000	0.293146
2080.000000	0.293585
2081.000000	0.293762
2082.000000	0.293863
2083.000000	0.294636
2084.000000	0.293994
2085.000000	0.293156
2086.000000	0.292722
2087.000000	0.292228
2088.000000	0.292605
2089.000000	0.293219
2090.000000	0.293312
2091.000000	0.293018
2092.000000	0.293000
2093.000000	0.292784
2094.000000	0.292948
2095.000000	0.293880
2096.000000	0.294338
2097.000000	0.295053
2098.000000	0.294567
2099.000000	0.293639
2100.000000	0.293009
2101.000000	0.292721
2102.000000	0.292803
2103.000000	0.293239
2104.000000	0.293345
2105.000000	0.293329
2106.000000	0.292772
2107.000000	0.292763
2108.000000	0.293020
2109.000000	0.293224
2110.000000	0.293433
2111.000000	0.293395
2112.000000	0.293397
2113.000000	0.292669
2114.000000	0.291716
2115.000000	0.291720
2116.000000	0.291835
2117.000000	0.292131
2118.000000	0.292819
2119.000000	0.293038
2120.000000	0.293267
2121.000000	0.293325
2122.000000	0.293432
2123.000000	0.293309
2124.000000	0.293636
2125.000000	0.294089
2126.000000	0.294442
2127.000000	0.295279
2128.000000	0.295717
2129.000000	0.295766
2130.000000	0.296131
2131.000000	0.295146
2132.000000	0.295110
2133.000000	0.295392
2134.000000	0.294591
2135.000000	0.294763
2136.000000	0.295273
2137.000000	0.295343
2138.000000	0.295122
2139.000000	0.295300
2140.000000	0.295716
2141.000000	0.295572
2142.000000	0.295180
2143.000000	0.294754
2144.000000	0.293720
2145.000000	0.293569
2146.000000	0.293905
2147.000000	0.295134
2148.000000	0.295506
2149.000000	0.296050
2150.000000	0.296560
2151.000000	0.295978
2152.000000	0.295626
2153.000000	0.295772
2154.000000	0.295565
2155.000000	0.295086
2156.000000	0.294598
2157.000000	0.293879
2158.000000	0.293779
2159.000000	0.293710
2160.000000	0.294093
2161.000000	0.296045
2162.000000	0.296274
2163.000000	0.295322
2164.000000	0.294919
2165.000000	0.293741
2166.000000	0.292715
2167.000000	0.293135
2168.000000	0.293552
2169.000000	0.293983
2170.000000	0.294096
2171.000000	0.294121
2172.000000	0.293760
2173.000000	0.293795
2174.000000	0.294246
2175.000000	0.293943
2176.000000	0.293470
2177.000000	0.293079
2178.000000	0.291657
2179.000000	0.291493
2180.000000	0.292058
2181.000000	0.292594
2182.000000	0.293290
2183.000000	0.294108
2184.000000	0.293488
2185.000000	0.293202
2186.000000	0.292542
2187.000000	0.292005
2188.000000	0.292761
2189.000000	0.292719
2190.000000	0.292772
2191.000000	0.293885
2192.000000	0.294009
2193.000000	0.294247
2194.000000	0.293414
2195.000000	0.290637
2196.000000	0.289562
2197.000000	0.287829
2198.000000	0.287607
2199.000000	0.290025
2200.000000	0.291793
2201.000000	0.295441
2202.000000	0.296616
2203.000000	0.296572
2204.000000	0.295234
2205.000000	0.291812
2206.000000	0.289248
2207.000000	0.289567
2208.000000	0.290401
2209.000000	0.292001
2210.000000	0.293492
2211.000000	0.295604
2212.000000	0.296523
2213.000000	0.296500
2214.000000	0.296312
2215.000000	0.295490
2216.000000	0.292092
2217.000000	0.291684
2218.000000	0.292560
2219.000000	0.292877
2220.000000	0.295103
2221.000000	0.295065
2222.000000	0.292944
2223.000000	0.292646
2224.000000	0.292169
2225.000000	0.291529
2226.000000	0.295054
2227.000000	0.296033
2228.000000	0.294938
2229.000000	0.294786
2230.000000	0.290278
2231.000000	0.287000
2232.000000	0.287681
2233.000000	0.286600
2234.000000	0.286030
2235.000000	0.288052
2236.000000	0.288337
2237.000000	0.286895
2238.000000	0.286574
2239.000000	0.286714
2240.000000	0.286481
2241.000000	0.286842
2242.000000	0.286635
2243.000000	0.285712
2244.000000	0.285424
2245.000000	0.284406
2246.000000	0.284530
2247.000000	0.286069
2248.000000	0.286956
2249.000000	0.289122
2250.000000	0.288245
2251.000000	0.288465
2252.000000	0.289615
2253.000000	0.287930
2254.000000	0.286913
2255.000000	0.284379
2256.000000	0.281481
2257.000000	0.281660
2258.000000	0.283373
2259.000000	0.285020
2260.000000	0.286637
2261.000000	0.287289
2262.000000	0.286582
2263.000000	0.286210
2264.000000	0.285676
2265.000000	0.285398
2266.000000	0.285764
2267.000000	0.284672
2268.000000	0.282738
2269.000000	0.281455
2270.000000	0.278668
2271.000000	0.277738
2272.000000	0.278938
2273.000000	0.278250
2274.000000	0.277368
2275.000000	0.276532
2276.000000	0.274703
2277.000000	0.273146
2278.000000	0.273361
2279.000000	0.272457
2280.000000	0.270960
2281.000000	0.271899
2282.000000	0.271551
2283.000000	0.270534
2284.000000	0.271619
2285.000000	0.270725
2286.000000	0.269481
2287.000000	0.269526
2288.000000	0.268561
2289.000000	0.268210
2290.000000	0.266601
2291.000000	0.264649
2292.000000	0.266090
2293.000000	0.266750
2294.000000	0.265822
2295.000000	0.265813
2296.000000	0.264886
2297.000000	0.258996
2298.000000	0.258594
2299.000000	0.263139
2300.000000	0.264298
2301.000000	0.266836
2302.000000	0.267422
2303.000000	0.263489
2304.000000	0.262914
2305.000000	0.263754
2306.000000	0.264140
2307.000000	0.264431
2308.000000	0.268159
2309.000000	0.271254
2310.000000	0.273289
2311.000000	0.275791
2312.000000	0.276378
2313.000000	0.275715
2314.000000	0.273810
2315.000000	0.274792
2316.000000	0.276575
2317.000000	0.275899
2318.000000	0.277198
2319.000000	0.277219
2320.000000	0.277464
2321.000000	0.278005
2322.000000	0.276984
2323.000000	0.274785
2324.000000	0.271566
2325.000000	0.272771
2326.000000	0.274737
2327.000000	0.278065
2328.000000	0.281672
2329.000000	0.279588
2330.000000	0.278950
2331.000000	0.277590
2332.000000	0.275969
2333.000000	0.276453
2334.000000	0.274090
2335.000000	0.273752
2336.000000	0.272858
2337.000000	0.273385
2338.000000	0.275913
2339.000000	0.277606
2340.000000	0.280448
2341.000000	0.281283
2342.000000	0.281983
2343.000000	0.281242
2344.000000	0.276956
2345.000000	0.275381
2346.000000	0.272069
2347.000000	0.272388
2348.000000	0.276030
2349.000000	0.281499
2350.000000	0.283026
2351.000000	0.283616
2352.000000	0.281093
2353.000000	0.274992
2354.000000	0.270898
2355.000000	0.270363
2356.000000	0.270109
2357.000000	0.270570
2358.000000	0.271951
2359.000000	0.270977
2360.000000	0.270329
2361.000000	0.270271
2362.000000	0.269143
2363.000000	0.272167
2364.000000	0.273558
2365.000000	0.274483
2366.000000	0.275677
2367.000000	0.271358
2368.000000	0.271541
2369.000000	0.268179
2370.000000	0.264884
2371.000000	0.271126
2372.000000	0.271614
2373.000000	0.276402
2374.000000	0.281638
2375.000000	0.275912
2376.000000	0.274640
2377.000000	0.274142
2378.000000	0.271911
2379.000000	0.273550
2380.000000	0.270066
2381.000000	0.264870
2382.000000	0.260158
2383.000000	0.255467
2384.000000	0.257817
2385.000000	0.259388
2386.000000	0.262651
2387.000000	0.263296
2388.000000	0.256225
2389.000000	0.253990
2390.000000	0.247340
2391.000000	0.243445
2392.000000	0.247842
2393.000000	0.249467
2394.000000	0.253169
2395.000000	0.254096
2396.000000	0.254563
2397.000000	0.255997
2398.000000	0.255271
2399.000000	0.252685
2400.000000	0.248251
2401.000000	0.247416
2402.000000	0.244483
2403.000000	0.246187
2404.000000	0.253224
2405.000000	0.251697
2406.000000	0.251076
2407.000000	0.253990
2408.000000	0.255060
2409.000000	0.247820
2410.000000	0.238690
2411.000000	0.235194
2412.000000	0.230826
2413.000000	0.236728
2414.000000	0.241802
2415.000000	0.243339
2416.000000	0.238879
2417.000000	0.226341
2418.000000	0.231405
2419.000000	0.227811
2420.000000	0.224319
2421.000000	0.235847
2422.000000	0.229715
2423.000000	0.227907
2424.000000	0.233420
2425.000000	0.233609
2426.000000	0.239102
2427.000000	0.242412
2428.000000	0.238531
2429.000000	0.241759
2430.000000	0.242697
2431.000000	0.237838
2432.000000	0.247427
2433.000000	0.250138
2434.000000	0.247824
2435.000000	0.253588
2436.000000	0.244974
2437.000000	0.233049
2438.000000	0.232170
2439.000000	0.222585
2440.000000	0.217145
2441.000000	0.230106
2442.000000	0.237404
2443.000000	0.242800
2444.000000	0.251232
2445.000000	0.237695
2446.000000	0.220957
2447.000000	0.229052
2448.000000	0.243701
2449.000000	0.261747
2450.000000	0.278981
2451.000000	0.273904
2452.000000	0.246482
2453.000000	0.230950
2454.000000	0.220446
2455.000000	0.212933
2456.000000	0.233295
2457.000000	0.235362
2458.000000	0.236798
2459.000000	0.244364
2460.000000	0.236925
2461.000000	0.245664
2462.000000	0.248280
2463.000000	0.243342
2464.000000	0.225137
2465.000000	0.202397
2466.000000	0.190211
2467.000000	0.179824
2468.000000	0.183787
2469.000000	0.178517
2470.000000	0.168085
2471.000000	0.163315
2472.000000	0.160616
2473.000000	0.182801
2474.000000	0.210945
2475.000000	0.224644
2476.000000	0.239267
2477.000000	0.243483
2478.000000	0.223299
2479.000000	0.205526
2480.000000	0.199415
2481.000000	0.202605
2482.000000	0.213906
2483.000000	0.220625
2484.000000	0.203517
2485.000000	0.144077
2486.000000	0.114171
2487.000000	0.127006
2488.000000	0.112081
2489.000000	0.114963
2490.000000	0.132162
2491.000000	0.102552
2492.000000	0.095898
2493.000000	0.117212
2494.000000	0.117528
2495.000000	0.099773
2496.000000	0.095321
2497.000000	0.094777
2498.000000	0.081262
2499.000000	0.055575
2500.000000	0.073281
