# Wavelength	NAu-2-40_HEX-20_FV7-40_00001.asd.rts.txt
350.000000	0.155605
351.000000	0.142883
352.000000	0.127938
353.000000	0.130532
354.000000	0.149654
355.000000	0.142235
356.000000	0.135087
357.000000	0.135344
358.000000	0.135084
359.000000	0.127615
360.000000	0.123491
361.000000	0.132935
362.000000	0.136834
363.000000	0.136358
364.000000	0.134203
365.000000	0.132807
366.000000	0.133367
367.000000	0.134482
368.000000	0.132748
369.000000	0.130515
370.000000	0.130031
371.000000	0.132796
372.000000	0.134849
373.000000	0.136344
374.000000	0.137568
375.000000	0.136443
376.000000	0.134974
377.000000	0.133859
378.000000	0.132745
379.000000	0.131948
380.000000	0.132314
381.000000	0.134750
382.000000	0.134562
383.000000	0.136478
384.000000	0.141970
385.000000	0.140429
386.000000	0.137505
387.000000	0.136191
388.000000	0.136706
389.000000	0.138775
390.000000	0.140140
391.000000	0.138174
392.000000	0.136581
393.000000	0.137896
394.000000	0.141978
395.000000	0.141472
396.000000	0.139394
397.000000	0.138054
398.000000	0.139171
399.000000	0.140192
400.000000	0.140709
401.000000	0.141096
402.000000	0.141734
403.000000	0.141561
404.000000	0.140231
405.000000	0.140859
406.000000	0.141462
407.000000	0.141336
408.000000	0.142173
409.000000	0.142246
410.000000	0.141910
411.000000	0.142638
412.000000	0.142551
413.000000	0.142582
414.000000	0.143789
415.000000	0.144136
416.000000	0.143994
417.000000	0.143968
418.000000	0.144929
419.000000	0.145341
420.000000	0.145144
421.000000	0.145508
422.000000	0.145699
423.000000	0.145756
424.000000	0.145989
425.000000	0.146576
426.000000	0.146949
427.000000	0.146902
428.000000	0.147733
429.000000	0.148078
430.000000	0.147820
431.000000	0.148550
432.000000	0.148694
433.000000	0.148560
434.000000	0.149285
435.000000	0.149735
436.000000	0.150103
437.000000	0.150630
438.000000	0.150632
439.000000	0.150415
440.000000	0.150408
441.000000	0.151132
442.000000	0.151625
443.000000	0.151690
444.000000	0.151745
445.000000	0.152241
446.000000	0.152636
447.000000	0.152267
448.000000	0.152881
449.000000	0.153545
450.000000	0.153603
451.000000	0.153833
452.000000	0.154246
453.000000	0.154762
454.000000	0.155357
455.000000	0.155598
456.000000	0.155746
457.000000	0.156232
458.000000	0.156903
459.000000	0.157378
460.000000	0.157485
461.000000	0.157907
462.000000	0.158242
463.000000	0.158277
464.000000	0.158509
465.000000	0.158723
466.000000	0.158954
467.000000	0.159457
468.000000	0.159784
469.000000	0.159941
470.000000	0.160173
471.000000	0.160579
472.000000	0.160992
473.000000	0.161295
474.000000	0.161432
475.000000	0.161767
476.000000	0.162281
477.000000	0.162261
478.000000	0.162465
479.000000	0.162888
480.000000	0.163037
481.000000	0.163325
482.000000	0.163719
483.000000	0.164026
484.000000	0.164527
485.000000	0.164786
486.000000	0.164801
487.000000	0.165004
488.000000	0.165279
489.000000	0.165516
490.000000	0.165562
491.000000	0.165897
492.000000	0.166273
493.000000	0.166259
494.000000	0.166435
495.000000	0.166615
496.000000	0.166677
497.000000	0.167091
498.000000	0.167210
499.000000	0.167023
500.000000	0.167159
501.000000	0.167366
502.000000	0.167594
503.000000	0.167788
504.000000	0.167897
505.000000	0.168039
506.000000	0.168324
507.000000	0.168652
508.000000	0.168981
509.000000	0.169296
510.000000	0.169741
511.000000	0.170087
512.000000	0.170325
513.000000	0.170575
514.000000	0.170917
515.000000	0.171356
516.000000	0.171809
517.000000	0.172153
518.000000	0.172506
519.000000	0.172894
520.000000	0.173161
521.000000	0.173541
522.000000	0.174088
523.000000	0.174576
524.000000	0.175075
525.000000	0.175645
526.000000	0.176375
527.000000	0.177054
528.000000	0.177762
529.000000	0.178635
530.000000	0.179466
531.000000	0.180356
532.000000	0.181324
533.000000	0.182378
534.000000	0.183335
535.000000	0.184212
536.000000	0.185272
537.000000	0.186318
538.000000	0.187277
539.000000	0.188118
540.000000	0.189063
541.000000	0.189991
542.000000	0.190816
543.000000	0.191730
544.000000	0.192574
545.000000	0.193258
546.000000	0.193978
547.000000	0.194841
548.000000	0.195816
549.000000	0.196693
550.000000	0.197657
551.000000	0.198673
552.000000	0.199638
553.000000	0.200796
554.000000	0.201998
555.000000	0.203156
556.000000	0.204463
557.000000	0.205831
558.000000	0.207261
559.000000	0.208570
560.000000	0.209910
561.000000	0.211296
562.000000	0.212564
563.000000	0.213760
564.000000	0.214982
565.000000	0.216217
566.000000	0.217368
567.000000	0.218461
568.000000	0.219501
569.000000	0.220479
570.000000	0.221376
571.000000	0.222182
572.000000	0.222923
573.000000	0.223575
574.000000	0.224166
575.000000	0.224774
576.000000	0.225296
577.000000	0.225695
578.000000	0.226033
579.000000	0.226462
580.000000	0.226775
581.000000	0.226933
582.000000	0.227193
583.000000	0.227325
584.000000	0.227369
585.000000	0.227510
586.000000	0.227545
587.000000	0.227516
588.000000	0.227504
589.000000	0.227459
590.000000	0.227343
591.000000	0.227150
592.000000	0.226940
593.000000	0.226803
594.000000	0.226692
595.000000	0.226405
596.000000	0.226048
597.000000	0.225740
598.000000	0.225514
599.000000	0.225149
600.000000	0.224771
601.000000	0.224432
602.000000	0.224000
603.000000	0.223567
604.000000	0.223188
605.000000	0.222835
606.000000	0.222446
607.000000	0.222035
608.000000	0.221660
609.000000	0.221327
610.000000	0.220994
611.000000	0.220617
612.000000	0.220283
613.000000	0.219961
614.000000	0.219649
615.000000	0.219337
616.000000	0.218956
617.000000	0.218527
618.000000	0.218246
619.000000	0.218004
620.000000	0.217720
621.000000	0.217378
622.000000	0.217098
623.000000	0.216869
624.000000	0.216652
625.000000	0.216366
626.000000	0.216106
627.000000	0.215914
628.000000	0.215747
629.000000	0.215581
630.000000	0.215366
631.000000	0.215244
632.000000	0.215190
633.000000	0.215143
634.000000	0.215038
635.000000	0.214910
636.000000	0.214808
637.000000	0.214735
638.000000	0.214636
639.000000	0.214631
640.000000	0.214719
641.000000	0.214677
642.000000	0.214641
643.000000	0.214652
644.000000	0.214722
645.000000	0.214790
646.000000	0.214817
647.000000	0.214805
648.000000	0.214944
649.000000	0.215162
650.000000	0.215372
651.000000	0.215496
652.000000	0.215673
653.000000	0.215949
654.000000	0.216267
655.000000	0.216586
656.000000	0.216892
657.000000	0.217156
658.000000	0.217479
659.000000	0.217795
660.000000	0.218090
661.000000	0.218510
662.000000	0.218925
663.000000	0.219364
664.000000	0.219867
665.000000	0.220347
666.000000	0.220809
667.000000	0.221266
668.000000	0.221811
669.000000	0.222378
670.000000	0.222924
671.000000	0.223447
672.000000	0.224056
673.000000	0.224730
674.000000	0.225358
675.000000	0.225983
676.000000	0.226672
677.000000	0.227481
678.000000	0.228207
679.000000	0.228950
680.000000	0.229795
681.000000	0.230689
682.000000	0.231603
683.000000	0.232490
684.000000	0.233463
685.000000	0.234396
686.000000	0.235316
687.000000	0.236260
688.000000	0.237192
689.000000	0.238162
690.000000	0.239222
691.000000	0.240286
692.000000	0.241332
693.000000	0.242415
694.000000	0.243541
695.000000	0.244719
696.000000	0.245924
697.000000	0.247123
698.000000	0.248341
699.000000	0.249602
700.000000	0.250914
701.000000	0.252207
702.000000	0.253525
703.000000	0.254850
704.000000	0.256133
705.000000	0.257456
706.000000	0.258799
707.000000	0.260177
708.000000	0.261527
709.000000	0.262884
710.000000	0.264297
711.000000	0.265726
712.000000	0.267133
713.000000	0.268530
714.000000	0.269948
715.000000	0.271358
716.000000	0.272786
717.000000	0.274255
718.000000	0.275740
719.000000	0.277242
720.000000	0.278766
721.000000	0.280230
722.000000	0.281675
723.000000	0.283160
724.000000	0.284615
725.000000	0.286021
726.000000	0.287433
727.000000	0.288787
728.000000	0.290155
729.000000	0.291568
730.000000	0.292972
731.000000	0.294308
732.000000	0.295654
733.000000	0.297041
734.000000	0.298336
735.000000	0.299546
736.000000	0.300817
737.000000	0.302088
738.000000	0.303294
739.000000	0.304551
740.000000	0.305768
741.000000	0.306926
742.000000	0.308048
743.000000	0.309131
744.000000	0.310237
745.000000	0.311197
746.000000	0.312126
747.000000	0.313113
748.000000	0.314112
749.000000	0.315087
750.000000	0.316006
751.000000	0.316987
752.000000	0.317949
753.000000	0.318875
754.000000	0.319768
755.000000	0.320630
756.000000	0.321446
757.000000	0.322162
758.000000	0.322898
759.000000	0.323667
760.000000	0.324381
761.000000	0.325040
762.000000	0.325656
763.000000	0.326243
764.000000	0.326896
765.000000	0.327463
766.000000	0.327980
767.000000	0.328491
768.000000	0.328935
769.000000	0.329362
770.000000	0.329816
771.000000	0.330318
772.000000	0.330801
773.000000	0.331201
774.000000	0.331601
775.000000	0.331967
776.000000	0.332316
777.000000	0.332633
778.000000	0.332867
779.000000	0.333138
780.000000	0.333473
781.000000	0.333787
782.000000	0.334029
783.000000	0.334302
784.000000	0.334532
785.000000	0.334673
786.000000	0.334822
787.000000	0.335024
788.000000	0.335230
789.000000	0.335479
790.000000	0.335720
791.000000	0.335908
792.000000	0.336048
793.000000	0.336156
794.000000	0.336251
795.000000	0.336318
796.000000	0.336378
797.000000	0.336432
798.000000	0.336476
799.000000	0.336542
800.000000	0.336630
801.000000	0.336723
802.000000	0.336745
803.000000	0.336753
804.000000	0.336803
805.000000	0.336795
806.000000	0.336813
807.000000	0.336871
808.000000	0.336789
809.000000	0.336762
810.000000	0.336725
811.000000	0.336629
812.000000	0.336660
813.000000	0.336641
814.000000	0.336574
815.000000	0.336641
816.000000	0.336611
817.000000	0.336583
818.000000	0.336583
819.000000	0.336479
820.000000	0.336417
821.000000	0.336392
822.000000	0.336336
823.000000	0.336278
824.000000	0.336148
825.000000	0.336002
826.000000	0.335922
827.000000	0.335817
828.000000	0.335686
829.000000	0.335593
830.000000	0.335465
831.000000	0.335359
832.000000	0.335218
833.000000	0.335126
834.000000	0.335070
835.000000	0.335044
836.000000	0.334948
837.000000	0.334760
838.000000	0.334546
839.000000	0.334396
840.000000	0.334262
841.000000	0.334160
842.000000	0.334051
843.000000	0.333873
844.000000	0.333730
845.000000	0.333621
846.000000	0.333518
847.000000	0.333383
848.000000	0.333254
849.000000	0.333199
850.000000	0.333100
851.000000	0.332977
852.000000	0.332867
853.000000	0.332686
854.000000	0.332450
855.000000	0.332282
856.000000	0.332098
857.000000	0.331721
858.000000	0.331418
859.000000	0.331209
860.000000	0.330925
861.000000	0.330718
862.000000	0.330623
863.000000	0.330529
864.000000	0.330317
865.000000	0.330122
866.000000	0.330009
867.000000	0.329771
868.000000	0.329645
869.000000	0.329514
870.000000	0.329264
871.000000	0.328962
872.000000	0.328718
873.000000	0.328525
874.000000	0.328385
875.000000	0.328126
876.000000	0.327819
877.000000	0.327556
878.000000	0.327287
879.000000	0.327100
880.000000	0.326875
881.000000	0.326610
882.000000	0.326249
883.000000	0.325947
884.000000	0.325840
885.000000	0.325734
886.000000	0.325507
887.000000	0.325202
888.000000	0.325075
889.000000	0.324857
890.000000	0.324492
891.000000	0.324236
892.000000	0.323924
893.000000	0.323727
894.000000	0.323740
895.000000	0.323469
896.000000	0.323140
897.000000	0.322848
898.000000	0.322621
899.000000	0.322327
900.000000	0.321948
901.000000	0.321552
902.000000	0.321440
903.000000	0.321272
904.000000	0.321009
905.000000	0.320650
906.000000	0.320581
907.000000	0.320484
908.000000	0.320286
909.000000	0.320019
910.000000	0.319869
911.000000	0.319681
912.000000	0.319340
913.000000	0.319086
914.000000	0.318827
915.000000	0.318556
916.000000	0.318163
917.000000	0.317744
918.000000	0.317480
919.000000	0.317425
920.000000	0.317404
921.000000	0.317143
922.000000	0.316758
923.000000	0.316509
924.000000	0.316103
925.000000	0.315680
926.000000	0.315370
927.000000	0.315080
928.000000	0.314930
929.000000	0.314671
930.000000	0.314091
931.000000	0.313800
932.000000	0.313685
933.000000	0.313555
934.000000	0.313096
935.000000	0.312885
936.000000	0.312792
937.000000	0.312519
938.000000	0.312244
939.000000	0.312030
940.000000	0.311827
941.000000	0.311678
942.000000	0.311533
943.000000	0.311292
944.000000	0.310873
945.000000	0.310669
946.000000	0.310542
947.000000	0.310402
948.000000	0.310107
949.000000	0.309661
950.000000	0.309383
951.000000	0.309228
952.000000	0.308934
953.000000	0.308748
954.000000	0.308635
955.000000	0.308430
956.000000	0.308060
957.000000	0.307744
958.000000	0.307467
959.000000	0.307238
960.000000	0.306968
961.000000	0.306769
962.000000	0.306626
963.000000	0.306418
964.000000	0.305901
965.000000	0.305502
966.000000	0.305437
967.000000	0.305418
968.000000	0.305256
969.000000	0.304946
970.000000	0.304707
971.000000	0.304382
972.000000	0.304197
973.000000	0.304126
974.000000	0.304004
975.000000	0.303675
976.000000	0.303371
977.000000	0.303242
978.000000	0.302938
979.000000	0.303007
980.000000	0.302912
981.000000	0.302371
982.000000	0.302543
983.000000	0.302399
984.000000	0.301890
985.000000	0.301933
986.000000	0.301851
987.000000	0.301641
988.000000	0.301370
989.000000	0.301418
990.000000	0.301299
991.000000	0.301001
992.000000	0.300782
993.000000	0.301021
994.000000	0.301032
995.000000	0.300837
996.000000	0.300630
997.000000	0.300578
998.000000	0.300510
999.000000	0.300430
1000.000000	0.300414
1001.000000	0.300398
1002.000000	0.300401
1003.000000	0.300554
1004.000000	0.300376
1005.000000	0.300289
1006.000000	0.300145
1007.000000	0.299583
1008.000000	0.299215
1009.000000	0.299837
1010.000000	0.300235
1011.000000	0.300124
1012.000000	0.299706
1013.000000	0.298889
1014.000000	0.298504
1015.000000	0.298817
1016.000000	0.299730
1017.000000	0.299926
1018.000000	0.299613
1019.000000	0.299675
1020.000000	0.299630
1021.000000	0.299198
1022.000000	0.299104
1023.000000	0.299146
1024.000000	0.298648
1025.000000	0.298661
1026.000000	0.298803
1027.000000	0.298425
1028.000000	0.298690
1029.000000	0.298737
1030.000000	0.298625
1031.000000	0.298963
1032.000000	0.298710
1033.000000	0.298523
1034.000000	0.298587
1035.000000	0.299066
1036.000000	0.299196
1037.000000	0.299231
1038.000000	0.299320
1039.000000	0.299422
1040.000000	0.299387
1041.000000	0.299991
1042.000000	0.300156
1043.000000	0.299742
1044.000000	0.299846
1045.000000	0.299740
1046.000000	0.299700
1047.000000	0.299852
1048.000000	0.300284
1049.000000	0.300382
1050.000000	0.300264
1051.000000	0.300531
1052.000000	0.300992
1053.000000	0.301168
1054.000000	0.301698
1055.000000	0.302016
1056.000000	0.301941
1057.000000	0.302022
1058.000000	0.302584
1059.000000	0.302754
1060.000000	0.303140
1061.000000	0.303496
1062.000000	0.303548
1063.000000	0.303607
1064.000000	0.303725
1065.000000	0.303628
1066.000000	0.303937
1067.000000	0.304681
1068.000000	0.304871
1069.000000	0.304739
1070.000000	0.305015
1071.000000	0.305346
1072.000000	0.305415
1073.000000	0.305568
1074.000000	0.306162
1075.000000	0.305708
1076.000000	0.305686
1077.000000	0.306470
1078.000000	0.306470
1079.000000	0.306592
1080.000000	0.306800
1081.000000	0.306929
1082.000000	0.306917
1083.000000	0.307042
1084.000000	0.307124
1085.000000	0.307501
1086.000000	0.308069
1087.000000	0.308527
1088.000000	0.309191
1089.000000	0.309648
1090.000000	0.310107
1091.000000	0.310141
1092.000000	0.309551
1093.000000	0.309566
1094.000000	0.309737
1095.000000	0.309708
1096.000000	0.309988
1097.000000	0.311086
1098.000000	0.311328
1099.000000	0.310886
1100.000000	0.311082
1101.000000	0.311299
1102.000000	0.311468
1103.000000	0.311896
1104.000000	0.312231
1105.000000	0.312346
1106.000000	0.312578
1107.000000	0.312993
1108.000000	0.313232
1109.000000	0.313477
1110.000000	0.313557
1111.000000	0.313685
1112.000000	0.313694
1113.000000	0.313924
1114.000000	0.314325
1115.000000	0.314505
1116.000000	0.314645
1117.000000	0.314872
1118.000000	0.315069
1119.000000	0.315111
1120.000000	0.315049
1121.000000	0.315233
1122.000000	0.315522
1123.000000	0.315885
1124.000000	0.316333
1125.000000	0.316693
1126.000000	0.316908
1127.000000	0.316953
1128.000000	0.316911
1129.000000	0.316811
1130.000000	0.316892
1131.000000	0.316866
1132.000000	0.316958
1133.000000	0.317329
1134.000000	0.317595
1135.000000	0.317817
1136.000000	0.317914
1137.000000	0.317965
1138.000000	0.318014
1139.000000	0.318029
1140.000000	0.318108
1141.000000	0.318140
1142.000000	0.318292
1143.000000	0.318562
1144.000000	0.318700
1145.000000	0.318540
1146.000000	0.318567
1147.000000	0.318543
1148.000000	0.318170
1149.000000	0.318227
1150.000000	0.318630
1151.000000	0.318810
1152.000000	0.318920
1153.000000	0.319143
1154.000000	0.319308
1155.000000	0.319515
1156.000000	0.319947
1157.000000	0.320113
1158.000000	0.320048
1159.000000	0.320087
1160.000000	0.319977
1161.000000	0.319983
1162.000000	0.320189
1163.000000	0.320444
1164.000000	0.320516
1165.000000	0.320677
1166.000000	0.320746
1167.000000	0.320677
1168.000000	0.320635
1169.000000	0.320529
1170.000000	0.320638
1171.000000	0.320971
1172.000000	0.321087
1173.000000	0.321173
1174.000000	0.321276
1175.000000	0.321140
1176.000000	0.321157
1177.000000	0.321513
1178.000000	0.321621
1179.000000	0.321551
1180.000000	0.321539
1181.000000	0.321465
1182.000000	0.321580
1183.000000	0.321837
1184.000000	0.322062
1185.000000	0.322195
1186.000000	0.322337
1187.000000	0.322332
1188.000000	0.322135
1189.000000	0.322116
1190.000000	0.322202
1191.000000	0.322184
1192.000000	0.322271
1193.000000	0.322428
1194.000000	0.322409
1195.000000	0.322445
1196.000000	0.322501
1197.000000	0.322585
1198.000000	0.322643
1199.000000	0.322769
1200.000000	0.323003
1201.000000	0.323197
1202.000000	0.323354
1203.000000	0.323392
1204.000000	0.323401
1205.000000	0.323481
1206.000000	0.323440
1207.000000	0.323424
1208.000000	0.323427
1209.000000	0.323455
1210.000000	0.323443
1211.000000	0.323449
1212.000000	0.323481
1213.000000	0.323506
1214.000000	0.323571
1215.000000	0.323673
1216.000000	0.323785
1217.000000	0.323867
1218.000000	0.323931
1219.000000	0.324029
1220.000000	0.324239
1221.000000	0.324329
1222.000000	0.324290
1223.000000	0.324277
1224.000000	0.324245
1225.000000	0.324253
1226.000000	0.324351
1227.000000	0.324385
1228.000000	0.324444
1229.000000	0.324445
1230.000000	0.324310
1231.000000	0.324271
1232.000000	0.324393
1233.000000	0.324579
1234.000000	0.324901
1235.000000	0.325004
1236.000000	0.324966
1237.000000	0.324945
1238.000000	0.324658
1239.000000	0.324546
1240.000000	0.324483
1241.000000	0.324509
1242.000000	0.324674
1243.000000	0.324870
1244.000000	0.325013
1245.000000	0.325188
1246.000000	0.325176
1247.000000	0.325199
1248.000000	0.325231
1249.000000	0.325291
1250.000000	0.325596
1251.000000	0.325776
1252.000000	0.325880
1253.000000	0.326047
1254.000000	0.326154
1255.000000	0.326159
1256.000000	0.326123
1257.000000	0.326003
1258.000000	0.326060
1259.000000	0.326017
1260.000000	0.326102
1261.000000	0.326390
1262.000000	0.326585
1263.000000	0.326816
1264.000000	0.326829
1265.000000	0.326957
1266.000000	0.327058
1267.000000	0.327055
1268.000000	0.327104
1269.000000	0.327158
1270.000000	0.327306
1271.000000	0.327480
1272.000000	0.327676
1273.000000	0.327801
1274.000000	0.327653
1275.000000	0.327565
1276.000000	0.327410
1277.000000	0.327395
1278.000000	0.327332
1279.000000	0.327278
1280.000000	0.327148
1281.000000	0.327063
1282.000000	0.327055
1283.000000	0.327149
1284.000000	0.327250
1285.000000	0.327342
1286.000000	0.327457
1287.000000	0.327549
1288.000000	0.327597
1289.000000	0.327615
1290.000000	0.327584
1291.000000	0.327644
1292.000000	0.327741
1293.000000	0.327752
1294.000000	0.327652
1295.000000	0.327501
1296.000000	0.327488
1297.000000	0.327681
1298.000000	0.327969
1299.000000	0.328286
1300.000000	0.328410
1301.000000	0.328355
1302.000000	0.328291
1303.000000	0.328180
1304.000000	0.328089
1305.000000	0.328126
1306.000000	0.328129
1307.000000	0.328193
1308.000000	0.328283
1309.000000	0.328348
1310.000000	0.328401
1311.000000	0.328574
1312.000000	0.328507
1313.000000	0.328307
1314.000000	0.328172
1315.000000	0.327961
1316.000000	0.327875
1317.000000	0.327994
1318.000000	0.328196
1319.000000	0.328221
1320.000000	0.328273
1321.000000	0.328259
1322.000000	0.328052
1323.000000	0.327988
1324.000000	0.327953
1325.000000	0.327800
1326.000000	0.327733
1327.000000	0.327645
1328.000000	0.327609
1329.000000	0.327597
1330.000000	0.327748
1331.000000	0.327749
1332.000000	0.327800
1333.000000	0.327699
1334.000000	0.327445
1335.000000	0.327385
1336.000000	0.327325
1337.000000	0.327287
1338.000000	0.327333
1339.000000	0.327277
1340.000000	0.327106
1341.000000	0.327132
1342.000000	0.327198
1343.000000	0.327240
1344.000000	0.327290
1345.000000	0.327259
1346.000000	0.327300
1347.000000	0.327237
1348.000000	0.327166
1349.000000	0.327127
1350.000000	0.327107
1351.000000	0.327114
1352.000000	0.327291
1353.000000	0.327347
1354.000000	0.327305
1355.000000	0.327352
1356.000000	0.327293
1357.000000	0.327110
1358.000000	0.326990
1359.000000	0.326778
1360.000000	0.326621
1361.000000	0.326588
1362.000000	0.326504
1363.000000	0.326345
1364.000000	0.326267
1365.000000	0.326180
1366.000000	0.326074
1367.000000	0.325983
1368.000000	0.325909
1369.000000	0.325886
1370.000000	0.325831
1371.000000	0.325742
1372.000000	0.325539
1373.000000	0.325179
1374.000000	0.324939
1375.000000	0.324666
1376.000000	0.324405
1377.000000	0.324421
1378.000000	0.324256
1379.000000	0.323897
1380.000000	0.323743
1381.000000	0.323342
1382.000000	0.322799
1383.000000	0.322436
1384.000000	0.321939
1385.000000	0.321455
1386.000000	0.321138
1387.000000	0.320671
1388.000000	0.320135
1389.000000	0.319547
1390.000000	0.318717
1391.000000	0.317944
1392.000000	0.317207
1393.000000	0.316273
1394.000000	0.315260
1395.000000	0.314281
1396.000000	0.313127
1397.000000	0.312105
1398.000000	0.311201
1399.000000	0.310202
1400.000000	0.309109
1401.000000	0.308014
1402.000000	0.306916
1403.000000	0.305845
1404.000000	0.304894
1405.000000	0.304081
1406.000000	0.303277
1407.000000	0.302553
1408.000000	0.301781
1409.000000	0.301147
1410.000000	0.300694
1411.000000	0.300136
1412.000000	0.299515
1413.000000	0.298967
1414.000000	0.298416
1415.000000	0.298009
1416.000000	0.297764
1417.000000	0.297473
1418.000000	0.297113
1419.000000	0.296838
1420.000000	0.296552
1421.000000	0.296365
1422.000000	0.296136
1423.000000	0.295863
1424.000000	0.295562
1425.000000	0.295259
1426.000000	0.294984
1427.000000	0.294836
1428.000000	0.294615
1429.000000	0.294371
1430.000000	0.294246
1431.000000	0.294069
1432.000000	0.293908
1433.000000	0.293865
1434.000000	0.293739
1435.000000	0.293602
1436.000000	0.293498
1437.000000	0.293353
1438.000000	0.293264
1439.000000	0.293251
1440.000000	0.293313
1441.000000	0.293421
1442.000000	0.293606
1443.000000	0.293805
1444.000000	0.294109
1445.000000	0.294376
1446.000000	0.294660
1447.000000	0.294918
1448.000000	0.295210
1449.000000	0.295661
1450.000000	0.296071
1451.000000	0.296471
1452.000000	0.296710
1453.000000	0.296741
1454.000000	0.296854
1455.000000	0.297025
1456.000000	0.297307
1457.000000	0.297645
1458.000000	0.297828
1459.000000	0.297914
1460.000000	0.297952
1461.000000	0.298008
1462.000000	0.298088
1463.000000	0.298115
1464.000000	0.298171
1465.000000	0.298311
1466.000000	0.298488
1467.000000	0.298692
1468.000000	0.298891
1469.000000	0.299077
1470.000000	0.299175
1471.000000	0.299427
1472.000000	0.299770
1473.000000	0.300071
1474.000000	0.300343
1475.000000	0.300627
1476.000000	0.300852
1477.000000	0.301117
1478.000000	0.301457
1479.000000	0.301676
1480.000000	0.301961
1481.000000	0.302298
1482.000000	0.302723
1483.000000	0.303116
1484.000000	0.303653
1485.000000	0.303962
1486.000000	0.304066
1487.000000	0.304326
1488.000000	0.304527
1489.000000	0.304840
1490.000000	0.305251
1491.000000	0.305571
1492.000000	0.305843
1493.000000	0.306057
1494.000000	0.306145
1495.000000	0.306235
1496.000000	0.306197
1497.000000	0.306315
1498.000000	0.306536
1499.000000	0.306698
1500.000000	0.306938
1501.000000	0.307411
1502.000000	0.307652
1503.000000	0.307824
1504.000000	0.308048
1505.000000	0.308100
1506.000000	0.308143
1507.000000	0.308215
1508.000000	0.308472
1509.000000	0.308747
1510.000000	0.308925
1511.000000	0.309314
1512.000000	0.309564
1513.000000	0.309547
1514.000000	0.309641
1515.000000	0.309782
1516.000000	0.309912
1517.000000	0.309991
1518.000000	0.310103
1519.000000	0.310200
1520.000000	0.310328
1521.000000	0.310511
1522.000000	0.310734
1523.000000	0.310956
1524.000000	0.310994
1525.000000	0.311099
1526.000000	0.311303
1527.000000	0.311337
1528.000000	0.311425
1529.000000	0.311542
1530.000000	0.311407
1531.000000	0.311445
1532.000000	0.311628
1533.000000	0.311610
1534.000000	0.311723
1535.000000	0.311885
1536.000000	0.311822
1537.000000	0.311902
1538.000000	0.312002
1539.000000	0.312012
1540.000000	0.312109
1541.000000	0.312222
1542.000000	0.312282
1543.000000	0.312327
1544.000000	0.312424
1545.000000	0.312607
1546.000000	0.312789
1547.000000	0.312974
1548.000000	0.313149
1549.000000	0.313193
1550.000000	0.313226
1551.000000	0.313279
1552.000000	0.313203
1553.000000	0.313155
1554.000000	0.313196
1555.000000	0.313308
1556.000000	0.313488
1557.000000	0.313513
1558.000000	0.313561
1559.000000	0.313458
1560.000000	0.313455
1561.000000	0.313567
1562.000000	0.313602
1563.000000	0.313648
1564.000000	0.313695
1565.000000	0.313695
1566.000000	0.313645
1567.000000	0.313671
1568.000000	0.313725
1569.000000	0.313892
1570.000000	0.313901
1571.000000	0.313872
1572.000000	0.313845
1573.000000	0.313646
1574.000000	0.313599
1575.000000	0.313739
1576.000000	0.313768
1577.000000	0.313732
1578.000000	0.313707
1579.000000	0.313672
1580.000000	0.313722
1581.000000	0.313976
1582.000000	0.314044
1583.000000	0.314050
1584.000000	0.314049
1585.000000	0.313972
1586.000000	0.314030
1587.000000	0.314276
1588.000000	0.314324
1589.000000	0.314296
1590.000000	0.314277
1591.000000	0.314155
1592.000000	0.314113
1593.000000	0.314142
1594.000000	0.314189
1595.000000	0.314382
1596.000000	0.314451
1597.000000	0.314505
1598.000000	0.314507
1599.000000	0.314466
1600.000000	0.314337
1601.000000	0.314218
1602.000000	0.314162
1603.000000	0.314057
1604.000000	0.313992
1605.000000	0.314023
1606.000000	0.314043
1607.000000	0.314128
1608.000000	0.314193
1609.000000	0.314288
1610.000000	0.314398
1611.000000	0.314625
1612.000000	0.314661
1613.000000	0.314777
1614.000000	0.314770
1615.000000	0.314542
1616.000000	0.314509
1617.000000	0.314491
1618.000000	0.314463
1619.000000	0.314498
1620.000000	0.314517
1621.000000	0.314538
1622.000000	0.314638
1623.000000	0.314754
1624.000000	0.314822
1625.000000	0.314749
1626.000000	0.314722
1627.000000	0.314692
1628.000000	0.314756
1629.000000	0.314891
1630.000000	0.314995
1631.000000	0.315035
1632.000000	0.315101
1633.000000	0.315168
1634.000000	0.315266
1635.000000	0.315459
1636.000000	0.315626
1637.000000	0.315846
1638.000000	0.315914
1639.000000	0.315960
1640.000000	0.316008
1641.000000	0.316029
1642.000000	0.316062
1643.000000	0.316194
1644.000000	0.316208
1645.000000	0.316083
1646.000000	0.316088
1647.000000	0.316163
1648.000000	0.316196
1649.000000	0.316382
1650.000000	0.316464
1651.000000	0.316537
1652.000000	0.316573
1653.000000	0.316490
1654.000000	0.316527
1655.000000	0.316501
1656.000000	0.316451
1657.000000	0.316564
1658.000000	0.316562
1659.000000	0.316570
1660.000000	0.316648
1661.000000	0.316620
1662.000000	0.316653
1663.000000	0.316727
1664.000000	0.316771
1665.000000	0.316825
1666.000000	0.316938
1667.000000	0.317018
1668.000000	0.317012
1669.000000	0.316935
1670.000000	0.316857
1671.000000	0.316812
1672.000000	0.316818
1673.000000	0.316813
1674.000000	0.316951
1675.000000	0.317060
1676.000000	0.317138
1677.000000	0.317211
1678.000000	0.317153
1679.000000	0.317069
1680.000000	0.316997
1681.000000	0.317056
1682.000000	0.317261
1683.000000	0.317454
1684.000000	0.317612
1685.000000	0.317691
1686.000000	0.317603
1687.000000	0.317508
1688.000000	0.317353
1689.000000	0.317363
1690.000000	0.317482
1691.000000	0.317487
1692.000000	0.317481
1693.000000	0.317450
1694.000000	0.317258
1695.000000	0.317209
1696.000000	0.317206
1697.000000	0.317141
1698.000000	0.317160
1699.000000	0.317152
1700.000000	0.317042
1701.000000	0.317114
1702.000000	0.317127
1703.000000	0.317063
1704.000000	0.317098
1705.000000	0.317176
1706.000000	0.317319
1707.000000	0.317361
1708.000000	0.317392
1709.000000	0.317354
1710.000000	0.317253
1711.000000	0.317208
1712.000000	0.317215
1713.000000	0.317229
1714.000000	0.317283
1715.000000	0.317336
1716.000000	0.317522
1717.000000	0.317501
1718.000000	0.317296
1719.000000	0.317170
1720.000000	0.316922
1721.000000	0.316903
1722.000000	0.317160
1723.000000	0.317145
1724.000000	0.317109
1725.000000	0.317116
1726.000000	0.316839
1727.000000	0.316833
1728.000000	0.316998
1729.000000	0.317001
1730.000000	0.317099
1731.000000	0.317235
1732.000000	0.317401
1733.000000	0.317589
1734.000000	0.317698
1735.000000	0.317853
1736.000000	0.318000
1737.000000	0.318028
1738.000000	0.318061
1739.000000	0.318079
1740.000000	0.317924
1741.000000	0.317936
1742.000000	0.318100
1743.000000	0.318155
1744.000000	0.318167
1745.000000	0.318182
1746.000000	0.318166
1747.000000	0.318070
1748.000000	0.318014
1749.000000	0.318026
1750.000000	0.317914
1751.000000	0.317886
1752.000000	0.317959
1753.000000	0.317815
1754.000000	0.317751
1755.000000	0.317783
1756.000000	0.317760
1757.000000	0.317691
1758.000000	0.317669
1759.000000	0.317677
1760.000000	0.317645
1761.000000	0.317539
1762.000000	0.317489
1763.000000	0.317413
1764.000000	0.317447
1765.000000	0.317599
1766.000000	0.317663
1767.000000	0.317642
1768.000000	0.317646
1769.000000	0.317707
1770.000000	0.317794
1771.000000	0.317922
1772.000000	0.317952
1773.000000	0.317843
1774.000000	0.317836
1775.000000	0.317915
1776.000000	0.317907
1777.000000	0.317881
1778.000000	0.317809
1779.000000	0.317612
1780.000000	0.317560
1781.000000	0.317460
1782.000000	0.317601
1783.000000	0.317980
1784.000000	0.318226
1785.000000	0.318370
1786.000000	0.318189
1787.000000	0.318155
1788.000000	0.318231
1789.000000	0.318177
1790.000000	0.317874
1791.000000	0.317715
1792.000000	0.317612
1793.000000	0.317503
1794.000000	0.317634
1795.000000	0.317681
1796.000000	0.317516
1797.000000	0.317493
1798.000000	0.317512
1799.000000	0.317580
1800.000000	0.317795
1801.000000	0.317715
1802.000000	0.317716
1803.000000	0.317456
1804.000000	0.317697
1805.000000	0.317937
1806.000000	0.318630
1807.000000	0.320455
1808.000000	0.321237
1809.000000	0.322302
1810.000000	0.322263
1811.000000	0.322044
1812.000000	0.320843
1813.000000	0.320420
1814.000000	0.320002
1815.000000	0.319729
1816.000000	0.319669
1817.000000	0.319376
1818.000000	0.319003
1819.000000	0.318979
1820.000000	0.318625
1821.000000	0.318052
1822.000000	0.317858
1823.000000	0.317324
1824.000000	0.317301
1825.000000	0.318054
1826.000000	0.318333
1827.000000	0.318248
1828.000000	0.318797
1829.000000	0.318945
1830.000000	0.318195
1831.000000	0.317800
1832.000000	0.317100
1833.000000	0.316870
1834.000000	0.316719
1835.000000	0.316776
1836.000000	0.317360
1837.000000	0.317493
1838.000000	0.317513
1839.000000	0.317272
1840.000000	0.316735
1841.000000	0.316097
1842.000000	0.315838
1843.000000	0.315827
1844.000000	0.315625
1845.000000	0.315832
1846.000000	0.315459
1847.000000	0.314518
1848.000000	0.312983
1849.000000	0.312478
1850.000000	0.312358
1851.000000	0.312376
1852.000000	0.313068
1853.000000	0.313576
1854.000000	0.313974
1855.000000	0.314075
1856.000000	0.314180
1857.000000	0.314224
1858.000000	0.313761
1859.000000	0.312947
1860.000000	0.312076
1861.000000	0.311519
1862.000000	0.310773
1863.000000	0.310055
1864.000000	0.309644
1865.000000	0.309331
1866.000000	0.308583
1867.000000	0.308086
1868.000000	0.307143
1869.000000	0.304822
1870.000000	0.303508
1871.000000	0.302218
1872.000000	0.300250
1873.000000	0.298708
1874.000000	0.297059
1875.000000	0.295948
1876.000000	0.294875
1877.000000	0.294114
1878.000000	0.293178
1879.000000	0.292200
1880.000000	0.290907
1881.000000	0.288650
1882.000000	0.286069
1883.000000	0.283062
1884.000000	0.280127
1885.000000	0.276332
1886.000000	0.273317
1887.000000	0.270393
1888.000000	0.267966
1889.000000	0.265862
1890.000000	0.262974
1891.000000	0.259591
1892.000000	0.256023
1893.000000	0.252249
1894.000000	0.248471
1895.000000	0.244780
1896.000000	0.241453
1897.000000	0.238002
1898.000000	0.234361
1899.000000	0.231097
1900.000000	0.227814
1901.000000	0.225006
1902.000000	0.222584
1903.000000	0.220467
1904.000000	0.218813
1905.000000	0.217226
1906.000000	0.216239
1907.000000	0.215759
1908.000000	0.215559
1909.000000	0.215755
1910.000000	0.216178
1911.000000	0.216148
1912.000000	0.215958
1913.000000	0.215761
1914.000000	0.215736
1915.000000	0.215987
1916.000000	0.216524
1917.000000	0.216729
1918.000000	0.216894
1919.000000	0.217240
1920.000000	0.217645
1921.000000	0.217934
1922.000000	0.218688
1923.000000	0.219428
1924.000000	0.220182
1925.000000	0.220906
1926.000000	0.221419
1927.000000	0.221791
1928.000000	0.221808
1929.000000	0.221359
1930.000000	0.220843
1931.000000	0.220860
1932.000000	0.221110
1933.000000	0.221449
1934.000000	0.221945
1935.000000	0.222297
1936.000000	0.222528
1937.000000	0.223046
1938.000000	0.223805
1939.000000	0.224146
1940.000000	0.224238
1941.000000	0.224354
1942.000000	0.224678
1943.000000	0.224292
1944.000000	0.224258
1945.000000	0.224387
1946.000000	0.224312
1947.000000	0.224476
1948.000000	0.224381
1949.000000	0.224750
1950.000000	0.224764
1951.000000	0.224629
1952.000000	0.224357
1953.000000	0.224566
1954.000000	0.224515
1955.000000	0.224973
1956.000000	0.225595
1957.000000	0.225914
1958.000000	0.225515
1959.000000	0.224924
1960.000000	0.224689
1961.000000	0.224388
1962.000000	0.224315
1963.000000	0.224871
1964.000000	0.224967
1965.000000	0.224693
1966.000000	0.225095
1967.000000	0.225206
1968.000000	0.225404
1969.000000	0.225706
1970.000000	0.225698
1971.000000	0.226253
1972.000000	0.226837
1973.000000	0.226981
1974.000000	0.227179
1975.000000	0.227383
1976.000000	0.227069
1977.000000	0.227119
1978.000000	0.227854
1979.000000	0.228506
1980.000000	0.229263
1981.000000	0.229621
1982.000000	0.229883
1983.000000	0.230379
1984.000000	0.230666
1985.000000	0.230940
1986.000000	0.231228
1987.000000	0.231502
1988.000000	0.231610
1989.000000	0.232218
1990.000000	0.232787
1991.000000	0.233162
1992.000000	0.233952
1993.000000	0.234397
1994.000000	0.234633
1995.000000	0.235556
1996.000000	0.236316
1997.000000	0.236806
1998.000000	0.237161
1999.000000	0.237715
2000.000000	0.238162
2001.000000	0.238520
2002.000000	0.239114
2003.000000	0.239888
2004.000000	0.240000
2005.000000	0.240143
2006.000000	0.240836
2007.000000	0.241328
2008.000000	0.242232
2009.000000	0.243812
2010.000000	0.244835
2011.000000	0.245922
2012.000000	0.246716
2013.000000	0.247132
2014.000000	0.247325
2015.000000	0.247800
2016.000000	0.248051
2017.000000	0.248723
2018.000000	0.249394
2019.000000	0.249503
2020.000000	0.249718
2021.000000	0.250047
2022.000000	0.250003
2023.000000	0.250440
2024.000000	0.251508
2025.000000	0.252158
2026.000000	0.252619
2027.000000	0.253123
2028.000000	0.253647
2029.000000	0.253843
2030.000000	0.254043
2031.000000	0.254542
2032.000000	0.254816
2033.000000	0.255765
2034.000000	0.256279
2035.000000	0.256741
2036.000000	0.257085
2037.000000	0.257284
2038.000000	0.257609
2039.000000	0.257853
2040.000000	0.258838
2041.000000	0.259404
2042.000000	0.259618
2043.000000	0.260415
2044.000000	0.260653
2045.000000	0.260691
2046.000000	0.261468
2047.000000	0.261907
2048.000000	0.261957
2049.000000	0.262556
2050.000000	0.263150
2051.000000	0.263479
2052.000000	0.263790
2053.000000	0.263869
2054.000000	0.263831
2055.000000	0.264194
2056.000000	0.263980
2057.000000	0.264560
2058.000000	0.265199
2059.000000	0.265798
2060.000000	0.266509
2061.000000	0.267684
2062.000000	0.268234
2063.000000	0.268553
2064.000000	0.268705
2065.000000	0.268738
2066.000000	0.268797
2067.000000	0.268740
2068.000000	0.269300
2069.000000	0.269838
2070.000000	0.270384
2071.000000	0.271063
2072.000000	0.271503
2073.000000	0.271911
2074.000000	0.272235
2075.000000	0.272396
2076.000000	0.272379
2077.000000	0.272333
2078.000000	0.271842
2079.000000	0.271862
2080.000000	0.272171
2081.000000	0.272550
2082.000000	0.273384
2083.000000	0.274080
2084.000000	0.274096
2085.000000	0.273608
2086.000000	0.273118
2087.000000	0.272810
2088.000000	0.273244
2089.000000	0.274060
2090.000000	0.274558
2091.000000	0.275282
2092.000000	0.275766
2093.000000	0.275928
2094.000000	0.276352
2095.000000	0.276847
2096.000000	0.277317
2097.000000	0.277929
2098.000000	0.278288
2099.000000	0.278513
2100.000000	0.278710
2101.000000	0.278344
2102.000000	0.278553
2103.000000	0.279047
2104.000000	0.279856
2105.000000	0.280505
2106.000000	0.281689
2107.000000	0.282090
2108.000000	0.281719
2109.000000	0.281817
2110.000000	0.281941
2111.000000	0.281890
2112.000000	0.281457
2113.000000	0.281410
2114.000000	0.282155
2115.000000	0.282571
2116.000000	0.282919
2117.000000	0.283459
2118.000000	0.283257
2119.000000	0.282485
2120.000000	0.282549
2121.000000	0.283112
2122.000000	0.283607
2123.000000	0.284560
2124.000000	0.285144
2125.000000	0.285972
2126.000000	0.286220
2127.000000	0.285582
2128.000000	0.285711
2129.000000	0.285691
2130.000000	0.286150
2131.000000	0.286740
2132.000000	0.287140
2133.000000	0.287442
2134.000000	0.286650
2135.000000	0.285685
2136.000000	0.286655
2137.000000	0.286697
2138.000000	0.286722
2139.000000	0.286541
2140.000000	0.285943
2141.000000	0.285443
2142.000000	0.284551
2143.000000	0.284262
2144.000000	0.284888
2145.000000	0.285187
2146.000000	0.285320
2147.000000	0.286666
2148.000000	0.287055
2149.000000	0.286894
2150.000000	0.287530
2151.000000	0.287373
2152.000000	0.287239
2153.000000	0.286822
2154.000000	0.286565
2155.000000	0.286103
2156.000000	0.285754
2157.000000	0.285536
2158.000000	0.285616
2159.000000	0.285695
2160.000000	0.286003
2161.000000	0.287082
2162.000000	0.287459
2163.000000	0.287249
2164.000000	0.287120
2165.000000	0.286626
2166.000000	0.286380
2167.000000	0.286180
2168.000000	0.287008
2169.000000	0.287923
2170.000000	0.288252
2171.000000	0.288602
2172.000000	0.288933
2173.000000	0.289190
2174.000000	0.289491
2175.000000	0.289157
2176.000000	0.288078
2177.000000	0.287687
2178.000000	0.287434
2179.000000	0.287104
2180.000000	0.287060
2181.000000	0.287291
2182.000000	0.286949
2183.000000	0.286135
2184.000000	0.286547
2185.000000	0.286963
2186.000000	0.286769
2187.000000	0.287222
2188.000000	0.287544
2189.000000	0.287000
2190.000000	0.285795
2191.000000	0.285563
2192.000000	0.286074
2193.000000	0.287606
2194.000000	0.287878
2195.000000	0.288766
2196.000000	0.289119
2197.000000	0.287985
2198.000000	0.287377
2199.000000	0.287823
2200.000000	0.287224
2201.000000	0.284962
2202.000000	0.283725
2203.000000	0.282089
2204.000000	0.281609
2205.000000	0.282228
2206.000000	0.282037
2207.000000	0.283086
2208.000000	0.284193
2209.000000	0.281867
2210.000000	0.280446
2211.000000	0.279022
2212.000000	0.277963
2213.000000	0.278443
2214.000000	0.282553
2215.000000	0.282595
2216.000000	0.281308
2217.000000	0.280135
2218.000000	0.276462
2219.000000	0.275151
2220.000000	0.274877
2221.000000	0.275688
2222.000000	0.278434
2223.000000	0.279793
2224.000000	0.282090
2225.000000	0.282137
2226.000000	0.282371
2227.000000	0.282408
2228.000000	0.281718
2229.000000	0.282007
2230.000000	0.282184
2231.000000	0.281214
2232.000000	0.281208
2233.000000	0.282381
2234.000000	0.280300
2235.000000	0.278290
2236.000000	0.278050
2237.000000	0.277483
2238.000000	0.278062
2239.000000	0.281956
2240.000000	0.283139
2241.000000	0.284032
2242.000000	0.283244
2243.000000	0.279988
2244.000000	0.278281
2245.000000	0.275508
2246.000000	0.274226
2247.000000	0.274191
2248.000000	0.274221
2249.000000	0.275228
2250.000000	0.275727
2251.000000	0.275181
2252.000000	0.275891
2253.000000	0.273435
2254.000000	0.271539
2255.000000	0.272816
2256.000000	0.273152
2257.000000	0.274598
2258.000000	0.276221
2259.000000	0.276328
2260.000000	0.276598
2261.000000	0.277203
2262.000000	0.279148
2263.000000	0.278915
2264.000000	0.276903
2265.000000	0.276752
2266.000000	0.276475
2267.000000	0.276113
2268.000000	0.278028
2269.000000	0.277380
2270.000000	0.274229
2271.000000	0.272218
2272.000000	0.269050
2273.000000	0.268089
2274.000000	0.268778
2275.000000	0.268655
2276.000000	0.270540
2277.000000	0.269495
2278.000000	0.265683
2279.000000	0.263348
2280.000000	0.260779
2281.000000	0.258694
2282.000000	0.258840
2283.000000	0.259631
2284.000000	0.259127
2285.000000	0.258691
2286.000000	0.258448
2287.000000	0.257225
2288.000000	0.256796
2289.000000	0.255881
2290.000000	0.252721
2291.000000	0.251114
2292.000000	0.251494
2293.000000	0.249755
2294.000000	0.248149
2295.000000	0.247004
2296.000000	0.245654
2297.000000	0.242389
2298.000000	0.242017
2299.000000	0.244542
2300.000000	0.245462
2301.000000	0.246225
2302.000000	0.247867
2303.000000	0.249088
2304.000000	0.249917
2305.000000	0.251590
2306.000000	0.252384
2307.000000	0.251511
2308.000000	0.253398
2309.000000	0.254729
2310.000000	0.256866
2311.000000	0.259700
2312.000000	0.260246
2313.000000	0.260885
2314.000000	0.262593
2315.000000	0.262016
2316.000000	0.261233
2317.000000	0.260216
2318.000000	0.258179
2319.000000	0.257866
2320.000000	0.258919
2321.000000	0.259474
2322.000000	0.257600
2323.000000	0.256735
2324.000000	0.256651
2325.000000	0.254642
2326.000000	0.254217
2327.000000	0.252778
2328.000000	0.249916
2329.000000	0.250894
2330.000000	0.251691
2331.000000	0.252852
2332.000000	0.255660
2333.000000	0.253936
2334.000000	0.252300
2335.000000	0.252289
2336.000000	0.250433
2337.000000	0.251273
2338.000000	0.256237
2339.000000	0.257512
2340.000000	0.258204
2341.000000	0.258771
2342.000000	0.257834
2343.000000	0.257725
2344.000000	0.259539
2345.000000	0.258820
2346.000000	0.255214
2347.000000	0.253293
2348.000000	0.251852
2349.000000	0.247510
2350.000000	0.245371
2351.000000	0.246473
2352.000000	0.247900
2353.000000	0.248165
2354.000000	0.247851
2355.000000	0.246891
2356.000000	0.245145
2357.000000	0.244523
2358.000000	0.245935
2359.000000	0.247652
2360.000000	0.245817
2361.000000	0.245292
2362.000000	0.245148
2363.000000	0.245322
2364.000000	0.245276
2365.000000	0.244475
2366.000000	0.243990
2367.000000	0.239724
2368.000000	0.237984
2369.000000	0.234990
2370.000000	0.230885
2371.000000	0.231196
2372.000000	0.230023
2373.000000	0.231123
2374.000000	0.234661
2375.000000	0.236114
2376.000000	0.237905
2377.000000	0.238570
2378.000000	0.235195
2379.000000	0.233808
2380.000000	0.231255
2381.000000	0.227942
2382.000000	0.231647
2383.000000	0.230863
2384.000000	0.229261
2385.000000	0.228278
2386.000000	0.218524
2387.000000	0.216848
2388.000000	0.218866
2389.000000	0.215158
2390.000000	0.220065
2391.000000	0.222125
2392.000000	0.218495
2393.000000	0.220895
2394.000000	0.218707
2395.000000	0.219537
2396.000000	0.220576
2397.000000	0.216891
2398.000000	0.218820
2399.000000	0.209783
2400.000000	0.198015
2401.000000	0.192934
2402.000000	0.190377
2403.000000	0.195763
2404.000000	0.198091
2405.000000	0.203020
2406.000000	0.211610
2407.000000	0.207035
2408.000000	0.204149
2409.000000	0.200578
2410.000000	0.192676
2411.000000	0.198819
2412.000000	0.206506
2413.000000	0.215159
2414.000000	0.225740
2415.000000	0.223216
2416.000000	0.221201
2417.000000	0.223973
2418.000000	0.218381
2419.000000	0.216702
2420.000000	0.216850
2421.000000	0.210900
2422.000000	0.209341
2423.000000	0.210467
2424.000000	0.208817
2425.000000	0.203157
2426.000000	0.199983
2427.000000	0.197720
2428.000000	0.194620
2429.000000	0.197055
2430.000000	0.196271
2431.000000	0.195056
2432.000000	0.193686
2433.000000	0.196124
2434.000000	0.204260
2435.000000	0.202483
2436.000000	0.201208
2437.000000	0.190733
2438.000000	0.176668
2439.000000	0.180647
2440.000000	0.180925
2441.000000	0.182053
2442.000000	0.193926
2443.000000	0.205967
2444.000000	0.215149
2445.000000	0.227305
2446.000000	0.231467
2447.000000	0.207103
2448.000000	0.188036
2449.000000	0.191650
2450.000000	0.197239
2451.000000	0.204877
2452.000000	0.210816
2453.000000	0.202155
2454.000000	0.187593
2455.000000	0.190320
2456.000000	0.198340
2457.000000	0.198048
2458.000000	0.201849
2459.000000	0.212196
2460.000000	0.213622
2461.000000	0.211988
2462.000000	0.212430
2463.000000	0.194544
2464.000000	0.178295
2465.000000	0.189017
2466.000000	0.193238
2467.000000	0.189760
2468.000000	0.192289
2469.000000	0.161559
2470.000000	0.146652
2471.000000	0.138334
2472.000000	0.117043
2473.000000	0.139430
2474.000000	0.147995
2475.000000	0.153736
2476.000000	0.178784
2477.000000	0.173372
2478.000000	0.169514
2479.000000	0.166179
2480.000000	0.161016
2481.000000	0.163985
2482.000000	0.141486
2483.000000	0.110521
2484.000000	0.093466
2485.000000	0.070448
2486.000000	0.058380
2487.000000	0.046605
2488.000000	0.039391
2489.000000	0.081940
2490.000000	0.115294
2491.000000	0.209079
2492.000000	0.214433
2493.000000	0.123337
2494.000000	0.097352
2495.000000	0.045038
2496.000000	0.033916
2497.000000	0.088855
2498.000000	0.123637
2499.000000	0.212164
2500.000000	0.217778
