# Wavelength	NAu-1-40_HEX-30_FV7-30_00002.asd.rts.txt
350.000000	0.138786
351.000000	0.138729
352.000000	0.152376
353.000000	0.150434
354.000000	0.130264
355.000000	0.132728
356.000000	0.142602
357.000000	0.151546
358.000000	0.151710
359.000000	0.153201
360.000000	0.149936
361.000000	0.136143
362.000000	0.137838
363.000000	0.148555
364.000000	0.157533
365.000000	0.150664
366.000000	0.145990
367.000000	0.148267
368.000000	0.152059
369.000000	0.149677
370.000000	0.146618
371.000000	0.150625
372.000000	0.149542
373.000000	0.148720
374.000000	0.150767
375.000000	0.143603
376.000000	0.142569
377.000000	0.148478
378.000000	0.148852
379.000000	0.151469
380.000000	0.153442
381.000000	0.150696
382.000000	0.152205
383.000000	0.153142
384.000000	0.151071
385.000000	0.153833
386.000000	0.156335
387.000000	0.157700
388.000000	0.161216
389.000000	0.164133
390.000000	0.165792
391.000000	0.166288
392.000000	0.168536
393.000000	0.170554
394.000000	0.170787
395.000000	0.171146
396.000000	0.171605
397.000000	0.172275
398.000000	0.173684
399.000000	0.175117
400.000000	0.176529
401.000000	0.177975
402.000000	0.178562
403.000000	0.179601
404.000000	0.182010
405.000000	0.183149
406.000000	0.184295
407.000000	0.185879
408.000000	0.186491
409.000000	0.187633
410.000000	0.188995
411.000000	0.189247
412.000000	0.190333
413.000000	0.191900
414.000000	0.193194
415.000000	0.194381
416.000000	0.195143
417.000000	0.195414
418.000000	0.195612
419.000000	0.196118
420.000000	0.196781
421.000000	0.196949
422.000000	0.197648
423.000000	0.198368
424.000000	0.198328
425.000000	0.198501
426.000000	0.198223
427.000000	0.197316
428.000000	0.197788
429.000000	0.198475
430.000000	0.198774
431.000000	0.198724
432.000000	0.198426
433.000000	0.198182
434.000000	0.198453
435.000000	0.198717
436.000000	0.198586
437.000000	0.197983
438.000000	0.198136
439.000000	0.198368
440.000000	0.198262
441.000000	0.197642
442.000000	0.197645
443.000000	0.197950
444.000000	0.197301
445.000000	0.196992
446.000000	0.197096
447.000000	0.197267
448.000000	0.197971
449.000000	0.198791
450.000000	0.199531
451.000000	0.200797
452.000000	0.202424
453.000000	0.204194
454.000000	0.205958
455.000000	0.208058
456.000000	0.210543
457.000000	0.213147
458.000000	0.215378
459.000000	0.217236
460.000000	0.218890
461.000000	0.220462
462.000000	0.222012
463.000000	0.223460
464.000000	0.225007
465.000000	0.226082
466.000000	0.226855
467.000000	0.228108
468.000000	0.228898
469.000000	0.229404
470.000000	0.230173
471.000000	0.230871
472.000000	0.231490
473.000000	0.232111
474.000000	0.232896
475.000000	0.233490
476.000000	0.233953
477.000000	0.234480
478.000000	0.234793
479.000000	0.235237
480.000000	0.236023
481.000000	0.236507
482.000000	0.236980
483.000000	0.237543
484.000000	0.237928
485.000000	0.238381
486.000000	0.239073
487.000000	0.239433
488.000000	0.239971
489.000000	0.240647
490.000000	0.241039
491.000000	0.241544
492.000000	0.242146
493.000000	0.242622
494.000000	0.243210
495.000000	0.243806
496.000000	0.244329
497.000000	0.245038
498.000000	0.245728
499.000000	0.246359
500.000000	0.246877
501.000000	0.247542
502.000000	0.248320
503.000000	0.248964
504.000000	0.249473
505.000000	0.250032
506.000000	0.250781
507.000000	0.251445
508.000000	0.252115
509.000000	0.252824
510.000000	0.253622
511.000000	0.254249
512.000000	0.254780
513.000000	0.255510
514.000000	0.256338
515.000000	0.257218
516.000000	0.258050
517.000000	0.258815
518.000000	0.259566
519.000000	0.260277
520.000000	0.261033
521.000000	0.261824
522.000000	0.262629
523.000000	0.263376
524.000000	0.264182
525.000000	0.265082
526.000000	0.266105
527.000000	0.267003
528.000000	0.267823
529.000000	0.268722
530.000000	0.269645
531.000000	0.270593
532.000000	0.271498
533.000000	0.272471
534.000000	0.273430
535.000000	0.274349
536.000000	0.275290
537.000000	0.276193
538.000000	0.277124
539.000000	0.278163
540.000000	0.279112
541.000000	0.280031
542.000000	0.281024
543.000000	0.281971
544.000000	0.282939
545.000000	0.283893
546.000000	0.284838
547.000000	0.285830
548.000000	0.286864
549.000000	0.287799
550.000000	0.288718
551.000000	0.289671
552.000000	0.290634
553.000000	0.291517
554.000000	0.292396
555.000000	0.293340
556.000000	0.294362
557.000000	0.295266
558.000000	0.296128
559.000000	0.296988
560.000000	0.297778
561.000000	0.298601
562.000000	0.299472
563.000000	0.300264
564.000000	0.301070
565.000000	0.301876
566.000000	0.302624
567.000000	0.303318
568.000000	0.303969
569.000000	0.304686
570.000000	0.305396
571.000000	0.306074
572.000000	0.306760
573.000000	0.307365
574.000000	0.307908
575.000000	0.308502
576.000000	0.309024
577.000000	0.309538
578.000000	0.310136
579.000000	0.310568
580.000000	0.310981
581.000000	0.311436
582.000000	0.311878
583.000000	0.312201
584.000000	0.312488
585.000000	0.312935
586.000000	0.313309
587.000000	0.313597
588.000000	0.313856
589.000000	0.314207
590.000000	0.314539
591.000000	0.314804
592.000000	0.315156
593.000000	0.315438
594.000000	0.315614
595.000000	0.315763
596.000000	0.315954
597.000000	0.316182
598.000000	0.316307
599.000000	0.316441
600.000000	0.316623
601.000000	0.316792
602.000000	0.317012
603.000000	0.317179
604.000000	0.317264
605.000000	0.317323
606.000000	0.317394
607.000000	0.317500
608.000000	0.317644
609.000000	0.317829
610.000000	0.317978
611.000000	0.318013
612.000000	0.318022
613.000000	0.318093
614.000000	0.318273
615.000000	0.318366
616.000000	0.318389
617.000000	0.318364
618.000000	0.318442
619.000000	0.318511
620.000000	0.318536
621.000000	0.318573
622.000000	0.318622
623.000000	0.318673
624.000000	0.318719
625.000000	0.318808
626.000000	0.318876
627.000000	0.318912
628.000000	0.318978
629.000000	0.319137
630.000000	0.319253
631.000000	0.319379
632.000000	0.319526
633.000000	0.319658
634.000000	0.319738
635.000000	0.319898
636.000000	0.320105
637.000000	0.320298
638.000000	0.320465
639.000000	0.320548
640.000000	0.320643
641.000000	0.320803
642.000000	0.320962
643.000000	0.321101
644.000000	0.321232
645.000000	0.321432
646.000000	0.321649
647.000000	0.321806
648.000000	0.321926
649.000000	0.322107
650.000000	0.322350
651.000000	0.322611
652.000000	0.322759
653.000000	0.322886
654.000000	0.323094
655.000000	0.323289
656.000000	0.323525
657.000000	0.323785
658.000000	0.323977
659.000000	0.324197
660.000000	0.324475
661.000000	0.324815
662.000000	0.324975
663.000000	0.325066
664.000000	0.325308
665.000000	0.325602
666.000000	0.325892
667.000000	0.326115
668.000000	0.326359
669.000000	0.326600
670.000000	0.326848
671.000000	0.327193
672.000000	0.327492
673.000000	0.327734
674.000000	0.328032
675.000000	0.328284
676.000000	0.328530
677.000000	0.328856
678.000000	0.329177
679.000000	0.329459
680.000000	0.329720
681.000000	0.330069
682.000000	0.330425
683.000000	0.330717
684.000000	0.331132
685.000000	0.331447
686.000000	0.331749
687.000000	0.332149
688.000000	0.332482
689.000000	0.332792
690.000000	0.333171
691.000000	0.333622
692.000000	0.334021
693.000000	0.334403
694.000000	0.334796
695.000000	0.335183
696.000000	0.335550
697.000000	0.335884
698.000000	0.336172
699.000000	0.336539
700.000000	0.337049
701.000000	0.337465
702.000000	0.337882
703.000000	0.338311
704.000000	0.338703
705.000000	0.339110
706.000000	0.339508
707.000000	0.339940
708.000000	0.340336
709.000000	0.340709
710.000000	0.341100
711.000000	0.341493
712.000000	0.341867
713.000000	0.342235
714.000000	0.342587
715.000000	0.343002
716.000000	0.343448
717.000000	0.343819
718.000000	0.344201
719.000000	0.344591
720.000000	0.344996
721.000000	0.345426
722.000000	0.345814
723.000000	0.346202
724.000000	0.346581
725.000000	0.346959
726.000000	0.347384
727.000000	0.347739
728.000000	0.348145
729.000000	0.348553
730.000000	0.348849
731.000000	0.349080
732.000000	0.349365
733.000000	0.349772
734.000000	0.350186
735.000000	0.350467
736.000000	0.350763
737.000000	0.351058
738.000000	0.351409
739.000000	0.351801
740.000000	0.352039
741.000000	0.352337
742.000000	0.352571
743.000000	0.352713
744.000000	0.352935
745.000000	0.353086
746.000000	0.353237
747.000000	0.353414
748.000000	0.353698
749.000000	0.353993
750.000000	0.354196
751.000000	0.354372
752.000000	0.354603
753.000000	0.354879
754.000000	0.355075
755.000000	0.355267
756.000000	0.355473
757.000000	0.355640
758.000000	0.355769
759.000000	0.355877
760.000000	0.355911
761.000000	0.355989
762.000000	0.356075
763.000000	0.356175
764.000000	0.356395
765.000000	0.356459
766.000000	0.356474
767.000000	0.356556
768.000000	0.356524
769.000000	0.356515
770.000000	0.356553
771.000000	0.356466
772.000000	0.356439
773.000000	0.356419
774.000000	0.356406
775.000000	0.356322
776.000000	0.356302
777.000000	0.356377
778.000000	0.356288
779.000000	0.356191
780.000000	0.356144
781.000000	0.356099
782.000000	0.356044
783.000000	0.356021
784.000000	0.355896
785.000000	0.355851
786.000000	0.355813
787.000000	0.355731
788.000000	0.355639
789.000000	0.355553
790.000000	0.355420
791.000000	0.355221
792.000000	0.355118
793.000000	0.355022
794.000000	0.354856
795.000000	0.354722
796.000000	0.354570
797.000000	0.354382
798.000000	0.354192
799.000000	0.353945
800.000000	0.353704
801.000000	0.353548
802.000000	0.353378
803.000000	0.353189
804.000000	0.353003
805.000000	0.352709
806.000000	0.352453
807.000000	0.352322
808.000000	0.352192
809.000000	0.352075
810.000000	0.351971
811.000000	0.351829
812.000000	0.351481
813.000000	0.351228
814.000000	0.351110
815.000000	0.350967
816.000000	0.350796
817.000000	0.350573
818.000000	0.350221
819.000000	0.350025
820.000000	0.349845
821.000000	0.349569
822.000000	0.349314
823.000000	0.349092
824.000000	0.348800
825.000000	0.348457
826.000000	0.348208
827.000000	0.348066
828.000000	0.348015
829.000000	0.347843
830.000000	0.347628
831.000000	0.347403
832.000000	0.347017
833.000000	0.346751
834.000000	0.346486
835.000000	0.346177
836.000000	0.346026
837.000000	0.345790
838.000000	0.345460
839.000000	0.345166
840.000000	0.344952
841.000000	0.344772
842.000000	0.344540
843.000000	0.344390
844.000000	0.344152
845.000000	0.343805
846.000000	0.343584
847.000000	0.343284
848.000000	0.342981
849.000000	0.342795
850.000000	0.342439
851.000000	0.342046
852.000000	0.341763
853.000000	0.341621
854.000000	0.341444
855.000000	0.341259
856.000000	0.340981
857.000000	0.340847
858.000000	0.340821
859.000000	0.340742
860.000000	0.340565
861.000000	0.340309
862.000000	0.340055
863.000000	0.339811
864.000000	0.339589
865.000000	0.339349
866.000000	0.339083
867.000000	0.338739
868.000000	0.338491
869.000000	0.338268
870.000000	0.338021
871.000000	0.337626
872.000000	0.337332
873.000000	0.337176
874.000000	0.336949
875.000000	0.336706
876.000000	0.336521
877.000000	0.336375
878.000000	0.336008
879.000000	0.335677
880.000000	0.335439
881.000000	0.335445
882.000000	0.335416
883.000000	0.335249
884.000000	0.334880
885.000000	0.334581
886.000000	0.334263
887.000000	0.333937
888.000000	0.333778
889.000000	0.333711
890.000000	0.333504
891.000000	0.333166
892.000000	0.332901
893.000000	0.332722
894.000000	0.332688
895.000000	0.332525
896.000000	0.332238
897.000000	0.331975
898.000000	0.331877
899.000000	0.331630
900.000000	0.331383
901.000000	0.331167
902.000000	0.330965
903.000000	0.330831
904.000000	0.330722
905.000000	0.330480
906.000000	0.330280
907.000000	0.330047
908.000000	0.329855
909.000000	0.329745
910.000000	0.329548
911.000000	0.329313
912.000000	0.329116
913.000000	0.328794
914.000000	0.328732
915.000000	0.328878
916.000000	0.328680
917.000000	0.328598
918.000000	0.328509
919.000000	0.328263
920.000000	0.327966
921.000000	0.327786
922.000000	0.327692
923.000000	0.327528
924.000000	0.327427
925.000000	0.327311
926.000000	0.327152
927.000000	0.326906
928.000000	0.326784
929.000000	0.326673
930.000000	0.326406
931.000000	0.326130
932.000000	0.325875
933.000000	0.325708
934.000000	0.325618
935.000000	0.325403
936.000000	0.325234
937.000000	0.325158
938.000000	0.325050
939.000000	0.324938
940.000000	0.324780
941.000000	0.324663
942.000000	0.324473
943.000000	0.324405
944.000000	0.324394
945.000000	0.324311
946.000000	0.324087
947.000000	0.323944
948.000000	0.324000
949.000000	0.323791
950.000000	0.323608
951.000000	0.323503
952.000000	0.323401
953.000000	0.323190
954.000000	0.323058
955.000000	0.322993
956.000000	0.322605
957.000000	0.322525
958.000000	0.322560
959.000000	0.322394
960.000000	0.322410
961.000000	0.322334
962.000000	0.322101
963.000000	0.322008
964.000000	0.321992
965.000000	0.321940
966.000000	0.321687
967.000000	0.321528
968.000000	0.321372
969.000000	0.321186
970.000000	0.321104
971.000000	0.321116
972.000000	0.321152
973.000000	0.321152
974.000000	0.321278
975.000000	0.321352
976.000000	0.321345
977.000000	0.321228
978.000000	0.320826
979.000000	0.320980
980.000000	0.321274
981.000000	0.321322
982.000000	0.321326
983.000000	0.321156
984.000000	0.320951
985.000000	0.320951
986.000000	0.320857
987.000000	0.320788
988.000000	0.320740
989.000000	0.320718
990.000000	0.320637
991.000000	0.320431
992.000000	0.320241
993.000000	0.320809
994.000000	0.321115
995.000000	0.321075
996.000000	0.320938
997.000000	0.320856
998.000000	0.320731
999.000000	0.320676
1000.000000	0.320874
1001.000000	0.320559
1002.000000	0.320596
1003.000000	0.321126
1004.000000	0.321560
1005.000000	0.322243
1006.000000	0.322397
1007.000000	0.322459
1008.000000	0.322397
1009.000000	0.322115
1010.000000	0.321815
1011.000000	0.322037
1012.000000	0.322351
1013.000000	0.322016
1014.000000	0.321410
1015.000000	0.320880
1016.000000	0.321221
1017.000000	0.321646
1018.000000	0.321911
1019.000000	0.322575
1020.000000	0.323986
1021.000000	0.323921
1022.000000	0.323389
1023.000000	0.323760
1024.000000	0.323884
1025.000000	0.323628
1026.000000	0.323984
1027.000000	0.324261
1028.000000	0.324279
1029.000000	0.324203
1030.000000	0.323888
1031.000000	0.324326
1032.000000	0.324677
1033.000000	0.324540
1034.000000	0.324877
1035.000000	0.326012
1036.000000	0.326231
1037.000000	0.325993
1038.000000	0.326095
1039.000000	0.326007
1040.000000	0.326133
1041.000000	0.327132
1042.000000	0.327612
1043.000000	0.327818
1044.000000	0.328457
1045.000000	0.328284
1046.000000	0.328025
1047.000000	0.328350
1048.000000	0.328920
1049.000000	0.329129
1050.000000	0.329751
1051.000000	0.329876
1052.000000	0.329070
1053.000000	0.329199
1054.000000	0.330107
1055.000000	0.330567
1056.000000	0.331359
1057.000000	0.331860
1058.000000	0.331633
1059.000000	0.331578
1060.000000	0.331990
1061.000000	0.332643
1062.000000	0.333524
1063.000000	0.333978
1064.000000	0.334532
1065.000000	0.334925
1066.000000	0.335350
1067.000000	0.335864
1068.000000	0.336218
1069.000000	0.336265
1070.000000	0.336446
1071.000000	0.336686
1072.000000	0.336933
1073.000000	0.337178
1074.000000	0.337784
1075.000000	0.338050
1076.000000	0.337708
1077.000000	0.337632
1078.000000	0.337808
1079.000000	0.338145
1080.000000	0.338945
1081.000000	0.339535
1082.000000	0.340208
1083.000000	0.340833
1084.000000	0.341667
1085.000000	0.342231
1086.000000	0.342596
1087.000000	0.343032
1088.000000	0.343118
1089.000000	0.343434
1090.000000	0.344005
1091.000000	0.344345
1092.000000	0.344398
1093.000000	0.344781
1094.000000	0.345013
1095.000000	0.344845
1096.000000	0.345163
1097.000000	0.345869
1098.000000	0.346278
1099.000000	0.346528
1100.000000	0.347161
1101.000000	0.347968
1102.000000	0.348429
1103.000000	0.348869
1104.000000	0.349430
1105.000000	0.349843
1106.000000	0.350193
1107.000000	0.350575
1108.000000	0.351005
1109.000000	0.351300
1110.000000	0.351665
1111.000000	0.352060
1112.000000	0.352689
1113.000000	0.353171
1114.000000	0.353571
1115.000000	0.353921
1116.000000	0.354359
1117.000000	0.354616
1118.000000	0.354539
1119.000000	0.354733
1120.000000	0.355068
1121.000000	0.355282
1122.000000	0.355464
1123.000000	0.356102
1124.000000	0.356789
1125.000000	0.357287
1126.000000	0.357891
1127.000000	0.358369
1128.000000	0.358704
1129.000000	0.358747
1130.000000	0.358972
1131.000000	0.359265
1132.000000	0.359513
1133.000000	0.359668
1134.000000	0.360070
1135.000000	0.360646
1136.000000	0.361015
1137.000000	0.361445
1138.000000	0.361713
1139.000000	0.361852
1140.000000	0.362130
1141.000000	0.362249
1142.000000	0.362592
1143.000000	0.363193
1144.000000	0.363613
1145.000000	0.363859
1146.000000	0.363987
1147.000000	0.364115
1148.000000	0.363832
1149.000000	0.363983
1150.000000	0.364433
1151.000000	0.364664
1152.000000	0.364775
1153.000000	0.365048
1154.000000	0.365326
1155.000000	0.365515
1156.000000	0.365892
1157.000000	0.366047
1158.000000	0.365730
1159.000000	0.365798
1160.000000	0.366011
1161.000000	0.366158
1162.000000	0.366416
1163.000000	0.367036
1164.000000	0.367190
1165.000000	0.367310
1166.000000	0.367619
1167.000000	0.367995
1168.000000	0.368116
1169.000000	0.368237
1170.000000	0.368452
1171.000000	0.368632
1172.000000	0.368780
1173.000000	0.368916
1174.000000	0.369119
1175.000000	0.369212
1176.000000	0.369305
1177.000000	0.369646
1178.000000	0.369916
1179.000000	0.370068
1180.000000	0.370142
1181.000000	0.370303
1182.000000	0.370453
1183.000000	0.370595
1184.000000	0.370911
1185.000000	0.371089
1186.000000	0.371306
1187.000000	0.371515
1188.000000	0.371627
1189.000000	0.371741
1190.000000	0.371999
1191.000000	0.372137
1192.000000	0.372269
1193.000000	0.372545
1194.000000	0.372717
1195.000000	0.372927
1196.000000	0.373117
1197.000000	0.373290
1198.000000	0.373502
1199.000000	0.373707
1200.000000	0.373925
1201.000000	0.374107
1202.000000	0.374097
1203.000000	0.374134
1204.000000	0.374289
1205.000000	0.374478
1206.000000	0.374540
1207.000000	0.374786
1208.000000	0.374856
1209.000000	0.374789
1210.000000	0.374819
1211.000000	0.374919
1212.000000	0.374955
1213.000000	0.374972
1214.000000	0.375012
1215.000000	0.375017
1216.000000	0.375104
1217.000000	0.375190
1218.000000	0.375263
1219.000000	0.375430
1220.000000	0.375592
1221.000000	0.375671
1222.000000	0.375762
1223.000000	0.375805
1224.000000	0.375826
1225.000000	0.375813
1226.000000	0.375855
1227.000000	0.375998
1228.000000	0.376163
1229.000000	0.376193
1230.000000	0.376182
1231.000000	0.376101
1232.000000	0.375966
1233.000000	0.376062
1234.000000	0.376251
1235.000000	0.376384
1236.000000	0.376463
1237.000000	0.376625
1238.000000	0.376816
1239.000000	0.376863
1240.000000	0.376849
1241.000000	0.376861
1242.000000	0.376933
1243.000000	0.377140
1244.000000	0.377405
1245.000000	0.377636
1246.000000	0.377666
1247.000000	0.377550
1248.000000	0.377441
1249.000000	0.377531
1250.000000	0.377797
1251.000000	0.378036
1252.000000	0.378174
1253.000000	0.378478
1254.000000	0.378507
1255.000000	0.378181
1256.000000	0.378152
1257.000000	0.378185
1258.000000	0.378234
1259.000000	0.378354
1260.000000	0.378461
1261.000000	0.378499
1262.000000	0.378513
1263.000000	0.378573
1264.000000	0.378516
1265.000000	0.378542
1266.000000	0.378488
1267.000000	0.378421
1268.000000	0.378528
1269.000000	0.378466
1270.000000	0.378479
1271.000000	0.378581
1272.000000	0.378702
1273.000000	0.378904
1274.000000	0.378956
1275.000000	0.379033
1276.000000	0.379154
1277.000000	0.379216
1278.000000	0.379185
1279.000000	0.379123
1280.000000	0.378809
1281.000000	0.378685
1282.000000	0.378682
1283.000000	0.378719
1284.000000	0.378845
1285.000000	0.378862
1286.000000	0.378776
1287.000000	0.378695
1288.000000	0.378771
1289.000000	0.378877
1290.000000	0.378837
1291.000000	0.378765
1292.000000	0.378788
1293.000000	0.378758
1294.000000	0.378808
1295.000000	0.379010
1296.000000	0.378913
1297.000000	0.378686
1298.000000	0.378664
1299.000000	0.378600
1300.000000	0.378667
1301.000000	0.378767
1302.000000	0.378733
1303.000000	0.378785
1304.000000	0.378772
1305.000000	0.378781
1306.000000	0.378722
1307.000000	0.378679
1308.000000	0.378627
1309.000000	0.378536
1310.000000	0.378493
1311.000000	0.378537
1312.000000	0.378395
1313.000000	0.378346
1314.000000	0.378340
1315.000000	0.378386
1316.000000	0.378565
1317.000000	0.378718
1318.000000	0.378674
1319.000000	0.378384
1320.000000	0.378138
1321.000000	0.377959
1322.000000	0.377769
1323.000000	0.377714
1324.000000	0.377742
1325.000000	0.377630
1326.000000	0.377419
1327.000000	0.377158
1328.000000	0.376967
1329.000000	0.376845
1330.000000	0.376863
1331.000000	0.376817
1332.000000	0.376897
1333.000000	0.376921
1334.000000	0.376981
1335.000000	0.376976
1336.000000	0.376997
1337.000000	0.376856
1338.000000	0.376443
1339.000000	0.376200
1340.000000	0.376119
1341.000000	0.375892
1342.000000	0.375784
1343.000000	0.375649
1344.000000	0.375364
1345.000000	0.375207
1346.000000	0.375171
1347.000000	0.375002
1348.000000	0.374870
1349.000000	0.374580
1350.000000	0.374361
1351.000000	0.374246
1352.000000	0.374071
1353.000000	0.374057
1354.000000	0.374184
1355.000000	0.374202
1356.000000	0.374152
1357.000000	0.373899
1358.000000	0.373750
1359.000000	0.373656
1360.000000	0.373457
1361.000000	0.373344
1362.000000	0.373233
1363.000000	0.372900
1364.000000	0.372764
1365.000000	0.372826
1366.000000	0.372728
1367.000000	0.372615
1368.000000	0.372417
1369.000000	0.372248
1370.000000	0.371975
1371.000000	0.371594
1372.000000	0.371293
1373.000000	0.371064
1374.000000	0.370774
1375.000000	0.370403
1376.000000	0.370096
1377.000000	0.369734
1378.000000	0.369282
1379.000000	0.368810
1380.000000	0.368442
1381.000000	0.367939
1382.000000	0.367300
1383.000000	0.366815
1384.000000	0.366107
1385.000000	0.365196
1386.000000	0.364428
1387.000000	0.363800
1388.000000	0.363074
1389.000000	0.362303
1390.000000	0.361607
1391.000000	0.360668
1392.000000	0.359742
1393.000000	0.358811
1394.000000	0.357996
1395.000000	0.357032
1396.000000	0.356012
1397.000000	0.354860
1398.000000	0.353511
1399.000000	0.352378
1400.000000	0.351205
1401.000000	0.350044
1402.000000	0.349102
1403.000000	0.347941
1404.000000	0.346688
1405.000000	0.345544
1406.000000	0.344402
1407.000000	0.343328
1408.000000	0.342223
1409.000000	0.341147
1410.000000	0.340009
1411.000000	0.338851
1412.000000	0.337845
1413.000000	0.336918
1414.000000	0.336096
1415.000000	0.335429
1416.000000	0.334856
1417.000000	0.334307
1418.000000	0.333638
1419.000000	0.333008
1420.000000	0.332412
1421.000000	0.331931
1422.000000	0.331478
1423.000000	0.331091
1424.000000	0.330567
1425.000000	0.329899
1426.000000	0.329191
1427.000000	0.328585
1428.000000	0.328021
1429.000000	0.327511
1430.000000	0.327155
1431.000000	0.326694
1432.000000	0.326266
1433.000000	0.325835
1434.000000	0.325542
1435.000000	0.325358
1436.000000	0.325304
1437.000000	0.325334
1438.000000	0.325480
1439.000000	0.325808
1440.000000	0.326170
1441.000000	0.326733
1442.000000	0.327189
1443.000000	0.327536
1444.000000	0.327998
1445.000000	0.328436
1446.000000	0.328909
1447.000000	0.329465
1448.000000	0.329885
1449.000000	0.330174
1450.000000	0.330368
1451.000000	0.330557
1452.000000	0.330715
1453.000000	0.330807
1454.000000	0.330880
1455.000000	0.330894
1456.000000	0.330959
1457.000000	0.331115
1458.000000	0.331301
1459.000000	0.331357
1460.000000	0.331164
1461.000000	0.331033
1462.000000	0.331004
1463.000000	0.330873
1464.000000	0.330942
1465.000000	0.331119
1466.000000	0.331142
1467.000000	0.331234
1468.000000	0.331282
1469.000000	0.331311
1470.000000	0.331338
1471.000000	0.331412
1472.000000	0.331576
1473.000000	0.331831
1474.000000	0.331989
1475.000000	0.332187
1476.000000	0.332466
1477.000000	0.332741
1478.000000	0.333126
1479.000000	0.333528
1480.000000	0.333856
1481.000000	0.334153
1482.000000	0.334408
1483.000000	0.334775
1484.000000	0.335234
1485.000000	0.335601
1486.000000	0.335924
1487.000000	0.336322
1488.000000	0.336699
1489.000000	0.337105
1490.000000	0.337511
1491.000000	0.337928
1492.000000	0.338247
1493.000000	0.338626
1494.000000	0.339053
1495.000000	0.339363
1496.000000	0.339561
1497.000000	0.339850
1498.000000	0.340111
1499.000000	0.340492
1500.000000	0.340912
1501.000000	0.341220
1502.000000	0.341585
1503.000000	0.341882
1504.000000	0.342046
1505.000000	0.342394
1506.000000	0.342696
1507.000000	0.342869
1508.000000	0.343253
1509.000000	0.343586
1510.000000	0.343784
1511.000000	0.344002
1512.000000	0.344050
1513.000000	0.344080
1514.000000	0.344252
1515.000000	0.344378
1516.000000	0.344650
1517.000000	0.344972
1518.000000	0.345076
1519.000000	0.345005
1520.000000	0.345072
1521.000000	0.345093
1522.000000	0.345091
1523.000000	0.345393
1524.000000	0.345594
1525.000000	0.345666
1526.000000	0.345845
1527.000000	0.345967
1528.000000	0.346052
1529.000000	0.346118
1530.000000	0.346134
1531.000000	0.346264
1532.000000	0.346373
1533.000000	0.346432
1534.000000	0.346529
1535.000000	0.346664
1536.000000	0.346796
1537.000000	0.347035
1538.000000	0.347255
1539.000000	0.347265
1540.000000	0.347264
1541.000000	0.347337
1542.000000	0.347353
1543.000000	0.347455
1544.000000	0.347626
1545.000000	0.347763
1546.000000	0.347928
1547.000000	0.348099
1548.000000	0.348264
1549.000000	0.348330
1550.000000	0.348240
1551.000000	0.348218
1552.000000	0.348299
1553.000000	0.348283
1554.000000	0.348372
1555.000000	0.348552
1556.000000	0.348515
1557.000000	0.348555
1558.000000	0.348620
1559.000000	0.348588
1560.000000	0.348631
1561.000000	0.348854
1562.000000	0.348844
1563.000000	0.348784
1564.000000	0.348839
1565.000000	0.348754
1566.000000	0.348756
1567.000000	0.349111
1568.000000	0.349190
1569.000000	0.349200
1570.000000	0.349243
1571.000000	0.349177
1572.000000	0.349166
1573.000000	0.349216
1574.000000	0.349213
1575.000000	0.349179
1576.000000	0.349247
1577.000000	0.349362
1578.000000	0.349414
1579.000000	0.349604
1580.000000	0.349602
1581.000000	0.349509
1582.000000	0.349472
1583.000000	0.349346
1584.000000	0.349300
1585.000000	0.349404
1586.000000	0.349473
1587.000000	0.349589
1588.000000	0.349686
1589.000000	0.349853
1590.000000	0.349846
1591.000000	0.349752
1592.000000	0.349657
1593.000000	0.349408
1594.000000	0.349320
1595.000000	0.349411
1596.000000	0.349473
1597.000000	0.349622
1598.000000	0.349698
1599.000000	0.349753
1600.000000	0.349801
1601.000000	0.349942
1602.000000	0.350026
1603.000000	0.350173
1604.000000	0.350202
1605.000000	0.350133
1606.000000	0.350111
1607.000000	0.350116
1608.000000	0.350129
1609.000000	0.350227
1610.000000	0.350225
1611.000000	0.350187
1612.000000	0.350176
1613.000000	0.350276
1614.000000	0.350325
1615.000000	0.350426
1616.000000	0.350562
1617.000000	0.350632
1618.000000	0.350666
1619.000000	0.350690
1620.000000	0.350764
1621.000000	0.350866
1622.000000	0.351024
1623.000000	0.351202
1624.000000	0.351344
1625.000000	0.351293
1626.000000	0.351304
1627.000000	0.351402
1628.000000	0.351521
1629.000000	0.351667
1630.000000	0.351763
1631.000000	0.351758
1632.000000	0.351778
1633.000000	0.351752
1634.000000	0.351779
1635.000000	0.351875
1636.000000	0.352019
1637.000000	0.352273
1638.000000	0.352388
1639.000000	0.352615
1640.000000	0.352651
1641.000000	0.352517
1642.000000	0.352493
1643.000000	0.352481
1644.000000	0.352497
1645.000000	0.352566
1646.000000	0.352608
1647.000000	0.352723
1648.000000	0.352704
1649.000000	0.352692
1650.000000	0.352754
1651.000000	0.352817
1652.000000	0.352915
1653.000000	0.353053
1654.000000	0.353171
1655.000000	0.353197
1656.000000	0.353229
1657.000000	0.353352
1658.000000	0.353442
1659.000000	0.353638
1660.000000	0.353740
1661.000000	0.353715
1662.000000	0.353794
1663.000000	0.353843
1664.000000	0.353877
1665.000000	0.353904
1666.000000	0.354097
1667.000000	0.354232
1668.000000	0.354380
1669.000000	0.354674
1670.000000	0.354736
1671.000000	0.354755
1672.000000	0.354824
1673.000000	0.354814
1674.000000	0.354952
1675.000000	0.355063
1676.000000	0.355280
1677.000000	0.355355
1678.000000	0.355286
1679.000000	0.355316
1680.000000	0.355267
1681.000000	0.355294
1682.000000	0.355502
1683.000000	0.355669
1684.000000	0.355757
1685.000000	0.355929
1686.000000	0.355978
1687.000000	0.355911
1688.000000	0.355837
1689.000000	0.355712
1690.000000	0.355460
1691.000000	0.355440
1692.000000	0.355550
1693.000000	0.355665
1694.000000	0.355816
1695.000000	0.356010
1696.000000	0.356132
1697.000000	0.356151
1698.000000	0.356189
1699.000000	0.356286
1700.000000	0.356247
1701.000000	0.356442
1702.000000	0.356713
1703.000000	0.356809
1704.000000	0.357037
1705.000000	0.357132
1706.000000	0.357112
1707.000000	0.357091
1708.000000	0.356889
1709.000000	0.356821
1710.000000	0.356953
1711.000000	0.356986
1712.000000	0.357086
1713.000000	0.357148
1714.000000	0.357156
1715.000000	0.357211
1716.000000	0.357419
1717.000000	0.357443
1718.000000	0.357281
1719.000000	0.357194
1720.000000	0.357092
1721.000000	0.357047
1722.000000	0.357088
1723.000000	0.357085
1724.000000	0.357107
1725.000000	0.357125
1726.000000	0.357008
1727.000000	0.357015
1728.000000	0.357018
1729.000000	0.356936
1730.000000	0.356978
1731.000000	0.357087
1732.000000	0.357221
1733.000000	0.357389
1734.000000	0.357509
1735.000000	0.357669
1736.000000	0.357809
1737.000000	0.357845
1738.000000	0.357922
1739.000000	0.357955
1740.000000	0.357806
1741.000000	0.357796
1742.000000	0.357922
1743.000000	0.357962
1744.000000	0.357944
1745.000000	0.357906
1746.000000	0.357795
1747.000000	0.357990
1748.000000	0.357992
1749.000000	0.357957
1750.000000	0.357969
1751.000000	0.357996
1752.000000	0.358153
1753.000000	0.358437
1754.000000	0.358528
1755.000000	0.358394
1756.000000	0.358321
1757.000000	0.358132
1758.000000	0.358060
1759.000000	0.358059
1760.000000	0.358070
1761.000000	0.358180
1762.000000	0.358092
1763.000000	0.357833
1764.000000	0.357784
1765.000000	0.357617
1766.000000	0.357646
1767.000000	0.357988
1768.000000	0.357984
1769.000000	0.357884
1770.000000	0.357957
1771.000000	0.358025
1772.000000	0.357885
1773.000000	0.357617
1774.000000	0.357547
1775.000000	0.357362
1776.000000	0.357390
1777.000000	0.357772
1778.000000	0.357823
1779.000000	0.357729
1780.000000	0.357636
1781.000000	0.357364
1782.000000	0.357344
1783.000000	0.357454
1784.000000	0.357567
1785.000000	0.357625
1786.000000	0.357584
1787.000000	0.357573
1788.000000	0.357761
1789.000000	0.358009
1790.000000	0.358104
1791.000000	0.358090
1792.000000	0.357849
1793.000000	0.357811
1794.000000	0.357990
1795.000000	0.358070
1796.000000	0.358280
1797.000000	0.358280
1798.000000	0.357927
1799.000000	0.357825
1800.000000	0.357832
1801.000000	0.357785
1802.000000	0.357886
1803.000000	0.357913
1804.000000	0.358248
1805.000000	0.359271
1806.000000	0.359491
1807.000000	0.359362
1808.000000	0.359404
1809.000000	0.359068
1810.000000	0.359114
1811.000000	0.358810
1812.000000	0.358330
1813.000000	0.358068
1814.000000	0.357502
1815.000000	0.357480
1816.000000	0.358353
1817.000000	0.358547
1818.000000	0.358555
1819.000000	0.358762
1820.000000	0.359390
1821.000000	0.358776
1822.000000	0.358642
1823.000000	0.358504
1824.000000	0.358425
1825.000000	0.358008
1826.000000	0.358155
1827.000000	0.358753
1828.000000	0.358950
1829.000000	0.359734
1830.000000	0.359490
1831.000000	0.359345
1832.000000	0.358952
1833.000000	0.358577
1834.000000	0.357859
1835.000000	0.357666
1836.000000	0.357628
1837.000000	0.357526
1838.000000	0.357620
1839.000000	0.357393
1840.000000	0.357077
1841.000000	0.356104
1842.000000	0.355933
1843.000000	0.356122
1844.000000	0.356011
1845.000000	0.356014
1846.000000	0.356295
1847.000000	0.356489
1848.000000	0.356385
1849.000000	0.356652
1850.000000	0.356080
1851.000000	0.355869
1852.000000	0.355241
1853.000000	0.354909
1854.000000	0.354659
1855.000000	0.354455
1856.000000	0.354179
1857.000000	0.353783
1858.000000	0.353476
1859.000000	0.353240
1860.000000	0.351874
1861.000000	0.350719
1862.000000	0.349878
1863.000000	0.349177
1864.000000	0.348115
1865.000000	0.347399
1866.000000	0.346351
1867.000000	0.344798
1868.000000	0.343061
1869.000000	0.341856
1870.000000	0.340434
1871.000000	0.338780
1872.000000	0.337524
1873.000000	0.335954
1874.000000	0.334032
1875.000000	0.332469
1876.000000	0.330804
1877.000000	0.328756
1878.000000	0.326774
1879.000000	0.325375
1880.000000	0.323537
1881.000000	0.320779
1882.000000	0.318091
1883.000000	0.314901
1884.000000	0.311899
1885.000000	0.308593
1886.000000	0.305329
1887.000000	0.301985
1888.000000	0.298577
1889.000000	0.295434
1890.000000	0.292229
1891.000000	0.289237
1892.000000	0.286230
1893.000000	0.282608
1894.000000	0.278710
1895.000000	0.274682
1896.000000	0.270533
1897.000000	0.266523
1898.000000	0.262437
1899.000000	0.258796
1900.000000	0.255652
1901.000000	0.252331
1902.000000	0.249402
1903.000000	0.246847
1904.000000	0.244241
1905.000000	0.241653
1906.000000	0.239085
1907.000000	0.236400
1908.000000	0.233870
1909.000000	0.232049
1910.000000	0.230809
1911.000000	0.229962
1912.000000	0.229189
1913.000000	0.228451
1914.000000	0.227213
1915.000000	0.225086
1916.000000	0.223898
1917.000000	0.223235
1918.000000	0.223054
1919.000000	0.222888
1920.000000	0.223466
1921.000000	0.223553
1922.000000	0.222679
1923.000000	0.222158
1924.000000	0.222248
1925.000000	0.222172
1926.000000	0.222105
1927.000000	0.222995
1928.000000	0.223387
1929.000000	0.223652
1930.000000	0.223767
1931.000000	0.224136
1932.000000	0.224012
1933.000000	0.224124
1934.000000	0.224367
1935.000000	0.224448
1936.000000	0.224172
1937.000000	0.224310
1938.000000	0.224935
1939.000000	0.225220
1940.000000	0.225598
1941.000000	0.226269
1942.000000	0.226388
1943.000000	0.226012
1944.000000	0.226321
1945.000000	0.226644
1946.000000	0.226802
1947.000000	0.226600
1948.000000	0.226188
1949.000000	0.226416
1950.000000	0.226792
1951.000000	0.227092
1952.000000	0.227989
1953.000000	0.228570
1954.000000	0.228314
1955.000000	0.228457
1956.000000	0.228350
1957.000000	0.227926
1958.000000	0.227617
1959.000000	0.226858
1960.000000	0.226497
1961.000000	0.226905
1962.000000	0.227140
1963.000000	0.227783
1964.000000	0.228473
1965.000000	0.228561
1966.000000	0.228417
1967.000000	0.228588
1968.000000	0.228367
1969.000000	0.228542
1970.000000	0.228606
1971.000000	0.228077
1972.000000	0.227873
1973.000000	0.227441
1974.000000	0.226315
1975.000000	0.226281
1976.000000	0.226778
1977.000000	0.227437
1978.000000	0.228229
1979.000000	0.229530
1980.000000	0.230379
1981.000000	0.230834
1982.000000	0.231870
1983.000000	0.232430
1984.000000	0.232859
1985.000000	0.233116
1986.000000	0.233566
1987.000000	0.233840
1988.000000	0.234583
1989.000000	0.235175
1990.000000	0.235576
1991.000000	0.236016
1992.000000	0.236045
1993.000000	0.236786
1994.000000	0.237528
1995.000000	0.237876
1996.000000	0.238484
1997.000000	0.239140
1998.000000	0.239581
1999.000000	0.240528
2000.000000	0.241885
2001.000000	0.243343
2002.000000	0.244607
2003.000000	0.245613
2004.000000	0.246680
2005.000000	0.247282
2006.000000	0.247870
2007.000000	0.248757
2008.000000	0.249471
2009.000000	0.250060
2010.000000	0.250636
2011.000000	0.250765
2012.000000	0.251374
2013.000000	0.251983
2014.000000	0.252755
2015.000000	0.254320
2016.000000	0.256253
2017.000000	0.257412
2018.000000	0.258440
2019.000000	0.258840
2020.000000	0.258671
2021.000000	0.259286
2022.000000	0.260187
2023.000000	0.261085
2024.000000	0.262714
2025.000000	0.263740
2026.000000	0.264477
2027.000000	0.264866
2028.000000	0.264941
2029.000000	0.265219
2030.000000	0.265525
2031.000000	0.265849
2032.000000	0.266614
2033.000000	0.267130
2034.000000	0.267807
2035.000000	0.268912
2036.000000	0.269508
2037.000000	0.269952
2038.000000	0.270752
2039.000000	0.271637
2040.000000	0.272175
2041.000000	0.273557
2042.000000	0.274730
2043.000000	0.275117
2044.000000	0.275541
2045.000000	0.275673
2046.000000	0.275714
2047.000000	0.276383
2048.000000	0.277607
2049.000000	0.278557
2050.000000	0.279763
2051.000000	0.280344
2052.000000	0.280084
2053.000000	0.280322
2054.000000	0.280867
2055.000000	0.281163
2056.000000	0.281417
2057.000000	0.282310
2058.000000	0.282875
2059.000000	0.283445
2060.000000	0.284118
2061.000000	0.284959
2062.000000	0.285610
2063.000000	0.286310
2064.000000	0.286716
2065.000000	0.287445
2066.000000	0.287823
2067.000000	0.288169
2068.000000	0.288368
2069.000000	0.288053
2070.000000	0.288135
2071.000000	0.288298
2072.000000	0.288821
2073.000000	0.290076
2074.000000	0.290450
2075.000000	0.290842
2076.000000	0.290917
2077.000000	0.291113
2078.000000	0.290958
2079.000000	0.291371
2080.000000	0.292207
2081.000000	0.293021
2082.000000	0.294252
2083.000000	0.295263
2084.000000	0.295600
2085.000000	0.295862
2086.000000	0.296235
2087.000000	0.297074
2088.000000	0.298053
2089.000000	0.298805
2090.000000	0.299519
2091.000000	0.299908
2092.000000	0.300417
2093.000000	0.301365
2094.000000	0.301773
2095.000000	0.301693
2096.000000	0.301929
2097.000000	0.302175
2098.000000	0.301751
2099.000000	0.302073
2100.000000	0.302974
2101.000000	0.303491
2102.000000	0.304431
2103.000000	0.305740
2104.000000	0.306310
2105.000000	0.306598
2106.000000	0.306688
2107.000000	0.306703
2108.000000	0.305715
2109.000000	0.305764
2110.000000	0.306007
2111.000000	0.306579
2112.000000	0.307681
2113.000000	0.308701
2114.000000	0.309542
2115.000000	0.309597
2116.000000	0.309311
2117.000000	0.308402
2118.000000	0.307850
2119.000000	0.307728
2120.000000	0.307846
2121.000000	0.308509
2122.000000	0.309034
2123.000000	0.309841
2124.000000	0.310269
2125.000000	0.310524
2126.000000	0.310796
2127.000000	0.310881
2128.000000	0.311192
2129.000000	0.311762
2130.000000	0.311743
2131.000000	0.312046
2132.000000	0.312429
2133.000000	0.312911
2134.000000	0.313634
2135.000000	0.313973
2136.000000	0.314733
2137.000000	0.314403
2138.000000	0.313214
2139.000000	0.312581
2140.000000	0.310836
2141.000000	0.310348
2142.000000	0.311062
2143.000000	0.311241
2144.000000	0.312163
2145.000000	0.312626
2146.000000	0.313104
2147.000000	0.313143
2148.000000	0.313012
2149.000000	0.313386
2150.000000	0.313987
2151.000000	0.314579
2152.000000	0.314392
2153.000000	0.313952
2154.000000	0.313292
2155.000000	0.311239
2156.000000	0.310972
2157.000000	0.311992
2158.000000	0.312038
2159.000000	0.313138
2160.000000	0.312938
2161.000000	0.310769
2162.000000	0.309982
2163.000000	0.309003
2164.000000	0.308679
2165.000000	0.309253
2166.000000	0.309845
2167.000000	0.310922
2168.000000	0.310819
2169.000000	0.312528
2170.000000	0.314414
2171.000000	0.314937
2172.000000	0.315838
2173.000000	0.315921
2174.000000	0.313794
2175.000000	0.313174
2176.000000	0.312941
2177.000000	0.312593
2178.000000	0.312658
2179.000000	0.312778
2180.000000	0.312910
2181.000000	0.313448
2182.000000	0.314273
2183.000000	0.313884
2184.000000	0.312987
2185.000000	0.312180
2186.000000	0.310801
2187.000000	0.310178
2188.000000	0.310231
2189.000000	0.309496
2190.000000	0.308541
2191.000000	0.307681
2192.000000	0.307290
2193.000000	0.307409
2194.000000	0.307408
2195.000000	0.308015
2196.000000	0.307899
2197.000000	0.307315
2198.000000	0.306691
2199.000000	0.305915
2200.000000	0.305274
2201.000000	0.304563
2202.000000	0.303820
2203.000000	0.302275
2204.000000	0.301323
2205.000000	0.302996
2206.000000	0.302894
2207.000000	0.303328
2208.000000	0.304835
2209.000000	0.303331
2210.000000	0.303505
2211.000000	0.305111
2212.000000	0.304430
2213.000000	0.305984
2214.000000	0.309624
2215.000000	0.310546
2216.000000	0.312211
2217.000000	0.312105
2218.000000	0.307802
2219.000000	0.307116
2220.000000	0.307870
2221.000000	0.307753
2222.000000	0.309384
2223.000000	0.309555
2224.000000	0.307946
2225.000000	0.307087
2226.000000	0.307792
2227.000000	0.307943
2228.000000	0.309424
2229.000000	0.308759
2230.000000	0.307323
2231.000000	0.307189
2232.000000	0.307256
2233.000000	0.309579
2234.000000	0.310075
2235.000000	0.310089
2236.000000	0.309331
2237.000000	0.306194
2238.000000	0.304976
2239.000000	0.303145
2240.000000	0.303992
2241.000000	0.307905
2242.000000	0.308865
2243.000000	0.310497
2244.000000	0.311664
2245.000000	0.310367
2246.000000	0.310470
2247.000000	0.311831
2248.000000	0.312254
2249.000000	0.312712
2250.000000	0.311699
2251.000000	0.311604
2252.000000	0.311577
2253.000000	0.309762
2254.000000	0.309128
2255.000000	0.306042
2256.000000	0.302759
2257.000000	0.301189
2258.000000	0.300264
2259.000000	0.301579
2260.000000	0.302777
2261.000000	0.303882
2262.000000	0.306253
2263.000000	0.305964
2264.000000	0.304441
2265.000000	0.303367
2266.000000	0.300794
2267.000000	0.299165
2268.000000	0.297686
2269.000000	0.297110
2270.000000	0.297922
2271.000000	0.295899
2272.000000	0.293365
2273.000000	0.290718
2274.000000	0.284770
2275.000000	0.281780
2276.000000	0.279689
2277.000000	0.280194
2278.000000	0.280317
2279.000000	0.281165
2280.000000	0.282720
2281.000000	0.281727
2282.000000	0.280348
2283.000000	0.278783
2284.000000	0.276829
2285.000000	0.274674
2286.000000	0.272605
2287.000000	0.272354
2288.000000	0.270478
2289.000000	0.269474
2290.000000	0.270970
2291.000000	0.270520
2292.000000	0.271828
2293.000000	0.274172
2294.000000	0.275193
2295.000000	0.274533
2296.000000	0.275914
2297.000000	0.277962
2298.000000	0.280138
2299.000000	0.284388
2300.000000	0.286170
2301.000000	0.285633
2302.000000	0.286479
2303.000000	0.287052
2304.000000	0.287334
2305.000000	0.288612
2306.000000	0.289577
2307.000000	0.289573
2308.000000	0.290347
2309.000000	0.290734
2310.000000	0.289597
2311.000000	0.288684
2312.000000	0.286638
2313.000000	0.282608
2314.000000	0.281032
2315.000000	0.280550
2316.000000	0.278892
2317.000000	0.278679
2318.000000	0.281114
2319.000000	0.283170
2320.000000	0.283265
2321.000000	0.285768
2322.000000	0.286645
2323.000000	0.285510
2324.000000	0.285171
2325.000000	0.280585
2326.000000	0.275344
2327.000000	0.272052
2328.000000	0.269970
2329.000000	0.270687
2330.000000	0.273165
2331.000000	0.272311
2332.000000	0.269583
2333.000000	0.268900
2334.000000	0.265808
2335.000000	0.265590
2336.000000	0.268209
2337.000000	0.269336
2338.000000	0.271740
2339.000000	0.272309
2340.000000	0.271299
2341.000000	0.270929
2342.000000	0.269091
2343.000000	0.268774
2344.000000	0.270125
2345.000000	0.270678
2346.000000	0.271867
2347.000000	0.270996
2348.000000	0.269542
2349.000000	0.266181
2350.000000	0.261729
2351.000000	0.259227
2352.000000	0.257755
2353.000000	0.256076
2354.000000	0.256258
2355.000000	0.256829
2356.000000	0.259269
2357.000000	0.261508
2358.000000	0.258215
2359.000000	0.258217
2360.000000	0.257292
2361.000000	0.253437
2362.000000	0.254198
2363.000000	0.251654
2364.000000	0.246269
2365.000000	0.244640
2366.000000	0.240555
2367.000000	0.235845
2368.000000	0.236377
2369.000000	0.237442
2370.000000	0.239449
2371.000000	0.242394
2372.000000	0.240880
2373.000000	0.237657
2374.000000	0.232604
2375.000000	0.231178
2376.000000	0.234407
2377.000000	0.232893
2378.000000	0.236199
2379.000000	0.240497
2380.000000	0.239545
2381.000000	0.238520
2382.000000	0.235540
2383.000000	0.232141
2384.000000	0.227150
2385.000000	0.228790
2386.000000	0.234120
2387.000000	0.235970
2388.000000	0.240082
2389.000000	0.236839
2390.000000	0.231477
2391.000000	0.230299
2392.000000	0.224461
2393.000000	0.222278
2394.000000	0.223443
2395.000000	0.222654
2396.000000	0.223699
2397.000000	0.222120
2398.000000	0.216611
2399.000000	0.209887
2400.000000	0.204136
2401.000000	0.201206
2402.000000	0.198298
2403.000000	0.198094
2404.000000	0.198518
2405.000000	0.201642
2406.000000	0.210809
2407.000000	0.216233
2408.000000	0.217944
2409.000000	0.216401
2410.000000	0.212178
2411.000000	0.208376
2412.000000	0.205714
2413.000000	0.211152
2414.000000	0.220574
2415.000000	0.221807
2416.000000	0.221794
2417.000000	0.222000
2418.000000	0.215177
2419.000000	0.209552
2420.000000	0.208409
2421.000000	0.205762
2422.000000	0.205230
2423.000000	0.208079
2424.000000	0.210942
2425.000000	0.215277
2426.000000	0.212737
2427.000000	0.217193
2428.000000	0.218726
2429.000000	0.213001
2430.000000	0.220374
2431.000000	0.218102
2432.000000	0.211246
2433.000000	0.206518
2434.000000	0.202272
2435.000000	0.204386
2436.000000	0.209926
2437.000000	0.225509
2438.000000	0.234592
2439.000000	0.231859
2440.000000	0.236932
2441.000000	0.235357
2442.000000	0.220398
2443.000000	0.217163
2444.000000	0.214278
2445.000000	0.200535
2446.000000	0.200565
2447.000000	0.208319
2448.000000	0.197173
2449.000000	0.187538
2450.000000	0.193821
2451.000000	0.182817
2452.000000	0.181854
2453.000000	0.201267
2454.000000	0.199296
2455.000000	0.211048
2456.000000	0.225602
2457.000000	0.220737
2458.000000	0.225770
2459.000000	0.212105
2460.000000	0.191496
2461.000000	0.185162
2462.000000	0.173991
2463.000000	0.178550
2464.000000	0.173127
2465.000000	0.152063
2466.000000	0.149686
2467.000000	0.161873
2468.000000	0.186717
2469.000000	0.229372
2470.000000	0.266247
2471.000000	0.260239
2472.000000	0.234963
2473.000000	0.204113
2474.000000	0.162438
2475.000000	0.158755
2476.000000	0.157255
2477.000000	0.130162
2478.000000	0.129420
2479.000000	0.129010
2480.000000	0.131134
2481.000000	0.184727
2482.000000	0.215015
2483.000000	0.203769
2484.000000	0.226432
2485.000000	0.225114
2486.000000	0.208328
2487.000000	0.230618
2488.000000	0.177080
2489.000000	0.127932
2490.000000	0.109912
2491.000000	0.076360
2492.000000	0.048220
2493.000000	0.003631
2494.000000	-0.025492
2495.000000	-0.055509
2496.000000	-0.059214
2497.000000	-0.031538
2498.000000	-0.003890
2499.000000	0.048029
2500.000000	0.104133
