# Wavelength	Nau-1_70_FV7_30_00000.asd.rts.txt
350.000000	0.118294
351.000000	0.109294
352.000000	0.127339
353.000000	0.133857
354.000000	0.117205
355.000000	0.113039
356.000000	0.116968
357.000000	0.120831
358.000000	0.110718
359.000000	0.110088
360.000000	0.113555
361.000000	0.110185
362.000000	0.104608
363.000000	0.103393
364.000000	0.109140
365.000000	0.119099
366.000000	0.118391
367.000000	0.109086
368.000000	0.108297
369.000000	0.110546
370.000000	0.113314
371.000000	0.114778
372.000000	0.114407
373.000000	0.115144
374.000000	0.118263
375.000000	0.118980
376.000000	0.119593
377.000000	0.120829
378.000000	0.122327
379.000000	0.120082
380.000000	0.117815
381.000000	0.120968
382.000000	0.121864
383.000000	0.121783
384.000000	0.122684
385.000000	0.125162
386.000000	0.126795
387.000000	0.127771
388.000000	0.131260
389.000000	0.129881
390.000000	0.127599
391.000000	0.131204
392.000000	0.133131
393.000000	0.135106
394.000000	0.138755
395.000000	0.141373
396.000000	0.142621
397.000000	0.142951
398.000000	0.143715
399.000000	0.145897
400.000000	0.148084
401.000000	0.147925
402.000000	0.149883
403.000000	0.152577
404.000000	0.154252
405.000000	0.155448
406.000000	0.157095
407.000000	0.158922
408.000000	0.158051
409.000000	0.159496
410.000000	0.162644
411.000000	0.163719
412.000000	0.164818
413.000000	0.166043
414.000000	0.167125
415.000000	0.168062
416.000000	0.168261
417.000000	0.167944
418.000000	0.169310
419.000000	0.170514
420.000000	0.171055
421.000000	0.171461
422.000000	0.171598
423.000000	0.171529
424.000000	0.171444
425.000000	0.171608
426.000000	0.171873
427.000000	0.172000
428.000000	0.171569
429.000000	0.171661
430.000000	0.172255
431.000000	0.171800
432.000000	0.171489
433.000000	0.171459
434.000000	0.171502
435.000000	0.171769
436.000000	0.171700
437.000000	0.170963
438.000000	0.170979
439.000000	0.170630
440.000000	0.169701
441.000000	0.169749
442.000000	0.169671
443.000000	0.169173
444.000000	0.168561
445.000000	0.168006
446.000000	0.167774
447.000000	0.168049
448.000000	0.169442
449.000000	0.170641
450.000000	0.171119
451.000000	0.172914
452.000000	0.175160
453.000000	0.177423
454.000000	0.179820
455.000000	0.182859
456.000000	0.186059
457.000000	0.188477
458.000000	0.191268
459.000000	0.193978
460.000000	0.196158
461.000000	0.198283
462.000000	0.200463
463.000000	0.202565
464.000000	0.204497
465.000000	0.205985
466.000000	0.207029
467.000000	0.207944
468.000000	0.209108
469.000000	0.210275
470.000000	0.211200
471.000000	0.211902
472.000000	0.212533
473.000000	0.213257
474.000000	0.214210
475.000000	0.214872
476.000000	0.215306
477.000000	0.215930
478.000000	0.216428
479.000000	0.217030
480.000000	0.217836
481.000000	0.218360
482.000000	0.218933
483.000000	0.219701
484.000000	0.220528
485.000000	0.221200
486.000000	0.221742
487.000000	0.222033
488.000000	0.222493
489.000000	0.223210
490.000000	0.224034
491.000000	0.224651
492.000000	0.225197
493.000000	0.225809
494.000000	0.226607
495.000000	0.227390
496.000000	0.228009
497.000000	0.228706
498.000000	0.229356
499.000000	0.230053
500.000000	0.231015
501.000000	0.231895
502.000000	0.232634
503.000000	0.233234
504.000000	0.233864
505.000000	0.234581
506.000000	0.235402
507.000000	0.236284
508.000000	0.237117
509.000000	0.237884
510.000000	0.238907
511.000000	0.239837
512.000000	0.240652
513.000000	0.241529
514.000000	0.242470
515.000000	0.243473
516.000000	0.244459
517.000000	0.245405
518.000000	0.246399
519.000000	0.247397
520.000000	0.248210
521.000000	0.249104
522.000000	0.250193
523.000000	0.251391
524.000000	0.252437
525.000000	0.253375
526.000000	0.254467
527.000000	0.255600
528.000000	0.256699
529.000000	0.257775
530.000000	0.258994
531.000000	0.260274
532.000000	0.261494
533.000000	0.262844
534.000000	0.264102
535.000000	0.265251
536.000000	0.266524
537.000000	0.267782
538.000000	0.269007
539.000000	0.270216
540.000000	0.271466
541.000000	0.272722
542.000000	0.273971
543.000000	0.275150
544.000000	0.276375
545.000000	0.277631
546.000000	0.278901
547.000000	0.280190
548.000000	0.281481
549.000000	0.282644
550.000000	0.283868
551.000000	0.285135
552.000000	0.286323
553.000000	0.287551
554.000000	0.288729
555.000000	0.289830
556.000000	0.291095
557.000000	0.292286
558.000000	0.293435
559.000000	0.294527
560.000000	0.295608
561.000000	0.296759
562.000000	0.297905
563.000000	0.298864
564.000000	0.299833
565.000000	0.300890
566.000000	0.301801
567.000000	0.302656
568.000000	0.303507
569.000000	0.304374
570.000000	0.305220
571.000000	0.306020
572.000000	0.306787
573.000000	0.307464
574.000000	0.308096
575.000000	0.308814
576.000000	0.309497
577.000000	0.310059
578.000000	0.310547
579.000000	0.311078
580.000000	0.311611
581.000000	0.312102
582.000000	0.312492
583.000000	0.312963
584.000000	0.313481
585.000000	0.313885
586.000000	0.314180
587.000000	0.314461
588.000000	0.314818
589.000000	0.315143
590.000000	0.315429
591.000000	0.315676
592.000000	0.315869
593.000000	0.316070
594.000000	0.316289
595.000000	0.316492
596.000000	0.316647
597.000000	0.316798
598.000000	0.316914
599.000000	0.317031
600.000000	0.317140
601.000000	0.317167
602.000000	0.317286
603.000000	0.317406
604.000000	0.317471
605.000000	0.317445
606.000000	0.317417
607.000000	0.317400
608.000000	0.317359
609.000000	0.317414
610.000000	0.317480
611.000000	0.317449
612.000000	0.317479
613.000000	0.317547
614.000000	0.317644
615.000000	0.317679
616.000000	0.317642
617.000000	0.317577
618.000000	0.317717
619.000000	0.317855
620.000000	0.317921
621.000000	0.317959
622.000000	0.317990
623.000000	0.317990
624.000000	0.317958
625.000000	0.318003
626.000000	0.318107
627.000000	0.318233
628.000000	0.318315
629.000000	0.318372
630.000000	0.318365
631.000000	0.318531
632.000000	0.318578
633.000000	0.318634
634.000000	0.318829
635.000000	0.318939
636.000000	0.319001
637.000000	0.319050
638.000000	0.319167
639.000000	0.319257
640.000000	0.319369
641.000000	0.319499
642.000000	0.319578
643.000000	0.319667
644.000000	0.319854
645.000000	0.319977
646.000000	0.320107
647.000000	0.320261
648.000000	0.320309
649.000000	0.320448
650.000000	0.320687
651.000000	0.320859
652.000000	0.320988
653.000000	0.321152
654.000000	0.321370
655.000000	0.321583
656.000000	0.321784
657.000000	0.321932
658.000000	0.322136
659.000000	0.322374
660.000000	0.322612
661.000000	0.322857
662.000000	0.323121
663.000000	0.323431
664.000000	0.323714
665.000000	0.324035
666.000000	0.324359
667.000000	0.324613
668.000000	0.324873
669.000000	0.325141
670.000000	0.325431
671.000000	0.325778
672.000000	0.326132
673.000000	0.326477
674.000000	0.326852
675.000000	0.327189
676.000000	0.327505
677.000000	0.327857
678.000000	0.328232
679.000000	0.328595
680.000000	0.328938
681.000000	0.329284
682.000000	0.329701
683.000000	0.330108
684.000000	0.330509
685.000000	0.330943
686.000000	0.331401
687.000000	0.331804
688.000000	0.332217
689.000000	0.332647
690.000000	0.333131
691.000000	0.333666
692.000000	0.334115
693.000000	0.334529
694.000000	0.334997
695.000000	0.335439
696.000000	0.335893
697.000000	0.336430
698.000000	0.336931
699.000000	0.337449
700.000000	0.338021
701.000000	0.338523
702.000000	0.339006
703.000000	0.339464
704.000000	0.339846
705.000000	0.340368
706.000000	0.340941
707.000000	0.341453
708.000000	0.341962
709.000000	0.342498
710.000000	0.343076
711.000000	0.343565
712.000000	0.344078
713.000000	0.344657
714.000000	0.345168
715.000000	0.345616
716.000000	0.346090
717.000000	0.346683
718.000000	0.347245
719.000000	0.347753
720.000000	0.348238
721.000000	0.348748
722.000000	0.349238
723.000000	0.349753
724.000000	0.350251
725.000000	0.350692
726.000000	0.351164
727.000000	0.351614
728.000000	0.352010
729.000000	0.352431
730.000000	0.352878
731.000000	0.353333
732.000000	0.353785
733.000000	0.354255
734.000000	0.354673
735.000000	0.354981
736.000000	0.355346
737.000000	0.355727
738.000000	0.356104
739.000000	0.356571
740.000000	0.356993
741.000000	0.357426
742.000000	0.357816
743.000000	0.358141
744.000000	0.358519
745.000000	0.358857
746.000000	0.359168
747.000000	0.359391
748.000000	0.359636
749.000000	0.359880
750.000000	0.360077
751.000000	0.360316
752.000000	0.360549
753.000000	0.360772
754.000000	0.360982
755.000000	0.361208
756.000000	0.361401
757.000000	0.361472
758.000000	0.361594
759.000000	0.361776
760.000000	0.361925
761.000000	0.362112
762.000000	0.362225
763.000000	0.362281
764.000000	0.362460
765.000000	0.362560
766.000000	0.362584
767.000000	0.362580
768.000000	0.362671
769.000000	0.362686
770.000000	0.362566
771.000000	0.362389
772.000000	0.362313
773.000000	0.362260
774.000000	0.362202
775.000000	0.362113
776.000000	0.362012
777.000000	0.361900
778.000000	0.361775
779.000000	0.361699
780.000000	0.361650
781.000000	0.361500
782.000000	0.361354
783.000000	0.361277
784.000000	0.361111
785.000000	0.360955
786.000000	0.360768
787.000000	0.360549
788.000000	0.360410
789.000000	0.360268
790.000000	0.360071
791.000000	0.359835
792.000000	0.359619
793.000000	0.359389
794.000000	0.359131
795.000000	0.358938
796.000000	0.358735
797.000000	0.358491
798.000000	0.358235
799.000000	0.357899
800.000000	0.357528
801.000000	0.357199
802.000000	0.356936
803.000000	0.356680
804.000000	0.356425
805.000000	0.356098
806.000000	0.355748
807.000000	0.355464
808.000000	0.355185
809.000000	0.354940
810.000000	0.354708
811.000000	0.354441
812.000000	0.354116
813.000000	0.353792
814.000000	0.353473
815.000000	0.353133
816.000000	0.352636
817.000000	0.352198
818.000000	0.351929
819.000000	0.351596
820.000000	0.351277
821.000000	0.350953
822.000000	0.350629
823.000000	0.350316
824.000000	0.349902
825.000000	0.349411
826.000000	0.349071
827.000000	0.348756
828.000000	0.348412
829.000000	0.348029
830.000000	0.347719
831.000000	0.347469
832.000000	0.347029
833.000000	0.346718
834.000000	0.346498
835.000000	0.346288
836.000000	0.345918
837.000000	0.345447
838.000000	0.344975
839.000000	0.344583
840.000000	0.344176
841.000000	0.343787
842.000000	0.343408
843.000000	0.342985
844.000000	0.342662
845.000000	0.342385
846.000000	0.341965
847.000000	0.341661
848.000000	0.341387
849.000000	0.341029
850.000000	0.340608
851.000000	0.340153
852.000000	0.339737
853.000000	0.339375
854.000000	0.338965
855.000000	0.338732
856.000000	0.338691
857.000000	0.338385
858.000000	0.338001
859.000000	0.337609
860.000000	0.337293
861.000000	0.337043
862.000000	0.336871
863.000000	0.336669
864.000000	0.336185
865.000000	0.335707
866.000000	0.335389
867.000000	0.334950
868.000000	0.334672
869.000000	0.334472
870.000000	0.334246
871.000000	0.333940
872.000000	0.333623
873.000000	0.333281
874.000000	0.332945
875.000000	0.332622
876.000000	0.332306
877.000000	0.331932
878.000000	0.331706
879.000000	0.331498
880.000000	0.331125
881.000000	0.330929
882.000000	0.330724
883.000000	0.330495
884.000000	0.330222
885.000000	0.329972
886.000000	0.329675
887.000000	0.329360
888.000000	0.329184
889.000000	0.328935
890.000000	0.328572
891.000000	0.328352
892.000000	0.328143
893.000000	0.327852
894.000000	0.327584
895.000000	0.327336
896.000000	0.327079
897.000000	0.326848
898.000000	0.326688
899.000000	0.326551
900.000000	0.326337
901.000000	0.326048
902.000000	0.325965
903.000000	0.325834
904.000000	0.325608
905.000000	0.325255
906.000000	0.325179
907.000000	0.325136
908.000000	0.325036
909.000000	0.324800
910.000000	0.324630
911.000000	0.324492
912.000000	0.324339
913.000000	0.324227
914.000000	0.323941
915.000000	0.323669
916.000000	0.323699
917.000000	0.323582
918.000000	0.323448
919.000000	0.323359
920.000000	0.323000
921.000000	0.322762
922.000000	0.322650
923.000000	0.322447
924.000000	0.322230
925.000000	0.321992
926.000000	0.321781
927.000000	0.321631
928.000000	0.321421
929.000000	0.321229
930.000000	0.321182
931.000000	0.321262
932.000000	0.321226
933.000000	0.321068
934.000000	0.320942
935.000000	0.320823
936.000000	0.320776
937.000000	0.320685
938.000000	0.320316
939.000000	0.320108
940.000000	0.320083
941.000000	0.320137
942.000000	0.319917
943.000000	0.319682
944.000000	0.319505
945.000000	0.319420
946.000000	0.319421
947.000000	0.319476
948.000000	0.319441
949.000000	0.319108
950.000000	0.318990
951.000000	0.319059
952.000000	0.318881
953.000000	0.318687
954.000000	0.318646
955.000000	0.318724
956.000000	0.318717
957.000000	0.318725
958.000000	0.318726
959.000000	0.318782
960.000000	0.318827
961.000000	0.318776
962.000000	0.318646
963.000000	0.318617
964.000000	0.318471
965.000000	0.318460
966.000000	0.318561
967.000000	0.318151
968.000000	0.318205
969.000000	0.318489
970.000000	0.318412
971.000000	0.318473
972.000000	0.318589
973.000000	0.318601
974.000000	0.318523
975.000000	0.318359
976.000000	0.318192
977.000000	0.318103
978.000000	0.318159
979.000000	0.318377
980.000000	0.318263
981.000000	0.317819
982.000000	0.317950
983.000000	0.318051
984.000000	0.317981
985.000000	0.318036
986.000000	0.318313
987.000000	0.318443
988.000000	0.318233
989.000000	0.318567
990.000000	0.318823
991.000000	0.318850
992.000000	0.318775
993.000000	0.318871
994.000000	0.319150
995.000000	0.319548
996.000000	0.319594
997.000000	0.319909
998.000000	0.320047
999.000000	0.320051
1000.000000	0.320569
1001.000000	0.320788
1002.000000	0.320087
1003.000000	0.319792
1004.000000	0.319594
1005.000000	0.318716
1006.000000	0.318378
1007.000000	0.318521
1008.000000	0.319109
1009.000000	0.319160
1010.000000	0.319455
1011.000000	0.319436
1012.000000	0.319291
1013.000000	0.319370
1014.000000	0.319284
1015.000000	0.319201
1016.000000	0.319198
1017.000000	0.319119
1018.000000	0.319214
1019.000000	0.319433
1020.000000	0.320241
1021.000000	0.320330
1022.000000	0.320165
1023.000000	0.320483
1024.000000	0.320733
1025.000000	0.320937
1026.000000	0.321469
1027.000000	0.322353
1028.000000	0.322712
1029.000000	0.322930
1030.000000	0.323112
1031.000000	0.323068
1032.000000	0.323512
1033.000000	0.324307
1034.000000	0.324715
1035.000000	0.325044
1036.000000	0.325453
1037.000000	0.325661
1038.000000	0.325732
1039.000000	0.325750
1040.000000	0.326371
1041.000000	0.326924
1042.000000	0.327249
1043.000000	0.327556
1044.000000	0.327686
1045.000000	0.327454
1046.000000	0.327849
1047.000000	0.328428
1048.000000	0.329603
1049.000000	0.330096
1050.000000	0.330458
1051.000000	0.330766
1052.000000	0.330807
1053.000000	0.330962
1054.000000	0.331359
1055.000000	0.331639
1056.000000	0.331923
1057.000000	0.331969
1058.000000	0.332230
1059.000000	0.332700
1060.000000	0.333182
1061.000000	0.333754
1062.000000	0.334270
1063.000000	0.334887
1064.000000	0.335536
1065.000000	0.336346
1066.000000	0.336903
1067.000000	0.337386
1068.000000	0.337659
1069.000000	0.337374
1070.000000	0.337698
1071.000000	0.338512
1072.000000	0.338963
1073.000000	0.339576
1074.000000	0.340092
1075.000000	0.340443
1076.000000	0.340789
1077.000000	0.341546
1078.000000	0.342353
1079.000000	0.342817
1080.000000	0.343136
1081.000000	0.343333
1082.000000	0.343250
1083.000000	0.343564
1084.000000	0.343859
1085.000000	0.344526
1086.000000	0.345709
1087.000000	0.346512
1088.000000	0.347567
1089.000000	0.348054
1090.000000	0.348073
1091.000000	0.347832
1092.000000	0.347679
1093.000000	0.347896
1094.000000	0.348458
1095.000000	0.349489
1096.000000	0.350326
1097.000000	0.351525
1098.000000	0.352182
1099.000000	0.352526
1100.000000	0.352978
1101.000000	0.353041
1102.000000	0.353392
1103.000000	0.353920
1104.000000	0.354414
1105.000000	0.354917
1106.000000	0.355474
1107.000000	0.355959
1108.000000	0.356488
1109.000000	0.356994
1110.000000	0.357831
1111.000000	0.358566
1112.000000	0.359528
1113.000000	0.360001
1114.000000	0.360323
1115.000000	0.360608
1116.000000	0.360366
1117.000000	0.360730
1118.000000	0.361484
1119.000000	0.361920
1120.000000	0.362528
1121.000000	0.362921
1122.000000	0.363010
1123.000000	0.363553
1124.000000	0.364011
1125.000000	0.364518
1126.000000	0.365235
1127.000000	0.365695
1128.000000	0.366036
1129.000000	0.366191
1130.000000	0.366677
1131.000000	0.367247
1132.000000	0.367625
1133.000000	0.368143
1134.000000	0.368663
1135.000000	0.368917
1136.000000	0.369320
1137.000000	0.370050
1138.000000	0.370388
1139.000000	0.370538
1140.000000	0.370879
1141.000000	0.370967
1142.000000	0.371338
1143.000000	0.371956
1144.000000	0.372533
1145.000000	0.373070
1146.000000	0.373418
1147.000000	0.373739
1148.000000	0.373787
1149.000000	0.374022
1150.000000	0.374334
1151.000000	0.374598
1152.000000	0.374732
1153.000000	0.375033
1154.000000	0.375281
1155.000000	0.375644
1156.000000	0.376338
1157.000000	0.376693
1158.000000	0.376733
1159.000000	0.377020
1160.000000	0.377233
1161.000000	0.377498
1162.000000	0.378009
1163.000000	0.378692
1164.000000	0.378995
1165.000000	0.379273
1166.000000	0.379638
1167.000000	0.379962
1168.000000	0.380183
1169.000000	0.380408
1170.000000	0.380729
1171.000000	0.381111
1172.000000	0.381400
1173.000000	0.381666
1174.000000	0.381943
1175.000000	0.382101
1176.000000	0.382226
1177.000000	0.382452
1178.000000	0.382716
1179.000000	0.382900
1180.000000	0.383062
1181.000000	0.383317
1182.000000	0.383726
1183.000000	0.384171
1184.000000	0.384606
1185.000000	0.384847
1186.000000	0.385060
1187.000000	0.385221
1188.000000	0.385065
1189.000000	0.385287
1190.000000	0.385865
1191.000000	0.386158
1192.000000	0.386561
1193.000000	0.386994
1194.000000	0.387175
1195.000000	0.387444
1196.000000	0.387696
1197.000000	0.387992
1198.000000	0.388390
1199.000000	0.388650
1200.000000	0.388907
1201.000000	0.389092
1202.000000	0.389113
1203.000000	0.389079
1204.000000	0.389227
1205.000000	0.389482
1206.000000	0.389615
1207.000000	0.389932
1208.000000	0.390060
1209.000000	0.390063
1210.000000	0.390262
1211.000000	0.390583
1212.000000	0.390719
1213.000000	0.390845
1214.000000	0.391067
1215.000000	0.391257
1216.000000	0.391376
1217.000000	0.391490
1218.000000	0.391621
1219.000000	0.391669
1220.000000	0.391807
1221.000000	0.391988
1222.000000	0.392192
1223.000000	0.392441
1224.000000	0.392556
1225.000000	0.392571
1226.000000	0.392696
1227.000000	0.392692
1228.000000	0.392710
1229.000000	0.392784
1230.000000	0.393003
1231.000000	0.393023
1232.000000	0.393104
1233.000000	0.393302
1234.000000	0.393484
1235.000000	0.393567
1236.000000	0.393516
1237.000000	0.393600
1238.000000	0.393602
1239.000000	0.393669
1240.000000	0.393815
1241.000000	0.394003
1242.000000	0.394331
1243.000000	0.394430
1244.000000	0.394633
1245.000000	0.395033
1246.000000	0.394999
1247.000000	0.395060
1248.000000	0.395221
1249.000000	0.395225
1250.000000	0.395423
1251.000000	0.395716
1252.000000	0.395836
1253.000000	0.395939
1254.000000	0.396030
1255.000000	0.396013
1256.000000	0.395964
1257.000000	0.395940
1258.000000	0.396012
1259.000000	0.395889
1260.000000	0.396004
1261.000000	0.396331
1262.000000	0.396424
1263.000000	0.396416
1264.000000	0.396559
1265.000000	0.396684
1266.000000	0.396719
1267.000000	0.396914
1268.000000	0.397041
1269.000000	0.396875
1270.000000	0.396883
1271.000000	0.396902
1272.000000	0.396812
1273.000000	0.396776
1274.000000	0.396725
1275.000000	0.396683
1276.000000	0.396633
1277.000000	0.396665
1278.000000	0.396639
1279.000000	0.396599
1280.000000	0.396423
1281.000000	0.396378
1282.000000	0.396510
1283.000000	0.396653
1284.000000	0.396780
1285.000000	0.396862
1286.000000	0.396880
1287.000000	0.396904
1288.000000	0.396973
1289.000000	0.397012
1290.000000	0.396929
1291.000000	0.396803
1292.000000	0.396869
1293.000000	0.396990
1294.000000	0.396912
1295.000000	0.397051
1296.000000	0.397131
1297.000000	0.396922
1298.000000	0.397017
1299.000000	0.397155
1300.000000	0.397120
1301.000000	0.397039
1302.000000	0.396964
1303.000000	0.396963
1304.000000	0.396936
1305.000000	0.397097
1306.000000	0.397170
1307.000000	0.397276
1308.000000	0.397316
1309.000000	0.397299
1310.000000	0.397277
1311.000000	0.397249
1312.000000	0.397144
1313.000000	0.397073
1314.000000	0.396985
1315.000000	0.396818
1316.000000	0.396784
1317.000000	0.396826
1318.000000	0.396824
1319.000000	0.396779
1320.000000	0.396745
1321.000000	0.396696
1322.000000	0.396625
1323.000000	0.396570
1324.000000	0.396598
1325.000000	0.396573
1326.000000	0.396480
1327.000000	0.396282
1328.000000	0.396008
1329.000000	0.395823
1330.000000	0.395620
1331.000000	0.395574
1332.000000	0.395841
1333.000000	0.395852
1334.000000	0.395842
1335.000000	0.395809
1336.000000	0.395610
1337.000000	0.395602
1338.000000	0.395661
1339.000000	0.395643
1340.000000	0.395599
1341.000000	0.395425
1342.000000	0.395128
1343.000000	0.395076
1344.000000	0.395198
1345.000000	0.395165
1346.000000	0.395278
1347.000000	0.395243
1348.000000	0.395040
1349.000000	0.394844
1350.000000	0.394544
1351.000000	0.394182
1352.000000	0.394022
1353.000000	0.393897
1354.000000	0.393908
1355.000000	0.394083
1356.000000	0.394166
1357.000000	0.393960
1358.000000	0.393760
1359.000000	0.393557
1360.000000	0.393359
1361.000000	0.393182
1362.000000	0.393063
1363.000000	0.392944
1364.000000	0.392822
1365.000000	0.392691
1366.000000	0.392617
1367.000000	0.392601
1368.000000	0.392481
1369.000000	0.392429
1370.000000	0.392065
1371.000000	0.391664
1372.000000	0.391414
1373.000000	0.391023
1374.000000	0.390683
1375.000000	0.390414
1376.000000	0.390036
1377.000000	0.389730
1378.000000	0.389466
1379.000000	0.388809
1380.000000	0.388162
1381.000000	0.387552
1382.000000	0.386800
1383.000000	0.386142
1384.000000	0.385259
1385.000000	0.384238
1386.000000	0.383321
1387.000000	0.382332
1388.000000	0.381320
1389.000000	0.380383
1390.000000	0.379347
1391.000000	0.378106
1392.000000	0.376953
1393.000000	0.375750
1394.000000	0.374416
1395.000000	0.373263
1396.000000	0.372270
1397.000000	0.371069
1398.000000	0.369891
1399.000000	0.368597
1400.000000	0.367013
1401.000000	0.365661
1402.000000	0.364489
1403.000000	0.363024
1404.000000	0.361820
1405.000000	0.360651
1406.000000	0.359178
1407.000000	0.357996
1408.000000	0.356823
1409.000000	0.355629
1410.000000	0.354573
1411.000000	0.353514
1412.000000	0.352494
1413.000000	0.351661
1414.000000	0.351117
1415.000000	0.350729
1416.000000	0.350328
1417.000000	0.350154
1418.000000	0.350135
1419.000000	0.350132
1420.000000	0.350166
1421.000000	0.350255
1422.000000	0.350247
1423.000000	0.350265
1424.000000	0.350254
1425.000000	0.350285
1426.000000	0.350142
1427.000000	0.350009
1428.000000	0.349774
1429.000000	0.349349
1430.000000	0.349101
1431.000000	0.348872
1432.000000	0.348708
1433.000000	0.348628
1434.000000	0.348744
1435.000000	0.348935
1436.000000	0.349503
1437.000000	0.350420
1438.000000	0.351353
1439.000000	0.352542
1440.000000	0.353757
1441.000000	0.355090
1442.000000	0.356503
1443.000000	0.357937
1444.000000	0.359553
1445.000000	0.361137
1446.000000	0.362483
1447.000000	0.363852
1448.000000	0.365011
1449.000000	0.366012
1450.000000	0.367062
1451.000000	0.367907
1452.000000	0.368513
1453.000000	0.368919
1454.000000	0.369066
1455.000000	0.369243
1456.000000	0.369611
1457.000000	0.369961
1458.000000	0.370258
1459.000000	0.370489
1460.000000	0.370603
1461.000000	0.370721
1462.000000	0.370909
1463.000000	0.371037
1464.000000	0.371156
1465.000000	0.371382
1466.000000	0.371614
1467.000000	0.371938
1468.000000	0.372298
1469.000000	0.372659
1470.000000	0.372976
1471.000000	0.373187
1472.000000	0.373401
1473.000000	0.373746
1474.000000	0.373937
1475.000000	0.374292
1476.000000	0.374801
1477.000000	0.375221
1478.000000	0.375646
1479.000000	0.375997
1480.000000	0.376302
1481.000000	0.376611
1482.000000	0.376908
1483.000000	0.377341
1484.000000	0.377873
1485.000000	0.378322
1486.000000	0.378828
1487.000000	0.379244
1488.000000	0.379584
1489.000000	0.379993
1490.000000	0.380197
1491.000000	0.380591
1492.000000	0.381131
1493.000000	0.381471
1494.000000	0.381741
1495.000000	0.382009
1496.000000	0.382104
1497.000000	0.382268
1498.000000	0.382542
1499.000000	0.382714
1500.000000	0.382777
1501.000000	0.382905
1502.000000	0.383136
1503.000000	0.383362
1504.000000	0.383610
1505.000000	0.383973
1506.000000	0.384238
1507.000000	0.384387
1508.000000	0.384712
1509.000000	0.384957
1510.000000	0.385090
1511.000000	0.385427
1512.000000	0.385698
1513.000000	0.385838
1514.000000	0.386055
1515.000000	0.386177
1516.000000	0.386209
1517.000000	0.386307
1518.000000	0.386460
1519.000000	0.386484
1520.000000	0.386571
1521.000000	0.386683
1522.000000	0.386889
1523.000000	0.387153
1524.000000	0.387330
1525.000000	0.387523
1526.000000	0.387520
1527.000000	0.387576
1528.000000	0.387820
1529.000000	0.387942
1530.000000	0.388034
1531.000000	0.388238
1532.000000	0.388409
1533.000000	0.388571
1534.000000	0.388806
1535.000000	0.389142
1536.000000	0.389332
1537.000000	0.389521
1538.000000	0.389668
1539.000000	0.389553
1540.000000	0.389514
1541.000000	0.389625
1542.000000	0.389866
1543.000000	0.390080
1544.000000	0.390133
1545.000000	0.390225
1546.000000	0.390230
1547.000000	0.390306
1548.000000	0.390355
1549.000000	0.390293
1550.000000	0.390367
1551.000000	0.390391
1552.000000	0.390506
1553.000000	0.390713
1554.000000	0.390872
1555.000000	0.391030
1556.000000	0.391149
1557.000000	0.391307
1558.000000	0.391436
1559.000000	0.391378
1560.000000	0.391470
1561.000000	0.391735
1562.000000	0.391787
1563.000000	0.391835
1564.000000	0.391934
1565.000000	0.391935
1566.000000	0.391884
1567.000000	0.392051
1568.000000	0.392008
1569.000000	0.391817
1570.000000	0.391801
1571.000000	0.391781
1572.000000	0.391781
1573.000000	0.391922
1574.000000	0.391951
1575.000000	0.391885
1576.000000	0.392027
1577.000000	0.392250
1578.000000	0.392339
1579.000000	0.392557
1580.000000	0.392725
1581.000000	0.392819
1582.000000	0.392976
1583.000000	0.393317
1584.000000	0.393353
1585.000000	0.393292
1586.000000	0.393321
1587.000000	0.393231
1588.000000	0.393272
1589.000000	0.393459
1590.000000	0.393548
1591.000000	0.393696
1592.000000	0.393662
1593.000000	0.393516
1594.000000	0.393419
1595.000000	0.393331
1596.000000	0.393253
1597.000000	0.393199
1598.000000	0.393210
1599.000000	0.393253
1600.000000	0.393230
1601.000000	0.393448
1602.000000	0.393425
1603.000000	0.393185
1604.000000	0.393164
1605.000000	0.393172
1606.000000	0.393216
1607.000000	0.393523
1608.000000	0.393632
1609.000000	0.393725
1610.000000	0.393722
1611.000000	0.393610
1612.000000	0.393582
1613.000000	0.393667
1614.000000	0.393693
1615.000000	0.393805
1616.000000	0.393962
1617.000000	0.394059
1618.000000	0.394109
1619.000000	0.394171
1620.000000	0.394172
1621.000000	0.394162
1622.000000	0.394193
1623.000000	0.394152
1624.000000	0.394185
1625.000000	0.394049
1626.000000	0.393939
1627.000000	0.393951
1628.000000	0.393919
1629.000000	0.393742
1630.000000	0.393817
1631.000000	0.393945
1632.000000	0.394000
1633.000000	0.394289
1634.000000	0.394321
1635.000000	0.394129
1636.000000	0.394097
1637.000000	0.394061
1638.000000	0.394023
1639.000000	0.394200
1640.000000	0.394158
1641.000000	0.394085
1642.000000	0.393981
1643.000000	0.393748
1644.000000	0.393665
1645.000000	0.393665
1646.000000	0.393520
1647.000000	0.393434
1648.000000	0.393285
1649.000000	0.393115
1650.000000	0.393029
1651.000000	0.393042
1652.000000	0.393040
1653.000000	0.392925
1654.000000	0.392967
1655.000000	0.393091
1656.000000	0.393031
1657.000000	0.393099
1658.000000	0.393049
1659.000000	0.392934
1660.000000	0.392886
1661.000000	0.392736
1662.000000	0.392671
1663.000000	0.392585
1664.000000	0.392563
1665.000000	0.392626
1666.000000	0.392681
1667.000000	0.392701
1668.000000	0.392615
1669.000000	0.392365
1670.000000	0.392310
1671.000000	0.392392
1672.000000	0.392485
1673.000000	0.392732
1674.000000	0.392713
1675.000000	0.392818
1676.000000	0.393034
1677.000000	0.392986
1678.000000	0.392860
1679.000000	0.392793
1680.000000	0.392741
1681.000000	0.392738
1682.000000	0.392800
1683.000000	0.392907
1684.000000	0.392946
1685.000000	0.393026
1686.000000	0.393017
1687.000000	0.392998
1688.000000	0.393052
1689.000000	0.393065
1690.000000	0.392965
1691.000000	0.393020
1692.000000	0.392951
1693.000000	0.392757
1694.000000	0.392801
1695.000000	0.392940
1696.000000	0.392960
1697.000000	0.392854
1698.000000	0.392713
1699.000000	0.392595
1700.000000	0.392284
1701.000000	0.392269
1702.000000	0.392302
1703.000000	0.392192
1704.000000	0.392214
1705.000000	0.392247
1706.000000	0.392284
1707.000000	0.392253
1708.000000	0.392197
1709.000000	0.392108
1710.000000	0.391998
1711.000000	0.391957
1712.000000	0.392061
1713.000000	0.392106
1714.000000	0.392162
1715.000000	0.392255
1716.000000	0.392457
1717.000000	0.392469
1718.000000	0.392329
1719.000000	0.392256
1720.000000	0.392149
1721.000000	0.392094
1722.000000	0.392240
1723.000000	0.392100
1724.000000	0.391754
1725.000000	0.391612
1726.000000	0.391330
1727.000000	0.391101
1728.000000	0.390950
1729.000000	0.390677
1730.000000	0.390395
1731.000000	0.390241
1732.000000	0.390172
1733.000000	0.390235
1734.000000	0.390252
1735.000000	0.390279
1736.000000	0.390410
1737.000000	0.390344
1738.000000	0.390179
1739.000000	0.390087
1740.000000	0.389880
1741.000000	0.389826
1742.000000	0.389882
1743.000000	0.389979
1744.000000	0.390150
1745.000000	0.390161
1746.000000	0.390143
1747.000000	0.390157
1748.000000	0.389988
1749.000000	0.389658
1750.000000	0.389439
1751.000000	0.389360
1752.000000	0.389298
1753.000000	0.389074
1754.000000	0.389051
1755.000000	0.389151
1756.000000	0.389012
1757.000000	0.388908
1758.000000	0.388810
1759.000000	0.388280
1760.000000	0.388136
1761.000000	0.388392
1762.000000	0.388379
1763.000000	0.388425
1764.000000	0.388378
1765.000000	0.388018
1766.000000	0.387923
1767.000000	0.387897
1768.000000	0.387762
1769.000000	0.387769
1770.000000	0.387798
1771.000000	0.387692
1772.000000	0.387696
1773.000000	0.387832
1774.000000	0.387765
1775.000000	0.387683
1776.000000	0.387569
1777.000000	0.387263
1778.000000	0.387085
1779.000000	0.386935
1780.000000	0.386847
1781.000000	0.386776
1782.000000	0.386673
1783.000000	0.386649
1784.000000	0.386534
1785.000000	0.386348
1786.000000	0.386311
1787.000000	0.386582
1788.000000	0.386737
1789.000000	0.386844
1790.000000	0.386741
1791.000000	0.386623
1792.000000	0.386567
1793.000000	0.386522
1794.000000	0.386515
1795.000000	0.386509
1796.000000	0.386416
1797.000000	0.386436
1798.000000	0.386514
1799.000000	0.386604
1800.000000	0.386983
1801.000000	0.386100
1802.000000	0.386680
1803.000000	0.387320
1804.000000	0.387530
1805.000000	0.387984
1806.000000	0.387752
1807.000000	0.386482
1808.000000	0.385772
1809.000000	0.385008
1810.000000	0.384110
1811.000000	0.383606
1812.000000	0.383199
1813.000000	0.383454
1814.000000	0.384554
1815.000000	0.384725
1816.000000	0.385255
1817.000000	0.385088
1818.000000	0.383652
1819.000000	0.383279
1820.000000	0.383201
1821.000000	0.383130
1822.000000	0.382907
1823.000000	0.382658
1824.000000	0.382481
1825.000000	0.381799
1826.000000	0.381811
1827.000000	0.382337
1828.000000	0.382703
1829.000000	0.382859
1830.000000	0.383315
1831.000000	0.383190
1832.000000	0.382384
1833.000000	0.382176
1834.000000	0.381899
1835.000000	0.381914
1836.000000	0.382399
1837.000000	0.382557
1838.000000	0.382693
1839.000000	0.382163
1840.000000	0.382203
1841.000000	0.382848
1842.000000	0.382831
1843.000000	0.382842
1844.000000	0.382722
1845.000000	0.381600
1846.000000	0.381422
1847.000000	0.381269
1848.000000	0.381879
1849.000000	0.383237
1850.000000	0.383399
1851.000000	0.383209
1852.000000	0.382397
1853.000000	0.382091
1854.000000	0.381131
1855.000000	0.380487
1856.000000	0.380058
1857.000000	0.379991
1858.000000	0.379053
1859.000000	0.377842
1860.000000	0.377036
1861.000000	0.375822
1862.000000	0.375202
1863.000000	0.375163
1864.000000	0.374989
1865.000000	0.375377
1866.000000	0.375299
1867.000000	0.375200
1868.000000	0.374381
1869.000000	0.373364
1870.000000	0.371720
1871.000000	0.370290
1872.000000	0.368826
1873.000000	0.367523
1874.000000	0.366440
1875.000000	0.365395
1876.000000	0.364080
1877.000000	0.362757
1878.000000	0.361488
1879.000000	0.359814
1880.000000	0.357563
1881.000000	0.354795
1882.000000	0.351087
1883.000000	0.347292
1884.000000	0.344106
1885.000000	0.340705
1886.000000	0.337491
1887.000000	0.335010
1888.000000	0.331809
1889.000000	0.327996
1890.000000	0.324261
1891.000000	0.320181
1892.000000	0.315720
1893.000000	0.311482
1894.000000	0.307168
1895.000000	0.302667
1896.000000	0.297935
1897.000000	0.294053
1898.000000	0.289800
1899.000000	0.285745
1900.000000	0.282413
1901.000000	0.279237
1902.000000	0.276529
1903.000000	0.274271
1904.000000	0.272103
1905.000000	0.269749
1906.000000	0.268034
1907.000000	0.266586
1908.000000	0.265844
1909.000000	0.265418
1910.000000	0.265791
1911.000000	0.266603
1912.000000	0.266755
1913.000000	0.267208
1914.000000	0.268181
1915.000000	0.268831
1916.000000	0.269869
1917.000000	0.270973
1918.000000	0.272649
1919.000000	0.273759
1920.000000	0.274578
1921.000000	0.275606
1922.000000	0.276242
1923.000000	0.277029
1924.000000	0.278077
1925.000000	0.279345
1926.000000	0.280963
1927.000000	0.282229
1928.000000	0.283335
1929.000000	0.284609
1930.000000	0.285160
1931.000000	0.285351
1932.000000	0.286312
1933.000000	0.286540
1934.000000	0.287012
1935.000000	0.288020
1936.000000	0.288785
1937.000000	0.289875
1938.000000	0.290568
1939.000000	0.291216
1940.000000	0.291664
1941.000000	0.292085
1942.000000	0.292456
1943.000000	0.293320
1944.000000	0.294164
1945.000000	0.294383
1946.000000	0.294932
1947.000000	0.295735
1948.000000	0.296552
1949.000000	0.297699
1950.000000	0.298459
1951.000000	0.298717
1952.000000	0.298613
1953.000000	0.297834
1954.000000	0.297536
1955.000000	0.297808
1956.000000	0.298039
1957.000000	0.299202
1958.000000	0.300040
1959.000000	0.300632
1960.000000	0.301834
1961.000000	0.302853
1962.000000	0.303527
1963.000000	0.304084
1964.000000	0.304781
1965.000000	0.305106
1966.000000	0.305206
1967.000000	0.305746
1968.000000	0.306096
1969.000000	0.306185
1970.000000	0.306679
1971.000000	0.307386
1972.000000	0.308168
1973.000000	0.308746
1974.000000	0.309366
1975.000000	0.310177
1976.000000	0.311091
1977.000000	0.311804
1978.000000	0.312743
1979.000000	0.313904
1980.000000	0.314499
1981.000000	0.315408
1982.000000	0.315875
1983.000000	0.316100
1984.000000	0.316680
1985.000000	0.317218
1986.000000	0.317667
1987.000000	0.318200
1988.000000	0.319647
1989.000000	0.320231
1990.000000	0.321081
1991.000000	0.322089
1992.000000	0.322031
1993.000000	0.322178
1994.000000	0.322204
1995.000000	0.322292
1996.000000	0.323000
1997.000000	0.323724
1998.000000	0.324798
1999.000000	0.325852
2000.000000	0.327326
2001.000000	0.328216
2002.000000	0.328534
2003.000000	0.329046
2004.000000	0.329294
2005.000000	0.329528
2006.000000	0.330470
2007.000000	0.330997
2008.000000	0.331612
2009.000000	0.332146
2010.000000	0.332680
2011.000000	0.333140
2012.000000	0.333804
2013.000000	0.334403
2014.000000	0.334908
2015.000000	0.335979
2016.000000	0.336515
2017.000000	0.336771
2018.000000	0.337486
2019.000000	0.337612
2020.000000	0.336921
2021.000000	0.336935
2022.000000	0.336701
2023.000000	0.337070
2024.000000	0.338323
2025.000000	0.339241
2026.000000	0.339926
2027.000000	0.341288
2028.000000	0.341916
2029.000000	0.342459
2030.000000	0.343487
2031.000000	0.343454
2032.000000	0.343450
2033.000000	0.343509
2034.000000	0.343338
2035.000000	0.342785
2036.000000	0.342543
2037.000000	0.342439
2038.000000	0.342639
2039.000000	0.343200
2040.000000	0.343738
2041.000000	0.344530
2042.000000	0.345214
2043.000000	0.345373
2044.000000	0.345836
2045.000000	0.345934
2046.000000	0.345802
2047.000000	0.346174
2048.000000	0.346799
2049.000000	0.347427
2050.000000	0.347956
2051.000000	0.348461
2052.000000	0.348798
2053.000000	0.348971
2054.000000	0.349343
2055.000000	0.349849
2056.000000	0.350203
2057.000000	0.350731
2058.000000	0.350898
2059.000000	0.350913
2060.000000	0.350876
2061.000000	0.350436
2062.000000	0.350267
2063.000000	0.350271
2064.000000	0.350171
2065.000000	0.350432
2066.000000	0.350414
2067.000000	0.350666
2068.000000	0.350783
2069.000000	0.350889
2070.000000	0.350863
2071.000000	0.350916
2072.000000	0.351223
2073.000000	0.351548
2074.000000	0.351801
2075.000000	0.352351
2076.000000	0.353292
2077.000000	0.353897
2078.000000	0.354868
2079.000000	0.355092
2080.000000	0.354400
2081.000000	0.354367
2082.000000	0.354325
2083.000000	0.354403
2084.000000	0.354527
2085.000000	0.354791
2086.000000	0.354836
2087.000000	0.354857
2088.000000	0.355583
2089.000000	0.355913
2090.000000	0.355961
2091.000000	0.355768
2092.000000	0.355674
2093.000000	0.355339
2094.000000	0.355152
2095.000000	0.355124
2096.000000	0.355140
2097.000000	0.355023
2098.000000	0.354803
2099.000000	0.354862
2100.000000	0.355083
2101.000000	0.355429
2102.000000	0.355805
2103.000000	0.356255
2104.000000	0.355804
2105.000000	0.355862
2106.000000	0.355813
2107.000000	0.355967
2108.000000	0.356346
2109.000000	0.357053
2110.000000	0.357906
2111.000000	0.358199
2112.000000	0.358586
2113.000000	0.358198
2114.000000	0.357937
2115.000000	0.357765
2116.000000	0.357647
2117.000000	0.357289
2118.000000	0.357245
2119.000000	0.357120
2120.000000	0.356780
2121.000000	0.356651
2122.000000	0.356603
2123.000000	0.355861
2124.000000	0.356113
2125.000000	0.357401
2126.000000	0.357885
2127.000000	0.358459
2128.000000	0.358727
2129.000000	0.358182
2130.000000	0.358628
2131.000000	0.357733
2132.000000	0.357369
2133.000000	0.357489
2134.000000	0.356590
2135.000000	0.357708
2136.000000	0.358942
2137.000000	0.359161
2138.000000	0.359346
2139.000000	0.359162
2140.000000	0.357529
2141.000000	0.357153
2142.000000	0.357559
2143.000000	0.357089
2144.000000	0.356688
2145.000000	0.356410
2146.000000	0.356046
2147.000000	0.355632
2148.000000	0.355046
2149.000000	0.355753
2150.000000	0.356455
2151.000000	0.356347
2152.000000	0.357028
2153.000000	0.357170
2154.000000	0.356684
2155.000000	0.355312
2156.000000	0.354792
2157.000000	0.354228
2158.000000	0.353718
2159.000000	0.353653
2160.000000	0.353252
2161.000000	0.352450
2162.000000	0.351838
2163.000000	0.350899
2164.000000	0.350501
2165.000000	0.349986
2166.000000	0.350482
2167.000000	0.351264
2168.000000	0.352225
2169.000000	0.353905
2170.000000	0.354367
2171.000000	0.354876
2172.000000	0.355506
2173.000000	0.355449
2174.000000	0.354665
2175.000000	0.354046
2176.000000	0.353001
2177.000000	0.352061
2178.000000	0.350712
2179.000000	0.350540
2180.000000	0.350803
2181.000000	0.351225
2182.000000	0.352062
2183.000000	0.352568
2184.000000	0.352271
2185.000000	0.352651
2186.000000	0.352903
2187.000000	0.352166
2188.000000	0.351268
2189.000000	0.349818
2190.000000	0.348638
2191.000000	0.349110
2192.000000	0.348483
2193.000000	0.348227
2194.000000	0.347105
2195.000000	0.343889
2196.000000	0.343041
2197.000000	0.343100
2198.000000	0.343513
2199.000000	0.346694
2200.000000	0.348299
2201.000000	0.350103
2202.000000	0.350214
2203.000000	0.348635
2204.000000	0.346163
2205.000000	0.342477
2206.000000	0.339268
2207.000000	0.338667
2208.000000	0.338474
2209.000000	0.339020
2210.000000	0.341763
2211.000000	0.343398
2212.000000	0.342769
2213.000000	0.341978
2214.000000	0.339044
2215.000000	0.338629
2216.000000	0.339178
2217.000000	0.339750
2218.000000	0.341444
2219.000000	0.342836
2220.000000	0.343391
2221.000000	0.344424
2222.000000	0.346590
2223.000000	0.348046
2224.000000	0.349055
2225.000000	0.350783
2226.000000	0.350247
2227.000000	0.349145
2228.000000	0.349339
2229.000000	0.346797
2230.000000	0.345525
2231.000000	0.347444
2232.000000	0.345740
2233.000000	0.344645
2234.000000	0.345234
2235.000000	0.345100
2236.000000	0.345857
2237.000000	0.349285
2238.000000	0.348822
2239.000000	0.345545
2240.000000	0.344809
2241.000000	0.343153
2242.000000	0.343116
2243.000000	0.345409
2244.000000	0.346724
2245.000000	0.349087
2246.000000	0.349009
2247.000000	0.347808
2248.000000	0.347069
2249.000000	0.345020
2250.000000	0.341761
2251.000000	0.342020
2252.000000	0.340634
2253.000000	0.339478
2254.000000	0.339725
2255.000000	0.339259
2256.000000	0.340899
2257.000000	0.343377
2258.000000	0.344070
2259.000000	0.344994
2260.000000	0.344318
2261.000000	0.341999
2262.000000	0.337523
2263.000000	0.335272
2264.000000	0.332690
2265.000000	0.330134
2266.000000	0.328642
2267.000000	0.325678
2268.000000	0.319939
2269.000000	0.317428
2270.000000	0.317057
2271.000000	0.315938
2272.000000	0.316348
2273.000000	0.315628
2274.000000	0.313600
2275.000000	0.312526
2276.000000	0.311594
2277.000000	0.310972
2278.000000	0.310740
2279.000000	0.307695
2280.000000	0.304442
2281.000000	0.301455
2282.000000	0.296969
2283.000000	0.294048
2284.000000	0.292722
2285.000000	0.290183
2286.000000	0.290769
2287.000000	0.291505
2288.000000	0.291530
2289.000000	0.294977
2290.000000	0.295856
2291.000000	0.295682
2292.000000	0.296718
2293.000000	0.294091
2294.000000	0.294656
2295.000000	0.297364
2296.000000	0.299626
2297.000000	0.303915
2298.000000	0.305940
2299.000000	0.305712
2300.000000	0.306572
2301.000000	0.306568
2302.000000	0.308164
2303.000000	0.311341
2304.000000	0.314288
2305.000000	0.318219
2306.000000	0.320215
2307.000000	0.321137
2308.000000	0.323249
2309.000000	0.323310
2310.000000	0.324042
2311.000000	0.323943
2312.000000	0.323440
2313.000000	0.323076
2314.000000	0.320982
2315.000000	0.321583
2316.000000	0.322607
2317.000000	0.321253
2318.000000	0.322977
2319.000000	0.324533
2320.000000	0.323893
2321.000000	0.324396
2322.000000	0.324641
2323.000000	0.325796
2324.000000	0.325206
2325.000000	0.324508
2326.000000	0.325181
2327.000000	0.324274
2328.000000	0.326017
2329.000000	0.327213
2330.000000	0.326395
2331.000000	0.326893
2332.000000	0.326014
2333.000000	0.327484
2334.000000	0.330173
2335.000000	0.331163
2336.000000	0.331983
2337.000000	0.330553
2338.000000	0.325456
2339.000000	0.323245
2340.000000	0.320913
2341.000000	0.319303
2342.000000	0.319226
2343.000000	0.318518
2344.000000	0.317122
2345.000000	0.316929
2346.000000	0.318857
2347.000000	0.318772
2348.000000	0.319133
2349.000000	0.316778
2350.000000	0.311494
2351.000000	0.308333
2352.000000	0.305636
2353.000000	0.304197
2354.000000	0.303404
2355.000000	0.305311
2356.000000	0.307485
2357.000000	0.307341
2358.000000	0.308327
2359.000000	0.304483
2360.000000	0.297528
2361.000000	0.292456
2362.000000	0.290818
2363.000000	0.291674
2364.000000	0.292655
2365.000000	0.295684
2366.000000	0.299599
2367.000000	0.300562
2368.000000	0.300716
2369.000000	0.303240
2370.000000	0.302943
2371.000000	0.305899
2372.000000	0.312102
2373.000000	0.311867
2374.000000	0.307152
2375.000000	0.299710
2376.000000	0.293663
2377.000000	0.290970
2378.000000	0.291676
2379.000000	0.292911
2380.000000	0.288052
2381.000000	0.283244
2382.000000	0.279415
2383.000000	0.276779
2384.000000	0.280048
2385.000000	0.282968
2386.000000	0.284448
2387.000000	0.285426
2388.000000	0.283675
2389.000000	0.281392
2390.000000	0.281704
2391.000000	0.282199
2392.000000	0.284614
2393.000000	0.290409
2394.000000	0.291337
2395.000000	0.288598
2396.000000	0.279889
2397.000000	0.266733
2398.000000	0.258359
2399.000000	0.256197
2400.000000	0.259715
2401.000000	0.262940
2402.000000	0.264781
2403.000000	0.268256
2404.000000	0.266088
2405.000000	0.265278
2406.000000	0.275579
2407.000000	0.275750
2408.000000	0.274508
2409.000000	0.282471
2410.000000	0.277500
2411.000000	0.268293
2412.000000	0.268136
2413.000000	0.264519
2414.000000	0.259867
2415.000000	0.266682
2416.000000	0.270454
2417.000000	0.272145
2418.000000	0.275154
2419.000000	0.269934
2420.000000	0.266241
2421.000000	0.264629
2422.000000	0.264625
2423.000000	0.270995
2424.000000	0.275150
2425.000000	0.270418
2426.000000	0.270416
2427.000000	0.271157
2428.000000	0.271713
2429.000000	0.287451
2430.000000	0.294981
2431.000000	0.289941
2432.000000	0.285378
2433.000000	0.267396
2434.000000	0.250741
2435.000000	0.253018
2436.000000	0.247360
2437.000000	0.252423
2438.000000	0.266438
2439.000000	0.253192
2440.000000	0.248160
2441.000000	0.235131
2442.000000	0.209462
2443.000000	0.207554
2444.000000	0.210343
2445.000000	0.224436
2446.000000	0.249460
2447.000000	0.262425
2448.000000	0.265112
2449.000000	0.262692
2450.000000	0.249589
2451.000000	0.248933
2452.000000	0.267529
2453.000000	0.271540
2454.000000	0.276084
2455.000000	0.270658
2456.000000	0.255837
2457.000000	0.269847
2458.000000	0.277482
2459.000000	0.278594
2460.000000	0.291371
2461.000000	0.266426
2462.000000	0.249797
2463.000000	0.246901
2464.000000	0.218333
2465.000000	0.219992
2466.000000	0.228471
2467.000000	0.233219
2468.000000	0.257333
2469.000000	0.245245
2470.000000	0.219722
2471.000000	0.213922
2472.000000	0.216253
2473.000000	0.229457
2474.000000	0.254376
2475.000000	0.284919
2476.000000	0.274348
2477.000000	0.254002
2478.000000	0.266595
2479.000000	0.224251
2480.000000	0.205277
2481.000000	0.272479
2482.000000	0.284526
2483.000000	0.300675
2484.000000	0.334574
2485.000000	0.317648
2486.000000	0.295518
2487.000000	0.279608
2488.000000	0.269039
2489.000000	0.227263
2490.000000	0.211385
2491.000000	0.237818
2492.000000	0.238032
2493.000000	0.231659
2494.000000	0.215366
2495.000000	0.183805
2496.000000	0.141684
2497.000000	0.052420
2498.000000	0.032467
2499.000000	0.042098
2500.000000	0.086210
