# Wavelength	NAu-1-40_HEX-50_FV7-10_00001.asd.rts.txt
350.000000	0.171622
351.000000	0.161644
352.000000	0.143797
353.000000	0.140840
354.000000	0.155407
355.000000	0.147181
356.000000	0.147238
357.000000	0.155223
358.000000	0.146875
359.000000	0.157378
360.000000	0.166826
361.000000	0.151188
362.000000	0.155262
363.000000	0.160886
364.000000	0.155620
365.000000	0.153374
366.000000	0.155532
367.000000	0.159191
368.000000	0.157726
369.000000	0.158960
370.000000	0.159140
371.000000	0.153372
372.000000	0.156200
373.000000	0.159304
374.000000	0.157866
375.000000	0.161350
376.000000	0.162398
377.000000	0.160339
378.000000	0.160931
379.000000	0.161685
380.000000	0.162272
381.000000	0.163353
382.000000	0.163441
383.000000	0.165295
384.000000	0.169454
385.000000	0.168224
386.000000	0.168817
387.000000	0.172412
388.000000	0.173852
389.000000	0.172912
390.000000	0.172486
391.000000	0.175856
392.000000	0.177096
393.000000	0.177845
394.000000	0.179938
395.000000	0.182738
396.000000	0.183794
397.000000	0.183395
398.000000	0.185651
399.000000	0.187188
400.000000	0.188921
401.000000	0.193032
402.000000	0.194968
403.000000	0.195673
404.000000	0.196889
405.000000	0.198735
406.000000	0.200472
407.000000	0.202052
408.000000	0.204774
409.000000	0.205857
410.000000	0.205807
411.000000	0.206978
412.000000	0.208525
413.000000	0.209981
414.000000	0.211061
415.000000	0.212117
416.000000	0.212986
417.000000	0.213581
418.000000	0.214012
419.000000	0.214507
420.000000	0.215075
421.000000	0.215509
422.000000	0.216578
423.000000	0.217092
424.000000	0.215785
425.000000	0.216001
426.000000	0.216877
427.000000	0.217245
428.000000	0.216649
429.000000	0.216683
430.000000	0.217360
431.000000	0.216487
432.000000	0.216070
433.000000	0.216279
434.000000	0.216574
435.000000	0.216520
436.000000	0.216337
437.000000	0.216278
438.000000	0.216181
439.000000	0.215822
440.000000	0.215252
441.000000	0.214729
442.000000	0.214154
443.000000	0.213636
444.000000	0.213577
445.000000	0.213513
446.000000	0.213592
447.000000	0.213943
448.000000	0.214443
449.000000	0.215452
450.000000	0.217092
451.000000	0.218645
452.000000	0.220873
453.000000	0.223625
454.000000	0.225862
455.000000	0.228823
456.000000	0.232268
457.000000	0.235230
458.000000	0.238011
459.000000	0.240772
460.000000	0.243591
461.000000	0.245992
462.000000	0.248384
463.000000	0.250688
464.000000	0.252388
465.000000	0.253712
466.000000	0.254843
467.000000	0.256118
468.000000	0.257613
469.000000	0.258834
470.000000	0.259518
471.000000	0.260768
472.000000	0.261826
473.000000	0.262320
474.000000	0.263221
475.000000	0.263981
476.000000	0.264553
477.000000	0.265022
478.000000	0.265687
479.000000	0.266486
480.000000	0.266878
481.000000	0.267535
482.000000	0.268370
483.000000	0.269011
484.000000	0.269771
485.000000	0.270416
486.000000	0.271025
487.000000	0.271658
488.000000	0.272314
489.000000	0.273053
490.000000	0.273947
491.000000	0.274625
492.000000	0.275271
493.000000	0.276036
494.000000	0.276867
495.000000	0.277705
496.000000	0.278469
497.000000	0.279198
498.000000	0.280064
499.000000	0.281070
500.000000	0.281799
501.000000	0.282500
502.000000	0.283329
503.000000	0.284307
504.000000	0.285176
505.000000	0.285943
506.000000	0.286716
507.000000	0.287767
508.000000	0.288823
509.000000	0.289697
510.000000	0.290543
511.000000	0.291504
512.000000	0.292593
513.000000	0.293655
514.000000	0.294576
515.000000	0.295535
516.000000	0.296697
517.000000	0.297753
518.000000	0.298841
519.000000	0.299980
520.000000	0.301062
521.000000	0.302136
522.000000	0.303251
523.000000	0.304436
524.000000	0.305689
525.000000	0.306923
526.000000	0.308057
527.000000	0.309381
528.000000	0.310786
529.000000	0.312139
530.000000	0.313289
531.000000	0.314560
532.000000	0.316011
533.000000	0.317388
534.000000	0.318790
535.000000	0.320207
536.000000	0.321555
537.000000	0.323076
538.000000	0.324629
539.000000	0.325929
540.000000	0.327267
541.000000	0.328685
542.000000	0.330185
543.000000	0.331548
544.000000	0.332996
545.000000	0.334517
546.000000	0.335944
547.000000	0.337389
548.000000	0.338872
549.000000	0.340238
550.000000	0.341618
551.000000	0.343036
552.000000	0.344428
553.000000	0.345868
554.000000	0.347287
555.000000	0.348645
556.000000	0.350010
557.000000	0.351298
558.000000	0.352633
559.000000	0.353962
560.000000	0.355132
561.000000	0.356282
562.000000	0.357504
563.000000	0.358693
564.000000	0.359896
565.000000	0.361027
566.000000	0.362094
567.000000	0.363180
568.000000	0.364265
569.000000	0.365179
570.000000	0.366068
571.000000	0.366981
572.000000	0.367937
573.000000	0.368749
574.000000	0.369437
575.000000	0.370171
576.000000	0.370964
577.000000	0.371682
578.000000	0.372313
579.000000	0.372969
580.000000	0.373560
581.000000	0.374076
582.000000	0.374660
583.000000	0.375173
584.000000	0.375616
585.000000	0.376068
586.000000	0.376461
587.000000	0.376804
588.000000	0.377128
589.000000	0.377508
590.000000	0.377880
591.000000	0.378194
592.000000	0.378440
593.000000	0.378741
594.000000	0.379065
595.000000	0.379217
596.000000	0.379349
597.000000	0.379544
598.000000	0.379719
599.000000	0.379752
600.000000	0.379829
601.000000	0.379996
602.000000	0.380091
603.000000	0.380133
604.000000	0.380163
605.000000	0.380206
606.000000	0.380257
607.000000	0.380342
608.000000	0.380502
609.000000	0.380570
610.000000	0.380603
611.000000	0.380693
612.000000	0.380750
613.000000	0.380792
614.000000	0.380867
615.000000	0.380868
616.000000	0.380840
617.000000	0.380795
618.000000	0.380848
619.000000	0.380902
620.000000	0.380923
621.000000	0.380964
622.000000	0.380884
623.000000	0.380842
624.000000	0.380963
625.000000	0.381077
626.000000	0.381170
627.000000	0.381248
628.000000	0.381324
629.000000	0.381515
630.000000	0.381629
631.000000	0.381668
632.000000	0.381723
633.000000	0.381781
634.000000	0.381808
635.000000	0.381925
636.000000	0.382130
637.000000	0.382359
638.000000	0.382505
639.000000	0.382644
640.000000	0.382829
641.000000	0.382884
642.000000	0.383031
643.000000	0.383197
644.000000	0.383258
645.000000	0.383464
646.000000	0.383676
647.000000	0.383763
648.000000	0.383933
649.000000	0.384144
650.000000	0.384340
651.000000	0.384511
652.000000	0.384709
653.000000	0.384960
654.000000	0.385173
655.000000	0.385382
656.000000	0.385635
657.000000	0.385894
658.000000	0.386136
659.000000	0.386452
660.000000	0.386817
661.000000	0.387054
662.000000	0.387291
663.000000	0.387591
664.000000	0.387852
665.000000	0.388223
666.000000	0.388633
667.000000	0.388947
668.000000	0.389295
669.000000	0.389657
670.000000	0.390021
671.000000	0.390404
672.000000	0.390751
673.000000	0.391071
674.000000	0.391458
675.000000	0.391835
676.000000	0.392198
677.000000	0.392587
678.000000	0.393008
679.000000	0.393425
680.000000	0.393834
681.000000	0.394265
682.000000	0.394750
683.000000	0.395196
684.000000	0.395675
685.000000	0.396154
686.000000	0.396657
687.000000	0.397150
688.000000	0.397640
689.000000	0.398164
690.000000	0.398772
691.000000	0.399354
692.000000	0.399870
693.000000	0.400415
694.000000	0.401001
695.000000	0.401576
696.000000	0.402142
697.000000	0.402725
698.000000	0.403271
699.000000	0.403865
700.000000	0.404555
701.000000	0.405140
702.000000	0.405719
703.000000	0.406299
704.000000	0.406835
705.000000	0.407455
706.000000	0.408096
707.000000	0.408737
708.000000	0.409393
709.000000	0.409995
710.000000	0.410532
711.000000	0.411129
712.000000	0.411726
713.000000	0.412329
714.000000	0.412954
715.000000	0.413571
716.000000	0.414203
717.000000	0.414855
718.000000	0.415487
719.000000	0.416098
720.000000	0.416702
721.000000	0.417244
722.000000	0.417764
723.000000	0.418355
724.000000	0.418921
725.000000	0.419485
726.000000	0.420138
727.000000	0.420772
728.000000	0.421414
729.000000	0.421981
730.000000	0.422378
731.000000	0.422866
732.000000	0.423350
733.000000	0.423858
734.000000	0.424416
735.000000	0.424883
736.000000	0.425408
737.000000	0.425903
738.000000	0.426383
739.000000	0.426923
740.000000	0.427345
741.000000	0.427780
742.000000	0.428167
743.000000	0.428492
744.000000	0.428920
745.000000	0.429272
746.000000	0.429627
747.000000	0.430001
748.000000	0.430416
749.000000	0.430807
750.000000	0.431089
751.000000	0.431332
752.000000	0.431541
753.000000	0.431744
754.000000	0.431949
755.000000	0.432246
756.000000	0.432550
757.000000	0.432702
758.000000	0.432913
759.000000	0.433177
760.000000	0.433355
761.000000	0.433449
762.000000	0.433493
763.000000	0.433521
764.000000	0.433669
765.000000	0.433713
766.000000	0.433749
767.000000	0.433876
768.000000	0.433944
769.000000	0.433954
770.000000	0.433937
771.000000	0.433950
772.000000	0.433993
773.000000	0.433941
774.000000	0.433823
775.000000	0.433771
776.000000	0.433738
777.000000	0.433638
778.000000	0.433474
779.000000	0.433290
780.000000	0.433123
781.000000	0.432968
782.000000	0.432820
783.000000	0.432754
784.000000	0.432606
785.000000	0.432446
786.000000	0.432256
787.000000	0.432041
788.000000	0.431887
789.000000	0.431693
790.000000	0.431427
791.000000	0.431159
792.000000	0.430926
793.000000	0.430626
794.000000	0.430216
795.000000	0.429894
796.000000	0.429572
797.000000	0.429229
798.000000	0.428937
799.000000	0.428623
800.000000	0.428295
801.000000	0.427983
802.000000	0.427677
803.000000	0.427307
804.000000	0.426909
805.000000	0.426549
806.000000	0.426181
807.000000	0.425890
808.000000	0.425599
809.000000	0.425205
810.000000	0.424750
811.000000	0.424285
812.000000	0.423892
813.000000	0.423469
814.000000	0.423036
815.000000	0.422744
816.000000	0.422391
817.000000	0.422002
818.000000	0.421541
819.000000	0.421139
820.000000	0.420762
821.000000	0.420347
822.000000	0.420012
823.000000	0.419679
824.000000	0.419251
825.000000	0.418805
826.000000	0.418372
827.000000	0.418002
828.000000	0.417724
829.000000	0.417298
830.000000	0.416806
831.000000	0.416355
832.000000	0.415860
833.000000	0.415530
834.000000	0.415228
835.000000	0.414859
836.000000	0.414423
837.000000	0.413986
838.000000	0.413576
839.000000	0.413133
840.000000	0.412703
841.000000	0.412280
842.000000	0.411815
843.000000	0.411418
844.000000	0.411083
845.000000	0.410737
846.000000	0.410345
847.000000	0.409997
848.000000	0.409662
849.000000	0.409316
850.000000	0.408893
851.000000	0.408457
852.000000	0.408120
853.000000	0.407921
854.000000	0.407625
855.000000	0.407313
856.000000	0.406910
857.000000	0.406399
858.000000	0.406050
859.000000	0.405835
860.000000	0.405552
861.000000	0.405226
862.000000	0.404889
863.000000	0.404492
864.000000	0.404133
865.000000	0.403812
866.000000	0.403538
867.000000	0.403249
868.000000	0.402964
869.000000	0.402643
870.000000	0.402367
871.000000	0.402036
872.000000	0.401693
873.000000	0.401315
874.000000	0.401009
875.000000	0.400660
876.000000	0.400349
877.000000	0.400127
878.000000	0.399862
879.000000	0.399650
880.000000	0.399372
881.000000	0.399104
882.000000	0.398752
883.000000	0.398378
884.000000	0.398027
885.000000	0.397792
886.000000	0.397564
887.000000	0.397332
888.000000	0.397185
889.000000	0.397019
890.000000	0.396730
891.000000	0.396507
892.000000	0.396285
893.000000	0.395959
894.000000	0.395659
895.000000	0.395402
896.000000	0.395042
897.000000	0.394727
898.000000	0.394646
899.000000	0.394550
900.000000	0.394423
901.000000	0.394237
902.000000	0.394089
903.000000	0.394017
904.000000	0.394017
905.000000	0.393911
906.000000	0.393643
907.000000	0.393421
908.000000	0.393334
909.000000	0.393103
910.000000	0.392979
911.000000	0.392895
912.000000	0.392765
913.000000	0.392593
914.000000	0.392440
915.000000	0.392373
916.000000	0.392242
917.000000	0.392057
918.000000	0.391876
919.000000	0.391726
920.000000	0.391640
921.000000	0.391555
922.000000	0.391506
923.000000	0.391514
924.000000	0.391354
925.000000	0.391096
926.000000	0.390894
927.000000	0.390828
928.000000	0.390854
929.000000	0.390892
930.000000	0.390865
931.000000	0.390793
932.000000	0.390659
933.000000	0.390516
934.000000	0.390350
935.000000	0.390268
936.000000	0.390233
937.000000	0.390080
938.000000	0.389970
939.000000	0.389884
940.000000	0.389784
941.000000	0.389822
942.000000	0.389827
943.000000	0.389804
944.000000	0.389706
945.000000	0.389927
946.000000	0.389881
947.000000	0.389717
948.000000	0.389679
949.000000	0.389684
950.000000	0.389625
951.000000	0.389485
952.000000	0.389488
953.000000	0.389466
954.000000	0.389389
955.000000	0.389191
956.000000	0.389007
957.000000	0.389005
958.000000	0.389213
959.000000	0.389643
960.000000	0.389539
961.000000	0.389413
962.000000	0.389484
963.000000	0.389587
964.000000	0.389720
965.000000	0.389741
966.000000	0.389502
967.000000	0.389572
968.000000	0.389644
969.000000	0.389489
970.000000	0.389188
971.000000	0.389329
972.000000	0.389488
973.000000	0.389441
974.000000	0.389559
975.000000	0.389648
976.000000	0.389650
977.000000	0.389654
978.000000	0.390166
979.000000	0.390215
980.000000	0.389822
981.000000	0.390016
982.000000	0.390303
983.000000	0.390618
984.000000	0.390928
985.000000	0.391030
986.000000	0.391283
987.000000	0.391417
988.000000	0.391223
989.000000	0.391458
990.000000	0.391597
991.000000	0.391643
992.000000	0.391829
993.000000	0.392205
994.000000	0.392362
995.000000	0.392516
996.000000	0.392802
997.000000	0.393140
998.000000	0.393321
999.000000	0.393456
1000.000000	0.393794
1001.000000	0.393324
1002.000000	0.393304
1003.000000	0.393942
1004.000000	0.394380
1005.000000	0.394541
1006.000000	0.394631
1007.000000	0.394888
1008.000000	0.395411
1009.000000	0.394917
1010.000000	0.394956
1011.000000	0.395562
1012.000000	0.395555
1013.000000	0.395625
1014.000000	0.396161
1015.000000	0.396561
1016.000000	0.396691
1017.000000	0.396324
1018.000000	0.396427
1019.000000	0.397030
1020.000000	0.398262
1021.000000	0.398359
1022.000000	0.398883
1023.000000	0.399484
1024.000000	0.399005
1025.000000	0.399132
1026.000000	0.400765
1027.000000	0.401578
1028.000000	0.401854
1029.000000	0.402121
1030.000000	0.402134
1031.000000	0.402219
1032.000000	0.402464
1033.000000	0.403098
1034.000000	0.403513
1035.000000	0.403833
1036.000000	0.403984
1037.000000	0.403804
1038.000000	0.403906
1039.000000	0.404051
1040.000000	0.404586
1041.000000	0.404824
1042.000000	0.405749
1043.000000	0.406497
1044.000000	0.407034
1045.000000	0.408190
1046.000000	0.409084
1047.000000	0.409678
1048.000000	0.409988
1049.000000	0.410117
1050.000000	0.409617
1051.000000	0.410011
1052.000000	0.410785
1053.000000	0.411229
1054.000000	0.412346
1055.000000	0.413033
1056.000000	0.413283
1057.000000	0.413518
1058.000000	0.414222
1059.000000	0.414835
1060.000000	0.415328
1061.000000	0.415569
1062.000000	0.415822
1063.000000	0.415976
1064.000000	0.416409
1065.000000	0.417035
1066.000000	0.417875
1067.000000	0.419052
1068.000000	0.419682
1069.000000	0.420157
1070.000000	0.420633
1071.000000	0.420754
1072.000000	0.421063
1073.000000	0.421566
1074.000000	0.422254
1075.000000	0.422636
1076.000000	0.423337
1077.000000	0.424219
1078.000000	0.424831
1079.000000	0.425321
1080.000000	0.425693
1081.000000	0.426154
1082.000000	0.426562
1083.000000	0.427114
1084.000000	0.427869
1085.000000	0.428548
1086.000000	0.429297
1087.000000	0.429873
1088.000000	0.430084
1089.000000	0.430623
1090.000000	0.431388
1091.000000	0.431689
1092.000000	0.432379
1093.000000	0.433135
1094.000000	0.433572
1095.000000	0.433507
1096.000000	0.434084
1097.000000	0.434899
1098.000000	0.435522
1099.000000	0.436224
1100.000000	0.436962
1101.000000	0.437579
1102.000000	0.438082
1103.000000	0.438433
1104.000000	0.439158
1105.000000	0.439971
1106.000000	0.440639
1107.000000	0.441661
1108.000000	0.442356
1109.000000	0.442802
1110.000000	0.443005
1111.000000	0.443491
1112.000000	0.444064
1113.000000	0.444550
1114.000000	0.445070
1115.000000	0.445599
1116.000000	0.446100
1117.000000	0.446572
1118.000000	0.446887
1119.000000	0.447485
1120.000000	0.448319
1121.000000	0.448905
1122.000000	0.449694
1123.000000	0.450645
1124.000000	0.451096
1125.000000	0.451712
1126.000000	0.452724
1127.000000	0.453211
1128.000000	0.453443
1129.000000	0.453304
1130.000000	0.453673
1131.000000	0.453954
1132.000000	0.454313
1133.000000	0.455071
1134.000000	0.455697
1135.000000	0.456096
1136.000000	0.456566
1137.000000	0.457284
1138.000000	0.457676
1139.000000	0.457907
1140.000000	0.458329
1141.000000	0.458613
1142.000000	0.459002
1143.000000	0.459423
1144.000000	0.459973
1145.000000	0.460397
1146.000000	0.460658
1147.000000	0.461037
1148.000000	0.461353
1149.000000	0.461591
1150.000000	0.461782
1151.000000	0.462121
1152.000000	0.462287
1153.000000	0.462680
1154.000000	0.463374
1155.000000	0.463719
1156.000000	0.463950
1157.000000	0.464221
1158.000000	0.464103
1159.000000	0.464362
1160.000000	0.464935
1161.000000	0.465344
1162.000000	0.465858
1163.000000	0.466638
1164.000000	0.467144
1165.000000	0.467297
1166.000000	0.467610
1167.000000	0.467795
1168.000000	0.468027
1169.000000	0.468277
1170.000000	0.468622
1171.000000	0.469088
1172.000000	0.469532
1173.000000	0.470003
1174.000000	0.470370
1175.000000	0.470620
1176.000000	0.470880
1177.000000	0.471246
1178.000000	0.471566
1179.000000	0.471833
1180.000000	0.472049
1181.000000	0.472414
1182.000000	0.472595
1183.000000	0.472757
1184.000000	0.473214
1185.000000	0.473549
1186.000000	0.473888
1187.000000	0.474131
1188.000000	0.474336
1189.000000	0.474520
1190.000000	0.474722
1191.000000	0.474896
1192.000000	0.475146
1193.000000	0.475627
1194.000000	0.476065
1195.000000	0.476382
1196.000000	0.476679
1197.000000	0.476981
1198.000000	0.477253
1199.000000	0.477439
1200.000000	0.477503
1201.000000	0.477757
1202.000000	0.478071
1203.000000	0.478255
1204.000000	0.478552
1205.000000	0.479069
1206.000000	0.479342
1207.000000	0.479582
1208.000000	0.479760
1209.000000	0.480010
1210.000000	0.480201
1211.000000	0.480275
1212.000000	0.480378
1213.000000	0.480531
1214.000000	0.480718
1215.000000	0.480907
1216.000000	0.481105
1217.000000	0.481243
1218.000000	0.481441
1219.000000	0.481725
1220.000000	0.481995
1221.000000	0.482201
1222.000000	0.482457
1223.000000	0.482679
1224.000000	0.482806
1225.000000	0.482953
1226.000000	0.483191
1227.000000	0.483343
1228.000000	0.483512
1229.000000	0.483633
1230.000000	0.483743
1231.000000	0.483771
1232.000000	0.483879
1233.000000	0.484116
1234.000000	0.484354
1235.000000	0.484606
1236.000000	0.484849
1237.000000	0.485087
1238.000000	0.485231
1239.000000	0.485341
1240.000000	0.485435
1241.000000	0.485456
1242.000000	0.485409
1243.000000	0.485592
1244.000000	0.486032
1245.000000	0.486400
1246.000000	0.486540
1247.000000	0.486850
1248.000000	0.486989
1249.000000	0.487039
1250.000000	0.487345
1251.000000	0.487643
1252.000000	0.487827
1253.000000	0.487992
1254.000000	0.488076
1255.000000	0.487979
1256.000000	0.488038
1257.000000	0.488156
1258.000000	0.488370
1259.000000	0.488699
1260.000000	0.488952
1261.000000	0.488960
1262.000000	0.489102
1263.000000	0.489350
1264.000000	0.489494
1265.000000	0.489718
1266.000000	0.489961
1267.000000	0.490007
1268.000000	0.490024
1269.000000	0.489861
1270.000000	0.489915
1271.000000	0.489940
1272.000000	0.489996
1273.000000	0.490426
1274.000000	0.490688
1275.000000	0.490774
1276.000000	0.490804
1277.000000	0.490937
1278.000000	0.490795
1279.000000	0.490778
1280.000000	0.490793
1281.000000	0.490736
1282.000000	0.490642
1283.000000	0.490758
1284.000000	0.490978
1285.000000	0.491025
1286.000000	0.491004
1287.000000	0.490961
1288.000000	0.490951
1289.000000	0.490918
1290.000000	0.491006
1291.000000	0.491039
1292.000000	0.491025
1293.000000	0.491052
1294.000000	0.491018
1295.000000	0.491093
1296.000000	0.491129
1297.000000	0.491034
1298.000000	0.490976
1299.000000	0.491016
1300.000000	0.491196
1301.000000	0.491313
1302.000000	0.491217
1303.000000	0.491236
1304.000000	0.491116
1305.000000	0.490800
1306.000000	0.490734
1307.000000	0.491029
1308.000000	0.491045
1309.000000	0.490973
1310.000000	0.490910
1311.000000	0.490837
1312.000000	0.490506
1313.000000	0.490246
1314.000000	0.490052
1315.000000	0.489754
1316.000000	0.489702
1317.000000	0.489709
1318.000000	0.489634
1319.000000	0.489470
1320.000000	0.489196
1321.000000	0.488981
1322.000000	0.488718
1323.000000	0.488421
1324.000000	0.488287
1325.000000	0.487925
1326.000000	0.487557
1327.000000	0.487300
1328.000000	0.487010
1329.000000	0.486721
1330.000000	0.486598
1331.000000	0.486334
1332.000000	0.486080
1333.000000	0.485775
1334.000000	0.485582
1335.000000	0.485340
1336.000000	0.484871
1337.000000	0.484572
1338.000000	0.484332
1339.000000	0.483910
1340.000000	0.483484
1341.000000	0.483408
1342.000000	0.483187
1343.000000	0.482855
1344.000000	0.482583
1345.000000	0.482159
1346.000000	0.481851
1347.000000	0.481432
1348.000000	0.481002
1349.000000	0.480642
1350.000000	0.480312
1351.000000	0.479821
1352.000000	0.479486
1353.000000	0.479185
1354.000000	0.478613
1355.000000	0.477979
1356.000000	0.477497
1357.000000	0.477015
1358.000000	0.476607
1359.000000	0.476253
1360.000000	0.475899
1361.000000	0.475586
1362.000000	0.475227
1363.000000	0.474848
1364.000000	0.474497
1365.000000	0.474122
1366.000000	0.473736
1367.000000	0.473336
1368.000000	0.472914
1369.000000	0.472587
1370.000000	0.471945
1371.000000	0.471102
1372.000000	0.470416
1373.000000	0.469804
1374.000000	0.469155
1375.000000	0.468636
1376.000000	0.468009
1377.000000	0.466945
1378.000000	0.465860
1379.000000	0.464700
1380.000000	0.463517
1381.000000	0.462385
1382.000000	0.461114
1383.000000	0.459662
1384.000000	0.458018
1385.000000	0.456366
1386.000000	0.454617
1387.000000	0.452824
1388.000000	0.451019
1389.000000	0.449151
1390.000000	0.447285
1391.000000	0.445191
1392.000000	0.443146
1393.000000	0.441010
1394.000000	0.438753
1395.000000	0.436642
1396.000000	0.434652
1397.000000	0.432338
1398.000000	0.429934
1399.000000	0.427504
1400.000000	0.424829
1401.000000	0.422235
1402.000000	0.419755
1403.000000	0.417151
1404.000000	0.414581
1405.000000	0.412068
1406.000000	0.409581
1407.000000	0.407091
1408.000000	0.404470
1409.000000	0.401985
1410.000000	0.399592
1411.000000	0.397273
1412.000000	0.395055
1413.000000	0.392779
1414.000000	0.390670
1415.000000	0.388770
1416.000000	0.386938
1417.000000	0.385350
1418.000000	0.383880
1419.000000	0.382460
1420.000000	0.381007
1421.000000	0.379765
1422.000000	0.378461
1423.000000	0.377048
1424.000000	0.375567
1425.000000	0.374044
1426.000000	0.372482
1427.000000	0.370964
1428.000000	0.369538
1429.000000	0.368134
1430.000000	0.366749
1431.000000	0.365499
1432.000000	0.364354
1433.000000	0.363265
1434.000000	0.362435
1435.000000	0.361822
1436.000000	0.361442
1437.000000	0.361352
1438.000000	0.361291
1439.000000	0.361448
1440.000000	0.361735
1441.000000	0.362218
1442.000000	0.362657
1443.000000	0.363125
1444.000000	0.363672
1445.000000	0.364101
1446.000000	0.364508
1447.000000	0.364976
1448.000000	0.365306
1449.000000	0.365517
1450.000000	0.365629
1451.000000	0.365624
1452.000000	0.365463
1453.000000	0.365222
1454.000000	0.364895
1455.000000	0.364725
1456.000000	0.364717
1457.000000	0.364595
1458.000000	0.364477
1459.000000	0.364317
1460.000000	0.364099
1461.000000	0.363966
1462.000000	0.363885
1463.000000	0.363653
1464.000000	0.363400
1465.000000	0.363334
1466.000000	0.363263
1467.000000	0.363299
1468.000000	0.363382
1469.000000	0.363432
1470.000000	0.363515
1471.000000	0.363744
1472.000000	0.364032
1473.000000	0.364417
1474.000000	0.364915
1475.000000	0.365386
1476.000000	0.365884
1477.000000	0.366596
1478.000000	0.367260
1479.000000	0.367984
1480.000000	0.368857
1481.000000	0.369560
1482.000000	0.370168
1483.000000	0.370935
1484.000000	0.371691
1485.000000	0.372471
1486.000000	0.373363
1487.000000	0.374175
1488.000000	0.374978
1489.000000	0.375785
1490.000000	0.376404
1491.000000	0.377201
1492.000000	0.378009
1493.000000	0.378817
1494.000000	0.379670
1495.000000	0.380476
1496.000000	0.381220
1497.000000	0.381997
1498.000000	0.382869
1499.000000	0.383563
1500.000000	0.384196
1501.000000	0.384866
1502.000000	0.385371
1503.000000	0.386020
1504.000000	0.386796
1505.000000	0.387362
1506.000000	0.387802
1507.000000	0.388219
1508.000000	0.388623
1509.000000	0.389054
1510.000000	0.389580
1511.000000	0.390101
1512.000000	0.390488
1513.000000	0.390826
1514.000000	0.391342
1515.000000	0.391858
1516.000000	0.392268
1517.000000	0.392672
1518.000000	0.393100
1519.000000	0.393446
1520.000000	0.393862
1521.000000	0.394386
1522.000000	0.394830
1523.000000	0.395145
1524.000000	0.395477
1525.000000	0.395894
1526.000000	0.396198
1527.000000	0.396512
1528.000000	0.396929
1529.000000	0.397162
1530.000000	0.397301
1531.000000	0.397624
1532.000000	0.397890
1533.000000	0.398098
1534.000000	0.398388
1535.000000	0.398713
1536.000000	0.398912
1537.000000	0.399079
1538.000000	0.399257
1539.000000	0.399273
1540.000000	0.399384
1541.000000	0.399771
1542.000000	0.399951
1543.000000	0.400061
1544.000000	0.400320
1545.000000	0.400420
1546.000000	0.400519
1547.000000	0.400689
1548.000000	0.400727
1549.000000	0.400705
1550.000000	0.400734
1551.000000	0.400812
1552.000000	0.400833
1553.000000	0.400765
1554.000000	0.400693
1555.000000	0.400676
1556.000000	0.400776
1557.000000	0.400877
1558.000000	0.400931
1559.000000	0.400874
1560.000000	0.400967
1561.000000	0.401127
1562.000000	0.401224
1563.000000	0.401503
1564.000000	0.401671
1565.000000	0.401661
1566.000000	0.401714
1567.000000	0.401978
1568.000000	0.402085
1569.000000	0.402187
1570.000000	0.402333
1571.000000	0.402437
1572.000000	0.402545
1573.000000	0.402747
1574.000000	0.402828
1575.000000	0.402852
1576.000000	0.402886
1577.000000	0.402827
1578.000000	0.402815
1579.000000	0.402916
1580.000000	0.402956
1581.000000	0.403054
1582.000000	0.403100
1583.000000	0.403090
1584.000000	0.403048
1585.000000	0.403123
1586.000000	0.403159
1587.000000	0.403094
1588.000000	0.403130
1589.000000	0.403234
1590.000000	0.403309
1591.000000	0.403439
1592.000000	0.403586
1593.000000	0.403826
1594.000000	0.403860
1595.000000	0.403864
1596.000000	0.403975
1597.000000	0.404049
1598.000000	0.404073
1599.000000	0.404219
1600.000000	0.404285
1601.000000	0.404290
1602.000000	0.404379
1603.000000	0.404674
1604.000000	0.404709
1605.000000	0.404597
1606.000000	0.404598
1607.000000	0.404586
1608.000000	0.404661
1609.000000	0.404934
1610.000000	0.405074
1611.000000	0.405172
1612.000000	0.405322
1613.000000	0.405639
1614.000000	0.405800
1615.000000	0.405982
1616.000000	0.406244
1617.000000	0.406396
1618.000000	0.406586
1619.000000	0.406846
1620.000000	0.407080
1621.000000	0.407308
1622.000000	0.407589
1623.000000	0.407904
1624.000000	0.408108
1625.000000	0.408091
1626.000000	0.408071
1627.000000	0.407936
1628.000000	0.408060
1629.000000	0.408267
1630.000000	0.408480
1631.000000	0.408784
1632.000000	0.408991
1633.000000	0.409128
1634.000000	0.409336
1635.000000	0.409632
1636.000000	0.409863
1637.000000	0.410118
1638.000000	0.410302
1639.000000	0.410480
1640.000000	0.410730
1641.000000	0.411050
1642.000000	0.411381
1643.000000	0.411846
1644.000000	0.412184
1645.000000	0.412509
1646.000000	0.412686
1647.000000	0.412804
1648.000000	0.412947
1649.000000	0.413033
1650.000000	0.413347
1651.000000	0.413868
1652.000000	0.414275
1653.000000	0.414721
1654.000000	0.415130
1655.000000	0.415367
1656.000000	0.415599
1657.000000	0.415931
1658.000000	0.416259
1659.000000	0.416719
1660.000000	0.417090
1661.000000	0.417316
1662.000000	0.417656
1663.000000	0.417948
1664.000000	0.418256
1665.000000	0.418661
1666.000000	0.419074
1667.000000	0.419338
1668.000000	0.419601
1669.000000	0.419889
1670.000000	0.420099
1671.000000	0.420305
1672.000000	0.420651
1673.000000	0.421090
1674.000000	0.421048
1675.000000	0.421313
1676.000000	0.421586
1677.000000	0.421848
1678.000000	0.422280
1679.000000	0.422649
1680.000000	0.422728
1681.000000	0.422791
1682.000000	0.423014
1683.000000	0.423212
1684.000000	0.423421
1685.000000	0.423751
1686.000000	0.423937
1687.000000	0.424119
1688.000000	0.424331
1689.000000	0.424427
1690.000000	0.424523
1691.000000	0.424831
1692.000000	0.425024
1693.000000	0.425141
1694.000000	0.425251
1695.000000	0.425431
1696.000000	0.425510
1697.000000	0.425516
1698.000000	0.425524
1699.000000	0.425566
1700.000000	0.425541
1701.000000	0.425719
1702.000000	0.425690
1703.000000	0.425812
1704.000000	0.426344
1705.000000	0.426617
1706.000000	0.426980
1707.000000	0.427210
1708.000000	0.427111
1709.000000	0.427095
1710.000000	0.427226
1711.000000	0.427312
1712.000000	0.427400
1713.000000	0.427496
1714.000000	0.427591
1715.000000	0.427787
1716.000000	0.428141
1717.000000	0.428362
1718.000000	0.428579
1719.000000	0.428695
1720.000000	0.428659
1721.000000	0.428813
1722.000000	0.429041
1723.000000	0.429270
1724.000000	0.429682
1725.000000	0.429964
1726.000000	0.430053
1727.000000	0.430194
1728.000000	0.430237
1729.000000	0.430228
1730.000000	0.430366
1731.000000	0.430438
1732.000000	0.430476
1733.000000	0.430606
1734.000000	0.430511
1735.000000	0.430682
1736.000000	0.430975
1737.000000	0.431143
1738.000000	0.431440
1739.000000	0.431610
1740.000000	0.431575
1741.000000	0.431735
1742.000000	0.432019
1743.000000	0.432224
1744.000000	0.432414
1745.000000	0.432582
1746.000000	0.432695
1747.000000	0.432867
1748.000000	0.432897
1749.000000	0.432785
1750.000000	0.432679
1751.000000	0.432686
1752.000000	0.432799
1753.000000	0.432811
1754.000000	0.432801
1755.000000	0.432648
1756.000000	0.432626
1757.000000	0.432676
1758.000000	0.432736
1759.000000	0.432878
1760.000000	0.433001
1761.000000	0.433034
1762.000000	0.433096
1763.000000	0.433219
1764.000000	0.433357
1765.000000	0.433459
1766.000000	0.433588
1767.000000	0.433651
1768.000000	0.433700
1769.000000	0.433871
1770.000000	0.434042
1771.000000	0.434180
1772.000000	0.434270
1773.000000	0.434232
1774.000000	0.434297
1775.000000	0.434453
1776.000000	0.434588
1777.000000	0.434709
1778.000000	0.434841
1779.000000	0.435016
1780.000000	0.435022
1781.000000	0.434898
1782.000000	0.434867
1783.000000	0.434737
1784.000000	0.434931
1785.000000	0.435129
1786.000000	0.435264
1787.000000	0.435741
1788.000000	0.436162
1789.000000	0.436425
1790.000000	0.436791
1791.000000	0.436825
1792.000000	0.436440
1793.000000	0.436480
1794.000000	0.436656
1795.000000	0.436819
1796.000000	0.437353
1797.000000	0.437678
1798.000000	0.437692
1799.000000	0.437876
1800.000000	0.438236
1801.000000	0.437714
1802.000000	0.437813
1803.000000	0.438277
1804.000000	0.438729
1805.000000	0.439695
1806.000000	0.440082
1807.000000	0.440329
1808.000000	0.440382
1809.000000	0.440242
1810.000000	0.439787
1811.000000	0.439153
1812.000000	0.437945
1813.000000	0.438017
1814.000000	0.438224
1815.000000	0.438790
1816.000000	0.440875
1817.000000	0.441616
1818.000000	0.441987
1819.000000	0.442242
1820.000000	0.442357
1821.000000	0.442569
1822.000000	0.442298
1823.000000	0.441553
1824.000000	0.441105
1825.000000	0.439720
1826.000000	0.439601
1827.000000	0.440236
1828.000000	0.440963
1829.000000	0.441296
1830.000000	0.441724
1831.000000	0.441475
1832.000000	0.440055
1833.000000	0.439737
1834.000000	0.439834
1835.000000	0.439609
1836.000000	0.439497
1837.000000	0.439317
1838.000000	0.438868
1839.000000	0.438027
1840.000000	0.437846
1841.000000	0.437414
1842.000000	0.437080
1843.000000	0.437083
1844.000000	0.436621
1845.000000	0.435395
1846.000000	0.435028
1847.000000	0.435035
1848.000000	0.434007
1849.000000	0.433712
1850.000000	0.433601
1851.000000	0.432939
1852.000000	0.431699
1853.000000	0.430686
1854.000000	0.429266
1855.000000	0.427811
1856.000000	0.425674
1857.000000	0.424682
1858.000000	0.423901
1859.000000	0.423052
1860.000000	0.421969
1861.000000	0.420133
1862.000000	0.418285
1863.000000	0.415688
1864.000000	0.413751
1865.000000	0.412284
1866.000000	0.410227
1867.000000	0.408049
1868.000000	0.405424
1869.000000	0.402607
1870.000000	0.400561
1871.000000	0.397257
1872.000000	0.393366
1873.000000	0.389595
1874.000000	0.384671
1875.000000	0.380605
1876.000000	0.376644
1877.000000	0.372995
1878.000000	0.369181
1879.000000	0.365079
1880.000000	0.360222
1881.000000	0.355241
1882.000000	0.350224
1883.000000	0.345084
1884.000000	0.339814
1885.000000	0.334327
1886.000000	0.328871
1887.000000	0.323236
1888.000000	0.317134
1889.000000	0.311582
1890.000000	0.305768
1891.000000	0.299309
1892.000000	0.292938
1893.000000	0.286395
1894.000000	0.279730
1895.000000	0.272984
1896.000000	0.266262
1897.000000	0.259571
1898.000000	0.252991
1899.000000	0.247075
1900.000000	0.241444
1901.000000	0.236440
1902.000000	0.231801
1903.000000	0.227279
1904.000000	0.223452
1905.000000	0.218957
1906.000000	0.214878
1907.000000	0.210836
1908.000000	0.207584
1909.000000	0.204042
1910.000000	0.201265
1911.000000	0.198821
1912.000000	0.196272
1913.000000	0.194071
1914.000000	0.192099
1915.000000	0.190499
1916.000000	0.188984
1917.000000	0.187652
1918.000000	0.186601
1919.000000	0.185975
1920.000000	0.185288
1921.000000	0.184787
1922.000000	0.184443
1923.000000	0.183789
1924.000000	0.183197
1925.000000	0.182690
1926.000000	0.182206
1927.000000	0.182173
1928.000000	0.182184
1929.000000	0.182537
1930.000000	0.182867
1931.000000	0.182696
1932.000000	0.182837
1933.000000	0.183006
1934.000000	0.182928
1935.000000	0.183288
1936.000000	0.183276
1937.000000	0.183774
1938.000000	0.184068
1939.000000	0.184182
1940.000000	0.184226
1941.000000	0.184774
1942.000000	0.184489
1943.000000	0.184290
1944.000000	0.184429
1945.000000	0.184260
1946.000000	0.184172
1947.000000	0.183970
1948.000000	0.183598
1949.000000	0.183003
1950.000000	0.182333
1951.000000	0.181908
1952.000000	0.181643
1953.000000	0.181382
1954.000000	0.181703
1955.000000	0.182168
1956.000000	0.182172
1957.000000	0.182610
1958.000000	0.182229
1959.000000	0.181303
1960.000000	0.180971
1961.000000	0.180573
1962.000000	0.180322
1963.000000	0.180362
1964.000000	0.180624
1965.000000	0.180723
1966.000000	0.180567
1967.000000	0.180711
1968.000000	0.181100
1969.000000	0.180917
1970.000000	0.180948
1971.000000	0.181168
1972.000000	0.181454
1973.000000	0.181849
1974.000000	0.182813
1975.000000	0.183586
1976.000000	0.184507
1977.000000	0.185040
1978.000000	0.185028
1979.000000	0.185275
1980.000000	0.185316
1981.000000	0.185632
1982.000000	0.186912
1983.000000	0.188291
1984.000000	0.189190
1985.000000	0.190012
1986.000000	0.190595
1987.000000	0.190830
1988.000000	0.191024
1989.000000	0.191802
1990.000000	0.192261
1991.000000	0.193164
1992.000000	0.194647
1993.000000	0.195385
1994.000000	0.196766
1995.000000	0.197784
1996.000000	0.198360
1997.000000	0.199198
1998.000000	0.200000
1999.000000	0.201086
2000.000000	0.202599
2001.000000	0.203538
2002.000000	0.204719
2003.000000	0.205597
2004.000000	0.206154
2005.000000	0.207642
2006.000000	0.208825
2007.000000	0.210031
2008.000000	0.211252
2009.000000	0.212202
2010.000000	0.213331
2011.000000	0.214533
2012.000000	0.215810
2013.000000	0.217044
2014.000000	0.218332
2015.000000	0.220168
2016.000000	0.222188
2017.000000	0.223757
2018.000000	0.225327
2019.000000	0.226567
2020.000000	0.227446
2021.000000	0.228535
2022.000000	0.229772
2023.000000	0.230800
2024.000000	0.231438
2025.000000	0.232668
2026.000000	0.234054
2027.000000	0.235379
2028.000000	0.237043
2029.000000	0.238841
2030.000000	0.240250
2031.000000	0.241895
2032.000000	0.243452
2033.000000	0.244957
2034.000000	0.245981
2035.000000	0.246401
2036.000000	0.247444
2037.000000	0.248518
2038.000000	0.249640
2039.000000	0.251471
2040.000000	0.252612
2041.000000	0.253231
2042.000000	0.254397
2043.000000	0.255305
2044.000000	0.256568
2045.000000	0.258256
2046.000000	0.259276
2047.000000	0.260429
2048.000000	0.261876
2049.000000	0.262645
2050.000000	0.262318
2051.000000	0.262835
2052.000000	0.263033
2053.000000	0.263631
2054.000000	0.264904
2055.000000	0.266574
2056.000000	0.268236
2057.000000	0.269021
2058.000000	0.270123
2059.000000	0.272128
2060.000000	0.273667
2061.000000	0.275499
2062.000000	0.276718
2063.000000	0.277521
2064.000000	0.278125
2065.000000	0.278382
2066.000000	0.278860
2067.000000	0.279323
2068.000000	0.280533
2069.000000	0.281859
2070.000000	0.282950
2071.000000	0.284291
2072.000000	0.285415
2073.000000	0.285916
2074.000000	0.286559
2075.000000	0.287506
2076.000000	0.288547
2077.000000	0.289617
2078.000000	0.291260
2079.000000	0.292194
2080.000000	0.292560
2081.000000	0.293422
2082.000000	0.294156
2083.000000	0.294952
2084.000000	0.296781
2085.000000	0.298600
2086.000000	0.300045
2087.000000	0.301759
2088.000000	0.302793
2089.000000	0.303484
2090.000000	0.304391
2091.000000	0.305235
2092.000000	0.306227
2093.000000	0.307488
2094.000000	0.308496
2095.000000	0.309520
2096.000000	0.310288
2097.000000	0.310729
2098.000000	0.311158
2099.000000	0.311559
2100.000000	0.312335
2101.000000	0.313247
2102.000000	0.314162
2103.000000	0.315297
2104.000000	0.316302
2105.000000	0.317242
2106.000000	0.318330
2107.000000	0.319098
2108.000000	0.319382
2109.000000	0.320252
2110.000000	0.321000
2111.000000	0.321849
2112.000000	0.323212
2113.000000	0.323706
2114.000000	0.324128
2115.000000	0.325571
2116.000000	0.326565
2117.000000	0.327358
2118.000000	0.327585
2119.000000	0.326438
2120.000000	0.326483
2121.000000	0.326432
2122.000000	0.326600
2123.000000	0.327752
2124.000000	0.328222
2125.000000	0.328046
2126.000000	0.328270
2127.000000	0.328713
2128.000000	0.329251
2129.000000	0.329715
2130.000000	0.330420
2131.000000	0.331160
2132.000000	0.331034
2133.000000	0.331240
2134.000000	0.331949
2135.000000	0.332143
2136.000000	0.332314
2137.000000	0.332934
2138.000000	0.333876
2139.000000	0.334280
2140.000000	0.335014
2141.000000	0.335211
2142.000000	0.334652
2143.000000	0.334136
2144.000000	0.333409
2145.000000	0.333432
2146.000000	0.334116
2147.000000	0.334317
2148.000000	0.334671
2149.000000	0.335187
2150.000000	0.334858
2151.000000	0.333847
2152.000000	0.333520
2153.000000	0.332783
2154.000000	0.332373
2155.000000	0.332402
2156.000000	0.332236
2157.000000	0.331684
2158.000000	0.332009
2159.000000	0.332757
2160.000000	0.333494
2161.000000	0.335100
2162.000000	0.336153
2163.000000	0.337170
2164.000000	0.337432
2165.000000	0.337051
2166.000000	0.336648
2167.000000	0.336212
2168.000000	0.335894
2169.000000	0.335529
2170.000000	0.335666
2171.000000	0.335421
2172.000000	0.334454
2173.000000	0.334599
2174.000000	0.335340
2175.000000	0.335759
2176.000000	0.337147
2177.000000	0.337129
2178.000000	0.335982
2179.000000	0.335737
2180.000000	0.334872
2181.000000	0.334858
2182.000000	0.335015
2183.000000	0.335675
2184.000000	0.335300
2185.000000	0.335151
2186.000000	0.334764
2187.000000	0.333712
2188.000000	0.333330
2189.000000	0.331792
2190.000000	0.331498
2191.000000	0.332307
2192.000000	0.332140
2193.000000	0.332384
2194.000000	0.332526
2195.000000	0.331789
2196.000000	0.331451
2197.000000	0.331956
2198.000000	0.331721
2199.000000	0.330395
2200.000000	0.330299
2201.000000	0.330920
2202.000000	0.330683
2203.000000	0.330811
2204.000000	0.330216
2205.000000	0.328109
2206.000000	0.328476
2207.000000	0.327054
2208.000000	0.326515
2209.000000	0.327058
2210.000000	0.324783
2211.000000	0.324210
2212.000000	0.325493
2213.000000	0.326344
2214.000000	0.328010
2215.000000	0.328965
2216.000000	0.329496
2217.000000	0.330529
2218.000000	0.330932
2219.000000	0.332241
2220.000000	0.335178
2221.000000	0.336841
2222.000000	0.338562
2223.000000	0.339091
2224.000000	0.338843
2225.000000	0.337948
2226.000000	0.335799
2227.000000	0.334002
2228.000000	0.334050
2229.000000	0.333397
2230.000000	0.332227
2231.000000	0.333501
2232.000000	0.333732
2233.000000	0.332981
2234.000000	0.333062
2235.000000	0.332957
2236.000000	0.333290
2237.000000	0.334217
2238.000000	0.333536
2239.000000	0.332405
2240.000000	0.331367
2241.000000	0.327876
2242.000000	0.327481
2243.000000	0.329399
2244.000000	0.330276
2245.000000	0.332485
2246.000000	0.332529
2247.000000	0.330553
2248.000000	0.330420
2249.000000	0.329642
2250.000000	0.331243
2251.000000	0.331609
2252.000000	0.331472
2253.000000	0.333070
2254.000000	0.331959
2255.000000	0.332440
2256.000000	0.333507
2257.000000	0.332128
2258.000000	0.331246
2259.000000	0.328679
2260.000000	0.326743
2261.000000	0.325913
2262.000000	0.325738
2263.000000	0.324854
2264.000000	0.324610
2265.000000	0.324520
2266.000000	0.323691
2267.000000	0.322300
2268.000000	0.322581
2269.000000	0.320882
2270.000000	0.317279
2271.000000	0.314176
2272.000000	0.309632
2273.000000	0.306854
2274.000000	0.305204
2275.000000	0.302368
2276.000000	0.299569
2277.000000	0.297508
2278.000000	0.294477
2279.000000	0.291670
2280.000000	0.290096
2281.000000	0.287215
2282.000000	0.284922
2283.000000	0.283817
2284.000000	0.285588
2285.000000	0.288122
2286.000000	0.287983
2287.000000	0.287284
2288.000000	0.284400
2289.000000	0.280967
2290.000000	0.278315
2291.000000	0.277403
2292.000000	0.278797
2293.000000	0.279499
2294.000000	0.280895
2295.000000	0.283999
2296.000000	0.286200
2297.000000	0.288140
2298.000000	0.289523
2299.000000	0.290719
2300.000000	0.291678
2301.000000	0.292161
2302.000000	0.293020
2303.000000	0.294058
2304.000000	0.294509
2305.000000	0.294815
2306.000000	0.294014
2307.000000	0.292344
2308.000000	0.291066
2309.000000	0.289032
2310.000000	0.287083
2311.000000	0.286011
2312.000000	0.286602
2313.000000	0.285587
2314.000000	0.283311
2315.000000	0.281706
2316.000000	0.278744
2317.000000	0.277998
2318.000000	0.279468
2319.000000	0.279149
2320.000000	0.278136
2321.000000	0.277205
2322.000000	0.276259
2323.000000	0.275680
2324.000000	0.276233
2325.000000	0.276399
2326.000000	0.276474
2327.000000	0.277124
2328.000000	0.275862
2329.000000	0.275107
2330.000000	0.272462
2331.000000	0.268832
2332.000000	0.268599
2333.000000	0.268628
2334.000000	0.267984
2335.000000	0.266994
2336.000000	0.265107
2337.000000	0.263541
2338.000000	0.261923
2339.000000	0.260490
2340.000000	0.259271
2341.000000	0.257977
2342.000000	0.254930
2343.000000	0.252662
2344.000000	0.252232
2345.000000	0.251290
2346.000000	0.251710
2347.000000	0.250391
2348.000000	0.248698
2349.000000	0.244599
2350.000000	0.237425
2351.000000	0.232834
2352.000000	0.231095
2353.000000	0.229997
2354.000000	0.231875
2355.000000	0.233422
2356.000000	0.235032
2357.000000	0.234154
2358.000000	0.231448
2359.000000	0.228862
2360.000000	0.223771
2361.000000	0.219645
2362.000000	0.218457
2363.000000	0.219149
2364.000000	0.218506
2365.000000	0.215652
2366.000000	0.212568
2367.000000	0.209205
2368.000000	0.208288
2369.000000	0.210901
2370.000000	0.213676
2371.000000	0.217730
2372.000000	0.221497
2373.000000	0.221466
2374.000000	0.216941
2375.000000	0.207890
2376.000000	0.199958
2377.000000	0.191256
2378.000000	0.185330
2379.000000	0.185755
2380.000000	0.181999
2381.000000	0.182143
2382.000000	0.186922
2383.000000	0.185216
2384.000000	0.185018
2385.000000	0.185364
2386.000000	0.181006
2387.000000	0.180877
2388.000000	0.182880
2389.000000	0.183293
2390.000000	0.185218
2391.000000	0.184461
2392.000000	0.182465
2393.000000	0.178747
2394.000000	0.172827
2395.000000	0.169344
2396.000000	0.165502
2397.000000	0.163911
2398.000000	0.164441
2399.000000	0.161682
2400.000000	0.163116
2401.000000	0.164567
2402.000000	0.163377
2403.000000	0.168238
2404.000000	0.170586
2405.000000	0.168551
2406.000000	0.168742
2407.000000	0.171707
2408.000000	0.174411
2409.000000	0.176325
2410.000000	0.181328
2411.000000	0.178470
2412.000000	0.171335
2413.000000	0.174619
2414.000000	0.170946
2415.000000	0.171064
2416.000000	0.182388
2417.000000	0.178126
2418.000000	0.179279
2419.000000	0.182793
2420.000000	0.180331
2421.000000	0.184691
2422.000000	0.183644
2423.000000	0.183719
2424.000000	0.175848
2425.000000	0.165452
2426.000000	0.166820
2427.000000	0.164387
2428.000000	0.160880
2429.000000	0.161056
2430.000000	0.156977
2431.000000	0.152259
2432.000000	0.150514
2433.000000	0.153834
2434.000000	0.165899
2435.000000	0.167091
2436.000000	0.161508
2437.000000	0.156032
2438.000000	0.131699
2439.000000	0.115749
2440.000000	0.126466
2441.000000	0.134916
2442.000000	0.144111
2443.000000	0.159592
2444.000000	0.162249
2445.000000	0.159590
2446.000000	0.156010
2447.000000	0.158252
2448.000000	0.159294
2449.000000	0.154763
2450.000000	0.164463
2451.000000	0.162582
2452.000000	0.151099
2453.000000	0.135959
2454.000000	0.115371
2455.000000	0.114654
2456.000000	0.124084
2457.000000	0.142522
2458.000000	0.165034
2459.000000	0.153726
2460.000000	0.129950
2461.000000	0.128725
2462.000000	0.118517
2463.000000	0.125086
2464.000000	0.171390
2465.000000	0.190588
2466.000000	0.189785
2467.000000	0.185016
2468.000000	0.151793
2469.000000	0.126282
2470.000000	0.136178
2471.000000	0.149390
2472.000000	0.158578
2473.000000	0.166116
2474.000000	0.160928
2475.000000	0.174960
2476.000000	0.178478
2477.000000	0.146898
2478.000000	0.125099
2479.000000	0.083953
2480.000000	0.044957
2481.000000	0.042880
2482.000000	0.044901
2483.000000	0.051336
2484.000000	0.060991
2485.000000	0.052111
2486.000000	0.048810
2487.000000	0.058156
2488.000000	0.046227
2489.000000	0.033993
2490.000000	0.032472
2491.000000	0.054318
2492.000000	0.058928
2493.000000	0.087240
2494.000000	0.090631
2495.000000	0.038937
2496.000000	0.020302
2497.000000	0.022274
2498.000000	0.018732
2499.000000	0.008741
2500.000000	0.004550
