# Wavelength	Nau-1_80_FV7_20_00000.asd.rts.txt
350.000000	0.101030
351.000000	0.087662
352.000000	0.093717
353.000000	0.102385
354.000000	0.105089
355.000000	0.104092
356.000000	0.108222
357.000000	0.112832
358.000000	0.101514
359.000000	0.103082
360.000000	0.111129
361.000000	0.111799
362.000000	0.103777
363.000000	0.099426
364.000000	0.104512
365.000000	0.111404
366.000000	0.105170
367.000000	0.092163
368.000000	0.098724
369.000000	0.104094
370.000000	0.105044
371.000000	0.103811
372.000000	0.105130
373.000000	0.106353
374.000000	0.105846
375.000000	0.105571
376.000000	0.107716
377.000000	0.110839
378.000000	0.110032
379.000000	0.106241
380.000000	0.103994
381.000000	0.108104
382.000000	0.110544
383.000000	0.111096
384.000000	0.111040
385.000000	0.112519
386.000000	0.112803
387.000000	0.113036
388.000000	0.118977
389.000000	0.120651
390.000000	0.119944
391.000000	0.122169
392.000000	0.123313
393.000000	0.124000
394.000000	0.125502
395.000000	0.129784
396.000000	0.131591
397.000000	0.130247
398.000000	0.130862
399.000000	0.133189
400.000000	0.136004
401.000000	0.137432
402.000000	0.138723
403.000000	0.140673
404.000000	0.143483
405.000000	0.144993
406.000000	0.146117
407.000000	0.147284
408.000000	0.147496
409.000000	0.149952
410.000000	0.153286
411.000000	0.153506
412.000000	0.154385
413.000000	0.155827
414.000000	0.156970
415.000000	0.157740
416.000000	0.158347
417.000000	0.158953
418.000000	0.159547
419.000000	0.160277
420.000000	0.161074
421.000000	0.161681
422.000000	0.162070
423.000000	0.162010
424.000000	0.161442
425.000000	0.161731
426.000000	0.162251
427.000000	0.162316
428.000000	0.161794
429.000000	0.161681
430.000000	0.161964
431.000000	0.161156
432.000000	0.161330
433.000000	0.161899
434.000000	0.161244
435.000000	0.161343
436.000000	0.161491
437.000000	0.160887
438.000000	0.160883
439.000000	0.160492
440.000000	0.159443
441.000000	0.158793
442.000000	0.158170
443.000000	0.157496
444.000000	0.156956
445.000000	0.156761
446.000000	0.156853
447.000000	0.157065
448.000000	0.158155
449.000000	0.159385
450.000000	0.160411
451.000000	0.162280
452.000000	0.164756
453.000000	0.167541
454.000000	0.170363
455.000000	0.173400
456.000000	0.176655
457.000000	0.179951
458.000000	0.183311
459.000000	0.186336
460.000000	0.188840
461.000000	0.191514
462.000000	0.193972
463.000000	0.196026
464.000000	0.198347
465.000000	0.200215
466.000000	0.201556
467.000000	0.202812
468.000000	0.204069
469.000000	0.205207
470.000000	0.206187
471.000000	0.206873
472.000000	0.207706
473.000000	0.208904
474.000000	0.209972
475.000000	0.210724
476.000000	0.211280
477.000000	0.211807
478.000000	0.212391
479.000000	0.213175
480.000000	0.214005
481.000000	0.214755
482.000000	0.215484
483.000000	0.216105
484.000000	0.216771
485.000000	0.217459
486.000000	0.218246
487.000000	0.218900
488.000000	0.219468
489.000000	0.220068
490.000000	0.220863
491.000000	0.221661
492.000000	0.222428
493.000000	0.223097
494.000000	0.224063
495.000000	0.224950
496.000000	0.225522
497.000000	0.226284
498.000000	0.227078
499.000000	0.227912
500.000000	0.228821
501.000000	0.229716
502.000000	0.230589
503.000000	0.231401
504.000000	0.232213
505.000000	0.233080
506.000000	0.234030
507.000000	0.234983
508.000000	0.235949
509.000000	0.236894
510.000000	0.237791
511.000000	0.238774
512.000000	0.239889
513.000000	0.241063
514.000000	0.242075
515.000000	0.243083
516.000000	0.244273
517.000000	0.245379
518.000000	0.246496
519.000000	0.247624
520.000000	0.248653
521.000000	0.249707
522.000000	0.250875
523.000000	0.252211
524.000000	0.253479
525.000000	0.254647
526.000000	0.255846
527.000000	0.257224
528.000000	0.258653
529.000000	0.260020
530.000000	0.261395
531.000000	0.262862
532.000000	0.264357
533.000000	0.265810
534.000000	0.267255
535.000000	0.268722
536.000000	0.270288
537.000000	0.271800
538.000000	0.273249
539.000000	0.274679
540.000000	0.276171
541.000000	0.277667
542.000000	0.279146
543.000000	0.280675
544.000000	0.282192
545.000000	0.283631
546.000000	0.285185
547.000000	0.286671
548.000000	0.288107
549.000000	0.289547
550.000000	0.291046
551.000000	0.292553
552.000000	0.293948
553.000000	0.295410
554.000000	0.296858
555.000000	0.298263
556.000000	0.299835
557.000000	0.301235
558.000000	0.302522
559.000000	0.303876
560.000000	0.305165
561.000000	0.306491
562.000000	0.307881
563.000000	0.309082
564.000000	0.310195
565.000000	0.311267
566.000000	0.312424
567.000000	0.313525
568.000000	0.314488
569.000000	0.315486
570.000000	0.316463
571.000000	0.317371
572.000000	0.318180
573.000000	0.318985
574.000000	0.319772
575.000000	0.320553
576.000000	0.321327
577.000000	0.322024
578.000000	0.322667
579.000000	0.323283
580.000000	0.323881
581.000000	0.324456
582.000000	0.324984
583.000000	0.325499
584.000000	0.326017
585.000000	0.326544
586.000000	0.326921
587.000000	0.327212
588.000000	0.327522
589.000000	0.327809
590.000000	0.328102
591.000000	0.328404
592.000000	0.328643
593.000000	0.328855
594.000000	0.329067
595.000000	0.329318
596.000000	0.329387
597.000000	0.329440
598.000000	0.329654
599.000000	0.329758
600.000000	0.329847
601.000000	0.329937
602.000000	0.329947
603.000000	0.329953
604.000000	0.329981
605.000000	0.329914
606.000000	0.329916
607.000000	0.329952
608.000000	0.329863
609.000000	0.329849
610.000000	0.329888
611.000000	0.329899
612.000000	0.329830
613.000000	0.329790
614.000000	0.329861
615.000000	0.329883
616.000000	0.329780
617.000000	0.329605
618.000000	0.329682
619.000000	0.329754
620.000000	0.329771
621.000000	0.329817
622.000000	0.329833
623.000000	0.329836
624.000000	0.329843
625.000000	0.329825
626.000000	0.329867
627.000000	0.329970
628.000000	0.329971
629.000000	0.330058
630.000000	0.330093
631.000000	0.330092
632.000000	0.330114
633.000000	0.330219
634.000000	0.330396
635.000000	0.330421
636.000000	0.330435
637.000000	0.330515
638.000000	0.330641
639.000000	0.330709
640.000000	0.330802
641.000000	0.330980
642.000000	0.331159
643.000000	0.331305
644.000000	0.331412
645.000000	0.331553
646.000000	0.331756
647.000000	0.331981
648.000000	0.332117
649.000000	0.332296
650.000000	0.332510
651.000000	0.332629
652.000000	0.332780
653.000000	0.333007
654.000000	0.333218
655.000000	0.333413
656.000000	0.333640
657.000000	0.333879
658.000000	0.334122
659.000000	0.334363
660.000000	0.334595
661.000000	0.334877
662.000000	0.335136
663.000000	0.335415
664.000000	0.335708
665.000000	0.336030
666.000000	0.336355
667.000000	0.336635
668.000000	0.337008
669.000000	0.337391
670.000000	0.337731
671.000000	0.338027
672.000000	0.338424
673.000000	0.338897
674.000000	0.339306
675.000000	0.339690
676.000000	0.340082
677.000000	0.340524
678.000000	0.340969
679.000000	0.341385
680.000000	0.341791
681.000000	0.342270
682.000000	0.342816
683.000000	0.343317
684.000000	0.343808
685.000000	0.344340
686.000000	0.344900
687.000000	0.345396
688.000000	0.345870
689.000000	0.346357
690.000000	0.346912
691.000000	0.347481
692.000000	0.347986
693.000000	0.348508
694.000000	0.349120
695.000000	0.349771
696.000000	0.350400
697.000000	0.350954
698.000000	0.351543
699.000000	0.352180
700.000000	0.352845
701.000000	0.353411
702.000000	0.354049
703.000000	0.354758
704.000000	0.355365
705.000000	0.356022
706.000000	0.356724
707.000000	0.357502
708.000000	0.358171
709.000000	0.358804
710.000000	0.359490
711.000000	0.360099
712.000000	0.360695
713.000000	0.361311
714.000000	0.361860
715.000000	0.362381
716.000000	0.362958
717.000000	0.363653
718.000000	0.364332
719.000000	0.364978
720.000000	0.365622
721.000000	0.366293
722.000000	0.366893
723.000000	0.367481
724.000000	0.368115
725.000000	0.368689
726.000000	0.369301
727.000000	0.369923
728.000000	0.370440
729.000000	0.370968
730.000000	0.371546
731.000000	0.372142
732.000000	0.372736
733.000000	0.373340
734.000000	0.373861
735.000000	0.374331
736.000000	0.374854
737.000000	0.375263
738.000000	0.375722
739.000000	0.376258
740.000000	0.376661
741.000000	0.377045
742.000000	0.377439
743.000000	0.377813
744.000000	0.378176
745.000000	0.378507
746.000000	0.378888
747.000000	0.379292
748.000000	0.379708
749.000000	0.380115
750.000000	0.380461
751.000000	0.380778
752.000000	0.381051
753.000000	0.381311
754.000000	0.381601
755.000000	0.381894
756.000000	0.382156
757.000000	0.382307
758.000000	0.382469
759.000000	0.382638
760.000000	0.382733
761.000000	0.382895
762.000000	0.383021
763.000000	0.383095
764.000000	0.383242
765.000000	0.383313
766.000000	0.383305
767.000000	0.383245
768.000000	0.383232
769.000000	0.383155
770.000000	0.383006
771.000000	0.382908
772.000000	0.382913
773.000000	0.382906
774.000000	0.382868
775.000000	0.382746
776.000000	0.382638
777.000000	0.382576
778.000000	0.382441
779.000000	0.382291
780.000000	0.382139
781.000000	0.381934
782.000000	0.381712
783.000000	0.381571
784.000000	0.381379
785.000000	0.381127
786.000000	0.380905
787.000000	0.380733
788.000000	0.380505
789.000000	0.380277
790.000000	0.380030
791.000000	0.379767
792.000000	0.379516
793.000000	0.379172
794.000000	0.378715
795.000000	0.378438
796.000000	0.378154
797.000000	0.377783
798.000000	0.377375
799.000000	0.376923
800.000000	0.376496
801.000000	0.376167
802.000000	0.375849
803.000000	0.375497
804.000000	0.375126
805.000000	0.374676
806.000000	0.374140
807.000000	0.373672
808.000000	0.373299
809.000000	0.372854
810.000000	0.372397
811.000000	0.371956
812.000000	0.371425
813.000000	0.370899
814.000000	0.370422
815.000000	0.370016
816.000000	0.369555
817.000000	0.369114
818.000000	0.368689
819.000000	0.368327
820.000000	0.367934
821.000000	0.367445
822.000000	0.367028
823.000000	0.366622
824.000000	0.366121
825.000000	0.365584
826.000000	0.365215
827.000000	0.364822
828.000000	0.364341
829.000000	0.363875
830.000000	0.363434
831.000000	0.363039
832.000000	0.362528
833.000000	0.362093
834.000000	0.361701
835.000000	0.361321
836.000000	0.360883
837.000000	0.360371
838.000000	0.359819
839.000000	0.359248
840.000000	0.358728
841.000000	0.358255
842.000000	0.357763
843.000000	0.357284
844.000000	0.356854
845.000000	0.356465
846.000000	0.356149
847.000000	0.355772
848.000000	0.355307
849.000000	0.354827
850.000000	0.354470
851.000000	0.354068
852.000000	0.353598
853.000000	0.353126
854.000000	0.352630
855.000000	0.352282
856.000000	0.352027
857.000000	0.351597
858.000000	0.351212
859.000000	0.350885
860.000000	0.350534
861.000000	0.350106
862.000000	0.349690
863.000000	0.349317
864.000000	0.348861
865.000000	0.348431
866.000000	0.348082
867.000000	0.347629
868.000000	0.347307
869.000000	0.347046
870.000000	0.346785
871.000000	0.346507
872.000000	0.346127
873.000000	0.345601
874.000000	0.345201
875.000000	0.344835
876.000000	0.344444
877.000000	0.343923
878.000000	0.343477
879.000000	0.343272
880.000000	0.343122
881.000000	0.342732
882.000000	0.342427
883.000000	0.342209
884.000000	0.341888
885.000000	0.341581
886.000000	0.341327
887.000000	0.341150
888.000000	0.340971
889.000000	0.340700
890.000000	0.340277
891.000000	0.339923
892.000000	0.339624
893.000000	0.339321
894.000000	0.339103
895.000000	0.338869
896.000000	0.338597
897.000000	0.338335
898.000000	0.338143
899.000000	0.337943
900.000000	0.337718
901.000000	0.337477
902.000000	0.337412
903.000000	0.337325
904.000000	0.337189
905.000000	0.336939
906.000000	0.336787
907.000000	0.336593
908.000000	0.336389
909.000000	0.336207
910.000000	0.336044
911.000000	0.335784
912.000000	0.335399
913.000000	0.335174
914.000000	0.334959
915.000000	0.334870
916.000000	0.335006
917.000000	0.334911
918.000000	0.334831
919.000000	0.334890
920.000000	0.334673
921.000000	0.334435
922.000000	0.334286
923.000000	0.334203
924.000000	0.333965
925.000000	0.333776
926.000000	0.333726
927.000000	0.333502
928.000000	0.333157
929.000000	0.332964
930.000000	0.333142
931.000000	0.333137
932.000000	0.333113
933.000000	0.333122
934.000000	0.332950
935.000000	0.332877
936.000000	0.332831
937.000000	0.332617
938.000000	0.332424
939.000000	0.332338
940.000000	0.332315
941.000000	0.332387
942.000000	0.332250
943.000000	0.332120
944.000000	0.332056
945.000000	0.332210
946.000000	0.332181
947.000000	0.332107
948.000000	0.332140
949.000000	0.331943
950.000000	0.331830
951.000000	0.331841
952.000000	0.331866
953.000000	0.331857
954.000000	0.331853
955.000000	0.331841
956.000000	0.331935
957.000000	0.332031
958.000000	0.332024
959.000000	0.331992
960.000000	0.332157
961.000000	0.332196
962.000000	0.332091
963.000000	0.332277
964.000000	0.332239
965.000000	0.332268
966.000000	0.332445
967.000000	0.332272
968.000000	0.332221
969.000000	0.332227
970.000000	0.332172
971.000000	0.332392
972.000000	0.332716
973.000000	0.332906
974.000000	0.332930
975.000000	0.333134
976.000000	0.333151
977.000000	0.332786
978.000000	0.332782
979.000000	0.333093
980.000000	0.333306
981.000000	0.333431
982.000000	0.333529
983.000000	0.333764
984.000000	0.334075
985.000000	0.334025
986.000000	0.334157
987.000000	0.334424
988.000000	0.334611
989.000000	0.334848
990.000000	0.335182
991.000000	0.335404
992.000000	0.335389
993.000000	0.335521
994.000000	0.335747
995.000000	0.336044
996.000000	0.336039
997.000000	0.336464
998.000000	0.336779
999.000000	0.336941
1000.000000	0.337548
1001.000000	0.337362
1002.000000	0.336910
1003.000000	0.336995
1004.000000	0.337322
1005.000000	0.338120
1006.000000	0.337992
1007.000000	0.337638
1008.000000	0.337652
1009.000000	0.337637
1010.000000	0.338259
1011.000000	0.339104
1012.000000	0.339642
1013.000000	0.339755
1014.000000	0.339811
1015.000000	0.340320
1016.000000	0.340926
1017.000000	0.341428
1018.000000	0.341561
1019.000000	0.341694
1020.000000	0.342101
1021.000000	0.342064
1022.000000	0.341500
1023.000000	0.341772
1024.000000	0.342185
1025.000000	0.342848
1026.000000	0.343348
1027.000000	0.343793
1028.000000	0.344444
1029.000000	0.344818
1030.000000	0.345378
1031.000000	0.346352
1032.000000	0.346791
1033.000000	0.346543
1034.000000	0.346581
1035.000000	0.346256
1036.000000	0.346509
1037.000000	0.347161
1038.000000	0.347611
1039.000000	0.348223
1040.000000	0.349190
1041.000000	0.349698
1042.000000	0.349821
1043.000000	0.350261
1044.000000	0.350304
1045.000000	0.350379
1046.000000	0.350967
1047.000000	0.351524
1048.000000	0.352209
1049.000000	0.352759
1050.000000	0.353388
1051.000000	0.353828
1052.000000	0.354132
1053.000000	0.354420
1054.000000	0.354620
1055.000000	0.355198
1056.000000	0.356202
1057.000000	0.356780
1058.000000	0.357113
1059.000000	0.357586
1060.000000	0.357959
1061.000000	0.358283
1062.000000	0.358932
1063.000000	0.359680
1064.000000	0.360507
1065.000000	0.361523
1066.000000	0.362093
1067.000000	0.362585
1068.000000	0.363003
1069.000000	0.362591
1070.000000	0.362942
1071.000000	0.364055
1072.000000	0.364728
1073.000000	0.365301
1074.000000	0.366399
1075.000000	0.367229
1076.000000	0.367635
1077.000000	0.367923
1078.000000	0.368416
1079.000000	0.369040
1080.000000	0.369661
1081.000000	0.370176
1082.000000	0.370932
1083.000000	0.371719
1084.000000	0.372648
1085.000000	0.373201
1086.000000	0.373645
1087.000000	0.374198
1088.000000	0.374147
1089.000000	0.374426
1090.000000	0.374983
1091.000000	0.375775
1092.000000	0.375954
1093.000000	0.376274
1094.000000	0.376951
1095.000000	0.377660
1096.000000	0.378428
1097.000000	0.379677
1098.000000	0.380505
1099.000000	0.381035
1100.000000	0.381673
1101.000000	0.382084
1102.000000	0.382724
1103.000000	0.383542
1104.000000	0.384135
1105.000000	0.384588
1106.000000	0.385301
1107.000000	0.385884
1108.000000	0.386527
1109.000000	0.387478
1110.000000	0.388522
1111.000000	0.389303
1112.000000	0.389973
1113.000000	0.390544
1114.000000	0.391055
1115.000000	0.391433
1116.000000	0.391499
1117.000000	0.391902
1118.000000	0.392213
1119.000000	0.392783
1120.000000	0.393738
1121.000000	0.394491
1122.000000	0.395501
1123.000000	0.396462
1124.000000	0.397007
1125.000000	0.397654
1126.000000	0.398047
1127.000000	0.398603
1128.000000	0.399223
1129.000000	0.399984
1130.000000	0.400661
1131.000000	0.401518
1132.000000	0.402035
1133.000000	0.402385
1134.000000	0.402870
1135.000000	0.403177
1136.000000	0.403590
1137.000000	0.404120
1138.000000	0.404536
1139.000000	0.404888
1140.000000	0.405510
1141.000000	0.406256
1142.000000	0.406899
1143.000000	0.407650
1144.000000	0.408353
1145.000000	0.408687
1146.000000	0.408894
1147.000000	0.409349
1148.000000	0.409783
1149.000000	0.410106
1150.000000	0.410467
1151.000000	0.410923
1152.000000	0.411163
1153.000000	0.411624
1154.000000	0.412380
1155.000000	0.412832
1156.000000	0.413136
1157.000000	0.413540
1158.000000	0.413710
1159.000000	0.414122
1160.000000	0.414783
1161.000000	0.415249
1162.000000	0.415687
1163.000000	0.416456
1164.000000	0.416959
1165.000000	0.417473
1166.000000	0.418021
1167.000000	0.418669
1168.000000	0.419010
1169.000000	0.419219
1170.000000	0.419521
1171.000000	0.419702
1172.000000	0.420083
1173.000000	0.420551
1174.000000	0.420975
1175.000000	0.421434
1176.000000	0.421816
1177.000000	0.422289
1178.000000	0.422714
1179.000000	0.423131
1180.000000	0.423379
1181.000000	0.423600
1182.000000	0.423797
1183.000000	0.424139
1184.000000	0.424624
1185.000000	0.425089
1186.000000	0.425796
1187.000000	0.426152
1188.000000	0.426263
1189.000000	0.426567
1190.000000	0.426916
1191.000000	0.427251
1192.000000	0.427793
1193.000000	0.428382
1194.000000	0.428831
1195.000000	0.429236
1196.000000	0.429715
1197.000000	0.429984
1198.000000	0.429863
1199.000000	0.430107
1200.000000	0.430463
1201.000000	0.430829
1202.000000	0.431283
1203.000000	0.431756
1204.000000	0.431861
1205.000000	0.431925
1206.000000	0.432083
1207.000000	0.432373
1208.000000	0.432590
1209.000000	0.432872
1210.000000	0.433245
1211.000000	0.433699
1212.000000	0.434020
1213.000000	0.434491
1214.000000	0.434822
1215.000000	0.434876
1216.000000	0.435090
1217.000000	0.435353
1218.000000	0.435527
1219.000000	0.435654
1220.000000	0.435983
1221.000000	0.436249
1222.000000	0.436483
1223.000000	0.436793
1224.000000	0.437078
1225.000000	0.437155
1226.000000	0.437210
1227.000000	0.437368
1228.000000	0.437542
1229.000000	0.437632
1230.000000	0.437748
1231.000000	0.437781
1232.000000	0.437705
1233.000000	0.438065
1234.000000	0.438713
1235.000000	0.439056
1236.000000	0.439418
1237.000000	0.439762
1238.000000	0.439883
1239.000000	0.439965
1240.000000	0.440088
1241.000000	0.440060
1242.000000	0.440062
1243.000000	0.440096
1244.000000	0.440388
1245.000000	0.440903
1246.000000	0.441082
1247.000000	0.441276
1248.000000	0.441423
1249.000000	0.441405
1250.000000	0.441521
1251.000000	0.441745
1252.000000	0.441930
1253.000000	0.442263
1254.000000	0.442394
1255.000000	0.442364
1256.000000	0.442490
1257.000000	0.442637
1258.000000	0.442787
1259.000000	0.442963
1260.000000	0.443137
1261.000000	0.443147
1262.000000	0.443239
1263.000000	0.443431
1264.000000	0.443574
1265.000000	0.443697
1266.000000	0.443701
1267.000000	0.443790
1268.000000	0.443901
1269.000000	0.443958
1270.000000	0.444050
1271.000000	0.443992
1272.000000	0.443996
1273.000000	0.444080
1274.000000	0.444147
1275.000000	0.444174
1276.000000	0.444231
1277.000000	0.444392
1278.000000	0.444468
1279.000000	0.444467
1280.000000	0.444446
1281.000000	0.444312
1282.000000	0.444018
1283.000000	0.444007
1284.000000	0.444005
1285.000000	0.444035
1286.000000	0.444119
1287.000000	0.444236
1288.000000	0.444430
1289.000000	0.444499
1290.000000	0.444499
1291.000000	0.444492
1292.000000	0.444489
1293.000000	0.444615
1294.000000	0.444632
1295.000000	0.444707
1296.000000	0.444860
1297.000000	0.444831
1298.000000	0.444944
1299.000000	0.445035
1300.000000	0.444995
1301.000000	0.444967
1302.000000	0.444859
1303.000000	0.444895
1304.000000	0.444824
1305.000000	0.444725
1306.000000	0.444699
1307.000000	0.444817
1308.000000	0.444896
1309.000000	0.445096
1310.000000	0.445107
1311.000000	0.445069
1312.000000	0.444792
1313.000000	0.444660
1314.000000	0.444703
1315.000000	0.444644
1316.000000	0.444732
1317.000000	0.444866
1318.000000	0.444704
1319.000000	0.444564
1320.000000	0.444609
1321.000000	0.444402
1322.000000	0.444229
1323.000000	0.444237
1324.000000	0.444221
1325.000000	0.444145
1326.000000	0.444025
1327.000000	0.443996
1328.000000	0.443942
1329.000000	0.443801
1330.000000	0.443720
1331.000000	0.443625
1332.000000	0.443518
1333.000000	0.443419
1334.000000	0.443436
1335.000000	0.443405
1336.000000	0.443265
1337.000000	0.443201
1338.000000	0.443086
1339.000000	0.443076
1340.000000	0.443073
1341.000000	0.442923
1342.000000	0.442685
1343.000000	0.442478
1344.000000	0.442242
1345.000000	0.442063
1346.000000	0.442088
1347.000000	0.441904
1348.000000	0.441754
1349.000000	0.441486
1350.000000	0.441294
1351.000000	0.441269
1352.000000	0.441092
1353.000000	0.440886
1354.000000	0.440781
1355.000000	0.440573
1356.000000	0.440622
1357.000000	0.440810
1358.000000	0.440679
1359.000000	0.440479
1360.000000	0.440368
1361.000000	0.440168
1362.000000	0.439974
1363.000000	0.439947
1364.000000	0.439836
1365.000000	0.439566
1366.000000	0.439401
1367.000000	0.439334
1368.000000	0.439024
1369.000000	0.438968
1370.000000	0.438715
1371.000000	0.438295
1372.000000	0.437963
1373.000000	0.437408
1374.000000	0.436696
1375.000000	0.436017
1376.000000	0.435487
1377.000000	0.434944
1378.000000	0.434256
1379.000000	0.433413
1380.000000	0.432483
1381.000000	0.431373
1382.000000	0.430182
1383.000000	0.429209
1384.000000	0.428060
1385.000000	0.426634
1386.000000	0.425379
1387.000000	0.423989
1388.000000	0.422310
1389.000000	0.420698
1390.000000	0.419092
1391.000000	0.417257
1392.000000	0.415465
1393.000000	0.413601
1394.000000	0.411633
1395.000000	0.409850
1396.000000	0.408130
1397.000000	0.406331
1398.000000	0.404647
1399.000000	0.402824
1400.000000	0.400831
1401.000000	0.398870
1402.000000	0.396935
1403.000000	0.394946
1404.000000	0.393141
1405.000000	0.391276
1406.000000	0.389466
1407.000000	0.387792
1408.000000	0.385974
1409.000000	0.384330
1410.000000	0.382835
1411.000000	0.381413
1412.000000	0.380196
1413.000000	0.379188
1414.000000	0.378457
1415.000000	0.377864
1416.000000	0.377429
1417.000000	0.377333
1418.000000	0.377313
1419.000000	0.377403
1420.000000	0.377380
1421.000000	0.377315
1422.000000	0.377265
1423.000000	0.377202
1424.000000	0.377044
1425.000000	0.376868
1426.000000	0.376461
1427.000000	0.375984
1428.000000	0.375541
1429.000000	0.375023
1430.000000	0.374607
1431.000000	0.374314
1432.000000	0.374158
1433.000000	0.374081
1434.000000	0.374309
1435.000000	0.374803
1436.000000	0.375552
1437.000000	0.376492
1438.000000	0.377786
1439.000000	0.379443
1440.000000	0.381306
1441.000000	0.383716
1442.000000	0.385916
1443.000000	0.388102
1444.000000	0.390384
1445.000000	0.392515
1446.000000	0.394408
1447.000000	0.396340
1448.000000	0.398027
1449.000000	0.399499
1450.000000	0.400881
1451.000000	0.402048
1452.000000	0.402947
1453.000000	0.403678
1454.000000	0.404307
1455.000000	0.404842
1456.000000	0.405309
1457.000000	0.405649
1458.000000	0.405872
1459.000000	0.406077
1460.000000	0.406303
1461.000000	0.406546
1462.000000	0.406778
1463.000000	0.406874
1464.000000	0.407016
1465.000000	0.407377
1466.000000	0.407747
1467.000000	0.408221
1468.000000	0.408775
1469.000000	0.409243
1470.000000	0.409652
1471.000000	0.410212
1472.000000	0.410778
1473.000000	0.411400
1474.000000	0.411883
1475.000000	0.412280
1476.000000	0.412740
1477.000000	0.413311
1478.000000	0.413967
1479.000000	0.414584
1480.000000	0.415166
1481.000000	0.415620
1482.000000	0.415867
1483.000000	0.416408
1484.000000	0.417091
1485.000000	0.417603
1486.000000	0.418161
1487.000000	0.418697
1488.000000	0.419108
1489.000000	0.419661
1490.000000	0.420154
1491.000000	0.420692
1492.000000	0.421194
1493.000000	0.421695
1494.000000	0.422260
1495.000000	0.422718
1496.000000	0.423069
1497.000000	0.423418
1498.000000	0.423755
1499.000000	0.424009
1500.000000	0.424248
1501.000000	0.424596
1502.000000	0.425044
1503.000000	0.425417
1504.000000	0.425691
1505.000000	0.425974
1506.000000	0.426108
1507.000000	0.426291
1508.000000	0.426858
1509.000000	0.427423
1510.000000	0.427920
1511.000000	0.428356
1512.000000	0.428474
1513.000000	0.428616
1514.000000	0.428980
1515.000000	0.429375
1516.000000	0.429843
1517.000000	0.430236
1518.000000	0.430557
1519.000000	0.430744
1520.000000	0.430964
1521.000000	0.431183
1522.000000	0.431374
1523.000000	0.431624
1524.000000	0.431821
1525.000000	0.432087
1526.000000	0.432270
1527.000000	0.432442
1528.000000	0.432783
1529.000000	0.432926
1530.000000	0.432994
1531.000000	0.433384
1532.000000	0.433652
1533.000000	0.433861
1534.000000	0.434181
1535.000000	0.434377
1536.000000	0.434528
1537.000000	0.434751
1538.000000	0.434965
1539.000000	0.435123
1540.000000	0.435307
1541.000000	0.435616
1542.000000	0.435934
1543.000000	0.436192
1544.000000	0.436280
1545.000000	0.436418
1546.000000	0.436664
1547.000000	0.436773
1548.000000	0.436838
1549.000000	0.436885
1550.000000	0.436919
1551.000000	0.437096
1552.000000	0.437380
1553.000000	0.437476
1554.000000	0.437404
1555.000000	0.437386
1556.000000	0.437406
1557.000000	0.437543
1558.000000	0.437692
1559.000000	0.437868
1560.000000	0.437938
1561.000000	0.438000
1562.000000	0.438099
1563.000000	0.438293
1564.000000	0.438394
1565.000000	0.438416
1566.000000	0.438416
1567.000000	0.438467
1568.000000	0.438583
1569.000000	0.438937
1570.000000	0.439062
1571.000000	0.439048
1572.000000	0.439094
1573.000000	0.439059
1574.000000	0.439101
1575.000000	0.439262
1576.000000	0.439434
1577.000000	0.439600
1578.000000	0.439687
1579.000000	0.439855
1580.000000	0.439973
1581.000000	0.440088
1582.000000	0.440229
1583.000000	0.440444
1584.000000	0.440479
1585.000000	0.440529
1586.000000	0.440613
1587.000000	0.440573
1588.000000	0.440651
1589.000000	0.440867
1590.000000	0.440952
1591.000000	0.441073
1592.000000	0.441157
1593.000000	0.441204
1594.000000	0.441254
1595.000000	0.441378
1596.000000	0.441433
1597.000000	0.441445
1598.000000	0.441507
1599.000000	0.441599
1600.000000	0.441665
1601.000000	0.441926
1602.000000	0.441974
1603.000000	0.441965
1604.000000	0.441972
1605.000000	0.441911
1606.000000	0.441847
1607.000000	0.441861
1608.000000	0.441797
1609.000000	0.441741
1610.000000	0.441665
1611.000000	0.441589
1612.000000	0.441523
1613.000000	0.441610
1614.000000	0.441543
1615.000000	0.441457
1616.000000	0.441527
1617.000000	0.441539
1618.000000	0.441538
1619.000000	0.441605
1620.000000	0.441644
1621.000000	0.441615
1622.000000	0.441811
1623.000000	0.442132
1624.000000	0.442382
1625.000000	0.442550
1626.000000	0.442523
1627.000000	0.442400
1628.000000	0.442370
1629.000000	0.442185
1630.000000	0.442229
1631.000000	0.442382
1632.000000	0.442395
1633.000000	0.442426
1634.000000	0.442447
1635.000000	0.442442
1636.000000	0.442461
1637.000000	0.442636
1638.000000	0.442582
1639.000000	0.442431
1640.000000	0.442330
1641.000000	0.442244
1642.000000	0.442196
1643.000000	0.442281
1644.000000	0.442235
1645.000000	0.442082
1646.000000	0.441938
1647.000000	0.441790
1648.000000	0.441698
1649.000000	0.441740
1650.000000	0.441851
1651.000000	0.442138
1652.000000	0.442278
1653.000000	0.442348
1654.000000	0.442442
1655.000000	0.442379
1656.000000	0.442256
1657.000000	0.442226
1658.000000	0.442197
1659.000000	0.442227
1660.000000	0.442289
1661.000000	0.442396
1662.000000	0.442304
1663.000000	0.441976
1664.000000	0.441885
1665.000000	0.441787
1666.000000	0.441804
1667.000000	0.441865
1668.000000	0.441936
1669.000000	0.442042
1670.000000	0.441928
1671.000000	0.441887
1672.000000	0.441937
1673.000000	0.441815
1674.000000	0.441786
1675.000000	0.442047
1676.000000	0.442158
1677.000000	0.442039
1678.000000	0.441929
1679.000000	0.441893
1680.000000	0.441877
1681.000000	0.441865
1682.000000	0.441945
1683.000000	0.441942
1684.000000	0.441766
1685.000000	0.441726
1686.000000	0.441651
1687.000000	0.441631
1688.000000	0.441605
1689.000000	0.441524
1690.000000	0.441504
1691.000000	0.441474
1692.000000	0.441349
1693.000000	0.441289
1694.000000	0.441188
1695.000000	0.441238
1696.000000	0.441391
1697.000000	0.441441
1698.000000	0.441680
1699.000000	0.441730
1700.000000	0.441484
1701.000000	0.441569
1702.000000	0.441575
1703.000000	0.441415
1704.000000	0.441427
1705.000000	0.441447
1706.000000	0.441341
1707.000000	0.441257
1708.000000	0.441357
1709.000000	0.441181
1710.000000	0.440845
1711.000000	0.440681
1712.000000	0.440514
1713.000000	0.440390
1714.000000	0.440492
1715.000000	0.440445
1716.000000	0.440333
1717.000000	0.440252
1718.000000	0.440016
1719.000000	0.439943
1720.000000	0.440167
1721.000000	0.440120
1722.000000	0.440046
1723.000000	0.439893
1724.000000	0.439477
1725.000000	0.439366
1726.000000	0.439292
1727.000000	0.439203
1728.000000	0.439193
1729.000000	0.438957
1730.000000	0.438757
1731.000000	0.438591
1732.000000	0.438342
1733.000000	0.438310
1734.000000	0.438257
1735.000000	0.438124
1736.000000	0.437983
1737.000000	0.437823
1738.000000	0.437571
1739.000000	0.437484
1740.000000	0.437439
1741.000000	0.437456
1742.000000	0.437605
1743.000000	0.437685
1744.000000	0.437792
1745.000000	0.437752
1746.000000	0.437602
1747.000000	0.437544
1748.000000	0.437330
1749.000000	0.436900
1750.000000	0.436669
1751.000000	0.436733
1752.000000	0.436763
1753.000000	0.436685
1754.000000	0.436710
1755.000000	0.436646
1756.000000	0.436539
1757.000000	0.436566
1758.000000	0.436545
1759.000000	0.436292
1760.000000	0.436205
1761.000000	0.436284
1762.000000	0.436184
1763.000000	0.436119
1764.000000	0.435923
1765.000000	0.435391
1766.000000	0.435144
1767.000000	0.434847
1768.000000	0.434607
1769.000000	0.434736
1770.000000	0.434672
1771.000000	0.434403
1772.000000	0.434296
1773.000000	0.434167
1774.000000	0.434019
1775.000000	0.434081
1776.000000	0.433934
1777.000000	0.433546
1778.000000	0.433298
1779.000000	0.433020
1780.000000	0.432822
1781.000000	0.432663
1782.000000	0.432472
1783.000000	0.432319
1784.000000	0.432083
1785.000000	0.431991
1786.000000	0.432003
1787.000000	0.432329
1788.000000	0.432540
1789.000000	0.432522
1790.000000	0.432567
1791.000000	0.432482
1792.000000	0.432551
1793.000000	0.432550
1794.000000	0.432349
1795.000000	0.432326
1796.000000	0.432420
1797.000000	0.432431
1798.000000	0.432368
1799.000000	0.432393
1800.000000	0.432656
1801.000000	0.431829
1802.000000	0.432470
1803.000000	0.433117
1804.000000	0.433296
1805.000000	0.432478
1806.000000	0.432092
1807.000000	0.431847
1808.000000	0.431366
1809.000000	0.430044
1810.000000	0.429646
1811.000000	0.429909
1812.000000	0.430555
1813.000000	0.431224
1814.000000	0.433469
1815.000000	0.434074
1816.000000	0.433715
1817.000000	0.433526
1818.000000	0.432924
1819.000000	0.432563
1820.000000	0.431867
1821.000000	0.431441
1822.000000	0.431181
1823.000000	0.430690
1824.000000	0.430311
1825.000000	0.430358
1826.000000	0.430220
1827.000000	0.429786
1828.000000	0.429320
1829.000000	0.429282
1830.000000	0.429247
1831.000000	0.428775
1832.000000	0.427902
1833.000000	0.427824
1834.000000	0.427756
1835.000000	0.427640
1836.000000	0.428173
1837.000000	0.428220
1838.000000	0.427488
1839.000000	0.427035
1840.000000	0.427199
1841.000000	0.427145
1842.000000	0.427107
1843.000000	0.427298
1844.000000	0.427220
1845.000000	0.426660
1846.000000	0.426503
1847.000000	0.426301
1848.000000	0.426001
1849.000000	0.425611
1850.000000	0.425485
1851.000000	0.425696
1852.000000	0.426022
1853.000000	0.426291
1854.000000	0.427000
1855.000000	0.426891
1856.000000	0.426183
1857.000000	0.425488
1858.000000	0.424478
1859.000000	0.423474
1860.000000	0.422115
1861.000000	0.420846
1862.000000	0.419616
1863.000000	0.418325
1864.000000	0.417241
1865.000000	0.416390
1866.000000	0.415394
1867.000000	0.414523
1868.000000	0.413401
1869.000000	0.411822
1870.000000	0.410477
1871.000000	0.408643
1872.000000	0.406162
1873.000000	0.404209
1874.000000	0.402348
1875.000000	0.400336
1876.000000	0.398188
1877.000000	0.395939
1878.000000	0.392906
1879.000000	0.389494
1880.000000	0.385925
1881.000000	0.382135
1882.000000	0.378569
1883.000000	0.375496
1884.000000	0.371977
1885.000000	0.368165
1886.000000	0.363928
1887.000000	0.359491
1888.000000	0.354231
1889.000000	0.348816
1890.000000	0.343662
1891.000000	0.338539
1892.000000	0.333296
1893.000000	0.327575
1894.000000	0.322067
1895.000000	0.316235
1896.000000	0.310255
1897.000000	0.304227
1898.000000	0.298589
1899.000000	0.293123
1900.000000	0.288282
1901.000000	0.284067
1902.000000	0.280062
1903.000000	0.276679
1904.000000	0.274143
1905.000000	0.271765
1906.000000	0.269641
1907.000000	0.267753
1908.000000	0.266647
1909.000000	0.266401
1910.000000	0.265925
1911.000000	0.266104
1912.000000	0.267423
1913.000000	0.267987
1914.000000	0.269147
1915.000000	0.270839
1916.000000	0.272025
1917.000000	0.273291
1918.000000	0.274837
1919.000000	0.276181
1920.000000	0.277330
1921.000000	0.278667
1922.000000	0.279736
1923.000000	0.281440
1924.000000	0.283526
1925.000000	0.285168
1926.000000	0.286326
1927.000000	0.287307
1928.000000	0.288314
1929.000000	0.288945
1930.000000	0.289641
1931.000000	0.291461
1932.000000	0.293209
1933.000000	0.294650
1934.000000	0.296283
1935.000000	0.296980
1936.000000	0.297678
1937.000000	0.298583
1938.000000	0.299608
1939.000000	0.300565
1940.000000	0.301754
1941.000000	0.302518
1942.000000	0.303465
1943.000000	0.303956
1944.000000	0.304276
1945.000000	0.305171
1946.000000	0.305866
1947.000000	0.306617
1948.000000	0.307396
1949.000000	0.308381
1950.000000	0.309334
1951.000000	0.309771
1952.000000	0.309793
1953.000000	0.310201
1954.000000	0.310869
1955.000000	0.311551
1956.000000	0.312875
1957.000000	0.313669
1958.000000	0.314017
1959.000000	0.314790
1960.000000	0.315201
1961.000000	0.315931
1962.000000	0.316509
1963.000000	0.317164
1964.000000	0.317311
1965.000000	0.317884
1966.000000	0.318650
1967.000000	0.319653
1968.000000	0.320788
1969.000000	0.321788
1970.000000	0.322619
1971.000000	0.323225
1972.000000	0.323926
1973.000000	0.324255
1974.000000	0.324046
1975.000000	0.324607
1976.000000	0.325659
1977.000000	0.326066
1978.000000	0.326698
1979.000000	0.327673
1980.000000	0.328044
1981.000000	0.329175
1982.000000	0.330437
1983.000000	0.331679
1984.000000	0.332972
1985.000000	0.334322
1986.000000	0.335474
1987.000000	0.336689
1988.000000	0.338171
1989.000000	0.338971
1990.000000	0.339973
1991.000000	0.341257
1992.000000	0.341690
1993.000000	0.342417
1994.000000	0.343629
1995.000000	0.343936
1996.000000	0.344711
1997.000000	0.345549
1998.000000	0.346366
1999.000000	0.347272
2000.000000	0.348652
2001.000000	0.349469
2002.000000	0.349911
2003.000000	0.350576
2004.000000	0.350750
2005.000000	0.351467
2006.000000	0.352421
2007.000000	0.353038
2008.000000	0.353885
2009.000000	0.354483
2010.000000	0.355550
2011.000000	0.357283
2012.000000	0.358166
2013.000000	0.358666
2014.000000	0.359375
2015.000000	0.359364
2016.000000	0.359540
2017.000000	0.360794
2018.000000	0.361899
2019.000000	0.363061
2020.000000	0.363962
2021.000000	0.364630
2022.000000	0.364563
2023.000000	0.365013
2024.000000	0.365592
2025.000000	0.366436
2026.000000	0.367361
2027.000000	0.368590
2028.000000	0.369115
2029.000000	0.369191
2030.000000	0.369509
2031.000000	0.369654
2032.000000	0.370131
2033.000000	0.371217
2034.000000	0.371704
2035.000000	0.371775
2036.000000	0.372055
2037.000000	0.372377
2038.000000	0.372804
2039.000000	0.373205
2040.000000	0.374450
2041.000000	0.375663
2042.000000	0.376438
2043.000000	0.376731
2044.000000	0.376782
2045.000000	0.376454
2046.000000	0.375974
2047.000000	0.376224
2048.000000	0.377067
2049.000000	0.377841
2050.000000	0.378477
2051.000000	0.379333
2052.000000	0.380533
2053.000000	0.380992
2054.000000	0.381684
2055.000000	0.381850
2056.000000	0.381770
2057.000000	0.381840
2058.000000	0.382281
2059.000000	0.383394
2060.000000	0.383715
2061.000000	0.383748
2062.000000	0.383962
2063.000000	0.383837
2064.000000	0.383736
2065.000000	0.384520
2066.000000	0.384377
2067.000000	0.383868
2068.000000	0.383541
2069.000000	0.383420
2070.000000	0.383714
2071.000000	0.383856
2072.000000	0.384485
2073.000000	0.385462
2074.000000	0.385351
2075.000000	0.385567
2076.000000	0.386064
2077.000000	0.386476
2078.000000	0.386314
2079.000000	0.386856
2080.000000	0.388355
2081.000000	0.388985
2082.000000	0.389580
2083.000000	0.389997
2084.000000	0.389322
2085.000000	0.388277
2086.000000	0.387661
2087.000000	0.387574
2088.000000	0.387893
2089.000000	0.388226
2090.000000	0.388291
2091.000000	0.388073
2092.000000	0.387986
2093.000000	0.387830
2094.000000	0.387928
2095.000000	0.388067
2096.000000	0.388373
2097.000000	0.388779
2098.000000	0.389409
2099.000000	0.389687
2100.000000	0.390652
2101.000000	0.390887
2102.000000	0.390188
2103.000000	0.390321
2104.000000	0.390379
2105.000000	0.390442
2106.000000	0.391094
2107.000000	0.391472
2108.000000	0.391383
2109.000000	0.391497
2110.000000	0.391379
2111.000000	0.391513
2112.000000	0.391784
2113.000000	0.391400
2114.000000	0.391810
2115.000000	0.392836
2116.000000	0.392969
2117.000000	0.393653
2118.000000	0.393922
2119.000000	0.393556
2120.000000	0.393523
2121.000000	0.393387
2122.000000	0.393526
2123.000000	0.393722
2124.000000	0.394018
2125.000000	0.394789
2126.000000	0.394870
2127.000000	0.394651
2128.000000	0.394809
2129.000000	0.394766
2130.000000	0.394732
2131.000000	0.394392
2132.000000	0.393656
2133.000000	0.392521
2134.000000	0.391710
2135.000000	0.391606
2136.000000	0.391687
2137.000000	0.391837
2138.000000	0.392530
2139.000000	0.392598
2140.000000	0.392416
2141.000000	0.392521
2142.000000	0.392315
2143.000000	0.391989
2144.000000	0.392453
2145.000000	0.392146
2146.000000	0.390896
2147.000000	0.391237
2148.000000	0.390398
2149.000000	0.390099
2150.000000	0.390326
2151.000000	0.389628
2152.000000	0.389646
2153.000000	0.389728
2154.000000	0.389631
2155.000000	0.389500
2156.000000	0.389534
2157.000000	0.389694
2158.000000	0.389666
2159.000000	0.389833
2160.000000	0.389963
2161.000000	0.390019
2162.000000	0.389791
2163.000000	0.389260
2164.000000	0.388754
2165.000000	0.387741
2166.000000	0.387193
2167.000000	0.386709
2168.000000	0.386225
2169.000000	0.386573
2170.000000	0.386045
2171.000000	0.385946
2172.000000	0.386498
2173.000000	0.386105
2174.000000	0.384912
2175.000000	0.384676
2176.000000	0.384543
2177.000000	0.384362
2178.000000	0.384786
2179.000000	0.385249
2180.000000	0.385465
2181.000000	0.385743
2182.000000	0.385856
2183.000000	0.385460
2184.000000	0.385193
2185.000000	0.384637
2186.000000	0.383837
2187.000000	0.384074
2188.000000	0.383533
2189.000000	0.382730
2190.000000	0.382211
2191.000000	0.381346
2192.000000	0.380500
2193.000000	0.379375
2194.000000	0.378027
2195.000000	0.376187
2196.000000	0.375586
2197.000000	0.375534
2198.000000	0.374979
2199.000000	0.375797
2200.000000	0.375824
2201.000000	0.374355
2202.000000	0.373487
2203.000000	0.373389
2204.000000	0.371740
2205.000000	0.369391
2206.000000	0.367865
2207.000000	0.366166
2208.000000	0.364620
2209.000000	0.364780
2210.000000	0.366543
2211.000000	0.370348
2212.000000	0.374272
2213.000000	0.374918
2214.000000	0.373181
2215.000000	0.372490
2216.000000	0.369156
2217.000000	0.368582
2218.000000	0.370845
2219.000000	0.371956
2220.000000	0.371963
2221.000000	0.373228
2222.000000	0.376158
2223.000000	0.377041
2224.000000	0.378020
2225.000000	0.378577
2226.000000	0.375494
2227.000000	0.371336
2228.000000	0.368454
2229.000000	0.366580
2230.000000	0.368322
2231.000000	0.369938
2232.000000	0.369424
2233.000000	0.370811
2234.000000	0.371255
2235.000000	0.371259
2236.000000	0.371529
2237.000000	0.372430
2238.000000	0.372324
2239.000000	0.371718
2240.000000	0.371433
2241.000000	0.371255
2242.000000	0.371428
2243.000000	0.370581
2244.000000	0.370919
2245.000000	0.372976
2246.000000	0.373566
2247.000000	0.374655
2248.000000	0.374802
2249.000000	0.374401
2250.000000	0.371883
2251.000000	0.370271
2252.000000	0.367705
2253.000000	0.364200
2254.000000	0.362880
2255.000000	0.363402
2256.000000	0.365203
2257.000000	0.367632
2258.000000	0.368400
2259.000000	0.366092
2260.000000	0.362704
2261.000000	0.359909
2262.000000	0.356067
2263.000000	0.354012
2264.000000	0.353937
2265.000000	0.351484
2266.000000	0.348202
2267.000000	0.344820
2268.000000	0.339125
2269.000000	0.335883
2270.000000	0.335334
2271.000000	0.332464
2272.000000	0.329337
2273.000000	0.325833
2274.000000	0.319935
2275.000000	0.316325
2276.000000	0.312886
2277.000000	0.311576
2278.000000	0.313076
2279.000000	0.313288
2280.000000	0.313556
2281.000000	0.313184
2282.000000	0.309144
2283.000000	0.305405
2284.000000	0.303637
2285.000000	0.301699
2286.000000	0.302883
2287.000000	0.305417
2288.000000	0.305621
2289.000000	0.305797
2290.000000	0.304685
2291.000000	0.302485
2292.000000	0.300534
2293.000000	0.301279
2294.000000	0.303354
2295.000000	0.306562
2296.000000	0.309964
2297.000000	0.316430
2298.000000	0.320101
2299.000000	0.323752
2300.000000	0.326550
2301.000000	0.327074
2302.000000	0.328218
2303.000000	0.327983
2304.000000	0.329811
2305.000000	0.333954
2306.000000	0.336630
2307.000000	0.340050
2308.000000	0.341836
2309.000000	0.343157
2310.000000	0.342840
2311.000000	0.343738
2312.000000	0.345989
2313.000000	0.344293
2314.000000	0.344066
2315.000000	0.344639
2316.000000	0.342485
2317.000000	0.341084
2318.000000	0.341472
2319.000000	0.341233
2320.000000	0.340739
2321.000000	0.342584
2322.000000	0.342846
2323.000000	0.341696
2324.000000	0.343921
2325.000000	0.345206
2326.000000	0.344666
2327.000000	0.345884
2328.000000	0.343632
2329.000000	0.342422
2330.000000	0.342877
2331.000000	0.340274
2332.000000	0.340769
2333.000000	0.338059
2334.000000	0.332660
2335.000000	0.331612
2336.000000	0.332258
2337.000000	0.331880
2338.000000	0.334723
2339.000000	0.335089
2340.000000	0.331783
2341.000000	0.330716
2342.000000	0.331064
2343.000000	0.331276
2344.000000	0.332514
2345.000000	0.334261
2346.000000	0.337037
2347.000000	0.337415
2348.000000	0.338105
2349.000000	0.335016
2350.000000	0.330234
2351.000000	0.323666
2352.000000	0.316779
2353.000000	0.314108
2354.000000	0.312491
2355.000000	0.313212
2356.000000	0.314238
2357.000000	0.315921
2358.000000	0.318669
2359.000000	0.318302
2360.000000	0.318339
2361.000000	0.318908
2362.000000	0.316658
2363.000000	0.314996
2364.000000	0.311750
2365.000000	0.307862
2366.000000	0.306262
2367.000000	0.303517
2368.000000	0.304533
2369.000000	0.305303
2370.000000	0.303205
2371.000000	0.302192
2372.000000	0.300714
2373.000000	0.301128
2374.000000	0.300833
2375.000000	0.299918
2376.000000	0.298504
2377.000000	0.293565
2378.000000	0.291686
2379.000000	0.289176
2380.000000	0.283498
2381.000000	0.284568
2382.000000	0.287647
2383.000000	0.289120
2384.000000	0.291620
2385.000000	0.294523
2386.000000	0.296787
2387.000000	0.299538
2388.000000	0.301488
2389.000000	0.295979
2390.000000	0.286382
2391.000000	0.276676
2392.000000	0.272947
2393.000000	0.276656
2394.000000	0.277832
2395.000000	0.278813
2396.000000	0.282280
2397.000000	0.285046
2398.000000	0.289307
2399.000000	0.296291
2400.000000	0.297446
2401.000000	0.287820
2402.000000	0.280558
2403.000000	0.273851
2404.000000	0.260084
2405.000000	0.255023
2406.000000	0.253799
2407.000000	0.249218
2408.000000	0.256338
2409.000000	0.265205
2410.000000	0.269744
2411.000000	0.276021
2412.000000	0.275271
2413.000000	0.269934
2414.000000	0.264167
2415.000000	0.256512
2416.000000	0.251801
2417.000000	0.253490
2418.000000	0.257905
2419.000000	0.260392
2420.000000	0.265808
2421.000000	0.266325
2422.000000	0.263399
2423.000000	0.262849
2424.000000	0.250508
2425.000000	0.244358
2426.000000	0.252309
2427.000000	0.252965
2428.000000	0.264548
2429.000000	0.276065
2430.000000	0.271801
2431.000000	0.261553
2432.000000	0.236242
2433.000000	0.223179
2434.000000	0.214456
2435.000000	0.203032
2436.000000	0.210756
2437.000000	0.219086
2438.000000	0.225166
2439.000000	0.243086
2440.000000	0.264676
2441.000000	0.258365
2442.000000	0.236381
2443.000000	0.213764
2444.000000	0.190326
2445.000000	0.194216
2446.000000	0.198301
2447.000000	0.208818
2448.000000	0.238361
2449.000000	0.251086
2450.000000	0.272824
2451.000000	0.295326
2452.000000	0.283855
2453.000000	0.253032
2454.000000	0.216526
2455.000000	0.193682
2456.000000	0.183565
2457.000000	0.187361
2458.000000	0.208480
2459.000000	0.219000
2460.000000	0.226131
2461.000000	0.236983
2462.000000	0.233095
2463.000000	0.220234
2464.000000	0.206872
2465.000000	0.195297
2466.000000	0.202681
2467.000000	0.227711
2468.000000	0.246591
2469.000000	0.258209
2470.000000	0.262718
2471.000000	0.256446
2472.000000	0.255704
2473.000000	0.264461
2474.000000	0.268458
2475.000000	0.266225
2476.000000	0.242742
2477.000000	0.219039
2478.000000	0.212781
2479.000000	0.197217
2480.000000	0.206496
2481.000000	0.226729
2482.000000	0.221608
2483.000000	0.212495
2484.000000	0.193090
2485.000000	0.175570
2486.000000	0.143617
2487.000000	0.126603
2488.000000	0.138917
2489.000000	0.138944
2490.000000	0.147834
2491.000000	0.144295
2492.000000	0.141584
2493.000000	0.139470
2494.000000	0.137079
2495.000000	0.127345
2496.000000	0.146206
2497.000000	0.184287
2498.000000	0.192645
2499.000000	0.251108
2500.000000	0.233481
