# Wavelength	NAu-1-70_HEX-20_FV7-10_00002.asd.rts.txt
350.000000	0.121467
351.000000	0.090774
352.000000	0.090965
353.000000	0.106131
354.000000	0.117576
355.000000	0.106011
356.000000	0.099835
357.000000	0.107248
358.000000	0.122447
359.000000	0.127555
360.000000	0.122390
361.000000	0.112585
362.000000	0.111601
363.000000	0.108978
364.000000	0.101180
365.000000	0.109013
366.000000	0.110021
367.000000	0.102737
368.000000	0.103632
369.000000	0.105976
370.000000	0.105894
371.000000	0.101642
372.000000	0.104216
373.000000	0.109129
374.000000	0.112291
375.000000	0.113877
376.000000	0.113695
377.000000	0.112794
378.000000	0.113624
379.000000	0.114549
380.000000	0.115055
381.000000	0.115330
382.000000	0.115088
383.000000	0.115086
384.000000	0.115185
385.000000	0.110933
386.000000	0.112090
387.000000	0.118688
388.000000	0.120393
389.000000	0.121374
390.000000	0.122338
391.000000	0.123033
392.000000	0.124290
393.000000	0.125857
394.000000	0.127598
395.000000	0.130643
396.000000	0.132642
397.000000	0.133326
398.000000	0.135121
399.000000	0.137446
400.000000	0.139454
401.000000	0.140137
402.000000	0.141937
403.000000	0.143651
404.000000	0.144305
405.000000	0.146166
406.000000	0.148142
407.000000	0.149668
408.000000	0.151154
409.000000	0.152339
410.000000	0.153402
411.000000	0.154759
412.000000	0.156501
413.000000	0.158345
414.000000	0.159855
415.000000	0.160029
416.000000	0.160482
417.000000	0.161795
418.000000	0.161834
419.000000	0.162536
420.000000	0.163706
421.000000	0.163318
422.000000	0.163730
423.000000	0.164319
424.000000	0.163835
425.000000	0.163828
426.000000	0.164108
427.000000	0.164240
428.000000	0.163782
429.000000	0.163119
430.000000	0.162781
431.000000	0.163726
432.000000	0.163576
433.000000	0.162840
434.000000	0.163356
435.000000	0.163485
436.000000	0.163314
437.000000	0.163170
438.000000	0.163052
439.000000	0.162430
440.000000	0.161394
441.000000	0.161133
442.000000	0.160408
443.000000	0.159470
444.000000	0.159725
445.000000	0.159580
446.000000	0.159424
447.000000	0.159932
448.000000	0.160523
449.000000	0.161326
450.000000	0.162553
451.000000	0.164419
452.000000	0.166816
453.000000	0.169584
454.000000	0.172662
455.000000	0.175862
456.000000	0.179101
457.000000	0.182258
458.000000	0.185679
459.000000	0.188987
460.000000	0.191863
461.000000	0.194514
462.000000	0.197051
463.000000	0.199351
464.000000	0.201261
465.000000	0.202995
466.000000	0.204531
467.000000	0.205807
468.000000	0.207120
469.000000	0.208420
470.000000	0.209688
471.000000	0.210761
472.000000	0.211645
473.000000	0.212443
474.000000	0.213400
475.000000	0.214064
476.000000	0.214645
477.000000	0.215834
478.000000	0.216715
479.000000	0.217344
480.000000	0.217871
481.000000	0.218442
482.000000	0.219219
483.000000	0.220081
484.000000	0.220866
485.000000	0.221434
486.000000	0.221966
487.000000	0.222722
488.000000	0.223551
489.000000	0.224358
490.000000	0.225042
491.000000	0.225589
492.000000	0.226381
493.000000	0.227619
494.000000	0.228359
495.000000	0.228955
496.000000	0.229710
497.000000	0.230550
498.000000	0.231418
499.000000	0.232319
500.000000	0.233154
501.000000	0.233927
502.000000	0.234780
503.000000	0.235830
504.000000	0.236818
505.000000	0.237728
506.000000	0.238600
507.000000	0.239421
508.000000	0.240369
509.000000	0.241465
510.000000	0.242540
511.000000	0.243660
512.000000	0.244799
513.000000	0.245808
514.000000	0.246819
515.000000	0.247882
516.000000	0.248962
517.000000	0.250039
518.000000	0.251294
519.000000	0.252697
520.000000	0.253794
521.000000	0.254982
522.000000	0.256357
523.000000	0.257528
524.000000	0.258832
525.000000	0.260232
526.000000	0.261548
527.000000	0.262864
528.000000	0.264227
529.000000	0.265708
530.000000	0.267199
531.000000	0.268712
532.000000	0.270193
533.000000	0.271774
534.000000	0.273300
535.000000	0.274770
536.000000	0.276384
537.000000	0.277951
538.000000	0.279498
539.000000	0.281113
540.000000	0.282720
541.000000	0.284306
542.000000	0.285909
543.000000	0.287543
544.000000	0.289119
545.000000	0.290587
546.000000	0.292228
547.000000	0.293869
548.000000	0.295512
549.000000	0.297165
550.000000	0.298754
551.000000	0.300347
552.000000	0.301969
553.000000	0.303493
554.000000	0.304991
555.000000	0.306546
556.000000	0.308234
557.000000	0.309777
558.000000	0.311222
559.000000	0.312629
560.000000	0.314000
561.000000	0.315410
562.000000	0.316787
563.000000	0.318109
564.000000	0.319396
565.000000	0.320573
566.000000	0.321809
567.000000	0.322984
568.000000	0.324026
569.000000	0.325097
570.000000	0.326165
571.000000	0.327195
572.000000	0.328178
573.000000	0.329144
574.000000	0.330048
575.000000	0.330889
576.000000	0.331730
577.000000	0.332480
578.000000	0.333157
579.000000	0.333874
580.000000	0.334559
581.000000	0.335178
582.000000	0.335770
583.000000	0.336266
584.000000	0.336672
585.000000	0.337051
586.000000	0.337434
587.000000	0.337792
588.000000	0.338093
589.000000	0.338376
590.000000	0.338655
591.000000	0.338926
592.000000	0.339153
593.000000	0.339394
594.000000	0.339649
595.000000	0.339870
596.000000	0.339988
597.000000	0.340116
598.000000	0.340313
599.000000	0.340432
600.000000	0.340489
601.000000	0.340454
602.000000	0.340500
603.000000	0.340543
604.000000	0.340563
605.000000	0.340621
606.000000	0.340725
607.000000	0.340821
608.000000	0.340806
609.000000	0.340828
610.000000	0.340880
611.000000	0.340917
612.000000	0.340937
613.000000	0.340920
614.000000	0.340902
615.000000	0.340874
616.000000	0.340819
617.000000	0.340738
618.000000	0.340776
619.000000	0.340772
620.000000	0.340721
621.000000	0.340742
622.000000	0.340762
623.000000	0.340709
624.000000	0.340576
625.000000	0.340589
626.000000	0.340631
627.000000	0.340663
628.000000	0.340789
629.000000	0.340886
630.000000	0.340877
631.000000	0.341025
632.000000	0.341050
633.000000	0.341047
634.000000	0.341134
635.000000	0.341225
636.000000	0.341310
637.000000	0.341375
638.000000	0.341464
639.000000	0.341605
640.000000	0.341824
641.000000	0.341962
642.000000	0.342024
643.000000	0.342083
644.000000	0.342231
645.000000	0.342423
646.000000	0.342619
647.000000	0.342773
648.000000	0.342953
649.000000	0.343165
650.000000	0.343387
651.000000	0.343632
652.000000	0.343822
653.000000	0.344023
654.000000	0.344267
655.000000	0.344493
656.000000	0.344766
657.000000	0.345073
658.000000	0.345339
659.000000	0.345628
660.000000	0.345950
661.000000	0.346274
662.000000	0.346563
663.000000	0.346874
664.000000	0.347202
665.000000	0.347615
666.000000	0.348010
667.000000	0.348265
668.000000	0.348648
669.000000	0.349003
670.000000	0.349280
671.000000	0.349721
672.000000	0.350150
673.000000	0.350540
674.000000	0.351004
675.000000	0.351433
676.000000	0.351852
677.000000	0.352338
678.000000	0.352900
679.000000	0.353447
680.000000	0.353935
681.000000	0.354405
682.000000	0.354934
683.000000	0.355439
684.000000	0.355935
685.000000	0.356451
686.000000	0.357035
687.000000	0.357663
688.000000	0.358230
689.000000	0.358802
690.000000	0.359462
691.000000	0.360104
692.000000	0.360695
693.000000	0.361306
694.000000	0.361920
695.000000	0.362588
696.000000	0.363278
697.000000	0.363933
698.000000	0.364620
699.000000	0.365337
700.000000	0.366062
701.000000	0.366706
702.000000	0.367415
703.000000	0.368178
704.000000	0.368826
705.000000	0.369496
706.000000	0.370193
707.000000	0.370974
708.000000	0.371694
709.000000	0.372405
710.000000	0.373181
711.000000	0.373920
712.000000	0.374663
713.000000	0.375428
714.000000	0.376118
715.000000	0.376818
716.000000	0.377570
717.000000	0.378355
718.000000	0.379040
719.000000	0.379673
720.000000	0.380349
721.000000	0.381131
722.000000	0.381871
723.000000	0.382574
724.000000	0.383211
725.000000	0.383922
726.000000	0.384710
727.000000	0.385328
728.000000	0.386052
729.000000	0.386808
730.000000	0.387444
731.000000	0.388087
732.000000	0.388708
733.000000	0.389329
734.000000	0.389881
735.000000	0.390478
736.000000	0.391201
737.000000	0.391796
738.000000	0.392343
739.000000	0.392939
740.000000	0.393438
741.000000	0.393996
742.000000	0.394471
743.000000	0.394828
744.000000	0.395251
745.000000	0.395666
746.000000	0.396094
747.000000	0.396461
748.000000	0.396891
749.000000	0.397306
750.000000	0.397624
751.000000	0.397968
752.000000	0.398340
753.000000	0.398720
754.000000	0.399031
755.000000	0.399340
756.000000	0.399633
757.000000	0.399825
758.000000	0.400019
759.000000	0.400202
760.000000	0.400299
761.000000	0.400496
762.000000	0.400596
763.000000	0.400618
764.000000	0.400795
765.000000	0.400784
766.000000	0.400757
767.000000	0.400881
768.000000	0.400896
769.000000	0.400815
770.000000	0.400718
771.000000	0.400769
772.000000	0.400782
773.000000	0.400682
774.000000	0.400616
775.000000	0.400572
776.000000	0.400479
777.000000	0.400289
778.000000	0.400134
779.000000	0.399976
780.000000	0.399798
781.000000	0.399572
782.000000	0.399307
783.000000	0.399099
784.000000	0.398815
785.000000	0.398491
786.000000	0.398207
787.000000	0.397975
788.000000	0.397699
789.000000	0.397415
790.000000	0.397073
791.000000	0.396655
792.000000	0.396319
793.000000	0.395974
794.000000	0.395555
795.000000	0.395225
796.000000	0.394893
797.000000	0.394519
798.000000	0.394121
799.000000	0.393739
800.000000	0.393366
801.000000	0.392976
802.000000	0.392516
803.000000	0.392003
804.000000	0.391508
805.000000	0.391019
806.000000	0.390525
807.000000	0.390101
808.000000	0.389666
809.000000	0.389205
810.000000	0.388761
811.000000	0.388328
812.000000	0.387813
813.000000	0.387265
814.000000	0.386726
815.000000	0.386255
816.000000	0.385745
817.000000	0.385250
818.000000	0.384733
819.000000	0.384191
820.000000	0.383681
821.000000	0.383166
822.000000	0.382662
823.000000	0.382138
824.000000	0.381542
825.000000	0.380972
826.000000	0.380403
827.000000	0.379874
828.000000	0.379428
829.000000	0.378905
830.000000	0.378389
831.000000	0.377924
832.000000	0.377337
833.000000	0.376825
834.000000	0.376303
835.000000	0.375742
836.000000	0.375256
837.000000	0.374690
838.000000	0.374083
839.000000	0.373571
840.000000	0.373101
841.000000	0.372631
842.000000	0.372103
843.000000	0.371681
844.000000	0.371329
845.000000	0.370929
846.000000	0.370362
847.000000	0.369839
848.000000	0.369351
849.000000	0.368875
850.000000	0.368363
851.000000	0.367846
852.000000	0.367401
853.000000	0.367046
854.000000	0.366630
855.000000	0.366232
856.000000	0.365764
857.000000	0.365201
858.000000	0.364704
859.000000	0.364268
860.000000	0.363885
861.000000	0.363580
862.000000	0.363334
863.000000	0.363022
864.000000	0.362693
865.000000	0.362306
866.000000	0.361892
867.000000	0.361527
868.000000	0.361196
869.000000	0.360832
870.000000	0.360476
871.000000	0.360008
872.000000	0.359571
873.000000	0.359163
874.000000	0.358702
875.000000	0.358263
876.000000	0.357902
877.000000	0.357571
878.000000	0.357145
879.000000	0.356793
880.000000	0.356458
881.000000	0.356176
882.000000	0.355912
883.000000	0.355635
884.000000	0.355264
885.000000	0.355027
886.000000	0.354763
887.000000	0.354440
888.000000	0.354235
889.000000	0.354068
890.000000	0.353748
891.000000	0.353340
892.000000	0.352968
893.000000	0.352677
894.000000	0.352582
895.000000	0.352480
896.000000	0.352282
897.000000	0.352013
898.000000	0.351751
899.000000	0.351533
900.000000	0.351315
901.000000	0.351044
902.000000	0.350813
903.000000	0.350706
904.000000	0.350653
905.000000	0.350455
906.000000	0.350306
907.000000	0.350236
908.000000	0.350226
909.000000	0.350015
910.000000	0.349834
911.000000	0.349688
912.000000	0.349554
913.000000	0.349431
914.000000	0.349260
915.000000	0.349131
916.000000	0.349049
917.000000	0.349000
918.000000	0.348923
919.000000	0.348781
920.000000	0.348734
921.000000	0.348688
922.000000	0.348632
923.000000	0.348553
924.000000	0.348448
925.000000	0.348374
926.000000	0.348359
927.000000	0.348246
928.000000	0.348020
929.000000	0.347835
930.000000	0.347850
931.000000	0.347878
932.000000	0.347966
933.000000	0.348027
934.000000	0.347710
935.000000	0.347448
936.000000	0.347384
937.000000	0.347418
938.000000	0.347466
939.000000	0.347609
940.000000	0.347657
941.000000	0.347497
942.000000	0.347421
943.000000	0.347537
944.000000	0.347681
945.000000	0.347755
946.000000	0.347826
947.000000	0.348002
948.000000	0.348245
949.000000	0.348234
950.000000	0.348179
951.000000	0.348106
952.000000	0.347998
953.000000	0.348111
954.000000	0.348300
955.000000	0.348275
956.000000	0.347873
957.000000	0.347705
958.000000	0.347790
959.000000	0.347992
960.000000	0.348020
961.000000	0.347978
962.000000	0.347993
963.000000	0.348231
964.000000	0.348283
965.000000	0.348220
966.000000	0.348150
967.000000	0.348585
968.000000	0.348953
969.000000	0.349034
970.000000	0.349012
971.000000	0.349285
972.000000	0.349437
973.000000	0.349338
974.000000	0.349501
975.000000	0.349748
976.000000	0.349987
977.000000	0.350149
978.000000	0.350211
979.000000	0.350508
980.000000	0.350628
981.000000	0.350534
982.000000	0.350791
983.000000	0.351138
984.000000	0.351476
985.000000	0.351762
986.000000	0.351897
987.000000	0.351953
988.000000	0.351977
989.000000	0.352394
990.000000	0.352911
991.000000	0.353107
992.000000	0.352877
993.000000	0.353388
994.000000	0.354004
995.000000	0.354406
996.000000	0.354217
997.000000	0.354554
998.000000	0.354916
999.000000	0.355193
1000.000000	0.355822
1001.000000	0.355208
1002.000000	0.355360
1003.000000	0.355363
1004.000000	0.355624
1005.000000	0.356330
1006.000000	0.356530
1007.000000	0.356864
1008.000000	0.356665
1009.000000	0.356248
1010.000000	0.356446
1011.000000	0.357569
1012.000000	0.358859
1013.000000	0.359867
1014.000000	0.360158
1015.000000	0.360015
1016.000000	0.360032
1017.000000	0.360274
1018.000000	0.360872
1019.000000	0.361274
1020.000000	0.362089
1021.000000	0.361993
1022.000000	0.361309
1023.000000	0.361559
1024.000000	0.361582
1025.000000	0.362139
1026.000000	0.363428
1027.000000	0.364098
1028.000000	0.364633
1029.000000	0.365531
1030.000000	0.365944
1031.000000	0.366479
1032.000000	0.367056
1033.000000	0.367033
1034.000000	0.367206
1035.000000	0.367238
1036.000000	0.367495
1037.000000	0.367829
1038.000000	0.368226
1039.000000	0.368783
1040.000000	0.369751
1041.000000	0.370321
1042.000000	0.370437
1043.000000	0.371058
1044.000000	0.371555
1045.000000	0.372089
1046.000000	0.373447
1047.000000	0.374316
1048.000000	0.375009
1049.000000	0.375396
1050.000000	0.375448
1051.000000	0.375860
1052.000000	0.376231
1053.000000	0.376607
1054.000000	0.377503
1055.000000	0.378170
1056.000000	0.378655
1057.000000	0.379074
1058.000000	0.379750
1059.000000	0.380025
1060.000000	0.380313
1061.000000	0.381109
1062.000000	0.381807
1063.000000	0.382616
1064.000000	0.383394
1065.000000	0.384078
1066.000000	0.384827
1067.000000	0.385746
1068.000000	0.386364
1069.000000	0.386763
1070.000000	0.387306
1071.000000	0.387520
1072.000000	0.388132
1073.000000	0.389141
1074.000000	0.390341
1075.000000	0.390969
1076.000000	0.392027
1077.000000	0.392465
1078.000000	0.392473
1079.000000	0.392996
1080.000000	0.393674
1081.000000	0.394340
1082.000000	0.395462
1083.000000	0.396209
1084.000000	0.396661
1085.000000	0.397509
1086.000000	0.398673
1087.000000	0.399389
1088.000000	0.400067
1089.000000	0.400544
1090.000000	0.400613
1091.000000	0.400252
1092.000000	0.400916
1093.000000	0.401754
1094.000000	0.402545
1095.000000	0.403685
1096.000000	0.404558
1097.000000	0.405207
1098.000000	0.406069
1099.000000	0.407046
1100.000000	0.407836
1101.000000	0.408435
1102.000000	0.409177
1103.000000	0.409766
1104.000000	0.410562
1105.000000	0.411659
1106.000000	0.412543
1107.000000	0.413371
1108.000000	0.414087
1109.000000	0.414681
1110.000000	0.415269
1111.000000	0.416002
1112.000000	0.416750
1113.000000	0.417546
1114.000000	0.418562
1115.000000	0.419301
1116.000000	0.419905
1117.000000	0.420552
1118.000000	0.420977
1119.000000	0.421613
1120.000000	0.422508
1121.000000	0.423141
1122.000000	0.423741
1123.000000	0.424702
1124.000000	0.425394
1125.000000	0.426140
1126.000000	0.426990
1127.000000	0.427781
1128.000000	0.428517
1129.000000	0.429150
1130.000000	0.429901
1131.000000	0.430833
1132.000000	0.431437
1133.000000	0.431915
1134.000000	0.432548
1135.000000	0.432972
1136.000000	0.433560
1137.000000	0.434351
1138.000000	0.434971
1139.000000	0.435662
1140.000000	0.436399
1141.000000	0.437124
1142.000000	0.437712
1143.000000	0.438102
1144.000000	0.438692
1145.000000	0.438828
1146.000000	0.439255
1147.000000	0.439790
1148.000000	0.440401
1149.000000	0.440894
1150.000000	0.441482
1151.000000	0.442061
1152.000000	0.442423
1153.000000	0.443006
1154.000000	0.443771
1155.000000	0.444336
1156.000000	0.444924
1157.000000	0.445397
1158.000000	0.445482
1159.000000	0.445930
1160.000000	0.446536
1161.000000	0.447062
1162.000000	0.447850
1163.000000	0.448726
1164.000000	0.449213
1165.000000	0.449632
1166.000000	0.450137
1167.000000	0.450475
1168.000000	0.451008
1169.000000	0.451733
1170.000000	0.452378
1171.000000	0.453200
1172.000000	0.453836
1173.000000	0.454252
1174.000000	0.454801
1175.000000	0.455277
1176.000000	0.455772
1177.000000	0.456532
1178.000000	0.457086
1179.000000	0.457473
1180.000000	0.457902
1181.000000	0.458417
1182.000000	0.458857
1183.000000	0.459412
1184.000000	0.460098
1185.000000	0.460689
1186.000000	0.461293
1187.000000	0.461731
1188.000000	0.462102
1189.000000	0.462418
1190.000000	0.462612
1191.000000	0.462992
1192.000000	0.463590
1193.000000	0.464219
1194.000000	0.464870
1195.000000	0.465320
1196.000000	0.465495
1197.000000	0.465844
1198.000000	0.466107
1199.000000	0.466512
1200.000000	0.467055
1201.000000	0.467768
1202.000000	0.468146
1203.000000	0.468498
1204.000000	0.468790
1205.000000	0.468966
1206.000000	0.469378
1207.000000	0.470177
1208.000000	0.470621
1209.000000	0.471194
1210.000000	0.471538
1211.000000	0.471523
1212.000000	0.471816
1213.000000	0.472293
1214.000000	0.472674
1215.000000	0.473147
1216.000000	0.473466
1217.000000	0.473469
1218.000000	0.473698
1219.000000	0.474021
1220.000000	0.474481
1221.000000	0.474910
1222.000000	0.475200
1223.000000	0.475543
1224.000000	0.475749
1225.000000	0.475894
1226.000000	0.476333
1227.000000	0.476595
1228.000000	0.476865
1229.000000	0.477104
1230.000000	0.477322
1231.000000	0.477460
1232.000000	0.477668
1233.000000	0.478097
1234.000000	0.478623
1235.000000	0.479031
1236.000000	0.479431
1237.000000	0.479780
1238.000000	0.479898
1239.000000	0.480111
1240.000000	0.480352
1241.000000	0.480549
1242.000000	0.480852
1243.000000	0.481215
1244.000000	0.481570
1245.000000	0.482029
1246.000000	0.482299
1247.000000	0.482572
1248.000000	0.482976
1249.000000	0.483204
1250.000000	0.483438
1251.000000	0.483871
1252.000000	0.484036
1253.000000	0.484015
1254.000000	0.484172
1255.000000	0.484253
1256.000000	0.484382
1257.000000	0.484771
1258.000000	0.485001
1259.000000	0.484938
1260.000000	0.485135
1261.000000	0.485295
1262.000000	0.485466
1263.000000	0.485784
1264.000000	0.486082
1265.000000	0.486314
1266.000000	0.486456
1267.000000	0.486496
1268.000000	0.486662
1269.000000	0.486810
1270.000000	0.487034
1271.000000	0.487373
1272.000000	0.487660
1273.000000	0.487866
1274.000000	0.487966
1275.000000	0.488038
1276.000000	0.488057
1277.000000	0.488243
1278.000000	0.488323
1279.000000	0.488417
1280.000000	0.488488
1281.000000	0.488478
1282.000000	0.488456
1283.000000	0.488620
1284.000000	0.488777
1285.000000	0.488898
1286.000000	0.489065
1287.000000	0.489143
1288.000000	0.489071
1289.000000	0.489012
1290.000000	0.488940
1291.000000	0.488904
1292.000000	0.489034
1293.000000	0.489219
1294.000000	0.489337
1295.000000	0.489562
1296.000000	0.489691
1297.000000	0.489596
1298.000000	0.489675
1299.000000	0.489714
1300.000000	0.489735
1301.000000	0.489840
1302.000000	0.489757
1303.000000	0.489649
1304.000000	0.489586
1305.000000	0.489679
1306.000000	0.489616
1307.000000	0.489662
1308.000000	0.489616
1309.000000	0.489336
1310.000000	0.489219
1311.000000	0.489244
1312.000000	0.489112
1313.000000	0.488948
1314.000000	0.488799
1315.000000	0.488506
1316.000000	0.488381
1317.000000	0.488450
1318.000000	0.488413
1319.000000	0.488263
1320.000000	0.487947
1321.000000	0.487589
1322.000000	0.487401
1323.000000	0.487241
1324.000000	0.487258
1325.000000	0.487137
1326.000000	0.486836
1327.000000	0.486743
1328.000000	0.486711
1329.000000	0.486514
1330.000000	0.486374
1331.000000	0.486148
1332.000000	0.485732
1333.000000	0.485525
1334.000000	0.485557
1335.000000	0.485476
1336.000000	0.485473
1337.000000	0.485336
1338.000000	0.485030
1339.000000	0.484555
1340.000000	0.484368
1341.000000	0.484337
1342.000000	0.484092
1343.000000	0.484058
1344.000000	0.483934
1345.000000	0.483431
1346.000000	0.483290
1347.000000	0.483055
1348.000000	0.482654
1349.000000	0.482380
1350.000000	0.482243
1351.000000	0.481872
1352.000000	0.481471
1353.000000	0.481153
1354.000000	0.480788
1355.000000	0.480629
1356.000000	0.480567
1357.000000	0.480278
1358.000000	0.480058
1359.000000	0.479675
1360.000000	0.479304
1361.000000	0.478995
1362.000000	0.478693
1363.000000	0.478271
1364.000000	0.477993
1365.000000	0.477804
1366.000000	0.477507
1367.000000	0.477200
1368.000000	0.476886
1369.000000	0.476518
1370.000000	0.475906
1371.000000	0.475146
1372.000000	0.474357
1373.000000	0.473613
1374.000000	0.472852
1375.000000	0.472157
1376.000000	0.471561
1377.000000	0.470731
1378.000000	0.469704
1379.000000	0.468424
1380.000000	0.466953
1381.000000	0.465389
1382.000000	0.463847
1383.000000	0.462272
1384.000000	0.460306
1385.000000	0.458374
1386.000000	0.456431
1387.000000	0.454371
1388.000000	0.452280
1389.000000	0.449845
1390.000000	0.447398
1391.000000	0.444836
1392.000000	0.442275
1393.000000	0.439773
1394.000000	0.437410
1395.000000	0.434924
1396.000000	0.432459
1397.000000	0.429934
1398.000000	0.427315
1399.000000	0.424689
1400.000000	0.421936
1401.000000	0.419237
1402.000000	0.416576
1403.000000	0.413961
1404.000000	0.411576
1405.000000	0.409102
1406.000000	0.406429
1407.000000	0.403946
1408.000000	0.401315
1409.000000	0.398821
1410.000000	0.396781
1411.000000	0.394596
1412.000000	0.392432
1413.000000	0.390663
1414.000000	0.389067
1415.000000	0.387908
1416.000000	0.387034
1417.000000	0.386251
1418.000000	0.385604
1419.000000	0.384993
1420.000000	0.384361
1421.000000	0.383998
1422.000000	0.383654
1423.000000	0.383212
1424.000000	0.382591
1425.000000	0.381864
1426.000000	0.380962
1427.000000	0.379977
1428.000000	0.378944
1429.000000	0.377902
1430.000000	0.377054
1431.000000	0.376306
1432.000000	0.375713
1433.000000	0.375307
1434.000000	0.375243
1435.000000	0.375326
1436.000000	0.375884
1437.000000	0.376919
1438.000000	0.378062
1439.000000	0.379577
1440.000000	0.381203
1441.000000	0.383135
1442.000000	0.385112
1443.000000	0.387163
1444.000000	0.389297
1445.000000	0.391368
1446.000000	0.393232
1447.000000	0.394941
1448.000000	0.396411
1449.000000	0.397685
1450.000000	0.398723
1451.000000	0.399618
1452.000000	0.400359
1453.000000	0.400942
1454.000000	0.401371
1455.000000	0.401657
1456.000000	0.401994
1457.000000	0.402286
1458.000000	0.402565
1459.000000	0.402836
1460.000000	0.402938
1461.000000	0.402996
1462.000000	0.403075
1463.000000	0.403117
1464.000000	0.403206
1465.000000	0.403418
1466.000000	0.403714
1467.000000	0.404192
1468.000000	0.404692
1469.000000	0.405116
1470.000000	0.405477
1471.000000	0.405907
1472.000000	0.406468
1473.000000	0.407298
1474.000000	0.408083
1475.000000	0.408836
1476.000000	0.409565
1477.000000	0.410262
1478.000000	0.411112
1479.000000	0.411885
1480.000000	0.412657
1481.000000	0.413387
1482.000000	0.414055
1483.000000	0.414855
1484.000000	0.415721
1485.000000	0.416567
1486.000000	0.417513
1487.000000	0.418345
1488.000000	0.419109
1489.000000	0.419958
1490.000000	0.420656
1491.000000	0.421409
1492.000000	0.422144
1493.000000	0.422883
1494.000000	0.423540
1495.000000	0.424214
1496.000000	0.424954
1497.000000	0.425603
1498.000000	0.426219
1499.000000	0.426826
1500.000000	0.427342
1501.000000	0.427849
1502.000000	0.428452
1503.000000	0.429071
1504.000000	0.429729
1505.000000	0.430385
1506.000000	0.430969
1507.000000	0.431490
1508.000000	0.432114
1509.000000	0.432768
1510.000000	0.433356
1511.000000	0.433918
1512.000000	0.434341
1513.000000	0.434702
1514.000000	0.435078
1515.000000	0.435488
1516.000000	0.436037
1517.000000	0.436448
1518.000000	0.436919
1519.000000	0.437376
1520.000000	0.437673
1521.000000	0.437910
1522.000000	0.438230
1523.000000	0.438637
1524.000000	0.438962
1525.000000	0.439399
1526.000000	0.439765
1527.000000	0.439980
1528.000000	0.440343
1529.000000	0.440751
1530.000000	0.440947
1531.000000	0.441200
1532.000000	0.441446
1533.000000	0.441533
1534.000000	0.441816
1535.000000	0.442240
1536.000000	0.442561
1537.000000	0.442975
1538.000000	0.443494
1539.000000	0.443899
1540.000000	0.444198
1541.000000	0.444589
1542.000000	0.444848
1543.000000	0.445049
1544.000000	0.445369
1545.000000	0.445657
1546.000000	0.445886
1547.000000	0.446179
1548.000000	0.446440
1549.000000	0.446576
1550.000000	0.446762
1551.000000	0.446939
1552.000000	0.447117
1553.000000	0.447452
1554.000000	0.447767
1555.000000	0.448010
1556.000000	0.448201
1557.000000	0.448262
1558.000000	0.448428
1559.000000	0.448534
1560.000000	0.448660
1561.000000	0.448902
1562.000000	0.449003
1563.000000	0.449118
1564.000000	0.449202
1565.000000	0.449128
1566.000000	0.449184
1567.000000	0.449448
1568.000000	0.449605
1569.000000	0.449941
1570.000000	0.450127
1571.000000	0.450170
1572.000000	0.450192
1573.000000	0.450169
1574.000000	0.450255
1575.000000	0.450342
1576.000000	0.450494
1577.000000	0.450754
1578.000000	0.450836
1579.000000	0.450953
1580.000000	0.450994
1581.000000	0.451073
1582.000000	0.451067
1583.000000	0.450861
1584.000000	0.450824
1585.000000	0.450935
1586.000000	0.451035
1587.000000	0.451286
1588.000000	0.451407
1589.000000	0.451461
1590.000000	0.451481
1591.000000	0.451438
1592.000000	0.451573
1593.000000	0.451814
1594.000000	0.451990
1595.000000	0.452360
1596.000000	0.452554
1597.000000	0.452648
1598.000000	0.452765
1599.000000	0.452959
1600.000000	0.452940
1601.000000	0.452845
1602.000000	0.452857
1603.000000	0.452868
1604.000000	0.452844
1605.000000	0.452958
1606.000000	0.452938
1607.000000	0.452776
1608.000000	0.452735
1609.000000	0.452868
1610.000000	0.452915
1611.000000	0.453012
1612.000000	0.453056
1613.000000	0.453145
1614.000000	0.453198
1615.000000	0.453285
1616.000000	0.453491
1617.000000	0.453679
1618.000000	0.453884
1619.000000	0.454193
1620.000000	0.454388
1621.000000	0.454552
1622.000000	0.454816
1623.000000	0.455001
1624.000000	0.455216
1625.000000	0.455380
1626.000000	0.455393
1627.000000	0.455299
1628.000000	0.455390
1629.000000	0.455423
1630.000000	0.455517
1631.000000	0.455672
1632.000000	0.455712
1633.000000	0.455692
1634.000000	0.455804
1635.000000	0.456010
1636.000000	0.456192
1637.000000	0.456453
1638.000000	0.456591
1639.000000	0.456787
1640.000000	0.456903
1641.000000	0.457046
1642.000000	0.457180
1643.000000	0.457269
1644.000000	0.457419
1645.000000	0.457585
1646.000000	0.457737
1647.000000	0.458007
1648.000000	0.458134
1649.000000	0.458282
1650.000000	0.458548
1651.000000	0.458939
1652.000000	0.459179
1653.000000	0.459341
1654.000000	0.459592
1655.000000	0.459650
1656.000000	0.459688
1657.000000	0.459980
1658.000000	0.460087
1659.000000	0.460115
1660.000000	0.460318
1661.000000	0.460479
1662.000000	0.460664
1663.000000	0.460907
1664.000000	0.461057
1665.000000	0.461136
1666.000000	0.461350
1667.000000	0.461430
1668.000000	0.461573
1669.000000	0.461831
1670.000000	0.461902
1671.000000	0.462038
1672.000000	0.462162
1673.000000	0.462124
1674.000000	0.462359
1675.000000	0.462550
1676.000000	0.462585
1677.000000	0.462782
1678.000000	0.462930
1679.000000	0.463043
1680.000000	0.463238
1681.000000	0.463302
1682.000000	0.463183
1683.000000	0.463185
1684.000000	0.463221
1685.000000	0.463241
1686.000000	0.463218
1687.000000	0.463193
1688.000000	0.463208
1689.000000	0.463241
1690.000000	0.463282
1691.000000	0.463411
1692.000000	0.463462
1693.000000	0.463588
1694.000000	0.463698
1695.000000	0.463821
1696.000000	0.463760
1697.000000	0.463695
1698.000000	0.463670
1699.000000	0.463691
1700.000000	0.463718
1701.000000	0.463899
1702.000000	0.463984
1703.000000	0.463951
1704.000000	0.464038
1705.000000	0.464070
1706.000000	0.463946
1707.000000	0.463988
1708.000000	0.464210
1709.000000	0.464165
1710.000000	0.464188
1711.000000	0.464209
1712.000000	0.464102
1713.000000	0.463998
1714.000000	0.463954
1715.000000	0.463982
1716.000000	0.464025
1717.000000	0.464066
1718.000000	0.464239
1719.000000	0.464205
1720.000000	0.464022
1721.000000	0.463997
1722.000000	0.463959
1723.000000	0.463992
1724.000000	0.464282
1725.000000	0.464338
1726.000000	0.464159
1727.000000	0.464011
1728.000000	0.463618
1729.000000	0.463365
1730.000000	0.463383
1731.000000	0.463292
1732.000000	0.463195
1733.000000	0.463289
1734.000000	0.463266
1735.000000	0.463239
1736.000000	0.463263
1737.000000	0.463293
1738.000000	0.463231
1739.000000	0.463357
1740.000000	0.463697
1741.000000	0.463723
1742.000000	0.463662
1743.000000	0.463735
1744.000000	0.463706
1745.000000	0.463660
1746.000000	0.463690
1747.000000	0.463599
1748.000000	0.463466
1749.000000	0.463511
1750.000000	0.463344
1751.000000	0.463099
1752.000000	0.463082
1753.000000	0.462788
1754.000000	0.462706
1755.000000	0.462895
1756.000000	0.462884
1757.000000	0.462861
1758.000000	0.462832
1759.000000	0.462666
1760.000000	0.462516
1761.000000	0.462328
1762.000000	0.462144
1763.000000	0.461865
1764.000000	0.461774
1765.000000	0.461815
1766.000000	0.461768
1767.000000	0.461731
1768.000000	0.461510
1769.000000	0.461078
1770.000000	0.461121
1771.000000	0.461393
1772.000000	0.461383
1773.000000	0.461521
1774.000000	0.461376
1775.000000	0.460810
1776.000000	0.460671
1777.000000	0.460614
1778.000000	0.460637
1779.000000	0.460828
1780.000000	0.460954
1781.000000	0.461104
1782.000000	0.461105
1783.000000	0.461080
1784.000000	0.461185
1785.000000	0.461231
1786.000000	0.461488
1787.000000	0.461750
1788.000000	0.461817
1789.000000	0.461785
1790.000000	0.461961
1791.000000	0.461914
1792.000000	0.462017
1793.000000	0.461923
1794.000000	0.461428
1795.000000	0.461256
1796.000000	0.461170
1797.000000	0.461082
1798.000000	0.461081
1799.000000	0.461172
1800.000000	0.461376
1801.000000	0.461810
1802.000000	0.461610
1803.000000	0.460210
1804.000000	0.460148
1805.000000	0.460924
1806.000000	0.461656
1807.000000	0.463289
1808.000000	0.463865
1809.000000	0.464471
1810.000000	0.464374
1811.000000	0.464103
1812.000000	0.462731
1813.000000	0.462437
1814.000000	0.462655
1815.000000	0.462646
1816.000000	0.462990
1817.000000	0.462789
1818.000000	0.462820
1819.000000	0.461816
1820.000000	0.460941
1821.000000	0.460837
1822.000000	0.460593
1823.000000	0.460446
1824.000000	0.460125
1825.000000	0.459863
1826.000000	0.459487
1827.000000	0.458339
1828.000000	0.458244
1829.000000	0.457988
1830.000000	0.457545
1831.000000	0.457759
1832.000000	0.458595
1833.000000	0.458786
1834.000000	0.459362
1835.000000	0.459411
1836.000000	0.458659
1837.000000	0.458344
1838.000000	0.458302
1839.000000	0.457067
1840.000000	0.456495
1841.000000	0.456619
1842.000000	0.456402
1843.000000	0.456350
1844.000000	0.456259
1845.000000	0.455857
1846.000000	0.455574
1847.000000	0.455130
1848.000000	0.454750
1849.000000	0.454223
1850.000000	0.453733
1851.000000	0.453192
1852.000000	0.452290
1853.000000	0.451737
1854.000000	0.451330
1855.000000	0.450314
1856.000000	0.448759
1857.000000	0.447825
1858.000000	0.446359
1859.000000	0.444854
1860.000000	0.443230
1861.000000	0.441301
1862.000000	0.439385
1863.000000	0.437214
1864.000000	0.435225
1865.000000	0.433276
1866.000000	0.431453
1867.000000	0.429771
1868.000000	0.427612
1869.000000	0.426033
1870.000000	0.423921
1871.000000	0.421137
1872.000000	0.419056
1873.000000	0.416051
1874.000000	0.412204
1875.000000	0.408772
1876.000000	0.405124
1877.000000	0.400366
1878.000000	0.396453
1879.000000	0.392449
1880.000000	0.387237
1881.000000	0.381416
1882.000000	0.376180
1883.000000	0.370845
1884.000000	0.365430
1885.000000	0.360679
1886.000000	0.355131
1887.000000	0.349160
1888.000000	0.341965
1889.000000	0.334711
1890.000000	0.327820
1891.000000	0.320912
1892.000000	0.313992
1893.000000	0.307787
1894.000000	0.301363
1895.000000	0.294541
1896.000000	0.287204
1897.000000	0.280935
1898.000000	0.274681
1899.000000	0.268410
1900.000000	0.263508
1901.000000	0.258108
1902.000000	0.252534
1903.000000	0.247983
1904.000000	0.243899
1905.000000	0.240402
1906.000000	0.237188
1907.000000	0.234726
1908.000000	0.232403
1909.000000	0.229791
1910.000000	0.227835
1911.000000	0.226255
1912.000000	0.225026
1913.000000	0.225217
1914.000000	0.225334
1915.000000	0.225391
1916.000000	0.225822
1917.000000	0.226022
1918.000000	0.225966
1919.000000	0.226255
1920.000000	0.226773
1921.000000	0.227882
1922.000000	0.228769
1923.000000	0.229365
1924.000000	0.230492
1925.000000	0.230557
1926.000000	0.230790
1927.000000	0.232067
1928.000000	0.232808
1929.000000	0.233262
1930.000000	0.234095
1931.000000	0.235072
1932.000000	0.235509
1933.000000	0.236533
1934.000000	0.237749
1935.000000	0.238874
1936.000000	0.239924
1937.000000	0.240640
1938.000000	0.241419
1939.000000	0.242035
1940.000000	0.242544
1941.000000	0.243058
1942.000000	0.243396
1943.000000	0.243279
1944.000000	0.243649
1945.000000	0.244110
1946.000000	0.244618
1947.000000	0.245120
1948.000000	0.245009
1949.000000	0.245176
1950.000000	0.245647
1951.000000	0.246007
1952.000000	0.246630
1953.000000	0.247508
1954.000000	0.247745
1955.000000	0.247861
1956.000000	0.248244
1957.000000	0.248626
1958.000000	0.249882
1959.000000	0.250893
1960.000000	0.250844
1961.000000	0.250789
1962.000000	0.250863
1963.000000	0.250598
1964.000000	0.250166
1965.000000	0.250674
1966.000000	0.251682
1967.000000	0.251908
1968.000000	0.252758
1969.000000	0.254204
1970.000000	0.254668
1971.000000	0.254885
1972.000000	0.255412
1973.000000	0.255541
1974.000000	0.254868
1975.000000	0.255247
1976.000000	0.256358
1977.000000	0.256631
1978.000000	0.257476
1979.000000	0.258475
1980.000000	0.259012
1981.000000	0.259966
1982.000000	0.260894
1983.000000	0.261726
1984.000000	0.262665
1985.000000	0.263742
1986.000000	0.264693
1987.000000	0.265745
1988.000000	0.266721
1989.000000	0.267753
1990.000000	0.269455
1991.000000	0.270592
1992.000000	0.271826
1993.000000	0.273256
1994.000000	0.274152
1995.000000	0.275111
1996.000000	0.276350
1997.000000	0.277506
1998.000000	0.278514
1999.000000	0.279501
2000.000000	0.280777
2001.000000	0.281520
2002.000000	0.282115
2003.000000	0.283019
2004.000000	0.283540
2005.000000	0.284425
2006.000000	0.285740
2007.000000	0.287197
2008.000000	0.288708
2009.000000	0.290764
2010.000000	0.292278
2011.000000	0.293371
2012.000000	0.294679
2013.000000	0.295877
2014.000000	0.296877
2015.000000	0.298360
2016.000000	0.299272
2017.000000	0.299857
2018.000000	0.301041
2019.000000	0.302348
2020.000000	0.303458
2021.000000	0.304648
2022.000000	0.305985
2023.000000	0.307197
2024.000000	0.308394
2025.000000	0.309590
2026.000000	0.310530
2027.000000	0.311624
2028.000000	0.313239
2029.000000	0.314805
2030.000000	0.316371
2031.000000	0.317744
2032.000000	0.318788
2033.000000	0.319783
2034.000000	0.320807
2035.000000	0.322185
2036.000000	0.323098
2037.000000	0.323928
2038.000000	0.324685
2039.000000	0.324998
2040.000000	0.326132
2041.000000	0.327450
2042.000000	0.328418
2043.000000	0.329786
2044.000000	0.330690
2045.000000	0.331388
2046.000000	0.332041
2047.000000	0.332846
2048.000000	0.333705
2049.000000	0.334756
2050.000000	0.335330
2051.000000	0.336410
2052.000000	0.338102
2053.000000	0.338928
2054.000000	0.339785
2055.000000	0.340768
2056.000000	0.341210
2057.000000	0.341262
2058.000000	0.341979
2059.000000	0.343369
2060.000000	0.343971
2061.000000	0.344235
2062.000000	0.344913
2063.000000	0.345083
2064.000000	0.345611
2065.000000	0.347230
2066.000000	0.348338
2067.000000	0.349593
2068.000000	0.351141
2069.000000	0.352001
2070.000000	0.352242
2071.000000	0.352109
2072.000000	0.352045
2073.000000	0.352779
2074.000000	0.353906
2075.000000	0.354794
2076.000000	0.356151
2077.000000	0.356819
2078.000000	0.356774
2079.000000	0.357291
2080.000000	0.358033
2081.000000	0.358678
2082.000000	0.359712
2083.000000	0.360176
2084.000000	0.360679
2085.000000	0.361155
2086.000000	0.361681
2087.000000	0.362566
2088.000000	0.363098
2089.000000	0.363689
2090.000000	0.364139
2091.000000	0.364292
2092.000000	0.364919
2093.000000	0.365550
2094.000000	0.366508
2095.000000	0.368292
2096.000000	0.369659
2097.000000	0.370857
2098.000000	0.372139
2099.000000	0.373345
2100.000000	0.373889
2101.000000	0.374954
2102.000000	0.375539
2103.000000	0.375908
2104.000000	0.376716
2105.000000	0.376889
2106.000000	0.376306
2107.000000	0.376634
2108.000000	0.377063
2109.000000	0.377509
2110.000000	0.378662
2111.000000	0.378982
2112.000000	0.378711
2113.000000	0.377934
2114.000000	0.377110
2115.000000	0.377152
2116.000000	0.378611
2117.000000	0.379775
2118.000000	0.380821
2119.000000	0.381820
2120.000000	0.382498
2121.000000	0.382254
2122.000000	0.382770
2123.000000	0.383786
2124.000000	0.384319
2125.000000	0.385017
2126.000000	0.384797
2127.000000	0.383699
2128.000000	0.383348
2129.000000	0.382373
2130.000000	0.381993
2131.000000	0.382620
2132.000000	0.383035
2133.000000	0.384221
2134.000000	0.386031
2135.000000	0.386435
2136.000000	0.386890
2137.000000	0.386466
2138.000000	0.383916
2139.000000	0.383403
2140.000000	0.383626
2141.000000	0.383516
2142.000000	0.384391
2143.000000	0.384233
2144.000000	0.383337
2145.000000	0.383057
2146.000000	0.382812
2147.000000	0.383300
2148.000000	0.383279
2149.000000	0.383549
2150.000000	0.384002
2151.000000	0.383623
2152.000000	0.383885
2153.000000	0.383796
2154.000000	0.383296
2155.000000	0.382430
2156.000000	0.381714
2157.000000	0.380441
2158.000000	0.379822
2159.000000	0.379521
2160.000000	0.379383
2161.000000	0.379553
2162.000000	0.379950
2163.000000	0.380787
2164.000000	0.380899
2165.000000	0.380730
2166.000000	0.380672
2167.000000	0.380356
2168.000000	0.380801
2169.000000	0.381642
2170.000000	0.381977
2171.000000	0.382068
2172.000000	0.381857
2173.000000	0.381333
2174.000000	0.380619
2175.000000	0.379584
2176.000000	0.377119
2177.000000	0.376691
2178.000000	0.377522
2179.000000	0.377836
2180.000000	0.379114
2181.000000	0.380242
2182.000000	0.380668
2183.000000	0.379856
2184.000000	0.380617
2185.000000	0.380836
2186.000000	0.379586
2187.000000	0.378206
2188.000000	0.375842
2189.000000	0.374386
2190.000000	0.373800
2191.000000	0.374432
2192.000000	0.374494
2193.000000	0.375054
2194.000000	0.375733
2195.000000	0.376571
2196.000000	0.376711
2197.000000	0.377166
2198.000000	0.376716
2199.000000	0.375128
2200.000000	0.374250
2201.000000	0.373597
2202.000000	0.372481
2203.000000	0.371417
2204.000000	0.368129
2205.000000	0.365688
2206.000000	0.365640
2207.000000	0.365434
2208.000000	0.365082
2209.000000	0.363499
2210.000000	0.363161
2211.000000	0.364993
2212.000000	0.368763
2213.000000	0.370464
2214.000000	0.373360
2215.000000	0.373482
2216.000000	0.369620
2217.000000	0.369205
2218.000000	0.368999
2219.000000	0.370524
2220.000000	0.375699
2221.000000	0.377494
2222.000000	0.377817
2223.000000	0.378833
2224.000000	0.379214
2225.000000	0.378930
2226.000000	0.377794
2227.000000	0.378949
2228.000000	0.377872
2229.000000	0.374668
2230.000000	0.373899
2231.000000	0.373770
2232.000000	0.372135
2233.000000	0.372186
2234.000000	0.372004
2235.000000	0.369662
2236.000000	0.367716
2237.000000	0.364925
2238.000000	0.363606
2239.000000	0.361090
2240.000000	0.362041
2241.000000	0.367271
2242.000000	0.368794
2243.000000	0.371179
2244.000000	0.372596
2245.000000	0.369574
2246.000000	0.370280
2247.000000	0.374153
2248.000000	0.374948
2249.000000	0.375485
2250.000000	0.377384
2251.000000	0.372597
2252.000000	0.369232
2253.000000	0.368589
2254.000000	0.365846
2255.000000	0.368144
2256.000000	0.369182
2257.000000	0.366003
2258.000000	0.365083
2259.000000	0.361811
2260.000000	0.359043
2261.000000	0.356942
2262.000000	0.355406
2263.000000	0.354029
2264.000000	0.352814
2265.000000	0.352097
2266.000000	0.353632
2267.000000	0.353071
2268.000000	0.352449
2269.000000	0.349730
2270.000000	0.344218
2271.000000	0.339077
2272.000000	0.332495
2273.000000	0.327121
2274.000000	0.322415
2275.000000	0.318356
2276.000000	0.314213
2277.000000	0.310783
2278.000000	0.310208
2279.000000	0.306903
2280.000000	0.304044
2281.000000	0.303024
2282.000000	0.300223
2283.000000	0.297284
2284.000000	0.297028
2285.000000	0.296700
2286.000000	0.295878
2287.000000	0.296146
2288.000000	0.296654
2289.000000	0.297223
2290.000000	0.298694
2291.000000	0.302073
2292.000000	0.305146
2293.000000	0.307995
2294.000000	0.310389
2295.000000	0.312628
2296.000000	0.314107
2297.000000	0.314047
2298.000000	0.316032
2299.000000	0.319177
2300.000000	0.321101
2301.000000	0.323794
2302.000000	0.325411
2303.000000	0.325356
2304.000000	0.326114
2305.000000	0.327529
2306.000000	0.327791
2307.000000	0.326848
2308.000000	0.326779
2309.000000	0.328129
2310.000000	0.330319
2311.000000	0.333575
2312.000000	0.334170
2313.000000	0.332174
2314.000000	0.329735
2315.000000	0.325283
2316.000000	0.322254
2317.000000	0.321971
2318.000000	0.322551
2319.000000	0.325902
2320.000000	0.330042
2321.000000	0.331960
2322.000000	0.332861
2323.000000	0.332544
2324.000000	0.331038
2325.000000	0.329288
2326.000000	0.328261
2327.000000	0.328803
2328.000000	0.330709
2329.000000	0.333127
2330.000000	0.334778
2331.000000	0.333544
2332.000000	0.330922
2333.000000	0.328438
2334.000000	0.326270
2335.000000	0.325389
2336.000000	0.326977
2337.000000	0.324894
2338.000000	0.320931
2339.000000	0.317148
2340.000000	0.310559
2341.000000	0.307980
2342.000000	0.307492
2343.000000	0.308601
2344.000000	0.313216
2345.000000	0.314163
2346.000000	0.315986
2347.000000	0.314414
2348.000000	0.309028
2349.000000	0.304585
2350.000000	0.300401
2351.000000	0.298577
2352.000000	0.298944
2353.000000	0.299455
2354.000000	0.300593
2355.000000	0.299421
2356.000000	0.297454
2357.000000	0.294356
2358.000000	0.288067
2359.000000	0.283832
2360.000000	0.282620
2361.000000	0.283091
2362.000000	0.285767
2363.000000	0.289313
2364.000000	0.286665
2365.000000	0.282612
2366.000000	0.283877
2367.000000	0.280461
2368.000000	0.279896
2369.000000	0.282771
2370.000000	0.276215
2371.000000	0.273415
2372.000000	0.271067
2373.000000	0.265955
2374.000000	0.266852
2375.000000	0.267025
2376.000000	0.267364
2377.000000	0.269656
2378.000000	0.270111
2379.000000	0.270350
2380.000000	0.269846
2381.000000	0.265273
2382.000000	0.259671
2383.000000	0.254273
2384.000000	0.251077
2385.000000	0.247844
2386.000000	0.243533
2387.000000	0.240927
2388.000000	0.238658
2389.000000	0.241034
2390.000000	0.244067
2391.000000	0.248210
2392.000000	0.250671
2393.000000	0.246932
2394.000000	0.247076
2395.000000	0.244625
2396.000000	0.238985
2397.000000	0.242433
2398.000000	0.247127
2399.000000	0.246934
2400.000000	0.248564
2401.000000	0.246483
2402.000000	0.236714
2403.000000	0.231972
2404.000000	0.232432
2405.000000	0.235920
2406.000000	0.246537
2407.000000	0.252991
2408.000000	0.249623
2409.000000	0.239956
2410.000000	0.226169
2411.000000	0.215174
2412.000000	0.207213
2413.000000	0.209853
2414.000000	0.219467
2415.000000	0.220672
2416.000000	0.221490
2417.000000	0.226443
2418.000000	0.228115
2419.000000	0.229741
2420.000000	0.244493
2421.000000	0.259177
2422.000000	0.262911
2423.000000	0.265509
2424.000000	0.256943
2425.000000	0.237898
2426.000000	0.223803
2427.000000	0.212368
2428.000000	0.206742
2429.000000	0.210944
2430.000000	0.212470
2431.000000	0.214884
2432.000000	0.224710
2433.000000	0.237384
2434.000000	0.239061
2435.000000	0.232258
2436.000000	0.226207
2437.000000	0.215417
2438.000000	0.208743
2439.000000	0.208487
2440.000000	0.207002
2441.000000	0.202996
2442.000000	0.208990
2443.000000	0.224663
2444.000000	0.234589
2445.000000	0.240856
2446.000000	0.242984
2447.000000	0.242605
2448.000000	0.240018
2449.000000	0.238182
2450.000000	0.240147
2451.000000	0.231497
2452.000000	0.225848
2453.000000	0.233350
2454.000000	0.231504
2455.000000	0.228573
2456.000000	0.228152
2457.000000	0.215725
2458.000000	0.208274
2459.000000	0.212995
2460.000000	0.225441
2461.000000	0.228903
2462.000000	0.228940
2463.000000	0.223861
2464.000000	0.195617
2465.000000	0.193144
2466.000000	0.204673
2467.000000	0.213253
2468.000000	0.238644
2469.000000	0.249684
2470.000000	0.238680
2471.000000	0.222627
2472.000000	0.208713
2473.000000	0.200655
2474.000000	0.199806
2475.000000	0.183784
2476.000000	0.178672
2477.000000	0.198830
2478.000000	0.217244
2479.000000	0.243849
2480.000000	0.255376
2481.000000	0.231082
2482.000000	0.208407
2483.000000	0.207395
2484.000000	0.219823
2485.000000	0.241123
2486.000000	0.224684
2487.000000	0.205841
2488.000000	0.215172
2489.000000	0.207467
2490.000000	0.217783
2491.000000	0.196201
2492.000000	0.196210
2493.000000	0.235334
2494.000000	0.264335
2495.000000	0.297700
2496.000000	0.309499
2497.000000	0.301678
2498.000000	0.282562
2499.000000	0.263234
2500.000000	0.263924
