# Wavelength	NAu-1-10_HEX-70_FV7-20_00002.asd.rts.txt
350.000000	0.256259
351.000000	0.259906
352.000000	0.239952
353.000000	0.237714
354.000000	0.262236
355.000000	0.252970
356.000000	0.256569
357.000000	0.271806
358.000000	0.259914
359.000000	0.252520
360.000000	0.250861
361.000000	0.249998
362.000000	0.257478
363.000000	0.261362
364.000000	0.255821
365.000000	0.253335
366.000000	0.253917
367.000000	0.255271
368.000000	0.253191
369.000000	0.253144
370.000000	0.253255
371.000000	0.250608
372.000000	0.252469
373.000000	0.254070
374.000000	0.252965
375.000000	0.253401
376.000000	0.254503
377.000000	0.256288
378.000000	0.260294
379.000000	0.260841
380.000000	0.258794
381.000000	0.257978
382.000000	0.258044
383.000000	0.259437
384.000000	0.261982
385.000000	0.262707
386.000000	0.263070
387.000000	0.264104
388.000000	0.266273
389.000000	0.266295
390.000000	0.265615
391.000000	0.266864
392.000000	0.269402
393.000000	0.270229
394.000000	0.268316
395.000000	0.269637
396.000000	0.271208
397.000000	0.271692
398.000000	0.271899
399.000000	0.273047
400.000000	0.274588
401.000000	0.275127
402.000000	0.276974
403.000000	0.278012
404.000000	0.276981
405.000000	0.278347
406.000000	0.279123
407.000000	0.278561
408.000000	0.279831
409.000000	0.281317
410.000000	0.282464
411.000000	0.283176
412.000000	0.284443
413.000000	0.285616
414.000000	0.285962
415.000000	0.286238
416.000000	0.286911
417.000000	0.287972
418.000000	0.288545
419.000000	0.288418
420.000000	0.288208
421.000000	0.289353
422.000000	0.289939
423.000000	0.289974
424.000000	0.290130
425.000000	0.290205
426.000000	0.290314
427.000000	0.290478
428.000000	0.290393
429.000000	0.290446
430.000000	0.290752
431.000000	0.291080
432.000000	0.291277
433.000000	0.291449
434.000000	0.291928
435.000000	0.291888
436.000000	0.292056
437.000000	0.292950
438.000000	0.292889
439.000000	0.292616
440.000000	0.292663
441.000000	0.292557
442.000000	0.292514
443.000000	0.292607
444.000000	0.293026
445.000000	0.293365
446.000000	0.293528
447.000000	0.293417
448.000000	0.293918
449.000000	0.294712
450.000000	0.295470
451.000000	0.296105
452.000000	0.297121
453.000000	0.298433
454.000000	0.299540
455.000000	0.300536
456.000000	0.301783
457.000000	0.303502
458.000000	0.304995
459.000000	0.306172
460.000000	0.307156
461.000000	0.308024
462.000000	0.309041
463.000000	0.309977
464.000000	0.310251
465.000000	0.310947
466.000000	0.311889
467.000000	0.312261
468.000000	0.312883
469.000000	0.313420
470.000000	0.313629
471.000000	0.314375
472.000000	0.315171
473.000000	0.315660
474.000000	0.315965
475.000000	0.316257
476.000000	0.316738
477.000000	0.317216
478.000000	0.317595
479.000000	0.318131
480.000000	0.318749
481.000000	0.318970
482.000000	0.319211
483.000000	0.319607
484.000000	0.320000
485.000000	0.320403
486.000000	0.320957
487.000000	0.321275
488.000000	0.321549
489.000000	0.321922
490.000000	0.322493
491.000000	0.323120
492.000000	0.323746
493.000000	0.324175
494.000000	0.324489
495.000000	0.324826
496.000000	0.325250
497.000000	0.325908
498.000000	0.326379
499.000000	0.326686
500.000000	0.327145
501.000000	0.327571
502.000000	0.328057
503.000000	0.328681
504.000000	0.329194
505.000000	0.329578
506.000000	0.329904
507.000000	0.330330
508.000000	0.330899
509.000000	0.331555
510.000000	0.332284
511.000000	0.332771
512.000000	0.333165
513.000000	0.333949
514.000000	0.334525
515.000000	0.334948
516.000000	0.335400
517.000000	0.336041
518.000000	0.336772
519.000000	0.337374
520.000000	0.337855
521.000000	0.338364
522.000000	0.338954
523.000000	0.339528
524.000000	0.340166
525.000000	0.340818
526.000000	0.341432
527.000000	0.342106
528.000000	0.342735
529.000000	0.343282
530.000000	0.343919
531.000000	0.344590
532.000000	0.345158
533.000000	0.345785
534.000000	0.346422
535.000000	0.347030
536.000000	0.347622
537.000000	0.348276
538.000000	0.348929
539.000000	0.349463
540.000000	0.350089
541.000000	0.350725
542.000000	0.351329
543.000000	0.351979
544.000000	0.352658
545.000000	0.353260
546.000000	0.353820
547.000000	0.354427
548.000000	0.355098
549.000000	0.355680
550.000000	0.356291
551.000000	0.356972
552.000000	0.357655
553.000000	0.358249
554.000000	0.358835
555.000000	0.359488
556.000000	0.360174
557.000000	0.360748
558.000000	0.361343
559.000000	0.361989
560.000000	0.362580
561.000000	0.363162
562.000000	0.363663
563.000000	0.364225
564.000000	0.364854
565.000000	0.365392
566.000000	0.365966
567.000000	0.366555
568.000000	0.367111
569.000000	0.367654
570.000000	0.368134
571.000000	0.368568
572.000000	0.369081
573.000000	0.369512
574.000000	0.369872
575.000000	0.370306
576.000000	0.370844
577.000000	0.371321
578.000000	0.371714
579.000000	0.372178
580.000000	0.372645
581.000000	0.373078
582.000000	0.373510
583.000000	0.373849
584.000000	0.374145
585.000000	0.374531
586.000000	0.374825
587.000000	0.375088
588.000000	0.375427
589.000000	0.375828
590.000000	0.376169
591.000000	0.376402
592.000000	0.376643
593.000000	0.376930
594.000000	0.377264
595.000000	0.377618
596.000000	0.377855
597.000000	0.378055
598.000000	0.378253
599.000000	0.378443
600.000000	0.378647
601.000000	0.378790
602.000000	0.378945
603.000000	0.379169
604.000000	0.379447
605.000000	0.379578
606.000000	0.379713
607.000000	0.379883
608.000000	0.380043
609.000000	0.380149
610.000000	0.380308
611.000000	0.380608
612.000000	0.380770
613.000000	0.380898
614.000000	0.381113
615.000000	0.381298
616.000000	0.381401
617.000000	0.381424
618.000000	0.381559
619.000000	0.381769
620.000000	0.381929
621.000000	0.381974
622.000000	0.382076
623.000000	0.382190
624.000000	0.382259
625.000000	0.382335
626.000000	0.382479
627.000000	0.382681
628.000000	0.382822
629.000000	0.383041
630.000000	0.383184
631.000000	0.383309
632.000000	0.383492
633.000000	0.383679
634.000000	0.383800
635.000000	0.383992
636.000000	0.384237
637.000000	0.384476
638.000000	0.384666
639.000000	0.384853
640.000000	0.385060
641.000000	0.385074
642.000000	0.385225
643.000000	0.385485
644.000000	0.385718
645.000000	0.385855
646.000000	0.385977
647.000000	0.386114
648.000000	0.386243
649.000000	0.386423
650.000000	0.386630
651.000000	0.386813
652.000000	0.387027
653.000000	0.387298
654.000000	0.387527
655.000000	0.387682
656.000000	0.387864
657.000000	0.388087
658.000000	0.388299
659.000000	0.388570
660.000000	0.388878
661.000000	0.389103
662.000000	0.389289
663.000000	0.389490
664.000000	0.389639
665.000000	0.389798
666.000000	0.389996
667.000000	0.390206
668.000000	0.390425
669.000000	0.390690
670.000000	0.390987
671.000000	0.391152
672.000000	0.391330
673.000000	0.391568
674.000000	0.391868
675.000000	0.392081
676.000000	0.392271
677.000000	0.392567
678.000000	0.392841
679.000000	0.393053
680.000000	0.393216
681.000000	0.393378
682.000000	0.393640
683.000000	0.393916
684.000000	0.394230
685.000000	0.394455
686.000000	0.394685
687.000000	0.395002
688.000000	0.395268
689.000000	0.395492
690.000000	0.395753
691.000000	0.396087
692.000000	0.396429
693.000000	0.396797
694.000000	0.397069
695.000000	0.397296
696.000000	0.397533
697.000000	0.397836
698.000000	0.398088
699.000000	0.398347
700.000000	0.398660
701.000000	0.398884
702.000000	0.399096
703.000000	0.399327
704.000000	0.399620
705.000000	0.399971
706.000000	0.400298
707.000000	0.400610
708.000000	0.400902
709.000000	0.401160
710.000000	0.401412
711.000000	0.401727
712.000000	0.402026
713.000000	0.402290
714.000000	0.402493
715.000000	0.402808
716.000000	0.403192
717.000000	0.403471
718.000000	0.403710
719.000000	0.403938
720.000000	0.404197
721.000000	0.404508
722.000000	0.404818
723.000000	0.405155
724.000000	0.405411
725.000000	0.405633
726.000000	0.405923
727.000000	0.406184
728.000000	0.406420
729.000000	0.406690
730.000000	0.406958
731.000000	0.407210
732.000000	0.407396
733.000000	0.407589
734.000000	0.407878
735.000000	0.408098
736.000000	0.408328
737.000000	0.408410
738.000000	0.408400
739.000000	0.408579
740.000000	0.408861
741.000000	0.409011
742.000000	0.409138
743.000000	0.409275
744.000000	0.409498
745.000000	0.409684
746.000000	0.409855
747.000000	0.409957
748.000000	0.410146
749.000000	0.410297
750.000000	0.410318
751.000000	0.410454
752.000000	0.410684
753.000000	0.410941
754.000000	0.411072
755.000000	0.411195
756.000000	0.411332
757.000000	0.411423
758.000000	0.411528
759.000000	0.411605
760.000000	0.411585
761.000000	0.411725
762.000000	0.411824
763.000000	0.411860
764.000000	0.412004
765.000000	0.412045
766.000000	0.412081
767.000000	0.412227
768.000000	0.412439
769.000000	0.412523
770.000000	0.412477
771.000000	0.412572
772.000000	0.412751
773.000000	0.412851
774.000000	0.412859
775.000000	0.412964
776.000000	0.413050
777.000000	0.413009
778.000000	0.412957
779.000000	0.412986
780.000000	0.413050
781.000000	0.412934
782.000000	0.412965
783.000000	0.413135
784.000000	0.413127
785.000000	0.413164
786.000000	0.413187
787.000000	0.413147
788.000000	0.413048
789.000000	0.413077
790.000000	0.413116
791.000000	0.412974
792.000000	0.412967
793.000000	0.412999
794.000000	0.412954
795.000000	0.412877
796.000000	0.412819
797.000000	0.412758
798.000000	0.412606
799.000000	0.412568
800.000000	0.412583
801.000000	0.412532
802.000000	0.412432
803.000000	0.412322
804.000000	0.412244
805.000000	0.412051
806.000000	0.411945
807.000000	0.412009
808.000000	0.412049
809.000000	0.411956
810.000000	0.411791
811.000000	0.411633
812.000000	0.411576
813.000000	0.411601
814.000000	0.411638
815.000000	0.411600
816.000000	0.411429
817.000000	0.411230
818.000000	0.411029
819.000000	0.410971
820.000000	0.410891
821.000000	0.410701
822.000000	0.410653
823.000000	0.410618
824.000000	0.410537
825.000000	0.410529
826.000000	0.410454
827.000000	0.410364
828.000000	0.410355
829.000000	0.410392
830.000000	0.410271
831.000000	0.410130
832.000000	0.410068
833.000000	0.409965
834.000000	0.409826
835.000000	0.409713
836.000000	0.409599
837.000000	0.409494
838.000000	0.409412
839.000000	0.409312
840.000000	0.409316
841.000000	0.409258
842.000000	0.408976
843.000000	0.408842
844.000000	0.408687
845.000000	0.408500
846.000000	0.408549
847.000000	0.408513
848.000000	0.408402
849.000000	0.408334
850.000000	0.408191
851.000000	0.408024
852.000000	0.407913
853.000000	0.407815
854.000000	0.407641
855.000000	0.407499
856.000000	0.407312
857.000000	0.407156
858.000000	0.407091
859.000000	0.407000
860.000000	0.406807
861.000000	0.406637
862.000000	0.406553
863.000000	0.406477
864.000000	0.406348
865.000000	0.406226
866.000000	0.406145
867.000000	0.405959
868.000000	0.405811
869.000000	0.405593
870.000000	0.405287
871.000000	0.405094
872.000000	0.404985
873.000000	0.404840
874.000000	0.404691
875.000000	0.404491
876.000000	0.404285
877.000000	0.404068
878.000000	0.403845
879.000000	0.403668
880.000000	0.403411
881.000000	0.403264
882.000000	0.403111
883.000000	0.402957
884.000000	0.402767
885.000000	0.402609
886.000000	0.402434
887.000000	0.402269
888.000000	0.402197
889.000000	0.402064
890.000000	0.401809
891.000000	0.401677
892.000000	0.401385
893.000000	0.401139
894.000000	0.401100
895.000000	0.400754
896.000000	0.400532
897.000000	0.400412
898.000000	0.400241
899.000000	0.400110
900.000000	0.399930
901.000000	0.399670
902.000000	0.399568
903.000000	0.399403
904.000000	0.399246
905.000000	0.399093
906.000000	0.399056
907.000000	0.398940
908.000000	0.398777
909.000000	0.398618
910.000000	0.398479
911.000000	0.398333
912.000000	0.398150
913.000000	0.397798
914.000000	0.397601
915.000000	0.397574
916.000000	0.397286
917.000000	0.397108
918.000000	0.396944
919.000000	0.396687
920.000000	0.396511
921.000000	0.396239
922.000000	0.395979
923.000000	0.395905
924.000000	0.395755
925.000000	0.395561
926.000000	0.395406
927.000000	0.395255
928.000000	0.395071
929.000000	0.394899
930.000000	0.394776
931.000000	0.394538
932.000000	0.394204
933.000000	0.393921
934.000000	0.393805
935.000000	0.393352
936.000000	0.393039
937.000000	0.393084
938.000000	0.392760
939.000000	0.392677
940.000000	0.392677
941.000000	0.392389
942.000000	0.392061
943.000000	0.391982
944.000000	0.392015
945.000000	0.391827
946.000000	0.391508
947.000000	0.391321
948.000000	0.391347
949.000000	0.391009
950.000000	0.390733
951.000000	0.390607
952.000000	0.390502
953.000000	0.390342
954.000000	0.390117
955.000000	0.389780
956.000000	0.389482
957.000000	0.389340
958.000000	0.389237
959.000000	0.389124
960.000000	0.388918
961.000000	0.388764
962.000000	0.388651
963.000000	0.388445
964.000000	0.388235
965.000000	0.388078
966.000000	0.387862
967.000000	0.387698
968.000000	0.387388
969.000000	0.387077
970.000000	0.387128
971.000000	0.386728
972.000000	0.386552
973.000000	0.386718
974.000000	0.386765
975.000000	0.386415
976.000000	0.386075
977.000000	0.386037
978.000000	0.385787
979.000000	0.385962
980.000000	0.385952
981.000000	0.385446
982.000000	0.385305
983.000000	0.385245
984.000000	0.385093
985.000000	0.384724
986.000000	0.384696
987.000000	0.384902
988.000000	0.384913
989.000000	0.384402
990.000000	0.384424
991.000000	0.384552
992.000000	0.384184
993.000000	0.384299
994.000000	0.384290
995.000000	0.384250
996.000000	0.384256
997.000000	0.383943
998.000000	0.383893
999.000000	0.384337
1000.000000	0.384493
1001.000000	0.384095
1002.000000	0.384245
1003.000000	0.384382
1004.000000	0.384231
1005.000000	0.383289
1006.000000	0.382692
1007.000000	0.382208
1008.000000	0.382216
1009.000000	0.381375
1010.000000	0.381219
1011.000000	0.381498
1012.000000	0.380566
1013.000000	0.380433
1014.000000	0.381154
1015.000000	0.381610
1016.000000	0.381805
1017.000000	0.382025
1018.000000	0.382650
1019.000000	0.382813
1020.000000	0.383005
1021.000000	0.382974
1022.000000	0.382646
1023.000000	0.382718
1024.000000	0.382690
1025.000000	0.383196
1026.000000	0.383775
1027.000000	0.383848
1028.000000	0.383850
1029.000000	0.384132
1030.000000	0.383977
1031.000000	0.383804
1032.000000	0.384181
1033.000000	0.384409
1034.000000	0.384460
1035.000000	0.384387
1036.000000	0.384620
1037.000000	0.384982
1038.000000	0.385009
1039.000000	0.385181
1040.000000	0.385468
1041.000000	0.385423
1042.000000	0.385209
1043.000000	0.385847
1044.000000	0.386299
1045.000000	0.386150
1046.000000	0.386436
1047.000000	0.386665
1048.000000	0.386546
1049.000000	0.386643
1050.000000	0.387132
1051.000000	0.387230
1052.000000	0.386898
1053.000000	0.386939
1054.000000	0.387425
1055.000000	0.387757
1056.000000	0.388205
1057.000000	0.388514
1058.000000	0.388894
1059.000000	0.388775
1060.000000	0.388862
1061.000000	0.389580
1062.000000	0.390144
1063.000000	0.390264
1064.000000	0.390605
1065.000000	0.390953
1066.000000	0.391105
1067.000000	0.391121
1068.000000	0.391243
1069.000000	0.390967
1070.000000	0.391117
1071.000000	0.391798
1072.000000	0.392169
1073.000000	0.392578
1074.000000	0.393071
1075.000000	0.393493
1076.000000	0.394124
1077.000000	0.394314
1078.000000	0.394679
1079.000000	0.394889
1080.000000	0.394674
1081.000000	0.394797
1082.000000	0.395459
1083.000000	0.395603
1084.000000	0.395364
1085.000000	0.395598
1086.000000	0.395888
1087.000000	0.396112
1088.000000	0.396517
1089.000000	0.396840
1090.000000	0.396967
1091.000000	0.397077
1092.000000	0.397327
1093.000000	0.397458
1094.000000	0.397566
1095.000000	0.397291
1096.000000	0.397658
1097.000000	0.398407
1098.000000	0.398902
1099.000000	0.399611
1100.000000	0.400079
1101.000000	0.400142
1102.000000	0.400418
1103.000000	0.400753
1104.000000	0.401095
1105.000000	0.401341
1106.000000	0.401746
1107.000000	0.402390
1108.000000	0.402716
1109.000000	0.402970
1110.000000	0.403274
1111.000000	0.403564
1112.000000	0.403588
1113.000000	0.403972
1114.000000	0.404821
1115.000000	0.405039
1116.000000	0.405073
1117.000000	0.405088
1118.000000	0.404521
1119.000000	0.404532
1120.000000	0.404846
1121.000000	0.405141
1122.000000	0.405922
1123.000000	0.406572
1124.000000	0.406838
1125.000000	0.407209
1126.000000	0.407617
1127.000000	0.407716
1128.000000	0.407673
1129.000000	0.407494
1130.000000	0.407577
1131.000000	0.407610
1132.000000	0.407549
1133.000000	0.407698
1134.000000	0.407800
1135.000000	0.407547
1136.000000	0.407592
1137.000000	0.408016
1138.000000	0.408096
1139.000000	0.407957
1140.000000	0.408240
1141.000000	0.408702
1142.000000	0.408954
1143.000000	0.409340
1144.000000	0.409694
1145.000000	0.409653
1146.000000	0.409401
1147.000000	0.409346
1148.000000	0.409205
1149.000000	0.409180
1150.000000	0.409243
1151.000000	0.409280
1152.000000	0.409287
1153.000000	0.409326
1154.000000	0.409291
1155.000000	0.409313
1156.000000	0.409477
1157.000000	0.409465
1158.000000	0.409246
1159.000000	0.409180
1160.000000	0.409010
1161.000000	0.408970
1162.000000	0.409266
1163.000000	0.409582
1164.000000	0.409347
1165.000000	0.409219
1166.000000	0.409287
1167.000000	0.409219
1168.000000	0.409188
1169.000000	0.409511
1170.000000	0.409577
1171.000000	0.409371
1172.000000	0.409492
1173.000000	0.409791
1174.000000	0.409936
1175.000000	0.410160
1176.000000	0.410130
1177.000000	0.409916
1178.000000	0.409863
1179.000000	0.409714
1180.000000	0.409635
1181.000000	0.409851
1182.000000	0.409977
1183.000000	0.409941
1184.000000	0.409889
1185.000000	0.409935
1186.000000	0.409924
1187.000000	0.409927
1188.000000	0.410079
1189.000000	0.410080
1190.000000	0.410008
1191.000000	0.409976
1192.000000	0.410099
1193.000000	0.410243
1194.000000	0.410111
1195.000000	0.410223
1196.000000	0.410521
1197.000000	0.410587
1198.000000	0.410679
1199.000000	0.410742
1200.000000	0.410620
1201.000000	0.410472
1202.000000	0.410545
1203.000000	0.410739
1204.000000	0.410778
1205.000000	0.410784
1206.000000	0.410735
1207.000000	0.410665
1208.000000	0.410623
1209.000000	0.410713
1210.000000	0.410689
1211.000000	0.410549
1212.000000	0.410547
1213.000000	0.410688
1214.000000	0.410716
1215.000000	0.410742
1216.000000	0.410783
1217.000000	0.410684
1218.000000	0.410580
1219.000000	0.410557
1220.000000	0.410549
1221.000000	0.410437
1222.000000	0.410505
1223.000000	0.410678
1224.000000	0.410936
1225.000000	0.411090
1226.000000	0.411107
1227.000000	0.411067
1228.000000	0.410955
1229.000000	0.410860
1230.000000	0.410693
1231.000000	0.410619
1232.000000	0.410789
1233.000000	0.410885
1234.000000	0.411023
1235.000000	0.410996
1236.000000	0.410607
1237.000000	0.410552
1238.000000	0.410544
1239.000000	0.410522
1240.000000	0.410627
1241.000000	0.410758
1242.000000	0.410750
1243.000000	0.410656
1244.000000	0.410663
1245.000000	0.410814
1246.000000	0.410934
1247.000000	0.411049
1248.000000	0.411087
1249.000000	0.411118
1250.000000	0.411088
1251.000000	0.411126
1252.000000	0.411158
1253.000000	0.411268
1254.000000	0.411306
1255.000000	0.411409
1256.000000	0.411296
1257.000000	0.410974
1258.000000	0.410898
1259.000000	0.410620
1260.000000	0.410695
1261.000000	0.411116
1262.000000	0.411316
1263.000000	0.411625
1264.000000	0.411730
1265.000000	0.411691
1266.000000	0.411713
1267.000000	0.411743
1268.000000	0.411770
1269.000000	0.411672
1270.000000	0.411676
1271.000000	0.411740
1272.000000	0.411789
1273.000000	0.411853
1274.000000	0.411832
1275.000000	0.411839
1276.000000	0.411774
1277.000000	0.411886
1278.000000	0.412104
1279.000000	0.412107
1280.000000	0.411917
1281.000000	0.411790
1282.000000	0.411610
1283.000000	0.411617
1284.000000	0.411700
1285.000000	0.411783
1286.000000	0.411938
1287.000000	0.411874
1288.000000	0.411981
1289.000000	0.411921
1290.000000	0.411691
1291.000000	0.411705
1292.000000	0.411652
1293.000000	0.411659
1294.000000	0.411752
1295.000000	0.411741
1296.000000	0.411640
1297.000000	0.411502
1298.000000	0.411519
1299.000000	0.411557
1300.000000	0.411677
1301.000000	0.411823
1302.000000	0.411792
1303.000000	0.411828
1304.000000	0.411689
1305.000000	0.411461
1306.000000	0.411247
1307.000000	0.410993
1308.000000	0.410836
1309.000000	0.410719
1310.000000	0.410674
1311.000000	0.410801
1312.000000	0.410633
1313.000000	0.410637
1314.000000	0.410584
1315.000000	0.410262
1316.000000	0.410336
1317.000000	0.410415
1318.000000	0.410222
1319.000000	0.410157
1320.000000	0.410052
1321.000000	0.409844
1322.000000	0.409697
1323.000000	0.409529
1324.000000	0.409265
1325.000000	0.408805
1326.000000	0.408581
1327.000000	0.408516
1328.000000	0.408415
1329.000000	0.408198
1330.000000	0.407954
1331.000000	0.407672
1332.000000	0.407393
1333.000000	0.407093
1334.000000	0.406888
1335.000000	0.406649
1336.000000	0.406191
1337.000000	0.405998
1338.000000	0.405933
1339.000000	0.405716
1340.000000	0.405610
1341.000000	0.405427
1342.000000	0.404940
1343.000000	0.404649
1344.000000	0.404411
1345.000000	0.404068
1346.000000	0.403941
1347.000000	0.403706
1348.000000	0.403376
1349.000000	0.402983
1350.000000	0.402553
1351.000000	0.402145
1352.000000	0.401939
1353.000000	0.401781
1354.000000	0.401642
1355.000000	0.401463
1356.000000	0.401164
1357.000000	0.400843
1358.000000	0.400590
1359.000000	0.400270
1360.000000	0.399939
1361.000000	0.399624
1362.000000	0.399340
1363.000000	0.399064
1364.000000	0.398760
1365.000000	0.398405
1366.000000	0.398103
1367.000000	0.397802
1368.000000	0.397423
1369.000000	0.397142
1370.000000	0.396786
1371.000000	0.396271
1372.000000	0.395687
1373.000000	0.395149
1374.000000	0.394758
1375.000000	0.394320
1376.000000	0.393902
1377.000000	0.393646
1378.000000	0.393274
1379.000000	0.392606
1380.000000	0.392155
1381.000000	0.391673
1382.000000	0.390941
1383.000000	0.390362
1384.000000	0.389672
1385.000000	0.388912
1386.000000	0.388297
1387.000000	0.387687
1388.000000	0.386994
1389.000000	0.386172
1390.000000	0.385316
1391.000000	0.384464
1392.000000	0.383621
1393.000000	0.382684
1394.000000	0.381783
1395.000000	0.380800
1396.000000	0.379763
1397.000000	0.378503
1398.000000	0.377023
1399.000000	0.375657
1400.000000	0.374111
1401.000000	0.372705
1402.000000	0.371516
1403.000000	0.370196
1404.000000	0.368800
1405.000000	0.367359
1406.000000	0.365837
1407.000000	0.364351
1408.000000	0.362855
1409.000000	0.361385
1410.000000	0.359834
1411.000000	0.358099
1412.000000	0.356395
1413.000000	0.354849
1414.000000	0.353326
1415.000000	0.351908
1416.000000	0.350404
1417.000000	0.348812
1418.000000	0.347310
1419.000000	0.345845
1420.000000	0.344303
1421.000000	0.342839
1422.000000	0.341395
1423.000000	0.339976
1424.000000	0.338517
1425.000000	0.337209
1426.000000	0.335768
1427.000000	0.334224
1428.000000	0.332778
1429.000000	0.331282
1430.000000	0.329938
1431.000000	0.328824
1432.000000	0.327634
1433.000000	0.326526
1434.000000	0.325403
1435.000000	0.324295
1436.000000	0.323281
1437.000000	0.322318
1438.000000	0.321420
1439.000000	0.320638
1440.000000	0.319903
1441.000000	0.319261
1442.000000	0.318648
1443.000000	0.318022
1444.000000	0.317427
1445.000000	0.316879
1446.000000	0.316354
1447.000000	0.315917
1448.000000	0.315476
1449.000000	0.314925
1450.000000	0.314484
1451.000000	0.314145
1452.000000	0.313705
1453.000000	0.313210
1454.000000	0.312749
1455.000000	0.312267
1456.000000	0.311763
1457.000000	0.311545
1458.000000	0.311342
1459.000000	0.310914
1460.000000	0.310554
1461.000000	0.310146
1462.000000	0.309794
1463.000000	0.309565
1464.000000	0.309437
1465.000000	0.309293
1466.000000	0.309044
1467.000000	0.308945
1468.000000	0.308877
1469.000000	0.308904
1470.000000	0.308961
1471.000000	0.309017
1472.000000	0.308993
1473.000000	0.308989
1474.000000	0.309201
1475.000000	0.309375
1476.000000	0.309538
1477.000000	0.309934
1478.000000	0.310227
1479.000000	0.310556
1480.000000	0.310965
1481.000000	0.311359
1482.000000	0.311791
1483.000000	0.312336
1484.000000	0.313000
1485.000000	0.313487
1486.000000	0.313909
1487.000000	0.314396
1488.000000	0.314812
1489.000000	0.315352
1490.000000	0.315917
1491.000000	0.316470
1492.000000	0.316941
1493.000000	0.317454
1494.000000	0.318044
1495.000000	0.318499
1496.000000	0.318853
1497.000000	0.319291
1498.000000	0.319730
1499.000000	0.320095
1500.000000	0.320639
1501.000000	0.321177
1502.000000	0.321580
1503.000000	0.322047
1504.000000	0.322484
1505.000000	0.322882
1506.000000	0.323360
1507.000000	0.323853
1508.000000	0.324406
1509.000000	0.324865
1510.000000	0.325143
1511.000000	0.325398
1512.000000	0.325534
1513.000000	0.325665
1514.000000	0.326024
1515.000000	0.326386
1516.000000	0.326742
1517.000000	0.327069
1518.000000	0.327275
1519.000000	0.327418
1520.000000	0.327624
1521.000000	0.327795
1522.000000	0.327997
1523.000000	0.328148
1524.000000	0.328229
1525.000000	0.328412
1526.000000	0.328599
1527.000000	0.328863
1528.000000	0.329137
1529.000000	0.329298
1530.000000	0.329315
1531.000000	0.329393
1532.000000	0.329502
1533.000000	0.329572
1534.000000	0.329709
1535.000000	0.329828
1536.000000	0.329898
1537.000000	0.330056
1538.000000	0.330239
1539.000000	0.330422
1540.000000	0.330512
1541.000000	0.330628
1542.000000	0.330814
1543.000000	0.330834
1544.000000	0.330876
1545.000000	0.331015
1546.000000	0.331097
1547.000000	0.331174
1548.000000	0.331338
1549.000000	0.331479
1550.000000	0.331435
1551.000000	0.331467
1552.000000	0.331589
1553.000000	0.331525
1554.000000	0.331370
1555.000000	0.331272
1556.000000	0.331197
1557.000000	0.331071
1558.000000	0.331035
1559.000000	0.331106
1560.000000	0.331080
1561.000000	0.331054
1562.000000	0.331007
1563.000000	0.330977
1564.000000	0.330952
1565.000000	0.330866
1566.000000	0.330824
1567.000000	0.330945
1568.000000	0.330968
1569.000000	0.331116
1570.000000	0.331101
1571.000000	0.330909
1572.000000	0.330836
1573.000000	0.330740
1574.000000	0.330662
1575.000000	0.330692
1576.000000	0.330693
1577.000000	0.330655
1578.000000	0.330569
1579.000000	0.330527
1580.000000	0.330509
1581.000000	0.330510
1582.000000	0.330524
1583.000000	0.330590
1584.000000	0.330548
1585.000000	0.330529
1586.000000	0.330540
1587.000000	0.330501
1588.000000	0.330553
1589.000000	0.330694
1590.000000	0.330784
1591.000000	0.330945
1592.000000	0.331036
1593.000000	0.331058
1594.000000	0.331158
1595.000000	0.331386
1596.000000	0.331494
1597.000000	0.331651
1598.000000	0.331673
1599.000000	0.331510
1600.000000	0.331448
1601.000000	0.331452
1602.000000	0.331474
1603.000000	0.331607
1604.000000	0.331738
1605.000000	0.331939
1606.000000	0.332020
1607.000000	0.332118
1608.000000	0.332161
1609.000000	0.332133
1610.000000	0.332151
1611.000000	0.332260
1612.000000	0.332270
1613.000000	0.332289
1614.000000	0.332348
1615.000000	0.332434
1616.000000	0.332584
1617.000000	0.332788
1618.000000	0.332909
1619.000000	0.332948
1620.000000	0.333113
1621.000000	0.333381
1622.000000	0.333601
1623.000000	0.333864
1624.000000	0.334025
1625.000000	0.333827
1626.000000	0.333906
1627.000000	0.334176
1628.000000	0.334385
1629.000000	0.334692
1630.000000	0.334910
1631.000000	0.334874
1632.000000	0.335079
1633.000000	0.335452
1634.000000	0.335742
1635.000000	0.336178
1636.000000	0.336474
1637.000000	0.336647
1638.000000	0.336877
1639.000000	0.337142
1640.000000	0.337456
1641.000000	0.337940
1642.000000	0.338220
1643.000000	0.338485
1644.000000	0.338743
1645.000000	0.338769
1646.000000	0.339057
1647.000000	0.339623
1648.000000	0.339907
1649.000000	0.340297
1650.000000	0.340591
1651.000000	0.340691
1652.000000	0.340993
1653.000000	0.341372
1654.000000	0.341638
1655.000000	0.341817
1656.000000	0.341996
1657.000000	0.342191
1658.000000	0.342420
1659.000000	0.342816
1660.000000	0.343117
1661.000000	0.343254
1662.000000	0.343524
1663.000000	0.343840
1664.000000	0.344051
1665.000000	0.344284
1666.000000	0.344540
1667.000000	0.344593
1668.000000	0.344793
1669.000000	0.345043
1670.000000	0.345245
1671.000000	0.345595
1672.000000	0.345925
1673.000000	0.346219
1674.000000	0.346623
1675.000000	0.346929
1676.000000	0.347302
1677.000000	0.347600
1678.000000	0.347738
1679.000000	0.347864
1680.000000	0.347844
1681.000000	0.347899
1682.000000	0.348090
1683.000000	0.348246
1684.000000	0.348470
1685.000000	0.348891
1686.000000	0.349233
1687.000000	0.349511
1688.000000	0.349774
1689.000000	0.349890
1690.000000	0.349962
1691.000000	0.350163
1692.000000	0.350287
1693.000000	0.350377
1694.000000	0.350459
1695.000000	0.350581
1696.000000	0.350750
1697.000000	0.350807
1698.000000	0.350780
1699.000000	0.350919
1700.000000	0.351108
1701.000000	0.351358
1702.000000	0.351626
1703.000000	0.351782
1704.000000	0.351908
1705.000000	0.352043
1706.000000	0.352180
1707.000000	0.352365
1708.000000	0.352600
1709.000000	0.352700
1710.000000	0.352852
1711.000000	0.353004
1712.000000	0.353111
1713.000000	0.353194
1714.000000	0.353311
1715.000000	0.353488
1716.000000	0.353681
1717.000000	0.353839
1718.000000	0.354039
1719.000000	0.354157
1720.000000	0.354211
1721.000000	0.354335
1722.000000	0.354477
1723.000000	0.354645
1724.000000	0.354916
1725.000000	0.355089
1726.000000	0.355108
1727.000000	0.355237
1728.000000	0.355273
1729.000000	0.355308
1730.000000	0.355501
1731.000000	0.355782
1732.000000	0.356176
1733.000000	0.356453
1734.000000	0.356654
1735.000000	0.356825
1736.000000	0.356804
1737.000000	0.356842
1738.000000	0.356947
1739.000000	0.357069
1740.000000	0.357114
1741.000000	0.357177
1742.000000	0.357341
1743.000000	0.357477
1744.000000	0.357494
1745.000000	0.357649
1746.000000	0.357858
1747.000000	0.358394
1748.000000	0.358607
1749.000000	0.358739
1750.000000	0.358813
1751.000000	0.358638
1752.000000	0.358768
1753.000000	0.359060
1754.000000	0.359175
1755.000000	0.359165
1756.000000	0.359244
1757.000000	0.359297
1758.000000	0.359316
1759.000000	0.359343
1760.000000	0.359438
1761.000000	0.359463
1762.000000	0.359467
1763.000000	0.359577
1764.000000	0.359681
1765.000000	0.359635
1766.000000	0.359715
1767.000000	0.359827
1768.000000	0.359917
1769.000000	0.360121
1770.000000	0.360335
1771.000000	0.360527
1772.000000	0.360746
1773.000000	0.360897
1774.000000	0.361131
1775.000000	0.361562
1776.000000	0.361784
1777.000000	0.361914
1778.000000	0.362008
1779.000000	0.361944
1780.000000	0.361996
1781.000000	0.361994
1782.000000	0.362141
1783.000000	0.362420
1784.000000	0.362683
1785.000000	0.362971
1786.000000	0.363275
1787.000000	0.363629
1788.000000	0.363978
1789.000000	0.364134
1790.000000	0.364109
1791.000000	0.364156
1792.000000	0.364270
1793.000000	0.364499
1794.000000	0.365034
1795.000000	0.365315
1796.000000	0.365522
1797.000000	0.365618
1798.000000	0.365325
1799.000000	0.365325
1800.000000	0.365547
1801.000000	0.364257
1802.000000	0.365036
1803.000000	0.366903
1804.000000	0.367800
1805.000000	0.368813
1806.000000	0.369412
1807.000000	0.369594
1808.000000	0.369754
1809.000000	0.370009
1810.000000	0.369535
1811.000000	0.369169
1812.000000	0.368306
1813.000000	0.368179
1814.000000	0.368034
1815.000000	0.368450
1816.000000	0.370244
1817.000000	0.370558
1818.000000	0.370542
1819.000000	0.370549
1820.000000	0.369821
1821.000000	0.368133
1822.000000	0.367751
1823.000000	0.367584
1824.000000	0.367635
1825.000000	0.368664
1826.000000	0.369238
1827.000000	0.369528
1828.000000	0.370248
1829.000000	0.370698
1830.000000	0.369438
1831.000000	0.369131
1832.000000	0.368492
1833.000000	0.368366
1834.000000	0.368759
1835.000000	0.369112
1836.000000	0.369967
1837.000000	0.369984
1838.000000	0.369582
1839.000000	0.368932
1840.000000	0.367654
1841.000000	0.366820
1842.000000	0.366237
1843.000000	0.366076
1844.000000	0.365559
1845.000000	0.364671
1846.000000	0.364279
1847.000000	0.363916
1848.000000	0.363620
1849.000000	0.363185
1850.000000	0.362889
1851.000000	0.362498
1852.000000	0.361843
1853.000000	0.361051
1854.000000	0.359941
1855.000000	0.359190
1856.000000	0.358332
1857.000000	0.357261
1858.000000	0.356427
1859.000000	0.355387
1860.000000	0.353614
1861.000000	0.352169
1862.000000	0.351148
1863.000000	0.350925
1864.000000	0.349932
1865.000000	0.349210
1866.000000	0.347692
1867.000000	0.345286
1868.000000	0.342984
1869.000000	0.340742
1870.000000	0.338763
1871.000000	0.337031
1872.000000	0.335209
1873.000000	0.333269
1874.000000	0.331429
1875.000000	0.329059
1876.000000	0.326226
1877.000000	0.322965
1878.000000	0.319563
1879.000000	0.316160
1880.000000	0.312958
1881.000000	0.309513
1882.000000	0.305982
1883.000000	0.302255
1884.000000	0.298490
1885.000000	0.294261
1886.000000	0.290588
1887.000000	0.287201
1888.000000	0.283182
1889.000000	0.279494
1890.000000	0.275720
1891.000000	0.270696
1892.000000	0.265799
1893.000000	0.261989
1894.000000	0.257528
1895.000000	0.253077
1896.000000	0.249152
1897.000000	0.245139
1898.000000	0.239997
1899.000000	0.235805
1900.000000	0.231783
1901.000000	0.227520
1902.000000	0.223404
1903.000000	0.219224
1904.000000	0.215128
1905.000000	0.211098
1906.000000	0.207164
1907.000000	0.203486
1908.000000	0.199727
1909.000000	0.196353
1910.000000	0.193325
1911.000000	0.190585
1912.000000	0.187935
1913.000000	0.184701
1914.000000	0.181661
1915.000000	0.178833
1916.000000	0.176575
1917.000000	0.174407
1918.000000	0.172834
1919.000000	0.170974
1920.000000	0.169030
1921.000000	0.166879
1922.000000	0.164974
1923.000000	0.164022
1924.000000	0.163544
1925.000000	0.162656
1926.000000	0.161622
1927.000000	0.160755
1928.000000	0.160070
1929.000000	0.159190
1930.000000	0.159323
1931.000000	0.160031
1932.000000	0.160408
1933.000000	0.160754
1934.000000	0.160567
1935.000000	0.160116
1936.000000	0.160206
1937.000000	0.160355
1938.000000	0.160238
1939.000000	0.160004
1940.000000	0.159746
1941.000000	0.158869
1942.000000	0.158231
1943.000000	0.158233
1944.000000	0.158142
1945.000000	0.158402
1946.000000	0.158578
1947.000000	0.158344
1948.000000	0.158348
1949.000000	0.157832
1950.000000	0.157045
1951.000000	0.156331
1952.000000	0.155623
1953.000000	0.154423
1954.000000	0.153908
1955.000000	0.153637
1956.000000	0.153399
1957.000000	0.154026
1958.000000	0.154492
1959.000000	0.154701
1960.000000	0.154287
1961.000000	0.153281
1962.000000	0.152516
1963.000000	0.151425
1964.000000	0.150541
1965.000000	0.150191
1966.000000	0.149803
1967.000000	0.149532
1968.000000	0.149503
1969.000000	0.149511
1970.000000	0.149728
1971.000000	0.149451
1972.000000	0.149338
1973.000000	0.149354
1974.000000	0.149210
1975.000000	0.149489
1976.000000	0.150466
1977.000000	0.150932
1978.000000	0.150882
1979.000000	0.150932
1980.000000	0.151272
1981.000000	0.151480
1982.000000	0.151969
1983.000000	0.153162
1984.000000	0.153746
1985.000000	0.153862
1986.000000	0.154263
1987.000000	0.154696
1988.000000	0.155081
1989.000000	0.155636
1990.000000	0.156431
1991.000000	0.157512
1992.000000	0.158067
1993.000000	0.158415
1994.000000	0.159063
1995.000000	0.159866
1996.000000	0.160884
1997.000000	0.161823
1998.000000	0.163095
1999.000000	0.164043
2000.000000	0.164734
2001.000000	0.165572
2002.000000	0.166119
2003.000000	0.167231
2004.000000	0.168352
2005.000000	0.168898
2006.000000	0.169839
2007.000000	0.170837
2008.000000	0.171955
2009.000000	0.173027
2010.000000	0.174399
2011.000000	0.176290
2012.000000	0.177654
2013.000000	0.178730
2014.000000	0.179965
2015.000000	0.181443
2016.000000	0.182383
2017.000000	0.183662
2018.000000	0.185189
2019.000000	0.186452
2020.000000	0.187638
2021.000000	0.188498
2022.000000	0.188839
2023.000000	0.189920
2024.000000	0.191051
2025.000000	0.192217
2026.000000	0.193923
2027.000000	0.195298
2028.000000	0.196103
2029.000000	0.197024
2030.000000	0.197952
2031.000000	0.198785
2032.000000	0.199350
2033.000000	0.200149
2034.000000	0.201036
2035.000000	0.202158
2036.000000	0.202946
2037.000000	0.203702
2038.000000	0.204471
2039.000000	0.204994
2040.000000	0.205898
2041.000000	0.206644
2042.000000	0.208375
2043.000000	0.210151
2044.000000	0.211180
2045.000000	0.212864
2046.000000	0.214321
2047.000000	0.215226
2048.000000	0.215497
2049.000000	0.216435
2050.000000	0.216745
2051.000000	0.217590
2052.000000	0.219237
2053.000000	0.220204
2054.000000	0.221191
2055.000000	0.221894
2056.000000	0.222809
2057.000000	0.223802
2058.000000	0.224689
2059.000000	0.225995
2060.000000	0.226807
2061.000000	0.227231
2062.000000	0.227846
2063.000000	0.228326
2064.000000	0.228687
2065.000000	0.229456
2066.000000	0.229715
2067.000000	0.229404
2068.000000	0.230053
2069.000000	0.231052
2070.000000	0.231425
2071.000000	0.232891
2072.000000	0.234587
2073.000000	0.235818
2074.000000	0.237418
2075.000000	0.238577
2076.000000	0.239293
2077.000000	0.240341
2078.000000	0.241244
2079.000000	0.242338
2080.000000	0.243957
2081.000000	0.245206
2082.000000	0.246356
2083.000000	0.247360
2084.000000	0.248337
2085.000000	0.249314
2086.000000	0.250583
2087.000000	0.251356
2088.000000	0.252094
2089.000000	0.253193
2090.000000	0.254038
2091.000000	0.254866
2092.000000	0.255698
2093.000000	0.256501
2094.000000	0.256997
2095.000000	0.257277
2096.000000	0.257810
2097.000000	0.257973
2098.000000	0.258794
2099.000000	0.259363
2100.000000	0.260118
2101.000000	0.261965
2102.000000	0.263146
2103.000000	0.264755
2104.000000	0.266595
2105.000000	0.267518
2106.000000	0.267275
2107.000000	0.267980
2108.000000	0.268672
2109.000000	0.269416
2110.000000	0.270580
2111.000000	0.271287
2112.000000	0.271847
2113.000000	0.271687
2114.000000	0.271381
2115.000000	0.271106
2116.000000	0.271217
2117.000000	0.271804
2118.000000	0.272703
2119.000000	0.273976
2120.000000	0.274714
2121.000000	0.275091
2122.000000	0.275626
2123.000000	0.275952
2124.000000	0.276367
2125.000000	0.276903
2126.000000	0.277136
2127.000000	0.277358
2128.000000	0.277780
2129.000000	0.277846
2130.000000	0.278396
2131.000000	0.278988
2132.000000	0.278505
2133.000000	0.279238
2134.000000	0.280058
2135.000000	0.280816
2136.000000	0.281872
2137.000000	0.282207
2138.000000	0.281682
2139.000000	0.281638
2140.000000	0.281419
2141.000000	0.281473
2142.000000	0.281771
2143.000000	0.281770
2144.000000	0.281968
2145.000000	0.282114
2146.000000	0.282324
2147.000000	0.282367
2148.000000	0.282722
2149.000000	0.283100
2150.000000	0.282886
2151.000000	0.283094
2152.000000	0.282531
2153.000000	0.281751
2154.000000	0.281557
2155.000000	0.281534
2156.000000	0.281612
2157.000000	0.282333
2158.000000	0.282576
2159.000000	0.282692
2160.000000	0.282880
2161.000000	0.282580
2162.000000	0.283080
2163.000000	0.284290
2164.000000	0.284902
2165.000000	0.285622
2166.000000	0.286524
2167.000000	0.286593
2168.000000	0.285444
2169.000000	0.284727
2170.000000	0.283493
2171.000000	0.282893
2172.000000	0.282262
2173.000000	0.282448
2174.000000	0.283376
2175.000000	0.284070
2176.000000	0.285469
2177.000000	0.286296
2178.000000	0.287111
2179.000000	0.287729
2180.000000	0.288176
2181.000000	0.288150
2182.000000	0.287034
2183.000000	0.285928
2184.000000	0.284935
2185.000000	0.284101
2186.000000	0.284103
2187.000000	0.284727
2188.000000	0.283942
2189.000000	0.283897
2190.000000	0.285443
2191.000000	0.285915
2192.000000	0.286439
2193.000000	0.288316
2194.000000	0.288394
2195.000000	0.285797
2196.000000	0.285750
2197.000000	0.286783
2198.000000	0.286667
2199.000000	0.288101
2200.000000	0.288163
2201.000000	0.285373
2202.000000	0.284432
2203.000000	0.283123
2204.000000	0.283755
2205.000000	0.284716
2206.000000	0.285945
2207.000000	0.289494
2208.000000	0.290173
2209.000000	0.290883
2210.000000	0.291326
2211.000000	0.288375
2212.000000	0.287549
2213.000000	0.286284
2214.000000	0.283809
2215.000000	0.283248
2216.000000	0.283769
2217.000000	0.284637
2218.000000	0.287328
2219.000000	0.288895
2220.000000	0.291139
2221.000000	0.291983
2222.000000	0.291477
2223.000000	0.290768
2224.000000	0.289703
2225.000000	0.287594
2226.000000	0.286293
2227.000000	0.284849
2228.000000	0.284682
2229.000000	0.284227
2230.000000	0.283350
2231.000000	0.284975
2232.000000	0.285320
2233.000000	0.284461
2234.000000	0.285718
2235.000000	0.286878
2236.000000	0.287769
2237.000000	0.290303
2238.000000	0.291043
2239.000000	0.290004
2240.000000	0.289574
2241.000000	0.288586
2242.000000	0.288206
2243.000000	0.287881
2244.000000	0.288007
2245.000000	0.288825
2246.000000	0.289116
2247.000000	0.288694
2248.000000	0.289321
2249.000000	0.290955
2250.000000	0.291906
2251.000000	0.291286
2252.000000	0.291684
2253.000000	0.290747
2254.000000	0.288693
2255.000000	0.289161
2256.000000	0.288751
2257.000000	0.285924
2258.000000	0.284825
2259.000000	0.283540
2260.000000	0.282399
2261.000000	0.282648
2262.000000	0.285942
2263.000000	0.285765
2264.000000	0.284243
2265.000000	0.283412
2266.000000	0.280842
2267.000000	0.279763
2268.000000	0.280228
2269.000000	0.280298
2270.000000	0.280265
2271.000000	0.279668
2272.000000	0.279944
2273.000000	0.278816
2274.000000	0.275796
2275.000000	0.274732
2276.000000	0.274055
2277.000000	0.272382
2278.000000	0.272928
2279.000000	0.273739
2280.000000	0.274170
2281.000000	0.273426
2282.000000	0.270804
2283.000000	0.268864
2284.000000	0.266814
2285.000000	0.266972
2286.000000	0.269693
2287.000000	0.270867
2288.000000	0.270857
2289.000000	0.267964
2290.000000	0.264142
2291.000000	0.262721
2292.000000	0.262531
2293.000000	0.263660
2294.000000	0.263192
2295.000000	0.261946
2296.000000	0.261405
2297.000000	0.259151
2298.000000	0.259606
2299.000000	0.263562
2300.000000	0.263796
2301.000000	0.263999
2302.000000	0.263060
2303.000000	0.259755
2304.000000	0.257025
2305.000000	0.252091
2306.000000	0.250395
2307.000000	0.249555
2308.000000	0.249924
2309.000000	0.252109
2310.000000	0.255455
2311.000000	0.257492
2312.000000	0.256468
2313.000000	0.255997
2314.000000	0.254468
2315.000000	0.250818
2316.000000	0.249241
2317.000000	0.247424
2318.000000	0.247711
2319.000000	0.250665
2320.000000	0.252401
2321.000000	0.253956
2322.000000	0.254077
2323.000000	0.250832
2324.000000	0.246400
2325.000000	0.242566
2326.000000	0.237541
2327.000000	0.233436
2328.000000	0.231940
2329.000000	0.231827
2330.000000	0.232803
2331.000000	0.234943
2332.000000	0.237326
2333.000000	0.237303
2334.000000	0.236867
2335.000000	0.236034
2336.000000	0.233274
2337.000000	0.231022
2338.000000	0.228980
2339.000000	0.225944
2340.000000	0.221748
2341.000000	0.218920
2342.000000	0.215377
2343.000000	0.214539
2344.000000	0.217793
2345.000000	0.217754
2346.000000	0.217395
2347.000000	0.215133
2348.000000	0.210875
2349.000000	0.204048
2350.000000	0.201261
2351.000000	0.202018
2352.000000	0.201012
2353.000000	0.203576
2354.000000	0.203948
2355.000000	0.201433
2356.000000	0.201994
2357.000000	0.200348
2358.000000	0.197334
2359.000000	0.195199
2360.000000	0.192764
2361.000000	0.192818
2362.000000	0.194359
2363.000000	0.197259
2364.000000	0.195934
2365.000000	0.192028
2366.000000	0.188488
2367.000000	0.183864
2368.000000	0.184786
2369.000000	0.183372
2370.000000	0.180198
2371.000000	0.181928
2372.000000	0.179970
2373.000000	0.180406
2374.000000	0.183292
2375.000000	0.181300
2376.000000	0.179280
2377.000000	0.175152
2378.000000	0.169117
2379.000000	0.165763
2380.000000	0.165288
2381.000000	0.167694
2382.000000	0.170581
2383.000000	0.171143
2384.000000	0.168957
2385.000000	0.165911
2386.000000	0.162157
2387.000000	0.158111
2388.000000	0.156147
2389.000000	0.157607
2390.000000	0.163434
2391.000000	0.168896
2392.000000	0.173378
2393.000000	0.174050
2394.000000	0.172398
2395.000000	0.173086
2396.000000	0.170898
2397.000000	0.170006
2398.000000	0.168370
2399.000000	0.164135
2400.000000	0.160382
2401.000000	0.157627
2402.000000	0.156366
2403.000000	0.154179
2404.000000	0.155520
2405.000000	0.157395
2406.000000	0.157769
2407.000000	0.163701
2408.000000	0.165274
2409.000000	0.160423
2410.000000	0.159476
2411.000000	0.156673
2412.000000	0.155043
2413.000000	0.152823
2414.000000	0.146090
2415.000000	0.143189
2416.000000	0.141157
2417.000000	0.147428
2418.000000	0.157585
2419.000000	0.155466
2420.000000	0.156505
2421.000000	0.155522
2422.000000	0.146407
2423.000000	0.141383
2424.000000	0.134218
2425.000000	0.126528
2426.000000	0.117744
2427.000000	0.113057
2428.000000	0.114818
2429.000000	0.114672
2430.000000	0.123582
2431.000000	0.135882
2432.000000	0.140738
2433.000000	0.152158
2434.000000	0.158562
2435.000000	0.154878
2436.000000	0.153574
2437.000000	0.137998
2438.000000	0.121167
2439.000000	0.114025
2440.000000	0.115991
2441.000000	0.136797
2442.000000	0.155349
2443.000000	0.161306
2444.000000	0.159381
2445.000000	0.151580
2446.000000	0.124886
2447.000000	0.111274
2448.000000	0.123173
2449.000000	0.119316
2450.000000	0.125198
2451.000000	0.130715
2452.000000	0.112749
2453.000000	0.091830
2454.000000	0.080685
2455.000000	0.092785
2456.000000	0.102862
2457.000000	0.099873
2458.000000	0.098363
2459.000000	0.091753
2460.000000	0.079487
2461.000000	0.084657
2462.000000	0.096253
2463.000000	0.096059
2464.000000	0.085833
2465.000000	0.076570
2466.000000	0.069223
2467.000000	0.063924
2468.000000	0.078500
2469.000000	0.079910
2470.000000	0.090150
2471.000000	0.110538
2472.000000	0.096702
2473.000000	0.111576
2474.000000	0.111343
2475.000000	0.089693
2476.000000	0.089091
2477.000000	0.055009
2478.000000	0.056086
2479.000000	0.063080
2480.000000	0.050171
2481.000000	0.073993
2482.000000	0.072305
2483.000000	0.086972
2484.000000	0.093489
2485.000000	0.073518
2486.000000	0.064997
2487.000000	0.041608
2488.000000	0.044985
2489.000000	0.077459
2490.000000	0.107588
2491.000000	0.145276
2492.000000	0.126088
2493.000000	0.020278
2494.000000	-0.028367
2495.000000	-0.107782
2496.000000	-0.141075
2497.000000	-0.040147
2498.000000	-0.027837
2499.000000	-0.072707
2500.000000	-0.082234
