# Wavelength	NAu-2-20_HEX-50_FV7-30_00001.asd.rts.txt
350.000000	0.166140
351.000000	0.191826
352.000000	0.186002
353.000000	0.173937
354.000000	0.173452
355.000000	0.175940
356.000000	0.174633
357.000000	0.172204
358.000000	0.175745
359.000000	0.164337
360.000000	0.156258
361.000000	0.171665
362.000000	0.172399
363.000000	0.167747
364.000000	0.167081
365.000000	0.173441
366.000000	0.176042
367.000000	0.171520
368.000000	0.162145
369.000000	0.162495
370.000000	0.167149
371.000000	0.166093
372.000000	0.166373
373.000000	0.171637
374.000000	0.179926
375.000000	0.173069
376.000000	0.169920
377.000000	0.174644
378.000000	0.178389
379.000000	0.178884
380.000000	0.176979
381.000000	0.175376
382.000000	0.172619
383.000000	0.172455
384.000000	0.176113
385.000000	0.176362
386.000000	0.176369
387.000000	0.177212
388.000000	0.177561
389.000000	0.178554
390.000000	0.178625
391.000000	0.175780
392.000000	0.177049
393.000000	0.178948
394.000000	0.178833
395.000000	0.182273
396.000000	0.182778
397.000000	0.179393
398.000000	0.178270
399.000000	0.178180
400.000000	0.178810
401.000000	0.179788
402.000000	0.179662
403.000000	0.179698
404.000000	0.180973
405.000000	0.181173
406.000000	0.181661
407.000000	0.182663
408.000000	0.182011
409.000000	0.182229
410.000000	0.183170
411.000000	0.183196
412.000000	0.183211
413.000000	0.183350
414.000000	0.183698
415.000000	0.185099
416.000000	0.185794
417.000000	0.185151
418.000000	0.185163
419.000000	0.185693
420.000000	0.186337
421.000000	0.186354
422.000000	0.186302
423.000000	0.186711
424.000000	0.187930
425.000000	0.188007
426.000000	0.187961
427.000000	0.188485
428.000000	0.187991
429.000000	0.188058
430.000000	0.189019
431.000000	0.189654
432.000000	0.189576
433.000000	0.189472
434.000000	0.190577
435.000000	0.190742
436.000000	0.190451
437.000000	0.190512
438.000000	0.190792
439.000000	0.191181
440.000000	0.191615
441.000000	0.191816
442.000000	0.192236
443.000000	0.192635
444.000000	0.192399
445.000000	0.192269
446.000000	0.192557
447.000000	0.193202
448.000000	0.193628
449.000000	0.193908
450.000000	0.194244
451.000000	0.194989
452.000000	0.195575
453.000000	0.195805
454.000000	0.196054
455.000000	0.196319
456.000000	0.196600
457.000000	0.196766
458.000000	0.197266
459.000000	0.197797
460.000000	0.198087
461.000000	0.198366
462.000000	0.198543
463.000000	0.198626
464.000000	0.199333
465.000000	0.199665
466.000000	0.199621
467.000000	0.199932
468.000000	0.200173
469.000000	0.200453
470.000000	0.201047
471.000000	0.201414
472.000000	0.201700
473.000000	0.202002
474.000000	0.201962
475.000000	0.201995
476.000000	0.202343
477.000000	0.202818
478.000000	0.203103
479.000000	0.203417
480.000000	0.203894
481.000000	0.204066
482.000000	0.204299
483.000000	0.204750
484.000000	0.205071
485.000000	0.205332
486.000000	0.205683
487.000000	0.205919
488.000000	0.206036
489.000000	0.206156
490.000000	0.206488
491.000000	0.206497
492.000000	0.206539
493.000000	0.206981
494.000000	0.207274
495.000000	0.207325
496.000000	0.207252
497.000000	0.207801
498.000000	0.208204
499.000000	0.208298
500.000000	0.208471
501.000000	0.208568
502.000000	0.208741
503.000000	0.209163
504.000000	0.209428
505.000000	0.209656
506.000000	0.209996
507.000000	0.210170
508.000000	0.210400
509.000000	0.210737
510.000000	0.210939
511.000000	0.211263
512.000000	0.211690
513.000000	0.211927
514.000000	0.212223
515.000000	0.212597
516.000000	0.212957
517.000000	0.213375
518.000000	0.213789
519.000000	0.214109
520.000000	0.214530
521.000000	0.214947
522.000000	0.215341
523.000000	0.215818
524.000000	0.216230
525.000000	0.216641
526.000000	0.217259
527.000000	0.217949
528.000000	0.218625
529.000000	0.219274
530.000000	0.219947
531.000000	0.220786
532.000000	0.221732
533.000000	0.222528
534.000000	0.223270
535.000000	0.224015
536.000000	0.224823
537.000000	0.225664
538.000000	0.226482
539.000000	0.227209
540.000000	0.227988
541.000000	0.228726
542.000000	0.229366
543.000000	0.229999
544.000000	0.230705
545.000000	0.231432
546.000000	0.232081
547.000000	0.232806
548.000000	0.233633
549.000000	0.234413
550.000000	0.235117
551.000000	0.235876
552.000000	0.236788
553.000000	0.237632
554.000000	0.238537
555.000000	0.239596
556.000000	0.240675
557.000000	0.241693
558.000000	0.242741
559.000000	0.243824
560.000000	0.244864
561.000000	0.245912
562.000000	0.246943
563.000000	0.247925
564.000000	0.248936
565.000000	0.249951
566.000000	0.250916
567.000000	0.251844
568.000000	0.252707
569.000000	0.253432
570.000000	0.254156
571.000000	0.254869
572.000000	0.255446
573.000000	0.256039
574.000000	0.256607
575.000000	0.257096
576.000000	0.257477
577.000000	0.257799
578.000000	0.258161
579.000000	0.258521
580.000000	0.258876
581.000000	0.259196
582.000000	0.259408
583.000000	0.259600
584.000000	0.259814
585.000000	0.260075
586.000000	0.260202
587.000000	0.260228
588.000000	0.260244
589.000000	0.260305
590.000000	0.260343
591.000000	0.260320
592.000000	0.260299
593.000000	0.260261
594.000000	0.260199
595.000000	0.260119
596.000000	0.260078
597.000000	0.260031
598.000000	0.259816
599.000000	0.259590
600.000000	0.259407
601.000000	0.259226
602.000000	0.259100
603.000000	0.258919
604.000000	0.258673
605.000000	0.258504
606.000000	0.258329
607.000000	0.258113
608.000000	0.257839
609.000000	0.257632
610.000000	0.257457
611.000000	0.257249
612.000000	0.257076
613.000000	0.256876
614.000000	0.256656
615.000000	0.256522
616.000000	0.256359
617.000000	0.256119
618.000000	0.255907
619.000000	0.255754
620.000000	0.255627
621.000000	0.255513
622.000000	0.255347
623.000000	0.255168
624.000000	0.255024
625.000000	0.254947
626.000000	0.254848
627.000000	0.254709
628.000000	0.254633
629.000000	0.254567
630.000000	0.254449
631.000000	0.254446
632.000000	0.254345
633.000000	0.254288
634.000000	0.254403
635.000000	0.254399
636.000000	0.254373
637.000000	0.254385
638.000000	0.254420
639.000000	0.254438
640.000000	0.254474
641.000000	0.254480
642.000000	0.254492
643.000000	0.254575
644.000000	0.254782
645.000000	0.254900
646.000000	0.255024
647.000000	0.255201
648.000000	0.255311
649.000000	0.255459
650.000000	0.255661
651.000000	0.255889
652.000000	0.256050
653.000000	0.256211
654.000000	0.256439
655.000000	0.256704
656.000000	0.257029
657.000000	0.257373
658.000000	0.257675
659.000000	0.257980
660.000000	0.258303
661.000000	0.258647
662.000000	0.258945
663.000000	0.259261
664.000000	0.259642
665.000000	0.260043
666.000000	0.260453
667.000000	0.260851
668.000000	0.261335
669.000000	0.261775
670.000000	0.262141
671.000000	0.262629
672.000000	0.263162
673.000000	0.263704
674.000000	0.264258
675.000000	0.264831
676.000000	0.265417
677.000000	0.266017
678.000000	0.266584
679.000000	0.267162
680.000000	0.267792
681.000000	0.268448
682.000000	0.269128
683.000000	0.269774
684.000000	0.270469
685.000000	0.271175
686.000000	0.271917
687.000000	0.272686
688.000000	0.273452
689.000000	0.274216
690.000000	0.275013
691.000000	0.275815
692.000000	0.276636
693.000000	0.277515
694.000000	0.278362
695.000000	0.279230
696.000000	0.280098
697.000000	0.280921
698.000000	0.281792
699.000000	0.282701
700.000000	0.283635
701.000000	0.284586
702.000000	0.285559
703.000000	0.286526
704.000000	0.287465
705.000000	0.288415
706.000000	0.289359
707.000000	0.290340
708.000000	0.291324
709.000000	0.292321
710.000000	0.293343
711.000000	0.294285
712.000000	0.295287
713.000000	0.296381
714.000000	0.297390
715.000000	0.298391
716.000000	0.299424
717.000000	0.300484
718.000000	0.301458
719.000000	0.302369
720.000000	0.303289
721.000000	0.304304
722.000000	0.305304
723.000000	0.306298
724.000000	0.307277
725.000000	0.308218
726.000000	0.309197
727.000000	0.310167
728.000000	0.311190
729.000000	0.312177
730.000000	0.313026
731.000000	0.313919
732.000000	0.314823
733.000000	0.315744
734.000000	0.316617
735.000000	0.317437
736.000000	0.318331
737.000000	0.319201
738.000000	0.319937
739.000000	0.320694
740.000000	0.321434
741.000000	0.322262
742.000000	0.323081
743.000000	0.323801
744.000000	0.324429
745.000000	0.325051
746.000000	0.325692
747.000000	0.326256
748.000000	0.326815
749.000000	0.327432
750.000000	0.328087
751.000000	0.328691
752.000000	0.329292
753.000000	0.329882
754.000000	0.330383
755.000000	0.330924
756.000000	0.331466
757.000000	0.331899
758.000000	0.332366
759.000000	0.332860
760.000000	0.333302
761.000000	0.333800
762.000000	0.334241
763.000000	0.334618
764.000000	0.335069
765.000000	0.335465
766.000000	0.335818
767.000000	0.336149
768.000000	0.336428
769.000000	0.336706
770.000000	0.337008
771.000000	0.337312
772.000000	0.337657
773.000000	0.337965
774.000000	0.338261
775.000000	0.338564
776.000000	0.338811
777.000000	0.338976
778.000000	0.339243
779.000000	0.339453
780.000000	0.339604
781.000000	0.339808
782.000000	0.339945
783.000000	0.340113
784.000000	0.340258
785.000000	0.340438
786.000000	0.340593
787.000000	0.340693
788.000000	0.340802
789.000000	0.340905
790.000000	0.341003
791.000000	0.341145
792.000000	0.341237
793.000000	0.341304
794.000000	0.341390
795.000000	0.341488
796.000000	0.341538
797.000000	0.341530
798.000000	0.341516
799.000000	0.341587
800.000000	0.341660
801.000000	0.341641
802.000000	0.341673
803.000000	0.341724
804.000000	0.341800
805.000000	0.341876
806.000000	0.341872
807.000000	0.341907
808.000000	0.342014
809.000000	0.342066
810.000000	0.342052
811.000000	0.341971
812.000000	0.341858
813.000000	0.341783
814.000000	0.341755
815.000000	0.341749
816.000000	0.341723
817.000000	0.341740
818.000000	0.341771
819.000000	0.341786
820.000000	0.341876
821.000000	0.341998
822.000000	0.342083
823.000000	0.341987
824.000000	0.341782
825.000000	0.341734
826.000000	0.341601
827.000000	0.341450
828.000000	0.341406
829.000000	0.341514
830.000000	0.341527
831.000000	0.341469
832.000000	0.341332
833.000000	0.341186
834.000000	0.341095
835.000000	0.341092
836.000000	0.340977
837.000000	0.340900
838.000000	0.340870
839.000000	0.340744
840.000000	0.340646
841.000000	0.340593
842.000000	0.340523
843.000000	0.340401
844.000000	0.340295
845.000000	0.340233
846.000000	0.340284
847.000000	0.340217
848.000000	0.340042
849.000000	0.339873
850.000000	0.339697
851.000000	0.339609
852.000000	0.339630
853.000000	0.339553
854.000000	0.339382
855.000000	0.339298
856.000000	0.339277
857.000000	0.339100
858.000000	0.338939
859.000000	0.338792
860.000000	0.338593
861.000000	0.338513
862.000000	0.338480
863.000000	0.338282
864.000000	0.338218
865.000000	0.338082
866.000000	0.337828
867.000000	0.337694
868.000000	0.337620
869.000000	0.337488
870.000000	0.337286
871.000000	0.337003
872.000000	0.336828
873.000000	0.336757
874.000000	0.336619
875.000000	0.336427
876.000000	0.336180
877.000000	0.335833
878.000000	0.335606
879.000000	0.335493
880.000000	0.335281
881.000000	0.334942
882.000000	0.334749
883.000000	0.334651
884.000000	0.334414
885.000000	0.334303
886.000000	0.334146
887.000000	0.333882
888.000000	0.333634
889.000000	0.333446
890.000000	0.333218
891.000000	0.333036
892.000000	0.332827
893.000000	0.332587
894.000000	0.332416
895.000000	0.332138
896.000000	0.331812
897.000000	0.331561
898.000000	0.331475
899.000000	0.331268
900.000000	0.331006
901.000000	0.330732
902.000000	0.330575
903.000000	0.330352
904.000000	0.330078
905.000000	0.329735
906.000000	0.329556
907.000000	0.329356
908.000000	0.329123
909.000000	0.328860
910.000000	0.328663
911.000000	0.328536
912.000000	0.328434
913.000000	0.328169
914.000000	0.327862
915.000000	0.327652
916.000000	0.327487
917.000000	0.327108
918.000000	0.326821
919.000000	0.326792
920.000000	0.326671
921.000000	0.326471
922.000000	0.326209
923.000000	0.325901
924.000000	0.325696
925.000000	0.325421
926.000000	0.325018
927.000000	0.324554
928.000000	0.324354
929.000000	0.324185
930.000000	0.323758
931.000000	0.323605
932.000000	0.323567
933.000000	0.323511
934.000000	0.323259
935.000000	0.322946
936.000000	0.322673
937.000000	0.322398
938.000000	0.322171
939.000000	0.321904
940.000000	0.321599
941.000000	0.321449
942.000000	0.321050
943.000000	0.320721
944.000000	0.320529
945.000000	0.320401
946.000000	0.320010
947.000000	0.319738
948.000000	0.319908
949.000000	0.319695
950.000000	0.319472
951.000000	0.319253
952.000000	0.318831
953.000000	0.318675
954.000000	0.318664
955.000000	0.318501
956.000000	0.318031
957.000000	0.317766
958.000000	0.317589
959.000000	0.317314
960.000000	0.317245
961.000000	0.317130
962.000000	0.316801
963.000000	0.316313
964.000000	0.316007
965.000000	0.315840
966.000000	0.315558
967.000000	0.315123
968.000000	0.314818
969.000000	0.314672
970.000000	0.314678
971.000000	0.314550
972.000000	0.314277
973.000000	0.313925
974.000000	0.313819
975.000000	0.313763
976.000000	0.313674
977.000000	0.313470
978.000000	0.313002
979.000000	0.312851
980.000000	0.312644
981.000000	0.312212
982.000000	0.312111
983.000000	0.311966
984.000000	0.311682
985.000000	0.311378
986.000000	0.311305
987.000000	0.311445
988.000000	0.311463
989.000000	0.310879
990.000000	0.310609
991.000000	0.310630
992.000000	0.310651
993.000000	0.310682
994.000000	0.310594
995.000000	0.310427
996.000000	0.309990
997.000000	0.309897
998.000000	0.309926
999.000000	0.309948
1000.000000	0.309865
1001.000000	0.308941
1002.000000	0.309963
1003.000000	0.310833
1004.000000	0.310745
1005.000000	0.309964
1006.000000	0.309591
1007.000000	0.308705
1008.000000	0.308056
1009.000000	0.308675
1010.000000	0.309356
1011.000000	0.309625
1012.000000	0.309896
1013.000000	0.309696
1014.000000	0.309220
1015.000000	0.309061
1016.000000	0.308972
1017.000000	0.309049
1018.000000	0.309462
1019.000000	0.309732
1020.000000	0.310586
1021.000000	0.310436
1022.000000	0.309773
1023.000000	0.309581
1024.000000	0.309098
1025.000000	0.308725
1026.000000	0.308447
1027.000000	0.308492
1028.000000	0.308453
1029.000000	0.308400
1030.000000	0.308869
1031.000000	0.309171
1032.000000	0.309539
1033.000000	0.309827
1034.000000	0.309839
1035.000000	0.309284
1036.000000	0.309390
1037.000000	0.309878
1038.000000	0.309982
1039.000000	0.310371
1040.000000	0.310639
1041.000000	0.310300
1042.000000	0.309872
1043.000000	0.310075
1044.000000	0.310515
1045.000000	0.310809
1046.000000	0.310950
1047.000000	0.311078
1048.000000	0.310870
1049.000000	0.310784
1050.000000	0.310884
1051.000000	0.310843
1052.000000	0.310600
1053.000000	0.310420
1054.000000	0.310240
1055.000000	0.310334
1056.000000	0.310654
1057.000000	0.310908
1058.000000	0.310958
1059.000000	0.311229
1060.000000	0.311751
1061.000000	0.312195
1062.000000	0.312760
1063.000000	0.313554
1064.000000	0.313928
1065.000000	0.313638
1066.000000	0.313990
1067.000000	0.314675
1068.000000	0.314846
1069.000000	0.314845
1070.000000	0.315038
1071.000000	0.315190
1072.000000	0.315153
1073.000000	0.315099
1074.000000	0.315321
1075.000000	0.315477
1076.000000	0.315679
1077.000000	0.316012
1078.000000	0.316170
1079.000000	0.316379
1080.000000	0.316281
1081.000000	0.316461
1082.000000	0.317114
1083.000000	0.317370
1084.000000	0.317449
1085.000000	0.317535
1086.000000	0.317436
1087.000000	0.317540
1088.000000	0.317434
1089.000000	0.317626
1090.000000	0.318155
1091.000000	0.318481
1092.000000	0.318858
1093.000000	0.319597
1094.000000	0.319959
1095.000000	0.320140
1096.000000	0.320299
1097.000000	0.320334
1098.000000	0.320370
1099.000000	0.320159
1100.000000	0.320299
1101.000000	0.320542
1102.000000	0.320734
1103.000000	0.320923
1104.000000	0.321316
1105.000000	0.322006
1106.000000	0.322319
1107.000000	0.322382
1108.000000	0.322700
1109.000000	0.322954
1110.000000	0.323233
1111.000000	0.323468
1112.000000	0.324093
1113.000000	0.324214
1114.000000	0.323821
1115.000000	0.323879
1116.000000	0.324033
1117.000000	0.324189
1118.000000	0.324452
1119.000000	0.324667
1120.000000	0.325024
1121.000000	0.325088
1122.000000	0.325048
1123.000000	0.325275
1124.000000	0.324935
1125.000000	0.325088
1126.000000	0.325923
1127.000000	0.326185
1128.000000	0.326288
1129.000000	0.326315
1130.000000	0.326517
1131.000000	0.326466
1132.000000	0.326570
1133.000000	0.327064
1134.000000	0.327318
1135.000000	0.327453
1136.000000	0.327357
1137.000000	0.327007
1138.000000	0.326922
1139.000000	0.326713
1140.000000	0.326800
1141.000000	0.327394
1142.000000	0.327629
1143.000000	0.327499
1144.000000	0.327716
1145.000000	0.327857
1146.000000	0.327895
1147.000000	0.328026
1148.000000	0.328286
1149.000000	0.328351
1150.000000	0.328261
1151.000000	0.328344
1152.000000	0.328387
1153.000000	0.328465
1154.000000	0.328615
1155.000000	0.328665
1156.000000	0.328680
1157.000000	0.328688
1158.000000	0.328594
1159.000000	0.328532
1160.000000	0.328475
1161.000000	0.328396
1162.000000	0.328281
1163.000000	0.328433
1164.000000	0.328519
1165.000000	0.328486
1166.000000	0.328544
1167.000000	0.328635
1168.000000	0.328625
1169.000000	0.328541
1170.000000	0.328613
1171.000000	0.328785
1172.000000	0.328886
1173.000000	0.329013
1174.000000	0.329141
1175.000000	0.329209
1176.000000	0.329221
1177.000000	0.329294
1178.000000	0.329373
1179.000000	0.329384
1180.000000	0.329352
1181.000000	0.329404
1182.000000	0.329507
1183.000000	0.329588
1184.000000	0.329696
1185.000000	0.329750
1186.000000	0.329813
1187.000000	0.329863
1188.000000	0.329877
1189.000000	0.329855
1190.000000	0.329919
1191.000000	0.329873
1192.000000	0.329756
1193.000000	0.329851
1194.000000	0.329927
1195.000000	0.329941
1196.000000	0.329985
1197.000000	0.329974
1198.000000	0.329777
1199.000000	0.329793
1200.000000	0.329989
1201.000000	0.330015
1202.000000	0.330142
1203.000000	0.330327
1204.000000	0.330255
1205.000000	0.330297
1206.000000	0.330306
1207.000000	0.330348
1208.000000	0.330380
1209.000000	0.330532
1210.000000	0.330589
1211.000000	0.330645
1212.000000	0.330647
1213.000000	0.330603
1214.000000	0.330624
1215.000000	0.330612
1216.000000	0.330620
1217.000000	0.330599
1218.000000	0.330625
1219.000000	0.330732
1220.000000	0.330840
1221.000000	0.330830
1222.000000	0.330885
1223.000000	0.330831
1224.000000	0.330670
1225.000000	0.330634
1226.000000	0.330638
1227.000000	0.330609
1228.000000	0.330711
1229.000000	0.330739
1230.000000	0.330733
1231.000000	0.330740
1232.000000	0.330897
1233.000000	0.330998
1234.000000	0.331092
1235.000000	0.331108
1236.000000	0.330857
1237.000000	0.330886
1238.000000	0.331031
1239.000000	0.331058
1240.000000	0.331101
1241.000000	0.331248
1242.000000	0.331285
1243.000000	0.331191
1244.000000	0.331301
1245.000000	0.331484
1246.000000	0.331445
1247.000000	0.331462
1248.000000	0.331606
1249.000000	0.331705
1250.000000	0.331668
1251.000000	0.331841
1252.000000	0.331965
1253.000000	0.332006
1254.000000	0.332041
1255.000000	0.332229
1256.000000	0.332230
1257.000000	0.332067
1258.000000	0.332087
1259.000000	0.332002
1260.000000	0.332073
1261.000000	0.332286
1262.000000	0.332311
1263.000000	0.332293
1264.000000	0.332337
1265.000000	0.332375
1266.000000	0.332509
1267.000000	0.332651
1268.000000	0.332740
1269.000000	0.332664
1270.000000	0.332461
1271.000000	0.332451
1272.000000	0.332543
1273.000000	0.332584
1274.000000	0.332707
1275.000000	0.332707
1276.000000	0.332607
1277.000000	0.332647
1278.000000	0.332612
1279.000000	0.332572
1280.000000	0.332492
1281.000000	0.332431
1282.000000	0.332419
1283.000000	0.332489
1284.000000	0.332517
1285.000000	0.332625
1286.000000	0.332822
1287.000000	0.332865
1288.000000	0.332982
1289.000000	0.333083
1290.000000	0.333021
1291.000000	0.333031
1292.000000	0.333059
1293.000000	0.333084
1294.000000	0.333116
1295.000000	0.333142
1296.000000	0.333206
1297.000000	0.333339
1298.000000	0.333504
1299.000000	0.333535
1300.000000	0.333521
1301.000000	0.333508
1302.000000	0.333415
1303.000000	0.333354
1304.000000	0.333321
1305.000000	0.333371
1306.000000	0.333360
1307.000000	0.333466
1308.000000	0.333447
1309.000000	0.333269
1310.000000	0.333231
1311.000000	0.333288
1312.000000	0.333127
1313.000000	0.333110
1314.000000	0.333105
1315.000000	0.332801
1316.000000	0.332859
1317.000000	0.333066
1318.000000	0.333140
1319.000000	0.333106
1320.000000	0.332912
1321.000000	0.332516
1322.000000	0.332080
1323.000000	0.331962
1324.000000	0.331906
1325.000000	0.331843
1326.000000	0.331912
1327.000000	0.331798
1328.000000	0.331836
1329.000000	0.331798
1330.000000	0.331722
1331.000000	0.331668
1332.000000	0.331740
1333.000000	0.331621
1334.000000	0.331446
1335.000000	0.331445
1336.000000	0.331434
1337.000000	0.331354
1338.000000	0.331280
1339.000000	0.331212
1340.000000	0.331112
1341.000000	0.331091
1342.000000	0.331173
1343.000000	0.331123
1344.000000	0.330838
1345.000000	0.330596
1346.000000	0.330470
1347.000000	0.330229
1348.000000	0.330147
1349.000000	0.330014
1350.000000	0.330004
1351.000000	0.330023
1352.000000	0.329857
1353.000000	0.329794
1354.000000	0.329664
1355.000000	0.329455
1356.000000	0.329441
1357.000000	0.329298
1358.000000	0.329047
1359.000000	0.328740
1360.000000	0.328548
1361.000000	0.328489
1362.000000	0.328348
1363.000000	0.328202
1364.000000	0.328077
1365.000000	0.327838
1366.000000	0.327679
1367.000000	0.327550
1368.000000	0.327535
1369.000000	0.327532
1370.000000	0.327273
1371.000000	0.326811
1372.000000	0.326451
1373.000000	0.326221
1374.000000	0.325988
1375.000000	0.325868
1376.000000	0.325795
1377.000000	0.325557
1378.000000	0.325303
1379.000000	0.325164
1380.000000	0.324987
1381.000000	0.324600
1382.000000	0.324236
1383.000000	0.323901
1384.000000	0.323320
1385.000000	0.322644
1386.000000	0.322078
1387.000000	0.321416
1388.000000	0.320662
1389.000000	0.320078
1390.000000	0.319510
1391.000000	0.318840
1392.000000	0.318207
1393.000000	0.317512
1394.000000	0.316886
1395.000000	0.316106
1396.000000	0.315211
1397.000000	0.314282
1398.000000	0.313217
1399.000000	0.312157
1400.000000	0.311049
1401.000000	0.309930
1402.000000	0.308796
1403.000000	0.307710
1404.000000	0.306759
1405.000000	0.305815
1406.000000	0.304925
1407.000000	0.304042
1408.000000	0.303049
1409.000000	0.302110
1410.000000	0.301256
1411.000000	0.300353
1412.000000	0.299427
1413.000000	0.298562
1414.000000	0.297716
1415.000000	0.296890
1416.000000	0.296013
1417.000000	0.295242
1418.000000	0.294479
1419.000000	0.293677
1420.000000	0.292914
1421.000000	0.292247
1422.000000	0.291529
1423.000000	0.290824
1424.000000	0.290072
1425.000000	0.289385
1426.000000	0.288716
1427.000000	0.288120
1428.000000	0.287573
1429.000000	0.286963
1430.000000	0.286401
1431.000000	0.285748
1432.000000	0.285115
1433.000000	0.284518
1434.000000	0.284010
1435.000000	0.283597
1436.000000	0.283162
1437.000000	0.282794
1438.000000	0.282312
1439.000000	0.281772
1440.000000	0.281336
1441.000000	0.280901
1442.000000	0.280567
1443.000000	0.280243
1444.000000	0.279999
1445.000000	0.279794
1446.000000	0.279639
1447.000000	0.279486
1448.000000	0.279312
1449.000000	0.279168
1450.000000	0.279100
1451.000000	0.279050
1452.000000	0.278917
1453.000000	0.278755
1454.000000	0.278519
1455.000000	0.278350
1456.000000	0.278373
1457.000000	0.278388
1458.000000	0.278376
1459.000000	0.278373
1460.000000	0.278215
1461.000000	0.278003
1462.000000	0.277961
1463.000000	0.277777
1464.000000	0.277614
1465.000000	0.277712
1466.000000	0.277803
1467.000000	0.278018
1468.000000	0.278254
1469.000000	0.278389
1470.000000	0.278361
1471.000000	0.278323
1472.000000	0.278336
1473.000000	0.278414
1474.000000	0.278621
1475.000000	0.278908
1476.000000	0.279148
1477.000000	0.279436
1478.000000	0.279780
1479.000000	0.280049
1480.000000	0.280283
1481.000000	0.280610
1482.000000	0.281061
1483.000000	0.281472
1484.000000	0.281955
1485.000000	0.282393
1486.000000	0.282725
1487.000000	0.283117
1488.000000	0.283614
1489.000000	0.284034
1490.000000	0.284309
1491.000000	0.284664
1492.000000	0.284964
1493.000000	0.285276
1494.000000	0.285631
1495.000000	0.285870
1496.000000	0.285929
1497.000000	0.286136
1498.000000	0.286345
1499.000000	0.286698
1500.000000	0.287059
1501.000000	0.287429
1502.000000	0.287745
1503.000000	0.287988
1504.000000	0.288281
1505.000000	0.288643
1506.000000	0.288974
1507.000000	0.289219
1508.000000	0.289520
1509.000000	0.289773
1510.000000	0.289898
1511.000000	0.290110
1512.000000	0.290285
1513.000000	0.290471
1514.000000	0.290746
1515.000000	0.290923
1516.000000	0.291104
1517.000000	0.291219
1518.000000	0.291262
1519.000000	0.291239
1520.000000	0.291349
1521.000000	0.291527
1522.000000	0.291714
1523.000000	0.292013
1524.000000	0.292187
1525.000000	0.292217
1526.000000	0.292309
1527.000000	0.292432
1528.000000	0.292550
1529.000000	0.292689
1530.000000	0.292639
1531.000000	0.292613
1532.000000	0.292702
1533.000000	0.292772
1534.000000	0.292853
1535.000000	0.292964
1536.000000	0.292995
1537.000000	0.292992
1538.000000	0.293105
1539.000000	0.293133
1540.000000	0.293137
1541.000000	0.293270
1542.000000	0.293280
1543.000000	0.293389
1544.000000	0.293588
1545.000000	0.293671
1546.000000	0.293789
1547.000000	0.293908
1548.000000	0.293983
1549.000000	0.294076
1550.000000	0.294192
1551.000000	0.294247
1552.000000	0.294222
1553.000000	0.294161
1554.000000	0.294141
1555.000000	0.294228
1556.000000	0.294357
1557.000000	0.294440
1558.000000	0.294499
1559.000000	0.294478
1560.000000	0.294455
1561.000000	0.294400
1562.000000	0.294352
1563.000000	0.294332
1564.000000	0.294311
1565.000000	0.294303
1566.000000	0.294255
1567.000000	0.294289
1568.000000	0.294287
1569.000000	0.294321
1570.000000	0.294289
1571.000000	0.294210
1572.000000	0.294181
1573.000000	0.294104
1574.000000	0.294109
1575.000000	0.294259
1576.000000	0.294275
1577.000000	0.294229
1578.000000	0.294185
1579.000000	0.294092
1580.000000	0.294108
1581.000000	0.294258
1582.000000	0.294371
1583.000000	0.294546
1584.000000	0.294616
1585.000000	0.294698
1586.000000	0.294747
1587.000000	0.294767
1588.000000	0.294789
1589.000000	0.294822
1590.000000	0.294801
1591.000000	0.294715
1592.000000	0.294720
1593.000000	0.294742
1594.000000	0.294735
1595.000000	0.294893
1596.000000	0.294902
1597.000000	0.294855
1598.000000	0.294800
1599.000000	0.294649
1600.000000	0.294591
1601.000000	0.294613
1602.000000	0.294599
1603.000000	0.294676
1604.000000	0.294771
1605.000000	0.294879
1606.000000	0.294952
1607.000000	0.295172
1608.000000	0.295184
1609.000000	0.295074
1610.000000	0.295052
1611.000000	0.295005
1612.000000	0.294952
1613.000000	0.294951
1614.000000	0.295040
1615.000000	0.295259
1616.000000	0.295394
1617.000000	0.295593
1618.000000	0.295673
1619.000000	0.295496
1620.000000	0.295571
1621.000000	0.295790
1622.000000	0.296003
1623.000000	0.296318
1624.000000	0.296524
1625.000000	0.296533
1626.000000	0.296597
1627.000000	0.296697
1628.000000	0.296759
1629.000000	0.296748
1630.000000	0.296878
1631.000000	0.296944
1632.000000	0.297092
1633.000000	0.297469
1634.000000	0.297623
1635.000000	0.297694
1636.000000	0.297801
1637.000000	0.297820
1638.000000	0.297951
1639.000000	0.298259
1640.000000	0.298410
1641.000000	0.298585
1642.000000	0.298748
1643.000000	0.298863
1644.000000	0.299028
1645.000000	0.299257
1646.000000	0.299372
1647.000000	0.299447
1648.000000	0.299540
1649.000000	0.299700
1650.000000	0.299855
1651.000000	0.300031
1652.000000	0.300259
1653.000000	0.300483
1654.000000	0.300680
1655.000000	0.300833
1656.000000	0.300960
1657.000000	0.301113
1658.000000	0.301248
1659.000000	0.301503
1660.000000	0.301692
1661.000000	0.301740
1662.000000	0.301903
1663.000000	0.302069
1664.000000	0.302250
1665.000000	0.302486
1666.000000	0.302703
1667.000000	0.302838
1668.000000	0.302983
1669.000000	0.303098
1670.000000	0.303143
1671.000000	0.303278
1672.000000	0.303358
1673.000000	0.303320
1674.000000	0.303486
1675.000000	0.303561
1676.000000	0.303815
1677.000000	0.304027
1678.000000	0.304074
1679.000000	0.304206
1680.000000	0.304237
1681.000000	0.304320
1682.000000	0.304532
1683.000000	0.304683
1684.000000	0.304793
1685.000000	0.304879
1686.000000	0.304744
1687.000000	0.304669
1688.000000	0.304765
1689.000000	0.304819
1690.000000	0.304905
1691.000000	0.305130
1692.000000	0.305240
1693.000000	0.305374
1694.000000	0.305515
1695.000000	0.305667
1696.000000	0.305766
1697.000000	0.305804
1698.000000	0.305972
1699.000000	0.306067
1700.000000	0.306016
1701.000000	0.306074
1702.000000	0.305993
1703.000000	0.305905
1704.000000	0.305865
1705.000000	0.305888
1706.000000	0.305985
1707.000000	0.306074
1708.000000	0.306199
1709.000000	0.306262
1710.000000	0.306399
1711.000000	0.306505
1712.000000	0.306625
1713.000000	0.306698
1714.000000	0.306763
1715.000000	0.306824
1716.000000	0.306818
1717.000000	0.306927
1718.000000	0.307167
1719.000000	0.307180
1720.000000	0.307170
1721.000000	0.307192
1722.000000	0.306968
1723.000000	0.307048
1724.000000	0.307476
1725.000000	0.307656
1726.000000	0.307776
1727.000000	0.307827
1728.000000	0.307571
1729.000000	0.307582
1730.000000	0.307879
1731.000000	0.307986
1732.000000	0.308155
1733.000000	0.308323
1734.000000	0.308255
1735.000000	0.308282
1736.000000	0.308328
1737.000000	0.308440
1738.000000	0.308552
1739.000000	0.308707
1740.000000	0.309022
1741.000000	0.309060
1742.000000	0.308982
1743.000000	0.308950
1744.000000	0.308762
1745.000000	0.308752
1746.000000	0.308797
1747.000000	0.308907
1748.000000	0.308995
1749.000000	0.309147
1750.000000	0.309228
1751.000000	0.309453
1752.000000	0.309660
1753.000000	0.309667
1754.000000	0.309697
1755.000000	0.309603
1756.000000	0.309597
1757.000000	0.309587
1758.000000	0.309697
1759.000000	0.310079
1760.000000	0.310144
1761.000000	0.309927
1762.000000	0.309959
1763.000000	0.309998
1764.000000	0.309974
1765.000000	0.310063
1766.000000	0.310165
1767.000000	0.310025
1768.000000	0.309997
1769.000000	0.310288
1770.000000	0.310428
1771.000000	0.310404
1772.000000	0.310430
1773.000000	0.310365
1774.000000	0.310473
1775.000000	0.310694
1776.000000	0.310931
1777.000000	0.311351
1778.000000	0.311456
1779.000000	0.311401
1780.000000	0.311390
1781.000000	0.311186
1782.000000	0.311137
1783.000000	0.311143
1784.000000	0.311475
1785.000000	0.311776
1786.000000	0.312052
1787.000000	0.312385
1788.000000	0.312499
1789.000000	0.312360
1790.000000	0.312261
1791.000000	0.312237
1792.000000	0.312335
1793.000000	0.312380
1794.000000	0.312567
1795.000000	0.312672
1796.000000	0.312573
1797.000000	0.312571
1798.000000	0.312621
1799.000000	0.312604
1800.000000	0.312582
1801.000000	0.312518
1802.000000	0.312702
1803.000000	0.312588
1804.000000	0.313271
1805.000000	0.315208
1806.000000	0.315774
1807.000000	0.316212
1808.000000	0.316410
1809.000000	0.315985
1810.000000	0.315088
1811.000000	0.314666
1812.000000	0.314573
1813.000000	0.314159
1814.000000	0.313515
1815.000000	0.313107
1816.000000	0.312340
1817.000000	0.312095
1818.000000	0.312087
1819.000000	0.312711
1820.000000	0.313386
1821.000000	0.314277
1822.000000	0.314414
1823.000000	0.313740
1824.000000	0.313708
1825.000000	0.313625
1826.000000	0.313437
1827.000000	0.313224
1828.000000	0.313347
1829.000000	0.312820
1830.000000	0.312528
1831.000000	0.312685
1832.000000	0.313405
1833.000000	0.313755
1834.000000	0.314617
1835.000000	0.314630
1836.000000	0.313710
1837.000000	0.313338
1838.000000	0.312787
1839.000000	0.311972
1840.000000	0.312052
1841.000000	0.312694
1842.000000	0.312473
1843.000000	0.311805
1844.000000	0.311808
1845.000000	0.311588
1846.000000	0.311428
1847.000000	0.312096
1848.000000	0.311591
1849.000000	0.310470
1850.000000	0.309266
1851.000000	0.308650
1852.000000	0.307938
1853.000000	0.307906
1854.000000	0.308739
1855.000000	0.308683
1856.000000	0.308444
1857.000000	0.308007
1858.000000	0.307516
1859.000000	0.306681
1860.000000	0.306000
1861.000000	0.305198
1862.000000	0.304227
1863.000000	0.302964
1864.000000	0.302001
1865.000000	0.301116
1866.000000	0.300132
1867.000000	0.299223
1868.000000	0.298225
1869.000000	0.296442
1870.000000	0.295053
1871.000000	0.293709
1872.000000	0.291741
1873.000000	0.290187
1874.000000	0.288878
1875.000000	0.287465
1876.000000	0.285964
1877.000000	0.284152
1878.000000	0.282067
1879.000000	0.280162
1880.000000	0.277308
1881.000000	0.274446
1882.000000	0.272148
1883.000000	0.268978
1884.000000	0.265946
1885.000000	0.262710
1886.000000	0.259663
1887.000000	0.256315
1888.000000	0.253200
1889.000000	0.250681
1890.000000	0.247890
1891.000000	0.244537
1892.000000	0.241545
1893.000000	0.238243
1894.000000	0.234862
1895.000000	0.231383
1896.000000	0.228273
1897.000000	0.224355
1898.000000	0.220588
1899.000000	0.217354
1900.000000	0.214090
1901.000000	0.211348
1902.000000	0.208821
1903.000000	0.206118
1904.000000	0.203386
1905.000000	0.200825
1906.000000	0.198351
1907.000000	0.195899
1908.000000	0.193422
1909.000000	0.191491
1910.000000	0.190213
1911.000000	0.188943
1912.000000	0.187638
1913.000000	0.186591
1914.000000	0.185162
1915.000000	0.183844
1916.000000	0.182808
1917.000000	0.181457
1918.000000	0.179925
1919.000000	0.178773
1920.000000	0.177922
1921.000000	0.177207
1922.000000	0.176973
1923.000000	0.177326
1924.000000	0.177142
1925.000000	0.176938
1926.000000	0.177549
1927.000000	0.177392
1928.000000	0.177069
1929.000000	0.176594
1930.000000	0.176248
1931.000000	0.175528
1932.000000	0.175184
1933.000000	0.175447
1934.000000	0.175699
1935.000000	0.175553
1936.000000	0.175776
1937.000000	0.175724
1938.000000	0.175745
1939.000000	0.176019
1940.000000	0.176850
1941.000000	0.176798
1942.000000	0.176717
1943.000000	0.176614
1944.000000	0.175718
1945.000000	0.175440
1946.000000	0.175487
1947.000000	0.175243
1948.000000	0.175011
1949.000000	0.174885
1950.000000	0.174799
1951.000000	0.174377
1952.000000	0.173785
1953.000000	0.173226
1954.000000	0.172653
1955.000000	0.172038
1956.000000	0.171392
1957.000000	0.170860
1958.000000	0.170428
1959.000000	0.169983
1960.000000	0.169893
1961.000000	0.169803
1962.000000	0.169772
1963.000000	0.170010
1964.000000	0.169707
1965.000000	0.169339
1966.000000	0.169545
1967.000000	0.169383
1968.000000	0.169954
1969.000000	0.170646
1970.000000	0.171192
1971.000000	0.171411
1972.000000	0.171018
1973.000000	0.170797
1974.000000	0.170188
1975.000000	0.170043
1976.000000	0.170086
1977.000000	0.170609
1978.000000	0.170941
1979.000000	0.171133
1980.000000	0.171306
1981.000000	0.171423
1982.000000	0.171868
1983.000000	0.172200
1984.000000	0.172352
1985.000000	0.172450
1986.000000	0.172610
1987.000000	0.172467
1988.000000	0.172869
1989.000000	0.173620
1990.000000	0.174134
1991.000000	0.174921
1992.000000	0.175448
1993.000000	0.175904
1994.000000	0.176997
1995.000000	0.177639
1996.000000	0.178377
1997.000000	0.179101
1998.000000	0.179809
1999.000000	0.180329
2000.000000	0.180749
2001.000000	0.181233
2002.000000	0.181886
2003.000000	0.182756
2004.000000	0.183652
2005.000000	0.184246
2006.000000	0.185036
2007.000000	0.185860
2008.000000	0.186760
2009.000000	0.188136
2010.000000	0.189117
2011.000000	0.189638
2012.000000	0.190351
2013.000000	0.190956
2014.000000	0.191641
2015.000000	0.192255
2016.000000	0.193166
2017.000000	0.193923
2018.000000	0.194215
2019.000000	0.195340
2020.000000	0.196220
2021.000000	0.197032
2022.000000	0.198114
2023.000000	0.199019
2024.000000	0.199472
2025.000000	0.200299
2026.000000	0.201224
2027.000000	0.202110
2028.000000	0.202957
2029.000000	0.204122
2030.000000	0.205612
2031.000000	0.206596
2032.000000	0.207476
2033.000000	0.208426
2034.000000	0.209065
2035.000000	0.209198
2036.000000	0.209724
2037.000000	0.210434
2038.000000	0.211108
2039.000000	0.211901
2040.000000	0.212879
2041.000000	0.213318
2042.000000	0.214029
2043.000000	0.215037
2044.000000	0.215564
2045.000000	0.216111
2046.000000	0.216459
2047.000000	0.216973
2048.000000	0.217061
2049.000000	0.217877
2050.000000	0.219099
2051.000000	0.220000
2052.000000	0.220907
2053.000000	0.221671
2054.000000	0.222562
2055.000000	0.223382
2056.000000	0.223758
2057.000000	0.224153
2058.000000	0.224116
2059.000000	0.223987
2060.000000	0.224262
2061.000000	0.224875
2062.000000	0.225182
2063.000000	0.225704
2064.000000	0.225914
2065.000000	0.225607
2066.000000	0.226072
2067.000000	0.227145
2068.000000	0.228128
2069.000000	0.229349
2070.000000	0.230348
2071.000000	0.230714
2072.000000	0.230932
2073.000000	0.231470
2074.000000	0.232168
2075.000000	0.232711
2076.000000	0.233434
2077.000000	0.233859
2078.000000	0.233684
2079.000000	0.234230
2080.000000	0.235230
2081.000000	0.235955
2082.000000	0.237052
2083.000000	0.237962
2084.000000	0.238109
2085.000000	0.237889
2086.000000	0.238010
2087.000000	0.238132
2088.000000	0.238757
2089.000000	0.240114
2090.000000	0.241119
2091.000000	0.242571
2092.000000	0.243338
2093.000000	0.243600
2094.000000	0.244021
2095.000000	0.244209
2096.000000	0.244625
2097.000000	0.244955
2098.000000	0.245719
2099.000000	0.246402
2100.000000	0.246498
2101.000000	0.247704
2102.000000	0.249233
2103.000000	0.249938
2104.000000	0.250901
2105.000000	0.251333
2106.000000	0.250433
2107.000000	0.250710
2108.000000	0.251580
2109.000000	0.252276
2110.000000	0.253301
2111.000000	0.253913
2112.000000	0.254187
2113.000000	0.254332
2114.000000	0.254450
2115.000000	0.254879
2116.000000	0.255333
2117.000000	0.255269
2118.000000	0.255010
2119.000000	0.254831
2120.000000	0.255107
2121.000000	0.255660
2122.000000	0.256045
2123.000000	0.256729
2124.000000	0.257398
2125.000000	0.258177
2126.000000	0.258470
2127.000000	0.258732
2128.000000	0.258978
2129.000000	0.258608
2130.000000	0.258451
2131.000000	0.258683
2132.000000	0.258580
2133.000000	0.258199
2134.000000	0.257911
2135.000000	0.257254
2136.000000	0.256982
2137.000000	0.257422
2138.000000	0.258809
2139.000000	0.259338
2140.000000	0.259952
2141.000000	0.260805
2142.000000	0.261487
2143.000000	0.261612
2144.000000	0.262370
2145.000000	0.262468
2146.000000	0.261265
2147.000000	0.261108
2148.000000	0.260797
2149.000000	0.261658
2150.000000	0.262642
2151.000000	0.262211
2152.000000	0.262294
2153.000000	0.261559
2154.000000	0.261383
2155.000000	0.261185
2156.000000	0.261598
2157.000000	0.262616
2158.000000	0.263312
2159.000000	0.264513
2160.000000	0.265132
2161.000000	0.265396
2162.000000	0.265671
2163.000000	0.265459
2164.000000	0.265324
2165.000000	0.265090
2166.000000	0.264993
2167.000000	0.264593
2168.000000	0.264433
2169.000000	0.264204
2170.000000	0.263429
2171.000000	0.263556
2172.000000	0.264308
2173.000000	0.264619
2174.000000	0.265259
2175.000000	0.265726
2176.000000	0.266062
2177.000000	0.266134
2178.000000	0.266621
2179.000000	0.266348
2180.000000	0.264641
2181.000000	0.263775
2182.000000	0.261792
2183.000000	0.261399
2184.000000	0.262002
2185.000000	0.263465
2186.000000	0.264727
2187.000000	0.265235
2188.000000	0.265010
2189.000000	0.264456
2190.000000	0.264465
2191.000000	0.264618
2192.000000	0.263878
2193.000000	0.262118
2194.000000	0.261307
2195.000000	0.259473
2196.000000	0.259802
2197.000000	0.262051
2198.000000	0.263388
2199.000000	0.267024
2200.000000	0.268624
2201.000000	0.268471
2202.000000	0.268929
2203.000000	0.269138
2204.000000	0.267792
2205.000000	0.265349
2206.000000	0.264408
2207.000000	0.264098
2208.000000	0.261862
2209.000000	0.260612
2210.000000	0.260575
2211.000000	0.259746
2212.000000	0.259764
2213.000000	0.259653
2214.000000	0.260494
2215.000000	0.260209
2216.000000	0.259105
2217.000000	0.258734
2218.000000	0.258187
2219.000000	0.258534
2220.000000	0.259947
2221.000000	0.260559
2222.000000	0.261389
2223.000000	0.261941
2224.000000	0.262402
2225.000000	0.261590
2226.000000	0.261272
2227.000000	0.260843
2228.000000	0.261143
2229.000000	0.261988
2230.000000	0.263443
2231.000000	0.264382
2232.000000	0.265049
2233.000000	0.265774
2234.000000	0.265767
2235.000000	0.266834
2236.000000	0.266205
2237.000000	0.263584
2238.000000	0.263180
2239.000000	0.262539
2240.000000	0.263024
2241.000000	0.266074
2242.000000	0.267276
2243.000000	0.268614
2244.000000	0.268215
2245.000000	0.265706
2246.000000	0.264521
2247.000000	0.262715
2248.000000	0.261438
2249.000000	0.261487
2250.000000	0.260350
2251.000000	0.259842
2252.000000	0.258657
2253.000000	0.256302
2254.000000	0.256523
2255.000000	0.256919
2256.000000	0.257246
2257.000000	0.259248
2258.000000	0.262424
2259.000000	0.264186
2260.000000	0.265271
2261.000000	0.265270
2262.000000	0.264117
2263.000000	0.262577
2264.000000	0.259130
2265.000000	0.257830
2266.000000	0.256946
2267.000000	0.256559
2268.000000	0.258396
2269.000000	0.258265
2270.000000	0.257648
2271.000000	0.256363
2272.000000	0.252551
2273.000000	0.251252
2274.000000	0.251011
2275.000000	0.250569
2276.000000	0.251354
2277.000000	0.252343
2278.000000	0.250477
2279.000000	0.248162
2280.000000	0.248130
2281.000000	0.246243
2282.000000	0.246150
2283.000000	0.247341
2284.000000	0.245636
2285.000000	0.245095
2286.000000	0.244902
2287.000000	0.243093
2288.000000	0.242053
2289.000000	0.242257
2290.000000	0.242571
2291.000000	0.243373
2292.000000	0.244456
2293.000000	0.244244
2294.000000	0.243548
2295.000000	0.241485
2296.000000	0.241517
2297.000000	0.241690
2298.000000	0.241734
2299.000000	0.243859
2300.000000	0.242989
2301.000000	0.239225
2302.000000	0.238499
2303.000000	0.237579
2304.000000	0.237222
2305.000000	0.239813
2306.000000	0.240268
2307.000000	0.239537
2308.000000	0.238743
2309.000000	0.238144
2310.000000	0.238287
2311.000000	0.240016
2312.000000	0.241057
2313.000000	0.240474
2314.000000	0.238533
2315.000000	0.234838
2316.000000	0.232454
2317.000000	0.230160
2318.000000	0.229228
2319.000000	0.230892
2320.000000	0.232068
2321.000000	0.235276
2322.000000	0.237493
2323.000000	0.236065
2324.000000	0.233805
2325.000000	0.231471
2326.000000	0.229621
2327.000000	0.228511
2328.000000	0.228739
2329.000000	0.229829
2330.000000	0.230284
2331.000000	0.229713
2332.000000	0.228736
2333.000000	0.228514
2334.000000	0.227347
2335.000000	0.226618
2336.000000	0.227663
2337.000000	0.226116
2338.000000	0.221353
2339.000000	0.220731
2340.000000	0.220892
2341.000000	0.220677
2342.000000	0.223738
2343.000000	0.223093
2344.000000	0.220409
2345.000000	0.219074
2346.000000	0.215590
2347.000000	0.214499
2348.000000	0.216122
2349.000000	0.213207
2350.000000	0.212152
2351.000000	0.213683
2352.000000	0.214206
2353.000000	0.217394
2354.000000	0.219269
2355.000000	0.218264
2356.000000	0.215270
2357.000000	0.211248
2358.000000	0.208466
2359.000000	0.207788
2360.000000	0.207031
2361.000000	0.203561
2362.000000	0.200968
2363.000000	0.201526
2364.000000	0.202371
2365.000000	0.206664
2366.000000	0.208326
2367.000000	0.205005
2368.000000	0.204535
2369.000000	0.200280
2370.000000	0.195969
2371.000000	0.200607
2372.000000	0.199785
2373.000000	0.195074
2374.000000	0.197988
2375.000000	0.191623
2376.000000	0.182049
2377.000000	0.183482
2378.000000	0.183193
2379.000000	0.182799
2380.000000	0.188136
2381.000000	0.193778
2382.000000	0.190911
2383.000000	0.188268
2384.000000	0.187797
2385.000000	0.184990
2386.000000	0.189242
2387.000000	0.192333
2388.000000	0.195101
2389.000000	0.194573
2390.000000	0.188823
2391.000000	0.186100
2392.000000	0.182748
2393.000000	0.185087
2394.000000	0.184901
2395.000000	0.181225
2396.000000	0.179359
2397.000000	0.172119
2398.000000	0.173059
2399.000000	0.174857
2400.000000	0.173593
2401.000000	0.178401
2402.000000	0.174653
2403.000000	0.174899
2404.000000	0.178969
2405.000000	0.174133
2406.000000	0.173933
2407.000000	0.178278
2408.000000	0.176843
2409.000000	0.171658
2410.000000	0.169030
2411.000000	0.161772
2412.000000	0.159357
2413.000000	0.156292
2414.000000	0.153477
2415.000000	0.160161
2416.000000	0.158667
2417.000000	0.166158
2418.000000	0.172915
2419.000000	0.164713
2420.000000	0.158569
2421.000000	0.155907
2422.000000	0.157976
2423.000000	0.155214
2424.000000	0.154191
2425.000000	0.157037
2426.000000	0.150248
2427.000000	0.152639
2428.000000	0.162071
2429.000000	0.164762
2430.000000	0.180374
2431.000000	0.196116
2432.000000	0.193331
2433.000000	0.187301
2434.000000	0.180291
2435.000000	0.161834
2436.000000	0.153488
2437.000000	0.151116
2438.000000	0.131183
2439.000000	0.123709
2440.000000	0.129094
2441.000000	0.130805
2442.000000	0.143116
2443.000000	0.152690
2444.000000	0.153152
2445.000000	0.156974
2446.000000	0.156610
2447.000000	0.152830
2448.000000	0.150206
2449.000000	0.140649
2450.000000	0.139521
2451.000000	0.146797
2452.000000	0.148709
2453.000000	0.153108
2454.000000	0.155988
2455.000000	0.157528
2456.000000	0.166514
2457.000000	0.185427
2458.000000	0.187828
2459.000000	0.186684
2460.000000	0.190450
2461.000000	0.177260
2462.000000	0.170918
2463.000000	0.143124
2464.000000	0.123013
2465.000000	0.134006
2466.000000	0.139466
2467.000000	0.167447
2468.000000	0.184619
2469.000000	0.163874
2470.000000	0.145108
2471.000000	0.142270
2472.000000	0.148606
2473.000000	0.159230
2474.000000	0.176965
2475.000000	0.178892
2476.000000	0.165012
2477.000000	0.146057
2478.000000	0.141127
2479.000000	0.142376
2480.000000	0.124351
2481.000000	0.127954
2482.000000	0.143243
2483.000000	0.155037
2484.000000	0.185285
2485.000000	0.218800
2486.000000	0.204365
2487.000000	0.175070
2488.000000	0.162017
2489.000000	0.118377
2490.000000	0.110939
2491.000000	0.136663
2492.000000	0.140917
2493.000000	0.182873
2494.000000	0.177962
2495.000000	0.102225
2496.000000	0.072744
2497.000000	0.030893
2498.000000	0.018423
2499.000000	0.076970
2500.000000	0.090637
