# Wavelength	NAu-2-10_HEX-40_FV7-50_00001.asd.rts.txt
350.000000	0.192169
351.000000	0.174099
352.000000	0.173045
353.000000	0.181183
354.000000	0.189588
355.000000	0.180523
356.000000	0.175556
357.000000	0.179461
358.000000	0.184315
359.000000	0.180496
360.000000	0.176249
361.000000	0.181007
362.000000	0.181301
363.000000	0.180156
364.000000	0.179502
365.000000	0.176038
366.000000	0.175202
367.000000	0.177448
368.000000	0.179543
369.000000	0.181856
370.000000	0.182905
371.000000	0.181597
372.000000	0.183752
373.000000	0.185716
374.000000	0.185710
375.000000	0.188164
376.000000	0.188040
377.000000	0.186274
378.000000	0.190193
379.000000	0.186747
380.000000	0.181861
381.000000	0.186159
382.000000	0.186838
383.000000	0.185700
384.000000	0.185930
385.000000	0.189323
386.000000	0.190532
387.000000	0.189401
388.000000	0.190919
389.000000	0.192585
390.000000	0.193229
391.000000	0.192080
392.000000	0.191859
393.000000	0.192240
394.000000	0.192537
395.000000	0.192371
396.000000	0.192893
397.000000	0.194008
398.000000	0.193930
399.000000	0.194951
400.000000	0.195754
401.000000	0.193778
402.000000	0.195350
403.000000	0.197034
404.000000	0.195628
405.000000	0.195150
406.000000	0.195544
407.000000	0.196481
408.000000	0.197610
409.000000	0.197534
410.000000	0.196978
411.000000	0.197900
412.000000	0.198327
413.000000	0.198416
414.000000	0.198695
415.000000	0.198641
416.000000	0.198982
417.000000	0.199831
418.000000	0.199738
419.000000	0.199827
420.000000	0.200293
421.000000	0.200600
422.000000	0.200838
423.000000	0.201141
424.000000	0.201681
425.000000	0.202045
426.000000	0.202140
427.000000	0.202005
428.000000	0.201902
429.000000	0.202270
430.000000	0.203000
431.000000	0.203237
432.000000	0.203300
433.000000	0.203343
434.000000	0.203584
435.000000	0.204223
436.000000	0.204835
437.000000	0.205022
438.000000	0.205176
439.000000	0.205338
440.000000	0.205541
441.000000	0.205540
442.000000	0.205691
443.000000	0.205942
444.000000	0.206095
445.000000	0.206453
446.000000	0.206742
447.000000	0.206533
448.000000	0.206766
449.000000	0.207341
450.000000	0.207959
451.000000	0.208025
452.000000	0.208205
453.000000	0.208591
454.000000	0.208803
455.000000	0.209499
456.000000	0.210415
457.000000	0.210784
458.000000	0.211001
459.000000	0.211026
460.000000	0.210942
461.000000	0.211421
462.000000	0.211786
463.000000	0.211671
464.000000	0.211672
465.000000	0.212128
466.000000	0.212694
467.000000	0.212636
468.000000	0.212611
469.000000	0.212749
470.000000	0.213159
471.000000	0.213671
472.000000	0.213993
473.000000	0.214041
474.000000	0.214127
475.000000	0.214373
476.000000	0.214876
477.000000	0.215435
478.000000	0.215580
479.000000	0.215683
480.000000	0.216115
481.000000	0.216131
482.000000	0.216161
483.000000	0.216460
484.000000	0.216724
485.000000	0.217079
486.000000	0.217567
487.000000	0.217488
488.000000	0.217550
489.000000	0.217887
490.000000	0.218258
491.000000	0.218540
492.000000	0.218740
493.000000	0.218826
494.000000	0.219088
495.000000	0.219406
496.000000	0.219645
497.000000	0.219889
498.000000	0.220175
499.000000	0.220518
500.000000	0.220746
501.000000	0.220844
502.000000	0.220960
503.000000	0.221242
504.000000	0.221523
505.000000	0.221778
506.000000	0.222020
507.000000	0.222276
508.000000	0.222579
509.000000	0.222883
510.000000	0.223089
511.000000	0.223402
512.000000	0.223816
513.000000	0.224106
514.000000	0.224348
515.000000	0.224686
516.000000	0.225184
517.000000	0.225437
518.000000	0.225677
519.000000	0.226033
520.000000	0.226346
521.000000	0.226610
522.000000	0.226894
523.000000	0.227398
524.000000	0.227827
525.000000	0.228177
526.000000	0.228632
527.000000	0.229064
528.000000	0.229495
529.000000	0.230007
530.000000	0.230469
531.000000	0.231003
532.000000	0.231585
533.000000	0.232101
534.000000	0.232625
535.000000	0.233171
536.000000	0.233736
537.000000	0.234274
538.000000	0.234770
539.000000	0.235217
540.000000	0.235739
541.000000	0.236215
542.000000	0.236595
543.000000	0.237106
544.000000	0.237654
545.000000	0.238120
546.000000	0.238556
547.000000	0.239006
548.000000	0.239526
549.000000	0.240097
550.000000	0.240591
551.000000	0.241125
552.000000	0.241795
553.000000	0.242339
554.000000	0.242895
555.000000	0.243579
556.000000	0.244298
557.000000	0.244959
558.000000	0.245626
559.000000	0.246231
560.000000	0.246864
561.000000	0.247602
562.000000	0.248370
563.000000	0.248979
564.000000	0.249541
565.000000	0.250121
566.000000	0.250773
567.000000	0.251376
568.000000	0.251866
569.000000	0.252413
570.000000	0.252940
571.000000	0.253434
572.000000	0.253949
573.000000	0.254398
574.000000	0.254797
575.000000	0.255235
576.000000	0.255576
577.000000	0.255872
578.000000	0.256228
579.000000	0.256560
580.000000	0.256846
581.000000	0.257083
582.000000	0.257309
583.000000	0.257546
584.000000	0.257782
585.000000	0.257985
586.000000	0.258150
587.000000	0.258318
588.000000	0.258531
589.000000	0.258739
590.000000	0.258908
591.000000	0.259045
592.000000	0.259246
593.000000	0.259405
594.000000	0.259499
595.000000	0.259590
596.000000	0.259623
597.000000	0.259681
598.000000	0.259789
599.000000	0.259706
600.000000	0.259643
601.000000	0.259714
602.000000	0.259771
603.000000	0.259744
604.000000	0.259647
605.000000	0.259609
606.000000	0.259599
607.000000	0.259611
608.000000	0.259639
609.000000	0.259627
610.000000	0.259541
611.000000	0.259399
612.000000	0.259471
613.000000	0.259552
614.000000	0.259519
615.000000	0.259419
616.000000	0.259370
617.000000	0.259376
618.000000	0.259417
619.000000	0.259411
620.000000	0.259354
621.000000	0.259333
622.000000	0.259326
623.000000	0.259326
624.000000	0.259325
625.000000	0.259317
626.000000	0.259306
627.000000	0.259315
628.000000	0.259398
629.000000	0.259549
630.000000	0.259626
631.000000	0.259661
632.000000	0.259630
633.000000	0.259625
634.000000	0.259708
635.000000	0.259730
636.000000	0.259766
637.000000	0.259852
638.000000	0.259986
639.000000	0.260051
640.000000	0.260118
641.000000	0.260270
642.000000	0.260423
643.000000	0.260577
644.000000	0.260747
645.000000	0.260817
646.000000	0.260918
647.000000	0.261111
648.000000	0.261246
649.000000	0.261434
650.000000	0.261652
651.000000	0.261747
652.000000	0.261881
653.000000	0.262077
654.000000	0.262229
655.000000	0.262444
656.000000	0.262687
657.000000	0.262863
658.000000	0.263023
659.000000	0.263229
660.000000	0.263481
661.000000	0.263709
662.000000	0.263885
663.000000	0.264119
664.000000	0.264508
665.000000	0.264812
666.000000	0.265056
667.000000	0.265306
668.000000	0.265633
669.000000	0.265954
670.000000	0.266253
671.000000	0.266679
672.000000	0.267040
673.000000	0.267323
674.000000	0.267676
675.000000	0.267964
676.000000	0.268239
677.000000	0.268611
678.000000	0.269052
679.000000	0.269471
680.000000	0.269832
681.000000	0.270219
682.000000	0.270649
683.000000	0.271051
684.000000	0.271470
685.000000	0.271902
686.000000	0.272356
687.000000	0.272800
688.000000	0.273258
689.000000	0.273709
690.000000	0.274175
691.000000	0.274681
692.000000	0.275177
693.000000	0.275695
694.000000	0.276200
695.000000	0.276719
696.000000	0.277251
697.000000	0.277784
698.000000	0.278313
699.000000	0.278856
700.000000	0.279427
701.000000	0.280012
702.000000	0.280588
703.000000	0.281130
704.000000	0.281646
705.000000	0.282210
706.000000	0.282781
707.000000	0.283348
708.000000	0.283902
709.000000	0.284425
710.000000	0.284943
711.000000	0.285538
712.000000	0.286115
713.000000	0.286660
714.000000	0.287210
715.000000	0.287761
716.000000	0.288320
717.000000	0.288875
718.000000	0.289442
719.000000	0.289981
720.000000	0.290505
721.000000	0.291197
722.000000	0.291839
723.000000	0.292393
724.000000	0.292895
725.000000	0.293341
726.000000	0.293864
727.000000	0.294467
728.000000	0.295002
729.000000	0.295483
730.000000	0.295911
731.000000	0.296406
732.000000	0.296868
733.000000	0.297335
734.000000	0.297915
735.000000	0.298355
736.000000	0.298766
737.000000	0.299162
738.000000	0.299601
739.000000	0.300091
740.000000	0.300470
741.000000	0.300872
742.000000	0.301288
743.000000	0.301684
744.000000	0.302082
745.000000	0.302451
746.000000	0.302846
747.000000	0.303238
748.000000	0.303591
749.000000	0.303920
750.000000	0.304208
751.000000	0.304464
752.000000	0.304735
753.000000	0.305062
754.000000	0.305450
755.000000	0.305877
756.000000	0.306242
757.000000	0.306430
758.000000	0.306716
759.000000	0.306983
760.000000	0.307121
761.000000	0.307361
762.000000	0.307592
763.000000	0.307771
764.000000	0.307971
765.000000	0.308199
766.000000	0.308465
767.000000	0.308749
768.000000	0.308952
769.000000	0.309087
770.000000	0.309193
771.000000	0.309334
772.000000	0.309532
773.000000	0.309719
774.000000	0.309919
775.000000	0.310038
776.000000	0.310209
777.000000	0.310471
778.000000	0.310584
779.000000	0.310629
780.000000	0.310699
781.000000	0.310876
782.000000	0.310925
783.000000	0.311010
784.000000	0.311159
785.000000	0.311179
786.000000	0.311222
787.000000	0.311345
788.000000	0.311393
789.000000	0.311466
790.000000	0.311571
791.000000	0.311715
792.000000	0.311853
793.000000	0.311901
794.000000	0.311845
795.000000	0.311906
796.000000	0.312005
797.000000	0.312060
798.000000	0.311986
799.000000	0.311916
800.000000	0.311903
801.000000	0.311961
802.000000	0.311988
803.000000	0.312001
804.000000	0.312044
805.000000	0.312062
806.000000	0.312052
807.000000	0.312084
808.000000	0.312111
809.000000	0.312129
810.000000	0.312146
811.000000	0.312152
812.000000	0.312128
813.000000	0.312187
814.000000	0.312292
815.000000	0.312293
816.000000	0.312318
817.000000	0.312365
818.000000	0.312324
819.000000	0.312285
820.000000	0.312326
821.000000	0.312385
822.000000	0.312362
823.000000	0.312321
824.000000	0.312222
825.000000	0.312137
826.000000	0.312187
827.000000	0.312175
828.000000	0.312087
829.000000	0.312231
830.000000	0.312254
831.000000	0.312158
832.000000	0.311972
833.000000	0.311823
834.000000	0.311736
835.000000	0.311729
836.000000	0.311742
837.000000	0.311645
838.000000	0.311485
839.000000	0.311404
840.000000	0.311316
841.000000	0.311265
842.000000	0.311234
843.000000	0.311107
844.000000	0.310968
845.000000	0.310823
846.000000	0.310671
847.000000	0.310694
848.000000	0.310786
849.000000	0.310803
850.000000	0.310657
851.000000	0.310526
852.000000	0.310487
853.000000	0.310354
854.000000	0.310159
855.000000	0.310075
856.000000	0.310074
857.000000	0.309938
858.000000	0.309835
859.000000	0.309771
860.000000	0.309697
861.000000	0.309548
862.000000	0.309383
863.000000	0.309233
864.000000	0.309114
865.000000	0.309028
866.000000	0.309009
867.000000	0.309082
868.000000	0.309088
869.000000	0.308989
870.000000	0.308908
871.000000	0.308703
872.000000	0.308493
873.000000	0.308302
874.000000	0.308141
875.000000	0.308062
876.000000	0.307983
877.000000	0.307730
878.000000	0.307502
879.000000	0.307331
880.000000	0.307095
881.000000	0.306937
882.000000	0.306773
883.000000	0.306574
884.000000	0.306288
885.000000	0.306102
886.000000	0.306009
887.000000	0.305981
888.000000	0.305906
889.000000	0.305706
890.000000	0.305410
891.000000	0.305287
892.000000	0.305040
893.000000	0.304723
894.000000	0.304510
895.000000	0.304313
896.000000	0.304167
897.000000	0.304027
898.000000	0.303838
899.000000	0.303672
900.000000	0.303597
901.000000	0.303514
902.000000	0.303215
903.000000	0.303125
904.000000	0.303059
905.000000	0.302657
906.000000	0.302314
907.000000	0.302029
908.000000	0.301871
909.000000	0.301803
910.000000	0.301549
911.000000	0.301297
912.000000	0.301230
913.000000	0.301007
914.000000	0.300719
915.000000	0.300453
916.000000	0.300127
917.000000	0.299820
918.000000	0.299688
919.000000	0.299717
920.000000	0.299508
921.000000	0.299247
922.000000	0.298972
923.000000	0.298642
924.000000	0.298425
925.000000	0.298133
926.000000	0.297760
927.000000	0.297553
928.000000	0.297455
929.000000	0.297321
930.000000	0.297032
931.000000	0.296778
932.000000	0.296532
933.000000	0.296380
934.000000	0.296417
935.000000	0.296134
936.000000	0.295871
937.000000	0.295797
938.000000	0.295323
939.000000	0.295035
940.000000	0.294862
941.000000	0.294510
942.000000	0.294052
943.000000	0.293856
944.000000	0.293870
945.000000	0.293640
946.000000	0.293326
947.000000	0.293051
948.000000	0.292821
949.000000	0.292474
950.000000	0.292261
951.000000	0.292120
952.000000	0.291815
953.000000	0.291594
954.000000	0.291504
955.000000	0.291395
956.000000	0.290994
957.000000	0.290751
958.000000	0.290599
959.000000	0.290404
960.000000	0.290283
961.000000	0.290103
962.000000	0.289839
963.000000	0.289655
964.000000	0.289317
965.000000	0.289044
966.000000	0.288878
967.000000	0.288576
968.000000	0.288219
969.000000	0.287930
970.000000	0.287910
971.000000	0.287731
972.000000	0.287595
973.000000	0.287483
974.000000	0.287240
975.000000	0.287086
976.000000	0.286871
977.000000	0.286500
978.000000	0.286290
979.000000	0.286204
980.000000	0.286096
981.000000	0.286170
982.000000	0.285945
983.000000	0.285638
984.000000	0.285350
985.000000	0.284895
986.000000	0.284779
987.000000	0.284883
988.000000	0.284902
989.000000	0.284850
990.000000	0.284487
991.000000	0.284104
992.000000	0.284054
993.000000	0.283735
994.000000	0.283562
995.000000	0.283806
996.000000	0.284113
997.000000	0.283630
998.000000	0.283025
999.000000	0.282877
1000.000000	0.283055
1001.000000	0.282391
1002.000000	0.283096
1003.000000	0.283470
1004.000000	0.283364
1005.000000	0.282954
1006.000000	0.282330
1007.000000	0.281026
1008.000000	0.280396
1009.000000	0.280617
1010.000000	0.280771
1011.000000	0.281333
1012.000000	0.281970
1013.000000	0.281503
1014.000000	0.281075
1015.000000	0.281156
1016.000000	0.281250
1017.000000	0.281493
1018.000000	0.281983
1019.000000	0.281997
1020.000000	0.281806
1021.000000	0.281360
1022.000000	0.280628
1023.000000	0.280269
1024.000000	0.279727
1025.000000	0.279628
1026.000000	0.280194
1027.000000	0.280221
1028.000000	0.280161
1029.000000	0.280428
1030.000000	0.279628
1031.000000	0.278856
1032.000000	0.279091
1033.000000	0.279212
1034.000000	0.279294
1035.000000	0.279834
1036.000000	0.280022
1037.000000	0.279706
1038.000000	0.279786
1039.000000	0.280133
1040.000000	0.280389
1041.000000	0.281141
1042.000000	0.281316
1043.000000	0.281241
1044.000000	0.281304
1045.000000	0.280951
1046.000000	0.281222
1047.000000	0.281348
1048.000000	0.281501
1049.000000	0.281755
1050.000000	0.282108
1051.000000	0.282245
1052.000000	0.282498
1053.000000	0.282476
1054.000000	0.282091
1055.000000	0.282262
1056.000000	0.282662
1057.000000	0.283120
1058.000000	0.283546
1059.000000	0.283620
1060.000000	0.283372
1061.000000	0.283039
1062.000000	0.283475
1063.000000	0.283809
1064.000000	0.283954
1065.000000	0.284113
1066.000000	0.284433
1067.000000	0.284593
1068.000000	0.284692
1069.000000	0.284884
1070.000000	0.284989
1071.000000	0.284933
1072.000000	0.284967
1073.000000	0.285095
1074.000000	0.285337
1075.000000	0.285771
1076.000000	0.286090
1077.000000	0.286261
1078.000000	0.286544
1079.000000	0.286793
1080.000000	0.286886
1081.000000	0.286984
1082.000000	0.287299
1083.000000	0.287485
1084.000000	0.287370
1085.000000	0.287575
1086.000000	0.288147
1087.000000	0.288395
1088.000000	0.288405
1089.000000	0.288558
1090.000000	0.288579
1091.000000	0.288581
1092.000000	0.288879
1093.000000	0.289438
1094.000000	0.289734
1095.000000	0.289844
1096.000000	0.290254
1097.000000	0.290832
1098.000000	0.291145
1099.000000	0.291520
1100.000000	0.291786
1101.000000	0.291551
1102.000000	0.291724
1103.000000	0.292327
1104.000000	0.292500
1105.000000	0.292457
1106.000000	0.292612
1107.000000	0.292550
1108.000000	0.292564
1109.000000	0.292902
1110.000000	0.293122
1111.000000	0.293272
1112.000000	0.293230
1113.000000	0.293445
1114.000000	0.293852
1115.000000	0.293993
1116.000000	0.294171
1117.000000	0.294225
1118.000000	0.293875
1119.000000	0.293892
1120.000000	0.294135
1121.000000	0.294249
1122.000000	0.294533
1123.000000	0.294912
1124.000000	0.295098
1125.000000	0.295264
1126.000000	0.295381
1127.000000	0.295478
1128.000000	0.295530
1129.000000	0.295456
1130.000000	0.295605
1131.000000	0.295867
1132.000000	0.296072
1133.000000	0.296496
1134.000000	0.296629
1135.000000	0.296484
1136.000000	0.296559
1137.000000	0.296609
1138.000000	0.296636
1139.000000	0.296815
1140.000000	0.297047
1141.000000	0.297186
1142.000000	0.297363
1143.000000	0.297700
1144.000000	0.297965
1145.000000	0.298036
1146.000000	0.297908
1147.000000	0.297936
1148.000000	0.297791
1149.000000	0.297843
1150.000000	0.298125
1151.000000	0.298178
1152.000000	0.298110
1153.000000	0.298133
1154.000000	0.298055
1155.000000	0.297999
1156.000000	0.297952
1157.000000	0.297999
1158.000000	0.298017
1159.000000	0.298063
1160.000000	0.298283
1161.000000	0.298358
1162.000000	0.298471
1163.000000	0.298515
1164.000000	0.298348
1165.000000	0.298178
1166.000000	0.298195
1167.000000	0.298129
1168.000000	0.298242
1169.000000	0.298723
1170.000000	0.298858
1171.000000	0.298911
1172.000000	0.298999
1173.000000	0.298942
1174.000000	0.298924
1175.000000	0.298941
1176.000000	0.298899
1177.000000	0.298883
1178.000000	0.298808
1179.000000	0.298630
1180.000000	0.298528
1181.000000	0.298521
1182.000000	0.298438
1183.000000	0.298598
1184.000000	0.298843
1185.000000	0.298877
1186.000000	0.298823
1187.000000	0.298875
1188.000000	0.298847
1189.000000	0.298827
1190.000000	0.298950
1191.000000	0.299003
1192.000000	0.299030
1193.000000	0.299209
1194.000000	0.299466
1195.000000	0.299584
1196.000000	0.299588
1197.000000	0.299615
1198.000000	0.299537
1199.000000	0.299520
1200.000000	0.299520
1201.000000	0.299622
1202.000000	0.299612
1203.000000	0.299755
1204.000000	0.299700
1205.000000	0.299557
1206.000000	0.299405
1207.000000	0.299197
1208.000000	0.299062
1209.000000	0.299014
1210.000000	0.298983
1211.000000	0.298966
1212.000000	0.298994
1213.000000	0.299143
1214.000000	0.299250
1215.000000	0.299425
1216.000000	0.299439
1217.000000	0.299250
1218.000000	0.299193
1219.000000	0.299125
1220.000000	0.299130
1221.000000	0.299235
1222.000000	0.299290
1223.000000	0.299272
1224.000000	0.299365
1225.000000	0.299378
1226.000000	0.299361
1227.000000	0.299333
1228.000000	0.299270
1229.000000	0.299167
1230.000000	0.298995
1231.000000	0.298893
1232.000000	0.298831
1233.000000	0.298968
1234.000000	0.299346
1235.000000	0.299476
1236.000000	0.299544
1237.000000	0.299546
1238.000000	0.299223
1239.000000	0.299146
1240.000000	0.299107
1241.000000	0.299223
1242.000000	0.299465
1243.000000	0.299486
1244.000000	0.299325
1245.000000	0.299238
1246.000000	0.299154
1247.000000	0.299247
1248.000000	0.299453
1249.000000	0.299555
1250.000000	0.299626
1251.000000	0.299745
1252.000000	0.299780
1253.000000	0.299916
1254.000000	0.299831
1255.000000	0.299465
1256.000000	0.299341
1257.000000	0.299180
1258.000000	0.299242
1259.000000	0.299590
1260.000000	0.299734
1261.000000	0.299775
1262.000000	0.299840
1263.000000	0.299871
1264.000000	0.299830
1265.000000	0.299904
1266.000000	0.299930
1267.000000	0.299895
1268.000000	0.299878
1269.000000	0.299822
1270.000000	0.299890
1271.000000	0.299834
1272.000000	0.299806
1273.000000	0.299919
1274.000000	0.299901
1275.000000	0.299876
1276.000000	0.299941
1277.000000	0.299964
1278.000000	0.299730
1279.000000	0.299733
1280.000000	0.299765
1281.000000	0.299838
1282.000000	0.300198
1283.000000	0.300373
1284.000000	0.300408
1285.000000	0.300465
1286.000000	0.300455
1287.000000	0.300285
1288.000000	0.300271
1289.000000	0.300367
1290.000000	0.300253
1291.000000	0.300164
1292.000000	0.300259
1293.000000	0.300217
1294.000000	0.300261
1295.000000	0.300442
1296.000000	0.300268
1297.000000	0.300060
1298.000000	0.300091
1299.000000	0.300023
1300.000000	0.300026
1301.000000	0.300195
1302.000000	0.300200
1303.000000	0.300166
1304.000000	0.300114
1305.000000	0.300153
1306.000000	0.300088
1307.000000	0.300001
1308.000000	0.299936
1309.000000	0.299826
1310.000000	0.299696
1311.000000	0.299546
1312.000000	0.299424
1313.000000	0.299334
1314.000000	0.299426
1315.000000	0.299565
1316.000000	0.299499
1317.000000	0.299411
1318.000000	0.299362
1319.000000	0.299178
1320.000000	0.299148
1321.000000	0.299213
1322.000000	0.299237
1323.000000	0.299344
1324.000000	0.299502
1325.000000	0.299521
1326.000000	0.299382
1327.000000	0.299234
1328.000000	0.299191
1329.000000	0.299089
1330.000000	0.299009
1331.000000	0.298916
1332.000000	0.298863
1333.000000	0.298805
1334.000000	0.298806
1335.000000	0.298809
1336.000000	0.298758
1337.000000	0.298749
1338.000000	0.298714
1339.000000	0.298721
1340.000000	0.298702
1341.000000	0.298660
1342.000000	0.298520
1343.000000	0.298352
1344.000000	0.298191
1345.000000	0.298016
1346.000000	0.297977
1347.000000	0.297787
1348.000000	0.297783
1349.000000	0.297862
1350.000000	0.297718
1351.000000	0.297639
1352.000000	0.297609
1353.000000	0.297488
1354.000000	0.297384
1355.000000	0.297234
1356.000000	0.297123
1357.000000	0.296964
1358.000000	0.296839
1359.000000	0.296853
1360.000000	0.296787
1361.000000	0.296650
1362.000000	0.296560
1363.000000	0.296556
1364.000000	0.296442
1365.000000	0.296207
1366.000000	0.296057
1367.000000	0.295893
1368.000000	0.295655
1369.000000	0.295682
1370.000000	0.295746
1371.000000	0.295729
1372.000000	0.295710
1373.000000	0.295502
1374.000000	0.295263
1375.000000	0.295110
1376.000000	0.294931
1377.000000	0.294814
1378.000000	0.294751
1379.000000	0.294575
1380.000000	0.294366
1381.000000	0.294047
1382.000000	0.293880
1383.000000	0.293855
1384.000000	0.293555
1385.000000	0.293334
1386.000000	0.293151
1387.000000	0.292741
1388.000000	0.292490
1389.000000	0.292375
1390.000000	0.292049
1391.000000	0.291521
1392.000000	0.291072
1393.000000	0.290717
1394.000000	0.290469
1395.000000	0.290099
1396.000000	0.289828
1397.000000	0.289374
1398.000000	0.288568
1399.000000	0.288018
1400.000000	0.287622
1401.000000	0.287095
1402.000000	0.286592
1403.000000	0.286100
1404.000000	0.285568
1405.000000	0.284972
1406.000000	0.284480
1407.000000	0.283998
1408.000000	0.283329
1409.000000	0.282823
1410.000000	0.282408
1411.000000	0.281931
1412.000000	0.281582
1413.000000	0.281126
1414.000000	0.280481
1415.000000	0.279933
1416.000000	0.279384
1417.000000	0.278880
1418.000000	0.278560
1419.000000	0.278235
1420.000000	0.277722
1421.000000	0.277318
1422.000000	0.276832
1423.000000	0.276331
1424.000000	0.276009
1425.000000	0.275700
1426.000000	0.275228
1427.000000	0.274880
1428.000000	0.274474
1429.000000	0.273974
1430.000000	0.273742
1431.000000	0.273506
1432.000000	0.273177
1433.000000	0.272872
1434.000000	0.272567
1435.000000	0.272231
1436.000000	0.271921
1437.000000	0.271659
1438.000000	0.271382
1439.000000	0.271126
1440.000000	0.270899
1441.000000	0.270751
1442.000000	0.270548
1443.000000	0.270253
1444.000000	0.269955
1445.000000	0.269825
1446.000000	0.269682
1447.000000	0.269618
1448.000000	0.269555
1449.000000	0.269375
1450.000000	0.269240
1451.000000	0.269169
1452.000000	0.269089
1453.000000	0.268958
1454.000000	0.268753
1455.000000	0.268573
1456.000000	0.268463
1457.000000	0.268485
1458.000000	0.268591
1459.000000	0.268610
1460.000000	0.268659
1461.000000	0.268659
1462.000000	0.268523
1463.000000	0.268397
1464.000000	0.268325
1465.000000	0.268344
1466.000000	0.268401
1467.000000	0.268506
1468.000000	0.268606
1469.000000	0.268668
1470.000000	0.268697
1471.000000	0.268654
1472.000000	0.268583
1473.000000	0.268673
1474.000000	0.268809
1475.000000	0.269049
1476.000000	0.269259
1477.000000	0.269311
1478.000000	0.269306
1479.000000	0.269323
1480.000000	0.269466
1481.000000	0.269601
1482.000000	0.269866
1483.000000	0.270082
1484.000000	0.270301
1485.000000	0.270490
1486.000000	0.270669
1487.000000	0.270881
1488.000000	0.271073
1489.000000	0.271301
1490.000000	0.271475
1491.000000	0.271664
1492.000000	0.271801
1493.000000	0.272035
1494.000000	0.272297
1495.000000	0.272551
1496.000000	0.272901
1497.000000	0.273094
1498.000000	0.273212
1499.000000	0.273320
1500.000000	0.273327
1501.000000	0.273378
1502.000000	0.273531
1503.000000	0.273691
1504.000000	0.273860
1505.000000	0.274072
1506.000000	0.274231
1507.000000	0.274317
1508.000000	0.274483
1509.000000	0.274619
1510.000000	0.274720
1511.000000	0.274878
1512.000000	0.275012
1513.000000	0.275227
1514.000000	0.275503
1515.000000	0.275635
1516.000000	0.275748
1517.000000	0.275781
1518.000000	0.275640
1519.000000	0.275580
1520.000000	0.275679
1521.000000	0.275596
1522.000000	0.275654
1523.000000	0.275803
1524.000000	0.275713
1525.000000	0.275873
1526.000000	0.276125
1527.000000	0.276170
1528.000000	0.276227
1529.000000	0.276225
1530.000000	0.276104
1531.000000	0.276179
1532.000000	0.276357
1533.000000	0.276439
1534.000000	0.276554
1535.000000	0.276655
1536.000000	0.276634
1537.000000	0.276768
1538.000000	0.276884
1539.000000	0.276745
1540.000000	0.276762
1541.000000	0.276816
1542.000000	0.276750
1543.000000	0.276908
1544.000000	0.277002
1545.000000	0.276994
1546.000000	0.277049
1547.000000	0.277125
1548.000000	0.277248
1549.000000	0.277247
1550.000000	0.277168
1551.000000	0.277124
1552.000000	0.277121
1553.000000	0.277187
1554.000000	0.277291
1555.000000	0.277340
1556.000000	0.277236
1557.000000	0.277199
1558.000000	0.277198
1559.000000	0.277186
1560.000000	0.277089
1561.000000	0.277017
1562.000000	0.276935
1563.000000	0.276822
1564.000000	0.276793
1565.000000	0.276780
1566.000000	0.276752
1567.000000	0.276852
1568.000000	0.276878
1569.000000	0.277010
1570.000000	0.277045
1571.000000	0.276944
1572.000000	0.276915
1573.000000	0.276927
1574.000000	0.276870
1575.000000	0.276824
1576.000000	0.276760
1577.000000	0.276582
1578.000000	0.276481
1579.000000	0.276493
1580.000000	0.276473
1581.000000	0.276516
1582.000000	0.276528
1583.000000	0.276490
1584.000000	0.276439
1585.000000	0.276496
1586.000000	0.276556
1587.000000	0.276563
1588.000000	0.276634
1589.000000	0.276810
1590.000000	0.276823
1591.000000	0.276817
1592.000000	0.276824
1593.000000	0.276714
1594.000000	0.276720
1595.000000	0.276820
1596.000000	0.276966
1597.000000	0.277283
1598.000000	0.277445
1599.000000	0.277648
1600.000000	0.277673
1601.000000	0.277566
1602.000000	0.277523
1603.000000	0.277425
1604.000000	0.277428
1605.000000	0.277584
1606.000000	0.277541
1607.000000	0.277470
1608.000000	0.277383
1609.000000	0.277200
1610.000000	0.277118
1611.000000	0.277114
1612.000000	0.277103
1613.000000	0.277210
1614.000000	0.277274
1615.000000	0.277386
1616.000000	0.277514
1617.000000	0.277602
1618.000000	0.277703
1619.000000	0.277781
1620.000000	0.277901
1621.000000	0.278164
1622.000000	0.278278
1623.000000	0.278239
1624.000000	0.278339
1625.000000	0.278284
1626.000000	0.278264
1627.000000	0.278413
1628.000000	0.278515
1629.000000	0.278532
1630.000000	0.278609
1631.000000	0.278715
1632.000000	0.278708
1633.000000	0.278585
1634.000000	0.278587
1635.000000	0.278662
1636.000000	0.278662
1637.000000	0.278774
1638.000000	0.278752
1639.000000	0.278590
1640.000000	0.278517
1641.000000	0.278464
1642.000000	0.278510
1643.000000	0.278741
1644.000000	0.278812
1645.000000	0.278862
1646.000000	0.278835
1647.000000	0.278650
1648.000000	0.278658
1649.000000	0.278883
1650.000000	0.278971
1651.000000	0.279103
1652.000000	0.279219
1653.000000	0.279190
1654.000000	0.279312
1655.000000	0.279527
1656.000000	0.279540
1657.000000	0.279545
1658.000000	0.279537
1659.000000	0.279516
1660.000000	0.279551
1661.000000	0.279529
1662.000000	0.279615
1663.000000	0.279698
1664.000000	0.279845
1665.000000	0.280152
1666.000000	0.280350
1667.000000	0.280433
1668.000000	0.280520
1669.000000	0.280527
1670.000000	0.280543
1671.000000	0.280662
1672.000000	0.280801
1673.000000	0.280898
1674.000000	0.280969
1675.000000	0.281153
1676.000000	0.281305
1677.000000	0.281496
1678.000000	0.281518
1679.000000	0.281489
1680.000000	0.281470
1681.000000	0.281431
1682.000000	0.281601
1683.000000	0.281817
1684.000000	0.281961
1685.000000	0.282098
1686.000000	0.281978
1687.000000	0.281758
1688.000000	0.281618
1689.000000	0.281589
1690.000000	0.281757
1691.000000	0.282066
1692.000000	0.282153
1693.000000	0.282121
1694.000000	0.282020
1695.000000	0.282010
1696.000000	0.282107
1697.000000	0.282128
1698.000000	0.282297
1699.000000	0.282344
1700.000000	0.282217
1701.000000	0.282257
1702.000000	0.282086
1703.000000	0.282041
1704.000000	0.282347
1705.000000	0.282397
1706.000000	0.282315
1707.000000	0.282381
1708.000000	0.282272
1709.000000	0.282335
1710.000000	0.282913
1711.000000	0.283072
1712.000000	0.283037
1713.000000	0.283057
1714.000000	0.282839
1715.000000	0.282855
1716.000000	0.283165
1717.000000	0.283261
1718.000000	0.283281
1719.000000	0.283293
1720.000000	0.283215
1721.000000	0.283231
1722.000000	0.283385
1723.000000	0.283364
1724.000000	0.283249
1725.000000	0.283259
1726.000000	0.283157
1727.000000	0.283114
1728.000000	0.283178
1729.000000	0.283073
1730.000000	0.282888
1731.000000	0.282903
1732.000000	0.283049
1733.000000	0.283107
1734.000000	0.283083
1735.000000	0.283162
1736.000000	0.283204
1737.000000	0.283174
1738.000000	0.283218
1739.000000	0.283277
1740.000000	0.283174
1741.000000	0.283223
1742.000000	0.283501
1743.000000	0.283575
1744.000000	0.283488
1745.000000	0.283606
1746.000000	0.283769
1747.000000	0.283945
1748.000000	0.284046
1749.000000	0.284108
1750.000000	0.284033
1751.000000	0.283952
1752.000000	0.283970
1753.000000	0.283663
1754.000000	0.283614
1755.000000	0.283827
1756.000000	0.283889
1757.000000	0.284037
1758.000000	0.284091
1759.000000	0.283943
1760.000000	0.283887
1761.000000	0.283805
1762.000000	0.283755
1763.000000	0.283801
1764.000000	0.283760
1765.000000	0.283603
1766.000000	0.283585
1767.000000	0.283510
1768.000000	0.283473
1769.000000	0.283674
1770.000000	0.283765
1771.000000	0.283736
1772.000000	0.283772
1773.000000	0.283702
1774.000000	0.283835
1775.000000	0.284272
1776.000000	0.284314
1777.000000	0.284215
1778.000000	0.284227
1779.000000	0.283976
1780.000000	0.283999
1781.000000	0.284280
1782.000000	0.284365
1783.000000	0.284396
1784.000000	0.284704
1785.000000	0.284839
1786.000000	0.284958
1787.000000	0.284946
1788.000000	0.284816
1789.000000	0.284724
1790.000000	0.284777
1791.000000	0.284727
1792.000000	0.284681
1793.000000	0.284667
1794.000000	0.284600
1795.000000	0.284658
1796.000000	0.284862
1797.000000	0.284932
1798.000000	0.284974
1799.000000	0.285065
1800.000000	0.285208
1801.000000	0.285132
1802.000000	0.285294
1803.000000	0.284820
1804.000000	0.284929
1805.000000	0.285358
1806.000000	0.285258
1807.000000	0.285064
1808.000000	0.284883
1809.000000	0.284279
1810.000000	0.283411
1811.000000	0.283578
1812.000000	0.284597
1813.000000	0.284934
1814.000000	0.285742
1815.000000	0.286022
1816.000000	0.285597
1817.000000	0.285385
1818.000000	0.285144
1819.000000	0.285282
1820.000000	0.284899
1821.000000	0.284777
1822.000000	0.284545
1823.000000	0.283855
1824.000000	0.283750
1825.000000	0.284046
1826.000000	0.284138
1827.000000	0.284353
1828.000000	0.284441
1829.000000	0.284395
1830.000000	0.284632
1831.000000	0.284798
1832.000000	0.285197
1833.000000	0.285333
1834.000000	0.285201
1835.000000	0.285327
1836.000000	0.285656
1837.000000	0.285672
1838.000000	0.285903
1839.000000	0.285203
1840.000000	0.284547
1841.000000	0.283922
1842.000000	0.283510
1843.000000	0.283334
1844.000000	0.283169
1845.000000	0.282665
1846.000000	0.282858
1847.000000	0.283781
1848.000000	0.283742
1849.000000	0.283379
1850.000000	0.283820
1851.000000	0.283837
1852.000000	0.283188
1853.000000	0.282915
1854.000000	0.282735
1855.000000	0.282266
1856.000000	0.281037
1857.000000	0.280836
1858.000000	0.280837
1859.000000	0.281257
1860.000000	0.281480
1861.000000	0.280731
1862.000000	0.280056
1863.000000	0.278553
1864.000000	0.277968
1865.000000	0.278100
1866.000000	0.277564
1867.000000	0.277079
1868.000000	0.276587
1869.000000	0.274783
1870.000000	0.273391
1871.000000	0.272597
1872.000000	0.271292
1873.000000	0.270600
1874.000000	0.270802
1875.000000	0.270243
1876.000000	0.269084
1877.000000	0.268537
1878.000000	0.267492
1879.000000	0.265817
1880.000000	0.265009
1881.000000	0.263531
1882.000000	0.261792
1883.000000	0.260065
1884.000000	0.258243
1885.000000	0.255670
1886.000000	0.253831
1887.000000	0.252495
1888.000000	0.250587
1889.000000	0.248581
1890.000000	0.246572
1891.000000	0.243715
1892.000000	0.241378
1893.000000	0.239823
1894.000000	0.237744
1895.000000	0.235773
1896.000000	0.234383
1897.000000	0.232406
1898.000000	0.229396
1899.000000	0.227453
1900.000000	0.225039
1901.000000	0.222616
1902.000000	0.221184
1903.000000	0.219280
1904.000000	0.217544
1905.000000	0.216174
1906.000000	0.214528
1907.000000	0.212844
1908.000000	0.210942
1909.000000	0.209361
1910.000000	0.208097
1911.000000	0.206736
1912.000000	0.205916
1913.000000	0.204803
1914.000000	0.203272
1915.000000	0.201898
1916.000000	0.200979
1917.000000	0.200341
1918.000000	0.200351
1919.000000	0.200276
1920.000000	0.199539
1921.000000	0.198644
1922.000000	0.197747
1923.000000	0.197143
1924.000000	0.197390
1925.000000	0.197672
1926.000000	0.197993
1927.000000	0.198504
1928.000000	0.198676
1929.000000	0.198793
1930.000000	0.198991
1931.000000	0.198700
1932.000000	0.197984
1933.000000	0.197602
1934.000000	0.197393
1935.000000	0.197125
1936.000000	0.197039
1937.000000	0.197295
1938.000000	0.197362
1939.000000	0.197386
1940.000000	0.197551
1941.000000	0.197919
1942.000000	0.197445
1943.000000	0.196643
1944.000000	0.196440
1945.000000	0.196197
1946.000000	0.196091
1947.000000	0.196149
1948.000000	0.195696
1949.000000	0.195149
1950.000000	0.195013
1951.000000	0.194808
1952.000000	0.194958
1953.000000	0.194808
1954.000000	0.194617
1955.000000	0.194134
1956.000000	0.193290
1957.000000	0.192864
1958.000000	0.193061
1959.000000	0.193298
1960.000000	0.193319
1961.000000	0.193594
1962.000000	0.193539
1963.000000	0.193028
1964.000000	0.192565
1965.000000	0.192572
1966.000000	0.192420
1967.000000	0.192352
1968.000000	0.192226
1969.000000	0.191950
1970.000000	0.191745
1971.000000	0.192115
1972.000000	0.192682
1973.000000	0.192915
1974.000000	0.193474
1975.000000	0.193701
1976.000000	0.193547
1977.000000	0.193287
1978.000000	0.193473
1979.000000	0.193667
1980.000000	0.194054
1981.000000	0.194681
1982.000000	0.194574
1983.000000	0.194401
1984.000000	0.194445
1985.000000	0.194158
1986.000000	0.194519
1987.000000	0.195349
1988.000000	0.196444
1989.000000	0.197683
1990.000000	0.198246
1991.000000	0.198912
1992.000000	0.199361
1993.000000	0.199428
1994.000000	0.199833
1995.000000	0.199855
1996.000000	0.199686
1997.000000	0.199541
1998.000000	0.199106
1999.000000	0.199283
2000.000000	0.199523
2001.000000	0.200229
2002.000000	0.201539
2003.000000	0.202708
2004.000000	0.203599
2005.000000	0.203730
2006.000000	0.204017
2007.000000	0.204195
2008.000000	0.204553
2009.000000	0.205049
2010.000000	0.205948
2011.000000	0.207046
2012.000000	0.207984
2013.000000	0.209262
2014.000000	0.209935
2015.000000	0.210446
2016.000000	0.211055
2017.000000	0.211161
2018.000000	0.211524
2019.000000	0.212449
2020.000000	0.212651
2021.000000	0.213332
2022.000000	0.214598
2023.000000	0.215346
2024.000000	0.216333
2025.000000	0.216806
2026.000000	0.216526
2027.000000	0.216744
2028.000000	0.216964
2029.000000	0.216830
2030.000000	0.217506
2031.000000	0.217984
2032.000000	0.218462
2033.000000	0.218850
2034.000000	0.219193
2035.000000	0.219609
2036.000000	0.219918
2037.000000	0.220133
2038.000000	0.220545
2039.000000	0.220813
2040.000000	0.221950
2041.000000	0.222796
2042.000000	0.223415
2043.000000	0.224699
2044.000000	0.225159
2045.000000	0.225547
2046.000000	0.226109
2047.000000	0.226345
2048.000000	0.225835
2049.000000	0.226317
2050.000000	0.227003
2051.000000	0.227487
2052.000000	0.228607
2053.000000	0.228846
2054.000000	0.228604
2055.000000	0.228322
2056.000000	0.227936
2057.000000	0.227804
2058.000000	0.228361
2059.000000	0.228825
2060.000000	0.229390
2061.000000	0.230380
2062.000000	0.230830
2063.000000	0.231203
2064.000000	0.231431
2065.000000	0.231630
2066.000000	0.231619
2067.000000	0.231604
2068.000000	0.231529
2069.000000	0.231582
2070.000000	0.231520
2071.000000	0.231488
2072.000000	0.231605
2073.000000	0.232044
2074.000000	0.232621
2075.000000	0.233215
2076.000000	0.234388
2077.000000	0.234865
2078.000000	0.234946
2079.000000	0.235174
2080.000000	0.234971
2081.000000	0.235379
2082.000000	0.236219
2083.000000	0.236740
2084.000000	0.237755
2085.000000	0.238930
2086.000000	0.239583
2087.000000	0.240172
2088.000000	0.240343
2089.000000	0.240576
2090.000000	0.240635
2091.000000	0.240422
2092.000000	0.240399
2093.000000	0.240208
2094.000000	0.240336
2095.000000	0.240971
2096.000000	0.241252
2097.000000	0.241361
2098.000000	0.241667
2099.000000	0.241646
2100.000000	0.241851
2101.000000	0.242669
2102.000000	0.243233
2103.000000	0.244378
2104.000000	0.245478
2105.000000	0.246296
2106.000000	0.247372
2107.000000	0.247808
2108.000000	0.247411
2109.000000	0.247672
2110.000000	0.248018
2111.000000	0.247883
2112.000000	0.247922
2113.000000	0.247101
2114.000000	0.245692
2115.000000	0.245082
2116.000000	0.244811
2117.000000	0.245064
2118.000000	0.245969
2119.000000	0.245692
2120.000000	0.246192
2121.000000	0.246994
2122.000000	0.247702
2123.000000	0.249108
2124.000000	0.249595
2125.000000	0.249321
2126.000000	0.249298
2127.000000	0.248737
2128.000000	0.248689
2129.000000	0.248839
2130.000000	0.249305
2131.000000	0.249673
2132.000000	0.249827
2133.000000	0.250362
2134.000000	0.250707
2135.000000	0.250907
2136.000000	0.251572
2137.000000	0.251360
2138.000000	0.250372
2139.000000	0.250165
2140.000000	0.249438
2141.000000	0.249364
2142.000000	0.250612
2143.000000	0.250531
2144.000000	0.249841
2145.000000	0.249797
2146.000000	0.249626
2147.000000	0.249498
2148.000000	0.250252
2149.000000	0.251886
2150.000000	0.252682
2151.000000	0.253240
2152.000000	0.253436
2153.000000	0.253196
2154.000000	0.253026
2155.000000	0.252521
2156.000000	0.252623
2157.000000	0.252926
2158.000000	0.253024
2159.000000	0.253586
2160.000000	0.253898
2161.000000	0.253989
2162.000000	0.254129
2163.000000	0.254301
2164.000000	0.254201
2165.000000	0.253408
2166.000000	0.253273
2167.000000	0.253873
2168.000000	0.253877
2169.000000	0.254547
2170.000000	0.254978
2171.000000	0.254599
2172.000000	0.253072
2173.000000	0.252989
2174.000000	0.252975
2175.000000	0.252912
2176.000000	0.253750
2177.000000	0.254003
2178.000000	0.253640
2179.000000	0.253785
2180.000000	0.254521
2181.000000	0.254806
2182.000000	0.253819
2183.000000	0.254103
2184.000000	0.254596
2185.000000	0.254555
2186.000000	0.255727
2187.000000	0.256289
2188.000000	0.256718
2189.000000	0.257225
2190.000000	0.256585
2191.000000	0.256100
2192.000000	0.255361
2193.000000	0.253242
2194.000000	0.252360
2195.000000	0.252547
2196.000000	0.252078
2197.000000	0.251784
2198.000000	0.251673
2199.000000	0.251172
2200.000000	0.251272
2201.000000	0.251970
2202.000000	0.252258
2203.000000	0.252737
2204.000000	0.253175
2205.000000	0.250997
2206.000000	0.250959
2207.000000	0.251828
2208.000000	0.253017
2209.000000	0.254937
2210.000000	0.255862
2211.000000	0.256037
2212.000000	0.255893
2213.000000	0.256053
2214.000000	0.256953
2215.000000	0.257030
2216.000000	0.256847
2217.000000	0.255891
2218.000000	0.254181
2219.000000	0.253643
2220.000000	0.252664
2221.000000	0.252568
2222.000000	0.253298
2223.000000	0.253876
2224.000000	0.254643
2225.000000	0.255769
2226.000000	0.257130
2227.000000	0.257249
2228.000000	0.257258
2229.000000	0.255273
2230.000000	0.253910
2231.000000	0.255242
2232.000000	0.254705
2233.000000	0.254742
2234.000000	0.254046
2235.000000	0.253232
2236.000000	0.253331
2237.000000	0.254778
2238.000000	0.255131
2239.000000	0.255326
2240.000000	0.255350
2241.000000	0.255302
2242.000000	0.254511
2243.000000	0.252909
2244.000000	0.252249
2245.000000	0.250446
2246.000000	0.250846
2247.000000	0.254675
2248.000000	0.255070
2249.000000	0.254541
2250.000000	0.254321
2251.000000	0.251452
2252.000000	0.249043
2253.000000	0.249773
2254.000000	0.251777
2255.000000	0.252820
2256.000000	0.253872
2257.000000	0.256165
2258.000000	0.254559
2259.000000	0.251042
2260.000000	0.250411
2261.000000	0.250403
2262.000000	0.249887
2263.000000	0.251128
2264.000000	0.255455
2265.000000	0.256828
2266.000000	0.258108
2267.000000	0.257102
2268.000000	0.253462
2269.000000	0.252819
2270.000000	0.251529
2271.000000	0.250733
2272.000000	0.252529
2273.000000	0.252476
2274.000000	0.251044
2275.000000	0.250333
2276.000000	0.249463
2277.000000	0.248760
2278.000000	0.249264
2279.000000	0.248944
2280.000000	0.249259
2281.000000	0.249629
2282.000000	0.249274
2283.000000	0.249002
2284.000000	0.249274
2285.000000	0.248452
2286.000000	0.247585
2287.000000	0.246955
2288.000000	0.243972
2289.000000	0.242588
2290.000000	0.241350
2291.000000	0.239685
2292.000000	0.240661
2293.000000	0.240011
2294.000000	0.239332
2295.000000	0.238560
2296.000000	0.238004
2297.000000	0.236610
2298.000000	0.236872
2299.000000	0.239027
2300.000000	0.238872
2301.000000	0.237601
2302.000000	0.237270
2303.000000	0.235856
2304.000000	0.235903
2305.000000	0.238863
2306.000000	0.239218
2307.000000	0.238774
2308.000000	0.237159
2309.000000	0.234859
2310.000000	0.232532
2311.000000	0.232745
2312.000000	0.233242
2313.000000	0.234237
2314.000000	0.235864
2315.000000	0.235011
2316.000000	0.233315
2317.000000	0.232052
2318.000000	0.230410
2319.000000	0.229792
2320.000000	0.230149
2321.000000	0.231434
2322.000000	0.230667
2323.000000	0.229775
2324.000000	0.231940
2325.000000	0.232882
2326.000000	0.235207
2327.000000	0.238813
2328.000000	0.239289
2329.000000	0.238981
2330.000000	0.238550
2331.000000	0.236880
2332.000000	0.236107
2333.000000	0.234163
2334.000000	0.230095
2335.000000	0.227923
2336.000000	0.224941
2337.000000	0.223883
2338.000000	0.225278
2339.000000	0.225723
2340.000000	0.226008
2341.000000	0.226366
2342.000000	0.227822
2343.000000	0.226730
2344.000000	0.223609
2345.000000	0.223138
2346.000000	0.222896
2347.000000	0.221965
2348.000000	0.222420
2349.000000	0.222728
2350.000000	0.221288
2351.000000	0.216751
2352.000000	0.216856
2353.000000	0.218196
2354.000000	0.215594
2355.000000	0.215593
2356.000000	0.213002
2357.000000	0.211465
2358.000000	0.211758
2359.000000	0.212852
2360.000000	0.215900
2361.000000	0.214135
2362.000000	0.212504
2363.000000	0.212738
2364.000000	0.213315
2365.000000	0.214986
2366.000000	0.215584
2367.000000	0.214439
2368.000000	0.209966
2369.000000	0.203797
2370.000000	0.199814
2371.000000	0.198074
2372.000000	0.198598
2373.000000	0.200554
2374.000000	0.201338
2375.000000	0.201432
2376.000000	0.200051
2377.000000	0.199087
2378.000000	0.201764
2379.000000	0.203548
2380.000000	0.204874
2381.000000	0.208527
2382.000000	0.204814
2383.000000	0.200923
2384.000000	0.203152
2385.000000	0.203620
2386.000000	0.205059
2387.000000	0.205832
2388.000000	0.203498
2389.000000	0.201780
2390.000000	0.202988
2391.000000	0.202331
2392.000000	0.202480
2393.000000	0.203747
2394.000000	0.204974
2395.000000	0.208817
2396.000000	0.211179
2397.000000	0.210067
2398.000000	0.205871
2399.000000	0.201779
2400.000000	0.195669
2401.000000	0.195015
2402.000000	0.195800
2403.000000	0.196957
2404.000000	0.199114
2405.000000	0.194620
2406.000000	0.197677
2407.000000	0.198023
2408.000000	0.198782
2409.000000	0.205662
2410.000000	0.201693
2411.000000	0.197350
2412.000000	0.196604
2413.000000	0.190051
2414.000000	0.184640
2415.000000	0.188024
2416.000000	0.190630
2417.000000	0.187980
2418.000000	0.185350
2419.000000	0.176868
2420.000000	0.162323
2421.000000	0.151132
2422.000000	0.150694
2423.000000	0.156795
2424.000000	0.162657
2425.000000	0.179017
2426.000000	0.191171
2427.000000	0.189294
2428.000000	0.187190
2429.000000	0.189856
2430.000000	0.195482
2431.000000	0.197379
2432.000000	0.197553
2433.000000	0.191427
2434.000000	0.180568
2435.000000	0.171537
2436.000000	0.173125
2437.000000	0.181389
2438.000000	0.178352
2439.000000	0.185216
2440.000000	0.191364
2441.000000	0.187153
2442.000000	0.186474
2443.000000	0.173603
2444.000000	0.174316
2445.000000	0.172633
2446.000000	0.163016
2447.000000	0.171834
2448.000000	0.168802
2449.000000	0.173434
2450.000000	0.184070
2451.000000	0.176988
2452.000000	0.167591
2453.000000	0.162161
2454.000000	0.165192
2455.000000	0.165387
2456.000000	0.176023
2457.000000	0.190228
2458.000000	0.187772
2459.000000	0.198371
2460.000000	0.203622
2461.000000	0.192311
2462.000000	0.183086
2463.000000	0.169526
2464.000000	0.171053
2465.000000	0.169327
2466.000000	0.181755
2467.000000	0.199267
2468.000000	0.197429
2469.000000	0.226184
2470.000000	0.223269
2471.000000	0.201589
2472.000000	0.204776
2473.000000	0.181527
2474.000000	0.156047
2475.000000	0.142578
2476.000000	0.113656
2477.000000	0.092397
2478.000000	0.078839
2479.000000	0.085769
2480.000000	0.107111
2481.000000	0.117638
2482.000000	0.137897
2483.000000	0.140937
2484.000000	0.162347
2485.000000	0.176685
2486.000000	0.164427
2487.000000	0.167163
2488.000000	0.148429
2489.000000	0.129192
2490.000000	0.146042
2491.000000	0.204935
2492.000000	0.214835
2493.000000	0.235852
2494.000000	0.248804
2495.000000	0.199404
2496.000000	0.196467
2497.000000	0.212689
2498.000000	0.226082
2499.000000	0.270256
2500.000000	0.299640
