# Wavelength	NAu-2-40_HEX-20_FV7-40_00000.asd.rts.txt
350.000000	0.178038
351.000000	0.184243
352.000000	0.149979
353.000000	0.131484
354.000000	0.146675
355.000000	0.138321
356.000000	0.128612
357.000000	0.124842
358.000000	0.122783
359.000000	0.119635
360.000000	0.121884
361.000000	0.134475
362.000000	0.138868
363.000000	0.137650
364.000000	0.135516
365.000000	0.139354
366.000000	0.141629
367.000000	0.139432
368.000000	0.133445
369.000000	0.133734
370.000000	0.137363
371.000000	0.137451
372.000000	0.131359
373.000000	0.130280
374.000000	0.139080
375.000000	0.144276
376.000000	0.139304
377.000000	0.129590
378.000000	0.132833
379.000000	0.135232
380.000000	0.134518
381.000000	0.132876
382.000000	0.134708
383.000000	0.138846
384.000000	0.142244
385.000000	0.137381
386.000000	0.134292
387.000000	0.135558
388.000000	0.135842
389.000000	0.137193
390.000000	0.139104
391.000000	0.140167
392.000000	0.139919
393.000000	0.140300
394.000000	0.141883
395.000000	0.139775
396.000000	0.137400
397.000000	0.136625
398.000000	0.137701
399.000000	0.138383
400.000000	0.138709
401.000000	0.139530
402.000000	0.139063
403.000000	0.138326
404.000000	0.138599
405.000000	0.140016
406.000000	0.140740
407.000000	0.140162
408.000000	0.139349
409.000000	0.139252
410.000000	0.140010
411.000000	0.141200
412.000000	0.140445
413.000000	0.139917
414.000000	0.141881
415.000000	0.142810
416.000000	0.142854
417.000000	0.142653
418.000000	0.143339
419.000000	0.143514
420.000000	0.143259
421.000000	0.143920
422.000000	0.144130
423.000000	0.143898
424.000000	0.143763
425.000000	0.144471
426.000000	0.145264
427.000000	0.145534
428.000000	0.145715
429.000000	0.145950
430.000000	0.146241
431.000000	0.146405
432.000000	0.146402
433.000000	0.146702
434.000000	0.147974
435.000000	0.148083
436.000000	0.147953
437.000000	0.148589
438.000000	0.148474
439.000000	0.148216
440.000000	0.148333
441.000000	0.148899
442.000000	0.149253
443.000000	0.149354
444.000000	0.149705
445.000000	0.150152
446.000000	0.150456
447.000000	0.150378
448.000000	0.150876
449.000000	0.151492
450.000000	0.151863
451.000000	0.152310
452.000000	0.152522
453.000000	0.152569
454.000000	0.153130
455.000000	0.153492
456.000000	0.153701
457.000000	0.153982
458.000000	0.154253
459.000000	0.154727
460.000000	0.155480
461.000000	0.155690
462.000000	0.155760
463.000000	0.155904
464.000000	0.156327
465.000000	0.156503
466.000000	0.156611
467.000000	0.157369
468.000000	0.157795
469.000000	0.157941
470.000000	0.158189
471.000000	0.158219
472.000000	0.158340
473.000000	0.158727
474.000000	0.159006
475.000000	0.159317
476.000000	0.159685
477.000000	0.159770
478.000000	0.159975
479.000000	0.160338
480.000000	0.160547
481.000000	0.160884
482.000000	0.161292
483.000000	0.161566
484.000000	0.161941
485.000000	0.162223
486.000000	0.162438
487.000000	0.162650
488.000000	0.162892
489.000000	0.163095
490.000000	0.163096
491.000000	0.163247
492.000000	0.163567
493.000000	0.163877
494.000000	0.164107
495.000000	0.164336
496.000000	0.164550
497.000000	0.164488
498.000000	0.164520
499.000000	0.164758
500.000000	0.164903
501.000000	0.165000
502.000000	0.165131
503.000000	0.165344
504.000000	0.165477
505.000000	0.165602
506.000000	0.165830
507.000000	0.166195
508.000000	0.166587
509.000000	0.166898
510.000000	0.167083
511.000000	0.167337
512.000000	0.167674
513.000000	0.167932
514.000000	0.168183
515.000000	0.168532
516.000000	0.169023
517.000000	0.169430
518.000000	0.169786
519.000000	0.170110
520.000000	0.170523
521.000000	0.170978
522.000000	0.171450
523.000000	0.171946
524.000000	0.172388
525.000000	0.172875
526.000000	0.173632
527.000000	0.174306
528.000000	0.174974
529.000000	0.175812
530.000000	0.176716
531.000000	0.177655
532.000000	0.178580
533.000000	0.179641
534.000000	0.180629
535.000000	0.181535
536.000000	0.182586
537.000000	0.183675
538.000000	0.184653
539.000000	0.185368
540.000000	0.186270
541.000000	0.187233
542.000000	0.188100
543.000000	0.188909
544.000000	0.189696
545.000000	0.190442
546.000000	0.191166
547.000000	0.192067
548.000000	0.193083
549.000000	0.193896
550.000000	0.194796
551.000000	0.195820
552.000000	0.196893
553.000000	0.198015
554.000000	0.199168
555.000000	0.200362
556.000000	0.201698
557.000000	0.203051
558.000000	0.204442
559.000000	0.205793
560.000000	0.207138
561.000000	0.208528
562.000000	0.209903
563.000000	0.211148
564.000000	0.212369
565.000000	0.213599
566.000000	0.214729
567.000000	0.215788
568.000000	0.216792
569.000000	0.217782
570.000000	0.218656
571.000000	0.219415
572.000000	0.220179
573.000000	0.220937
574.000000	0.221612
575.000000	0.222156
576.000000	0.222646
577.000000	0.223016
578.000000	0.223301
579.000000	0.223748
580.000000	0.224091
581.000000	0.224252
582.000000	0.224461
583.000000	0.224620
584.000000	0.224735
585.000000	0.224861
586.000000	0.224923
587.000000	0.224916
588.000000	0.224861
589.000000	0.224815
590.000000	0.224736
591.000000	0.224591
592.000000	0.224386
593.000000	0.224124
594.000000	0.223834
595.000000	0.223579
596.000000	0.223301
597.000000	0.223017
598.000000	0.222688
599.000000	0.222297
600.000000	0.221943
601.000000	0.221629
602.000000	0.221234
603.000000	0.220825
604.000000	0.220439
605.000000	0.220028
606.000000	0.219644
607.000000	0.219276
608.000000	0.218876
609.000000	0.218531
610.000000	0.218226
611.000000	0.217912
612.000000	0.217526
613.000000	0.217128
614.000000	0.216801
615.000000	0.216579
616.000000	0.216228
617.000000	0.215748
618.000000	0.215460
619.000000	0.215163
620.000000	0.214831
621.000000	0.214545
622.000000	0.214275
623.000000	0.214023
624.000000	0.213797
625.000000	0.213608
626.000000	0.213423
627.000000	0.213248
628.000000	0.213166
629.000000	0.213030
630.000000	0.212792
631.000000	0.212664
632.000000	0.212584
633.000000	0.212495
634.000000	0.212342
635.000000	0.212150
636.000000	0.212010
637.000000	0.211950
638.000000	0.211930
639.000000	0.211924
640.000000	0.211919
641.000000	0.211789
642.000000	0.211785
643.000000	0.211852
644.000000	0.211857
645.000000	0.211914
646.000000	0.211998
647.000000	0.212070
648.000000	0.212157
649.000000	0.212334
650.000000	0.212575
651.000000	0.212768
652.000000	0.212958
653.000000	0.213198
654.000000	0.213485
655.000000	0.213808
656.000000	0.214141
657.000000	0.214428
658.000000	0.214722
659.000000	0.215061
660.000000	0.215446
661.000000	0.215864
662.000000	0.216252
663.000000	0.216662
664.000000	0.217137
665.000000	0.217586
666.000000	0.218044
667.000000	0.218538
668.000000	0.219048
669.000000	0.219575
670.000000	0.220134
671.000000	0.220761
672.000000	0.221408
673.000000	0.222034
674.000000	0.222621
675.000000	0.223297
676.000000	0.224066
677.000000	0.224893
678.000000	0.225699
679.000000	0.226483
680.000000	0.227274
681.000000	0.228146
682.000000	0.229071
683.000000	0.229963
684.000000	0.230831
685.000000	0.231748
686.000000	0.232731
687.000000	0.233725
688.000000	0.234684
689.000000	0.235640
690.000000	0.236665
691.000000	0.237800
692.000000	0.238952
693.000000	0.240102
694.000000	0.241164
695.000000	0.242318
696.000000	0.243544
697.000000	0.244741
698.000000	0.245901
699.000000	0.247111
700.000000	0.248425
701.000000	0.249729
702.000000	0.250992
703.000000	0.252229
704.000000	0.253575
705.000000	0.254932
706.000000	0.256260
707.000000	0.257624
708.000000	0.258979
709.000000	0.260370
710.000000	0.261833
711.000000	0.263249
712.000000	0.264668
713.000000	0.266109
714.000000	0.267485
715.000000	0.268886
716.000000	0.270312
717.000000	0.271701
718.000000	0.273139
719.000000	0.274625
720.000000	0.276145
721.000000	0.277638
722.000000	0.279114
723.000000	0.280625
724.000000	0.282137
725.000000	0.283506
726.000000	0.284841
727.000000	0.286212
728.000000	0.287614
729.000000	0.289028
730.000000	0.290382
731.000000	0.291700
732.000000	0.293004
733.000000	0.294327
734.000000	0.295608
735.000000	0.296836
736.000000	0.298131
737.000000	0.299405
738.000000	0.300524
739.000000	0.301711
740.000000	0.302956
741.000000	0.304202
742.000000	0.305392
743.000000	0.306492
744.000000	0.307580
745.000000	0.308602
746.000000	0.309606
747.000000	0.310571
748.000000	0.311554
749.000000	0.312522
750.000000	0.313438
751.000000	0.314423
752.000000	0.315399
753.000000	0.316332
754.000000	0.317197
755.000000	0.318076
756.000000	0.318940
757.000000	0.319689
758.000000	0.320396
759.000000	0.321112
760.000000	0.321795
761.000000	0.322508
762.000000	0.323192
763.000000	0.323805
764.000000	0.324395
765.000000	0.324969
766.000000	0.325523
767.000000	0.326043
768.000000	0.326523
769.000000	0.326989
770.000000	0.327458
771.000000	0.327928
772.000000	0.328379
773.000000	0.328739
774.000000	0.329071
775.000000	0.329413
776.000000	0.329782
777.000000	0.330146
778.000000	0.330436
779.000000	0.330690
780.000000	0.330934
781.000000	0.331167
782.000000	0.331446
783.000000	0.331780
784.000000	0.331982
785.000000	0.332190
786.000000	0.332424
787.000000	0.332647
788.000000	0.332734
789.000000	0.332915
790.000000	0.333146
791.000000	0.333310
792.000000	0.333569
793.000000	0.333820
794.000000	0.333959
795.000000	0.334005
796.000000	0.334032
797.000000	0.334087
798.000000	0.334206
799.000000	0.334306
800.000000	0.334401
801.000000	0.334521
802.000000	0.334572
803.000000	0.334610
804.000000	0.334673
805.000000	0.334587
806.000000	0.334468
807.000000	0.334440
808.000000	0.334457
809.000000	0.334457
810.000000	0.334443
811.000000	0.334420
812.000000	0.334434
813.000000	0.334404
814.000000	0.334338
815.000000	0.334348
816.000000	0.334389
817.000000	0.334395
818.000000	0.334244
819.000000	0.334145
820.000000	0.334099
821.000000	0.334032
822.000000	0.333940
823.000000	0.333832
824.000000	0.333682
825.000000	0.333595
826.000000	0.333600
827.000000	0.333570
828.000000	0.333456
829.000000	0.333210
830.000000	0.333004
831.000000	0.332905
832.000000	0.332746
833.000000	0.332657
834.000000	0.332568
835.000000	0.332450
836.000000	0.332317
837.000000	0.332180
838.000000	0.332100
839.000000	0.332121
840.000000	0.331960
841.000000	0.331782
842.000000	0.331702
843.000000	0.331463
844.000000	0.331318
845.000000	0.331233
846.000000	0.330944
847.000000	0.330816
848.000000	0.330824
849.000000	0.330846
850.000000	0.330629
851.000000	0.330422
852.000000	0.330352
853.000000	0.330238
854.000000	0.329880
855.000000	0.329600
856.000000	0.329576
857.000000	0.329309
858.000000	0.329066
859.000000	0.328903
860.000000	0.328710
861.000000	0.328559
862.000000	0.328418
863.000000	0.328157
864.000000	0.327955
865.000000	0.327805
866.000000	0.327705
867.000000	0.327624
868.000000	0.327415
869.000000	0.327091
870.000000	0.326849
871.000000	0.326600
872.000000	0.326320
873.000000	0.325982
874.000000	0.325780
875.000000	0.325509
876.000000	0.325227
877.000000	0.325007
878.000000	0.324778
879.000000	0.324577
880.000000	0.324293
881.000000	0.324046
882.000000	0.323838
883.000000	0.323631
884.000000	0.323324
885.000000	0.323118
886.000000	0.322876
887.000000	0.322577
888.000000	0.322383
889.000000	0.322204
890.000000	0.321907
891.000000	0.321614
892.000000	0.321414
893.000000	0.321313
894.000000	0.321309
895.000000	0.320976
896.000000	0.320549
897.000000	0.320196
898.000000	0.320005
899.000000	0.319680
900.000000	0.319343
901.000000	0.319061
902.000000	0.318923
903.000000	0.318755
904.000000	0.318550
905.000000	0.318263
906.000000	0.318091
907.000000	0.317851
908.000000	0.317592
909.000000	0.317434
910.000000	0.317101
911.000000	0.316693
912.000000	0.316392
913.000000	0.316246
914.000000	0.315994
915.000000	0.315692
916.000000	0.315462
917.000000	0.315103
918.000000	0.314830
919.000000	0.314722
920.000000	0.314398
921.000000	0.314108
922.000000	0.313856
923.000000	0.313510
924.000000	0.313190
925.000000	0.312849
926.000000	0.312550
927.000000	0.312455
928.000000	0.312430
929.000000	0.312230
930.000000	0.311720
931.000000	0.311506
932.000000	0.311410
933.000000	0.311211
934.000000	0.310601
935.000000	0.310314
936.000000	0.310197
937.000000	0.309901
938.000000	0.309654
939.000000	0.309452
940.000000	0.309249
941.000000	0.309126
942.000000	0.308935
943.000000	0.308756
944.000000	0.308521
945.000000	0.308276
946.000000	0.308056
947.000000	0.307924
948.000000	0.307789
949.000000	0.307208
950.000000	0.306870
951.000000	0.306766
952.000000	0.306330
953.000000	0.306140
954.000000	0.306026
955.000000	0.305739
956.000000	0.305484
957.000000	0.305167
958.000000	0.304836
959.000000	0.304687
960.000000	0.304499
961.000000	0.304351
962.000000	0.304142
963.000000	0.303617
964.000000	0.303177
965.000000	0.303027
966.000000	0.303083
967.000000	0.303160
968.000000	0.302940
969.000000	0.302516
970.000000	0.302310
971.000000	0.302267
972.000000	0.302168
973.000000	0.301941
974.000000	0.301900
975.000000	0.301623
976.000000	0.301312
977.000000	0.301158
978.000000	0.300919
979.000000	0.301045
980.000000	0.300930
981.000000	0.300239
982.000000	0.300082
983.000000	0.299722
984.000000	0.299170
985.000000	0.299153
986.000000	0.299222
987.000000	0.299091
988.000000	0.298707
989.000000	0.298913
990.000000	0.298863
991.000000	0.298584
992.000000	0.298447
993.000000	0.298600
994.000000	0.298539
995.000000	0.298437
996.000000	0.298518
997.000000	0.298361
998.000000	0.298184
999.000000	0.298187
1000.000000	0.298168
1001.000000	0.297978
1002.000000	0.298060
1003.000000	0.298501
1004.000000	0.298524
1005.000000	0.298212
1006.000000	0.298312
1007.000000	0.298570
1008.000000	0.298583
1009.000000	0.298686
1010.000000	0.298425
1011.000000	0.297973
1012.000000	0.297232
1013.000000	0.296830
1014.000000	0.297141
1015.000000	0.297471
1016.000000	0.298364
1017.000000	0.298608
1018.000000	0.298113
1019.000000	0.298075
1020.000000	0.297994
1021.000000	0.297580
1022.000000	0.297547
1023.000000	0.297662
1024.000000	0.297488
1025.000000	0.297487
1026.000000	0.297363
1027.000000	0.297091
1028.000000	0.296975
1029.000000	0.296695
1030.000000	0.297237
1031.000000	0.297988
1032.000000	0.297808
1033.000000	0.298314
1034.000000	0.298653
1035.000000	0.298767
1036.000000	0.298722
1037.000000	0.298764
1038.000000	0.298658
1039.000000	0.298230
1040.000000	0.298187
1041.000000	0.298389
1042.000000	0.298534
1043.000000	0.298625
1044.000000	0.298854
1045.000000	0.298700
1046.000000	0.298589
1047.000000	0.298909
1048.000000	0.299431
1049.000000	0.299598
1050.000000	0.300045
1051.000000	0.300277
1052.000000	0.300065
1053.000000	0.299911
1054.000000	0.299758
1055.000000	0.299972
1056.000000	0.300191
1057.000000	0.300735
1058.000000	0.301378
1059.000000	0.301915
1060.000000	0.302293
1061.000000	0.302366
1062.000000	0.302343
1063.000000	0.302420
1064.000000	0.302618
1065.000000	0.302814
1066.000000	0.302948
1067.000000	0.303166
1068.000000	0.303322
1069.000000	0.303257
1070.000000	0.303336
1071.000000	0.303600
1072.000000	0.303811
1073.000000	0.304288
1074.000000	0.304312
1075.000000	0.304001
1076.000000	0.304050
1077.000000	0.304477
1078.000000	0.304806
1079.000000	0.305009
1080.000000	0.305567
1081.000000	0.305767
1082.000000	0.305508
1083.000000	0.305659
1084.000000	0.306130
1085.000000	0.306392
1086.000000	0.306392
1087.000000	0.306796
1088.000000	0.307504
1089.000000	0.307909
1090.000000	0.308681
1091.000000	0.308711
1092.000000	0.308627
1093.000000	0.308423
1094.000000	0.308502
1095.000000	0.308595
1096.000000	0.308907
1097.000000	0.309524
1098.000000	0.309803
1099.000000	0.309948
1100.000000	0.310244
1101.000000	0.310396
1102.000000	0.310592
1103.000000	0.310800
1104.000000	0.311198
1105.000000	0.311880
1106.000000	0.312147
1107.000000	0.312354
1108.000000	0.312438
1109.000000	0.312025
1110.000000	0.311807
1111.000000	0.311857
1112.000000	0.312152
1113.000000	0.312390
1114.000000	0.312838
1115.000000	0.313086
1116.000000	0.313193
1117.000000	0.313496
1118.000000	0.313980
1119.000000	0.314098
1120.000000	0.314059
1121.000000	0.314179
1122.000000	0.314268
1123.000000	0.314476
1124.000000	0.314507
1125.000000	0.314802
1126.000000	0.315159
1127.000000	0.315359
1128.000000	0.315577
1129.000000	0.316094
1130.000000	0.316295
1131.000000	0.316228
1132.000000	0.316260
1133.000000	0.316241
1134.000000	0.316490
1135.000000	0.316890
1136.000000	0.317039
1137.000000	0.317234
1138.000000	0.317370
1139.000000	0.317403
1140.000000	0.317484
1141.000000	0.317486
1142.000000	0.317669
1143.000000	0.317864
1144.000000	0.318065
1145.000000	0.318190
1146.000000	0.318460
1147.000000	0.318418
1148.000000	0.317917
1149.000000	0.317918
1150.000000	0.318025
1151.000000	0.318182
1152.000000	0.318563
1153.000000	0.318770
1154.000000	0.318879
1155.000000	0.318943
1156.000000	0.318959
1157.000000	0.318999
1158.000000	0.318916
1159.000000	0.318914
1160.000000	0.319028
1161.000000	0.318996
1162.000000	0.318863
1163.000000	0.319000
1164.000000	0.318979
1165.000000	0.318966
1166.000000	0.319119
1167.000000	0.319417
1168.000000	0.319529
1169.000000	0.319696
1170.000000	0.319787
1171.000000	0.319810
1172.000000	0.319885
1173.000000	0.319916
1174.000000	0.319998
1175.000000	0.320121
1176.000000	0.320095
1177.000000	0.319994
1178.000000	0.320049
1179.000000	0.320158
1180.000000	0.320156
1181.000000	0.320235
1182.000000	0.320432
1183.000000	0.320623
1184.000000	0.320698
1185.000000	0.320752
1186.000000	0.320843
1187.000000	0.320921
1188.000000	0.320928
1189.000000	0.320877
1190.000000	0.320869
1191.000000	0.320939
1192.000000	0.321027
1193.000000	0.321202
1194.000000	0.321491
1195.000000	0.321627
1196.000000	0.321530
1197.000000	0.321549
1198.000000	0.321588
1199.000000	0.321677
1200.000000	0.321784
1201.000000	0.321995
1202.000000	0.322124
1203.000000	0.322142
1204.000000	0.322183
1205.000000	0.322225
1206.000000	0.322257
1207.000000	0.322492
1208.000000	0.322478
1209.000000	0.322310
1210.000000	0.322327
1211.000000	0.322342
1212.000000	0.322353
1213.000000	0.322591
1214.000000	0.322668
1215.000000	0.322536
1216.000000	0.322536
1217.000000	0.322488
1218.000000	0.322491
1219.000000	0.322578
1220.000000	0.322793
1221.000000	0.322750
1222.000000	0.322809
1223.000000	0.323082
1224.000000	0.323164
1225.000000	0.323348
1226.000000	0.323573
1227.000000	0.323342
1228.000000	0.323256
1229.000000	0.323250
1230.000000	0.323239
1231.000000	0.323201
1232.000000	0.323430
1233.000000	0.323573
1234.000000	0.323656
1235.000000	0.323654
1236.000000	0.323479
1237.000000	0.323485
1238.000000	0.323401
1239.000000	0.323366
1240.000000	0.323444
1241.000000	0.323586
1242.000000	0.323594
1243.000000	0.323649
1244.000000	0.323901
1245.000000	0.324022
1246.000000	0.323913
1247.000000	0.324040
1248.000000	0.324123
1249.000000	0.324105
1250.000000	0.324218
1251.000000	0.324298
1252.000000	0.324400
1253.000000	0.324534
1254.000000	0.324628
1255.000000	0.324768
1256.000000	0.324805
1257.000000	0.324779
1258.000000	0.324791
1259.000000	0.324617
1260.000000	0.324686
1261.000000	0.324791
1262.000000	0.324937
1263.000000	0.325268
1264.000000	0.325532
1265.000000	0.325720
1266.000000	0.325837
1267.000000	0.325777
1268.000000	0.325787
1269.000000	0.325811
1270.000000	0.325800
1271.000000	0.325904
1272.000000	0.326029
1273.000000	0.326141
1274.000000	0.326276
1275.000000	0.326293
1276.000000	0.326216
1277.000000	0.326288
1278.000000	0.326231
1279.000000	0.326252
1280.000000	0.326355
1281.000000	0.326408
1282.000000	0.326500
1283.000000	0.326631
1284.000000	0.326740
1285.000000	0.326779
1286.000000	0.326764
1287.000000	0.326744
1288.000000	0.326589
1289.000000	0.326535
1290.000000	0.326567
1291.000000	0.326580
1292.000000	0.326696
1293.000000	0.326784
1294.000000	0.326821
1295.000000	0.326804
1296.000000	0.326746
1297.000000	0.326777
1298.000000	0.326810
1299.000000	0.326911
1300.000000	0.327203
1301.000000	0.327330
1302.000000	0.327340
1303.000000	0.327361
1304.000000	0.327323
1305.000000	0.327263
1306.000000	0.327236
1307.000000	0.327229
1308.000000	0.327274
1309.000000	0.327364
1310.000000	0.327334
1311.000000	0.327298
1312.000000	0.327256
1313.000000	0.327175
1314.000000	0.327185
1315.000000	0.327127
1316.000000	0.327107
1317.000000	0.327160
1318.000000	0.327101
1319.000000	0.327080
1320.000000	0.327175
1321.000000	0.327075
1322.000000	0.326882
1323.000000	0.326926
1324.000000	0.327002
1325.000000	0.327007
1326.000000	0.327109
1327.000000	0.327056
1328.000000	0.326999
1329.000000	0.326884
1330.000000	0.326691
1331.000000	0.326619
1332.000000	0.326671
1333.000000	0.326606
1334.000000	0.326551
1335.000000	0.326592
1336.000000	0.326660
1337.000000	0.326660
1338.000000	0.326622
1339.000000	0.326673
1340.000000	0.326654
1341.000000	0.326522
1342.000000	0.326418
1343.000000	0.326299
1344.000000	0.326219
1345.000000	0.326170
1346.000000	0.326251
1347.000000	0.326348
1348.000000	0.326320
1349.000000	0.326138
1350.000000	0.326143
1351.000000	0.326213
1352.000000	0.326114
1353.000000	0.325945
1354.000000	0.325842
1355.000000	0.325640
1356.000000	0.325616
1357.000000	0.325741
1358.000000	0.325703
1359.000000	0.325590
1360.000000	0.325510
1361.000000	0.325476
1362.000000	0.325363
1363.000000	0.325157
1364.000000	0.325087
1365.000000	0.324975
1366.000000	0.324884
1367.000000	0.324894
1368.000000	0.324889
1369.000000	0.324694
1370.000000	0.324472
1371.000000	0.324167
1372.000000	0.323894
1373.000000	0.323792
1374.000000	0.323640
1375.000000	0.323498
1376.000000	0.323432
1377.000000	0.323298
1378.000000	0.323150
1379.000000	0.322985
1380.000000	0.322714
1381.000000	0.322324
1382.000000	0.321882
1383.000000	0.321522
1384.000000	0.321142
1385.000000	0.320610
1386.000000	0.320240
1387.000000	0.319846
1388.000000	0.319132
1389.000000	0.318414
1390.000000	0.317714
1391.000000	0.316825
1392.000000	0.316045
1393.000000	0.315175
1394.000000	0.314279
1395.000000	0.313367
1396.000000	0.312419
1397.000000	0.311377
1398.000000	0.310325
1399.000000	0.309290
1400.000000	0.308119
1401.000000	0.307012
1402.000000	0.306014
1403.000000	0.304860
1404.000000	0.303867
1405.000000	0.303009
1406.000000	0.302128
1407.000000	0.301344
1408.000000	0.300538
1409.000000	0.299839
1410.000000	0.299401
1411.000000	0.298912
1412.000000	0.298336
1413.000000	0.297856
1414.000000	0.297355
1415.000000	0.296981
1416.000000	0.296754
1417.000000	0.296501
1418.000000	0.296298
1419.000000	0.296103
1420.000000	0.295688
1421.000000	0.295457
1422.000000	0.295237
1423.000000	0.294935
1424.000000	0.294698
1425.000000	0.294500
1426.000000	0.294160
1427.000000	0.293824
1428.000000	0.293639
1429.000000	0.293491
1430.000000	0.293328
1431.000000	0.293200
1432.000000	0.293048
1433.000000	0.292862
1434.000000	0.292715
1435.000000	0.292683
1436.000000	0.292682
1437.000000	0.292714
1438.000000	0.292644
1439.000000	0.292550
1440.000000	0.292572
1441.000000	0.292598
1442.000000	0.292799
1443.000000	0.293142
1444.000000	0.293395
1445.000000	0.293656
1446.000000	0.293980
1447.000000	0.294297
1448.000000	0.294656
1449.000000	0.295041
1450.000000	0.295407
1451.000000	0.295776
1452.000000	0.296042
1453.000000	0.296332
1454.000000	0.296524
1455.000000	0.296704
1456.000000	0.297087
1457.000000	0.297374
1458.000000	0.297560
1459.000000	0.297726
1460.000000	0.297771
1461.000000	0.297843
1462.000000	0.298071
1463.000000	0.298176
1464.000000	0.298212
1465.000000	0.298396
1466.000000	0.298542
1467.000000	0.298726
1468.000000	0.298973
1469.000000	0.299240
1470.000000	0.299387
1471.000000	0.299518
1472.000000	0.299789
1473.000000	0.300119
1474.000000	0.300374
1475.000000	0.300664
1476.000000	0.300853
1477.000000	0.301018
1478.000000	0.301268
1479.000000	0.301469
1480.000000	0.301806
1481.000000	0.302140
1482.000000	0.302574
1483.000000	0.302907
1484.000000	0.303265
1485.000000	0.303519
1486.000000	0.303610
1487.000000	0.303827
1488.000000	0.304084
1489.000000	0.304398
1490.000000	0.304682
1491.000000	0.304958
1492.000000	0.305192
1493.000000	0.305461
1494.000000	0.305718
1495.000000	0.305971
1496.000000	0.306203
1497.000000	0.306464
1498.000000	0.306779
1499.000000	0.306979
1500.000000	0.307177
1501.000000	0.307489
1502.000000	0.307743
1503.000000	0.308018
1504.000000	0.308310
1505.000000	0.308575
1506.000000	0.308709
1507.000000	0.308728
1508.000000	0.308954
1509.000000	0.309180
1510.000000	0.309317
1511.000000	0.309599
1512.000000	0.309764
1513.000000	0.309858
1514.000000	0.310044
1515.000000	0.310128
1516.000000	0.310110
1517.000000	0.309982
1518.000000	0.309947
1519.000000	0.309943
1520.000000	0.310054
1521.000000	0.310179
1522.000000	0.310177
1523.000000	0.310268
1524.000000	0.310408
1525.000000	0.310582
1526.000000	0.310680
1527.000000	0.310732
1528.000000	0.310793
1529.000000	0.310823
1530.000000	0.310880
1531.000000	0.310977
1532.000000	0.311096
1533.000000	0.311171
1534.000000	0.311280
1535.000000	0.311462
1536.000000	0.311466
1537.000000	0.311532
1538.000000	0.311732
1539.000000	0.311869
1540.000000	0.311979
1541.000000	0.312154
1542.000000	0.312260
1543.000000	0.312286
1544.000000	0.312419
1545.000000	0.312551
1546.000000	0.312612
1547.000000	0.312766
1548.000000	0.312909
1549.000000	0.312943
1550.000000	0.313017
1551.000000	0.313110
1552.000000	0.313071
1553.000000	0.312968
1554.000000	0.312918
1555.000000	0.312825
1556.000000	0.312770
1557.000000	0.312768
1558.000000	0.312781
1559.000000	0.312747
1560.000000	0.312734
1561.000000	0.312778
1562.000000	0.312778
1563.000000	0.312766
1564.000000	0.312786
1565.000000	0.312849
1566.000000	0.312820
1567.000000	0.312829
1568.000000	0.312893
1569.000000	0.313045
1570.000000	0.313110
1571.000000	0.313193
1572.000000	0.313227
1573.000000	0.313181
1574.000000	0.313135
1575.000000	0.313085
1576.000000	0.313120
1577.000000	0.313108
1578.000000	0.313110
1579.000000	0.313292
1580.000000	0.313388
1581.000000	0.313496
1582.000000	0.313554
1583.000000	0.313599
1584.000000	0.313567
1585.000000	0.313507
1586.000000	0.313545
1587.000000	0.313604
1588.000000	0.313621
1589.000000	0.313693
1590.000000	0.313705
1591.000000	0.313666
1592.000000	0.313720
1593.000000	0.313908
1594.000000	0.313868
1595.000000	0.313745
1596.000000	0.313752
1597.000000	0.313665
1598.000000	0.313675
1599.000000	0.313998
1600.000000	0.313962
1601.000000	0.313722
1602.000000	0.313746
1603.000000	0.313836
1604.000000	0.313840
1605.000000	0.314006
1606.000000	0.314032
1607.000000	0.313884
1608.000000	0.313914
1609.000000	0.314152
1610.000000	0.314189
1611.000000	0.314156
1612.000000	0.314178
1613.000000	0.314250
1614.000000	0.314296
1615.000000	0.314481
1616.000000	0.314545
1617.000000	0.314432
1618.000000	0.314413
1619.000000	0.314378
1620.000000	0.314398
1621.000000	0.314510
1622.000000	0.314618
1623.000000	0.314696
1624.000000	0.314821
1625.000000	0.314805
1626.000000	0.314825
1627.000000	0.314957
1628.000000	0.315044
1629.000000	0.315088
1630.000000	0.315181
1631.000000	0.315234
1632.000000	0.315238
1633.000000	0.315251
1634.000000	0.315277
1635.000000	0.315309
1636.000000	0.315295
1637.000000	0.315269
1638.000000	0.315273
1639.000000	0.315342
1640.000000	0.315326
1641.000000	0.315380
1642.000000	0.315397
1643.000000	0.315355
1644.000000	0.315390
1645.000000	0.315474
1646.000000	0.315498
1647.000000	0.315548
1648.000000	0.315496
1649.000000	0.315462
1650.000000	0.315507
1651.000000	0.315593
1652.000000	0.315692
1653.000000	0.315803
1654.000000	0.315915
1655.000000	0.315930
1656.000000	0.315963
1657.000000	0.316111
1658.000000	0.316205
1659.000000	0.316392
1660.000000	0.316506
1661.000000	0.316506
1662.000000	0.316548
1663.000000	0.316521
1664.000000	0.316549
1665.000000	0.316630
1666.000000	0.316713
1667.000000	0.316685
1668.000000	0.316770
1669.000000	0.316912
1670.000000	0.316890
1671.000000	0.316942
1672.000000	0.317041
1673.000000	0.317026
1674.000000	0.317205
1675.000000	0.317377
1676.000000	0.317427
1677.000000	0.317388
1678.000000	0.317296
1679.000000	0.317280
1680.000000	0.317286
1681.000000	0.317230
1682.000000	0.317203
1683.000000	0.317261
1684.000000	0.317248
1685.000000	0.317309
1686.000000	0.317309
1687.000000	0.317205
1688.000000	0.317193
1689.000000	0.317215
1690.000000	0.317376
1691.000000	0.317616
1692.000000	0.317579
1693.000000	0.317483
1694.000000	0.317129
1695.000000	0.316880
1696.000000	0.316945
1697.000000	0.316981
1698.000000	0.317402
1699.000000	0.317614
1700.000000	0.317710
1701.000000	0.317817
1702.000000	0.317634
1703.000000	0.317472
1704.000000	0.317284
1705.000000	0.317230
1706.000000	0.317379
1707.000000	0.317361
1708.000000	0.317271
1709.000000	0.317210
1710.000000	0.317112
1711.000000	0.317110
1712.000000	0.317302
1713.000000	0.317371
1714.000000	0.317480
1715.000000	0.317494
1716.000000	0.317385
1717.000000	0.317376
1718.000000	0.317276
1719.000000	0.317288
1720.000000	0.317562
1721.000000	0.317613
1722.000000	0.317618
1723.000000	0.317575
1724.000000	0.317390
1725.000000	0.317356
1726.000000	0.317238
1727.000000	0.317275
1728.000000	0.317389
1729.000000	0.317405
1730.000000	0.317635
1731.000000	0.317713
1732.000000	0.317746
1733.000000	0.317732
1734.000000	0.317436
1735.000000	0.317434
1736.000000	0.317432
1737.000000	0.317512
1738.000000	0.317863
1739.000000	0.317982
1740.000000	0.317958
1741.000000	0.318044
1742.000000	0.318165
1743.000000	0.318246
1744.000000	0.318346
1745.000000	0.318335
1746.000000	0.318174
1747.000000	0.318397
1748.000000	0.318404
1749.000000	0.318433
1750.000000	0.318387
1751.000000	0.318211
1752.000000	0.318198
1753.000000	0.318194
1754.000000	0.318120
1755.000000	0.317973
1756.000000	0.317826
1757.000000	0.317600
1758.000000	0.317459
1759.000000	0.317357
1760.000000	0.317249
1761.000000	0.317027
1762.000000	0.317017
1763.000000	0.317192
1764.000000	0.317295
1765.000000	0.317530
1766.000000	0.317660
1767.000000	0.317535
1768.000000	0.317551
1769.000000	0.317828
1770.000000	0.317858
1771.000000	0.317729
1772.000000	0.317675
1773.000000	0.317438
1774.000000	0.317329
1775.000000	0.317405
1776.000000	0.317414
1777.000000	0.317343
1778.000000	0.317293
1779.000000	0.317310
1780.000000	0.317233
1781.000000	0.316990
1782.000000	0.316965
1783.000000	0.317083
1784.000000	0.317036
1785.000000	0.317032
1786.000000	0.316933
1787.000000	0.316845
1788.000000	0.317097
1789.000000	0.317189
1790.000000	0.317046
1791.000000	0.317071
1792.000000	0.317231
1793.000000	0.317284
1794.000000	0.317452
1795.000000	0.317619
1796.000000	0.317709
1797.000000	0.317702
1798.000000	0.317675
1799.000000	0.317689
1800.000000	0.317486
1801.000000	0.318287
1802.000000	0.318016
1803.000000	0.316546
1804.000000	0.316484
1805.000000	0.317327
1806.000000	0.317517
1807.000000	0.317957
1808.000000	0.318333
1809.000000	0.318662
1810.000000	0.318430
1811.000000	0.318537
1812.000000	0.319148
1813.000000	0.318804
1814.000000	0.317784
1815.000000	0.317407
1816.000000	0.316637
1817.000000	0.316216
1818.000000	0.316306
1819.000000	0.316641
1820.000000	0.316819
1821.000000	0.316478
1822.000000	0.316531
1823.000000	0.316480
1824.000000	0.316766
1825.000000	0.317465
1826.000000	0.317786
1827.000000	0.318277
1828.000000	0.318099
1829.000000	0.317657
1830.000000	0.317770
1831.000000	0.317902
1832.000000	0.318211
1833.000000	0.318470
1834.000000	0.319200
1835.000000	0.319222
1836.000000	0.318900
1837.000000	0.318587
1838.000000	0.317926
1839.000000	0.316700
1840.000000	0.315768
1841.000000	0.315074
1842.000000	0.314669
1843.000000	0.314106
1844.000000	0.314185
1845.000000	0.315355
1846.000000	0.315508
1847.000000	0.315069
1848.000000	0.315316
1849.000000	0.314795
1850.000000	0.314019
1851.000000	0.313835
1852.000000	0.314140
1853.000000	0.313820
1854.000000	0.313088
1855.000000	0.312598
1856.000000	0.311825
1857.000000	0.311217
1858.000000	0.310719
1859.000000	0.310850
1860.000000	0.310140
1861.000000	0.309378
1862.000000	0.308948
1863.000000	0.308614
1864.000000	0.308416
1865.000000	0.308991
1866.000000	0.308648
1867.000000	0.307981
1868.000000	0.306938
1869.000000	0.306088
1870.000000	0.304363
1871.000000	0.302763
1872.000000	0.301485
1873.000000	0.300167
1874.000000	0.298574
1875.000000	0.297549
1876.000000	0.297102
1877.000000	0.295597
1878.000000	0.293430
1879.000000	0.290748
1880.000000	0.288351
1881.000000	0.286247
1882.000000	0.284316
1883.000000	0.282118
1884.000000	0.279870
1885.000000	0.276974
1886.000000	0.274273
1887.000000	0.271543
1888.000000	0.269176
1889.000000	0.266286
1890.000000	0.262645
1891.000000	0.259323
1892.000000	0.254950
1893.000000	0.250435
1894.000000	0.246852
1895.000000	0.243332
1896.000000	0.239993
1897.000000	0.237242
1898.000000	0.234770
1899.000000	0.232152
1900.000000	0.228993
1901.000000	0.226148
1902.000000	0.223881
1903.000000	0.221675
1904.000000	0.220108
1905.000000	0.218667
1906.000000	0.217220
1907.000000	0.215727
1908.000000	0.214609
1909.000000	0.213886
1910.000000	0.213843
1911.000000	0.214292
1912.000000	0.215010
1913.000000	0.215892
1914.000000	0.216334
1915.000000	0.216543
1916.000000	0.216499
1917.000000	0.216461
1918.000000	0.216063
1919.000000	0.216433
1920.000000	0.216727
1921.000000	0.217465
1922.000000	0.218648
1923.000000	0.219270
1924.000000	0.220395
1925.000000	0.220654
1926.000000	0.220759
1927.000000	0.221646
1928.000000	0.222132
1929.000000	0.222397
1930.000000	0.223334
1931.000000	0.223608
1932.000000	0.223274
1933.000000	0.223164
1934.000000	0.222935
1935.000000	0.223600
1936.000000	0.224158
1937.000000	0.224617
1938.000000	0.225219
1939.000000	0.225352
1940.000000	0.225054
1941.000000	0.224715
1942.000000	0.224262
1943.000000	0.223791
1944.000000	0.223662
1945.000000	0.223861
1946.000000	0.224251
1947.000000	0.224852
1948.000000	0.225515
1949.000000	0.226146
1950.000000	0.226608
1951.000000	0.226690
1952.000000	0.226500
1953.000000	0.226028
1954.000000	0.225292
1955.000000	0.225009
1956.000000	0.225050
1957.000000	0.225389
1958.000000	0.226223
1959.000000	0.226777
1960.000000	0.227452
1961.000000	0.227925
1962.000000	0.228193
1963.000000	0.228331
1964.000000	0.228386
1965.000000	0.228177
1966.000000	0.227984
1967.000000	0.227405
1968.000000	0.227341
1969.000000	0.227606
1970.000000	0.227846
1971.000000	0.228273
1972.000000	0.228781
1973.000000	0.228729
1974.000000	0.227996
1975.000000	0.227802
1976.000000	0.227593
1977.000000	0.227367
1978.000000	0.227685
1979.000000	0.228577
1980.000000	0.229395
1981.000000	0.230236
1982.000000	0.231321
1983.000000	0.232191
1984.000000	0.232741
1985.000000	0.233276
1986.000000	0.233531
1987.000000	0.233322
1988.000000	0.233267
1989.000000	0.233743
1990.000000	0.234097
1991.000000	0.234580
1992.000000	0.235308
1993.000000	0.235764
1994.000000	0.236441
1995.000000	0.237119
1996.000000	0.237451
1997.000000	0.237974
1998.000000	0.238501
1999.000000	0.239051
2000.000000	0.239682
2001.000000	0.240428
2002.000000	0.240956
2003.000000	0.241355
2004.000000	0.241525
2005.000000	0.241937
2006.000000	0.242637
2007.000000	0.243397
2008.000000	0.244193
2009.000000	0.245259
2010.000000	0.245935
2011.000000	0.246348
2012.000000	0.246786
2013.000000	0.246967
2014.000000	0.247390
2015.000000	0.247464
2016.000000	0.247545
2017.000000	0.247863
2018.000000	0.247906
2019.000000	0.248550
2020.000000	0.249801
2021.000000	0.250765
2022.000000	0.252058
2023.000000	0.252716
2024.000000	0.252755
2025.000000	0.253317
2026.000000	0.253606
2027.000000	0.254158
2028.000000	0.255136
2029.000000	0.256048
2030.000000	0.256672
2031.000000	0.257102
2032.000000	0.257756
2033.000000	0.258379
2034.000000	0.258706
2035.000000	0.258918
2036.000000	0.259099
2037.000000	0.259123
2038.000000	0.259370
2039.000000	0.259734
2040.000000	0.260002
2041.000000	0.261207
2042.000000	0.261899
2043.000000	0.261910
2044.000000	0.262436
2045.000000	0.262263
2046.000000	0.261812
2047.000000	0.262160
2048.000000	0.263288
2049.000000	0.263998
2050.000000	0.264513
2051.000000	0.265209
2052.000000	0.266068
2053.000000	0.266398
2054.000000	0.266919
2055.000000	0.267129
2056.000000	0.266638
2057.000000	0.266389
2058.000000	0.266539
2059.000000	0.267155
2060.000000	0.267599
2061.000000	0.268481
2062.000000	0.268767
2063.000000	0.268585
2064.000000	0.268720
2065.000000	0.269050
2066.000000	0.269266
2067.000000	0.269942
2068.000000	0.270551
2069.000000	0.270187
2070.000000	0.270059
2071.000000	0.270472
2072.000000	0.270498
2073.000000	0.270697
2074.000000	0.271449
2075.000000	0.271818
2076.000000	0.271777
2077.000000	0.271906
2078.000000	0.271901
2079.000000	0.272262
2080.000000	0.272885
2081.000000	0.273378
2082.000000	0.274205
2083.000000	0.274905
2084.000000	0.275165
2085.000000	0.275696
2086.000000	0.276106
2087.000000	0.276773
2088.000000	0.277175
2089.000000	0.277079
2090.000000	0.276881
2091.000000	0.276055
2092.000000	0.275910
2093.000000	0.275780
2094.000000	0.276017
2095.000000	0.277304
2096.000000	0.277844
2097.000000	0.277998
2098.000000	0.278195
2099.000000	0.278554
2100.000000	0.278394
2101.000000	0.278999
2102.000000	0.279452
2103.000000	0.280111
2104.000000	0.281338
2105.000000	0.282034
2106.000000	0.283045
2107.000000	0.283425
2108.000000	0.282802
2109.000000	0.282904
2110.000000	0.283129
2111.000000	0.283168
2112.000000	0.283373
2113.000000	0.283184
2114.000000	0.282546
2115.000000	0.281879
2116.000000	0.281611
2117.000000	0.281014
2118.000000	0.281116
2119.000000	0.281089
2120.000000	0.281464
2121.000000	0.282460
2122.000000	0.283032
2123.000000	0.283630
2124.000000	0.284275
2125.000000	0.284795
2126.000000	0.284892
2127.000000	0.284771
2128.000000	0.285045
2129.000000	0.284664
2130.000000	0.285443
2131.000000	0.286035
2132.000000	0.286683
2133.000000	0.287579
2134.000000	0.287380
2135.000000	0.286881
2136.000000	0.286841
2137.000000	0.286333
2138.000000	0.284652
2139.000000	0.284388
2140.000000	0.285132
2141.000000	0.285090
2142.000000	0.285419
2143.000000	0.285185
2144.000000	0.283733
2145.000000	0.283559
2146.000000	0.283790
2147.000000	0.285026
2148.000000	0.286479
2149.000000	0.288159
2150.000000	0.288468
2151.000000	0.288185
2152.000000	0.287262
2153.000000	0.286225
2154.000000	0.286140
2155.000000	0.286860
2156.000000	0.287033
2157.000000	0.288007
2158.000000	0.287780
2159.000000	0.286245
2160.000000	0.285746
2161.000000	0.284770
2162.000000	0.285098
2163.000000	0.287157
2164.000000	0.287993
2165.000000	0.289323
2166.000000	0.289451
2167.000000	0.289070
2168.000000	0.288080
2169.000000	0.287667
2170.000000	0.287467
2171.000000	0.287396
2172.000000	0.287815
2173.000000	0.288016
2174.000000	0.288215
2175.000000	0.288582
2176.000000	0.288815
2177.000000	0.288887
2178.000000	0.289143
2179.000000	0.289236
2180.000000	0.289057
2181.000000	0.289676
2182.000000	0.290395
2183.000000	0.290588
2184.000000	0.290957
2185.000000	0.289767
2186.000000	0.287528
2187.000000	0.285926
2188.000000	0.284981
2189.000000	0.284568
2190.000000	0.284955
2191.000000	0.286041
2192.000000	0.286962
2193.000000	0.288683
2194.000000	0.289017
2195.000000	0.289585
2196.000000	0.288622
2197.000000	0.284134
2198.000000	0.283076
2199.000000	0.282166
2200.000000	0.282505
2201.000000	0.286938
2202.000000	0.289495
2203.000000	0.291321
2204.000000	0.294349
2205.000000	0.294158
2206.000000	0.293768
2207.000000	0.291951
2208.000000	0.288944
2209.000000	0.288523
2210.000000	0.289229
2211.000000	0.290717
2212.000000	0.291926
2213.000000	0.292785
2214.000000	0.293706
2215.000000	0.293624
2216.000000	0.293691
2217.000000	0.291968
2218.000000	0.287414
2219.000000	0.285597
2220.000000	0.283508
2221.000000	0.282369
2222.000000	0.283788
2223.000000	0.283586
2224.000000	0.281347
2225.000000	0.282404
2226.000000	0.284369
2227.000000	0.284122
2228.000000	0.284340
2229.000000	0.281102
2230.000000	0.274962
2231.000000	0.272200
2232.000000	0.270387
2233.000000	0.270301
2234.000000	0.273156
2235.000000	0.276519
2236.000000	0.279345
2237.000000	0.283820
2238.000000	0.285401
2239.000000	0.285762
2240.000000	0.285428
2241.000000	0.282188
2242.000000	0.281332
2243.000000	0.280880
2244.000000	0.280638
2245.000000	0.282289
2246.000000	0.282778
2247.000000	0.282577
2248.000000	0.281876
2249.000000	0.280875
2250.000000	0.278582
2251.000000	0.277577
2252.000000	0.277568
2253.000000	0.276635
2254.000000	0.277768
2255.000000	0.277628
2256.000000	0.276802
2257.000000	0.276774
2258.000000	0.274634
2259.000000	0.273216
2260.000000	0.272820
2261.000000	0.273697
2262.000000	0.277763
2263.000000	0.278796
2264.000000	0.278977
2265.000000	0.279153
2266.000000	0.276770
2267.000000	0.276524
2268.000000	0.278366
2269.000000	0.279287
2270.000000	0.281593
2271.000000	0.281059
2272.000000	0.279359
2273.000000	0.276685
2274.000000	0.270408
2275.000000	0.267024
2276.000000	0.264598
2277.000000	0.261360
2278.000000	0.259612
2279.000000	0.259136
2280.000000	0.258601
2281.000000	0.258603
2282.000000	0.260130
2283.000000	0.261436
2284.000000	0.261647
2285.000000	0.262119
2286.000000	0.262538
2287.000000	0.262350
2288.000000	0.261461
2289.000000	0.260685
2290.000000	0.258319
2291.000000	0.255571
2292.000000	0.254576
2293.000000	0.253576
2294.000000	0.253533
2295.000000	0.255926
2296.000000	0.256048
2297.000000	0.255026
2298.000000	0.254668
2299.000000	0.253041
2300.000000	0.253125
2301.000000	0.255066
2302.000000	0.256169
2303.000000	0.258339
2304.000000	0.257787
2305.000000	0.255347
2306.000000	0.253859
2307.000000	0.250238
2308.000000	0.249267
2309.000000	0.251438
2310.000000	0.252151
2311.000000	0.253363
2312.000000	0.255395
2313.000000	0.255081
2314.000000	0.254325
2315.000000	0.256382
2316.000000	0.257745
2317.000000	0.258609
2318.000000	0.261187
2319.000000	0.260264
2320.000000	0.259754
2321.000000	0.261355
2322.000000	0.260523
2323.000000	0.260916
2324.000000	0.260572
2325.000000	0.259003
2326.000000	0.258857
2327.000000	0.259055
2328.000000	0.258464
2329.000000	0.257160
2330.000000	0.256167
2331.000000	0.254706
2332.000000	0.253692
2333.000000	0.252345
2334.000000	0.251547
2335.000000	0.251830
2336.000000	0.252022
2337.000000	0.252023
2338.000000	0.253551
2339.000000	0.253709
2340.000000	0.252034
2341.000000	0.253089
2342.000000	0.256233
2343.000000	0.257625
2344.000000	0.261066
2345.000000	0.260186
2346.000000	0.254836
2347.000000	0.250934
2348.000000	0.245409
2349.000000	0.239935
2350.000000	0.238750
2351.000000	0.240237
2352.000000	0.241112
2353.000000	0.243347
2354.000000	0.243100
2355.000000	0.241931
2356.000000	0.243562
2357.000000	0.243612
2358.000000	0.243046
2359.000000	0.243370
2360.000000	0.239042
2361.000000	0.235237
2362.000000	0.234325
2363.000000	0.231504
2364.000000	0.232188
2365.000000	0.235322
2366.000000	0.234423
2367.000000	0.233310
2368.000000	0.228848
2369.000000	0.220672
2370.000000	0.216851
2371.000000	0.214780
2372.000000	0.216269
2373.000000	0.220873
2374.000000	0.223892
2375.000000	0.227766
2376.000000	0.231101
2377.000000	0.234312
2378.000000	0.233953
2379.000000	0.230045
2380.000000	0.225568
2381.000000	0.219614
2382.000000	0.217154
2383.000000	0.220667
2384.000000	0.222827
2385.000000	0.217903
2386.000000	0.215493
2387.000000	0.216998
2388.000000	0.217282
2389.000000	0.220876
2390.000000	0.223726
2391.000000	0.216392
2392.000000	0.210285
2393.000000	0.212038
2394.000000	0.209740
2395.000000	0.210024
2396.000000	0.211003
2397.000000	0.209848
2398.000000	0.214827
2399.000000	0.213586
2400.000000	0.207523
2401.000000	0.202895
2402.000000	0.196945
2403.000000	0.194390
2404.000000	0.201159
2405.000000	0.208480
2406.000000	0.209286
2407.000000	0.212492
2408.000000	0.210922
2409.000000	0.206532
2410.000000	0.205374
2411.000000	0.203079
2412.000000	0.200983
2413.000000	0.199879
2414.000000	0.204762
2415.000000	0.211633
2416.000000	0.216264
2417.000000	0.223025
2418.000000	0.223171
2419.000000	0.220276
2420.000000	0.224334
2421.000000	0.216728
2422.000000	0.214413
2423.000000	0.220823
2424.000000	0.213900
2425.000000	0.212571
2426.000000	0.213030
2427.000000	0.202834
2428.000000	0.189840
2429.000000	0.185406
2430.000000	0.180550
2431.000000	0.176824
2432.000000	0.187873
2433.000000	0.200241
2434.000000	0.211127
2435.000000	0.227163
2436.000000	0.236864
2437.000000	0.229225
2438.000000	0.225966
2439.000000	0.213058
2440.000000	0.192117
2441.000000	0.195435
2442.000000	0.196895
2443.000000	0.205797
2444.000000	0.221597
2445.000000	0.226400
2446.000000	0.231196
2447.000000	0.219975
2448.000000	0.200351
2449.000000	0.187557
2450.000000	0.180790
2451.000000	0.177239
2452.000000	0.183103
2453.000000	0.195425
2454.000000	0.198145
2455.000000	0.202710
2456.000000	0.211937
2457.000000	0.210159
2458.000000	0.212439
2459.000000	0.217420
2460.000000	0.210711
2461.000000	0.205778
2462.000000	0.193400
2463.000000	0.171910
2464.000000	0.155576
2465.000000	0.143770
2466.000000	0.134827
2467.000000	0.137728
2468.000000	0.163201
2469.000000	0.173150
2470.000000	0.171565
2471.000000	0.175766
2472.000000	0.157637
2473.000000	0.150657
2474.000000	0.158392
2475.000000	0.170218
2476.000000	0.161471
2477.000000	0.126496
2478.000000	0.112995
2479.000000	0.095095
2480.000000	0.097169
2481.000000	0.137317
2482.000000	0.164827
2483.000000	0.171126
2484.000000	0.175501
2485.000000	0.168220
2486.000000	0.136017
2487.000000	0.116727
2488.000000	0.111669
2489.000000	0.101810
2490.000000	0.111889
2491.000000	0.083662
2492.000000	0.072490
2493.000000	0.043961
2494.000000	0.043320
2495.000000	0.106218
2496.000000	0.116601
2497.000000	0.106693
2498.000000	0.101193
2499.000000	0.059192
2500.000000	0.022181
