# Wavelength	NAu-2-20_HEX-40_FV7-40_00002.asd.rts.txt
350.000000	0.150107
351.000000	0.143169
352.000000	0.138346
353.000000	0.144021
354.000000	0.158997
355.000000	0.160130
356.000000	0.156439
357.000000	0.151858
358.000000	0.144989
359.000000	0.141292
360.000000	0.148505
361.000000	0.168690
362.000000	0.166486
363.000000	0.161195
364.000000	0.164892
365.000000	0.163477
366.000000	0.158089
367.000000	0.154103
368.000000	0.162115
369.000000	0.166309
370.000000	0.165493
371.000000	0.163528
372.000000	0.167239
373.000000	0.166530
374.000000	0.158461
375.000000	0.162354
376.000000	0.163281
377.000000	0.159317
378.000000	0.160848
379.000000	0.161877
380.000000	0.161402
381.000000	0.160794
382.000000	0.164033
383.000000	0.167458
384.000000	0.168364
385.000000	0.167693
386.000000	0.168257
387.000000	0.169717
388.000000	0.167841
389.000000	0.168799
390.000000	0.171655
391.000000	0.172810
392.000000	0.171162
393.000000	0.169645
394.000000	0.170153
395.000000	0.169308
396.000000	0.169880
397.000000	0.171592
398.000000	0.169714
399.000000	0.170156
400.000000	0.171686
401.000000	0.170351
402.000000	0.171408
403.000000	0.173240
404.000000	0.173731
405.000000	0.173003
406.000000	0.172525
407.000000	0.172955
408.000000	0.173781
409.000000	0.173732
410.000000	0.173426
411.000000	0.174574
412.000000	0.175274
413.000000	0.175591
414.000000	0.175907
415.000000	0.175369
416.000000	0.175442
417.000000	0.176589
418.000000	0.176790
419.000000	0.177247
420.000000	0.178024
421.000000	0.178270
422.000000	0.178295
423.000000	0.178284
424.000000	0.178455
425.000000	0.178842
426.000000	0.179192
427.000000	0.179352
428.000000	0.179619
429.000000	0.179844
430.000000	0.180079
431.000000	0.180652
432.000000	0.181470
433.000000	0.181990
434.000000	0.181598
435.000000	0.181656
436.000000	0.182187
437.000000	0.182805
438.000000	0.182721
439.000000	0.182436
440.000000	0.182411
441.000000	0.182739
442.000000	0.183017
443.000000	0.183300
444.000000	0.184088
445.000000	0.184300
446.000000	0.184146
447.000000	0.184077
448.000000	0.184398
449.000000	0.184863
450.000000	0.185274
451.000000	0.185726
452.000000	0.186057
453.000000	0.186269
454.000000	0.186721
455.000000	0.187252
456.000000	0.187733
457.000000	0.187936
458.000000	0.188347
459.000000	0.188792
460.000000	0.189102
461.000000	0.189436
462.000000	0.189795
463.000000	0.190039
464.000000	0.190155
465.000000	0.190229
466.000000	0.190334
467.000000	0.190644
468.000000	0.190893
469.000000	0.191109
470.000000	0.191493
471.000000	0.191833
472.000000	0.192165
473.000000	0.192513
474.000000	0.192725
475.000000	0.192857
476.000000	0.193058
477.000000	0.193334
478.000000	0.193553
479.000000	0.193857
480.000000	0.194219
481.000000	0.194526
482.000000	0.194813
483.000000	0.194985
484.000000	0.195201
485.000000	0.195433
486.000000	0.195791
487.000000	0.196259
488.000000	0.196373
489.000000	0.196310
490.000000	0.196675
491.000000	0.196906
492.000000	0.197077
493.000000	0.197279
494.000000	0.197277
495.000000	0.197523
496.000000	0.198152
497.000000	0.198393
498.000000	0.198476
499.000000	0.198589
500.000000	0.198731
501.000000	0.199131
502.000000	0.199530
503.000000	0.199415
504.000000	0.199527
505.000000	0.199816
506.000000	0.200096
507.000000	0.200245
508.000000	0.200512
509.000000	0.200945
510.000000	0.201280
511.000000	0.201651
512.000000	0.202050
513.000000	0.202321
514.000000	0.202487
515.000000	0.202705
516.000000	0.203104
517.000000	0.203582
518.000000	0.203986
519.000000	0.204204
520.000000	0.204562
521.000000	0.204997
522.000000	0.205433
523.000000	0.205727
524.000000	0.206122
525.000000	0.206620
526.000000	0.207132
527.000000	0.207642
528.000000	0.208167
529.000000	0.208770
530.000000	0.209385
531.000000	0.210133
532.000000	0.210953
533.000000	0.211551
534.000000	0.212263
535.000000	0.213132
536.000000	0.213955
537.000000	0.214615
538.000000	0.215218
539.000000	0.215953
540.000000	0.216679
541.000000	0.217355
542.000000	0.217986
543.000000	0.218546
544.000000	0.219136
545.000000	0.219743
546.000000	0.220332
547.000000	0.220956
548.000000	0.221631
549.000000	0.222275
550.000000	0.222917
551.000000	0.223592
552.000000	0.224302
553.000000	0.225182
554.000000	0.226089
555.000000	0.226942
556.000000	0.227926
557.000000	0.228907
558.000000	0.229906
559.000000	0.230845
560.000000	0.231780
561.000000	0.232749
562.000000	0.233659
563.000000	0.234618
564.000000	0.235588
565.000000	0.236423
566.000000	0.237203
567.000000	0.237941
568.000000	0.238651
569.000000	0.239434
570.000000	0.240130
571.000000	0.240713
572.000000	0.241293
573.000000	0.241853
574.000000	0.242369
575.000000	0.242857
576.000000	0.243267
577.000000	0.243613
578.000000	0.243973
579.000000	0.244351
580.000000	0.244633
581.000000	0.244801
582.000000	0.244993
583.000000	0.245195
584.000000	0.245400
585.000000	0.245597
586.000000	0.245771
587.000000	0.245883
588.000000	0.245913
589.000000	0.245964
590.000000	0.245997
591.000000	0.245993
592.000000	0.246016
593.000000	0.246004
594.000000	0.245976
595.000000	0.246043
596.000000	0.246007
597.000000	0.245924
598.000000	0.245853
599.000000	0.245700
600.000000	0.245537
601.000000	0.245369
602.000000	0.245180
603.000000	0.245034
604.000000	0.244952
605.000000	0.244874
606.000000	0.244699
607.000000	0.244482
608.000000	0.244387
609.000000	0.244205
610.000000	0.243998
611.000000	0.243868
612.000000	0.243722
613.000000	0.243616
614.000000	0.243557
615.000000	0.243258
616.000000	0.243049
617.000000	0.242971
618.000000	0.242855
619.000000	0.242715
620.000000	0.242559
621.000000	0.242446
622.000000	0.242299
623.000000	0.242214
624.000000	0.242230
625.000000	0.242068
626.000000	0.241929
627.000000	0.241898
628.000000	0.241856
629.000000	0.241821
630.000000	0.241730
631.000000	0.241714
632.000000	0.241675
633.000000	0.241666
634.000000	0.241726
635.000000	0.241773
636.000000	0.241780
637.000000	0.241749
638.000000	0.241783
639.000000	0.241820
640.000000	0.241886
641.000000	0.241951
642.000000	0.242007
643.000000	0.242081
644.000000	0.242205
645.000000	0.242282
646.000000	0.242397
647.000000	0.242576
648.000000	0.242702
649.000000	0.242874
650.000000	0.243087
651.000000	0.243239
652.000000	0.243399
653.000000	0.243614
654.000000	0.243854
655.000000	0.244074
656.000000	0.244310
657.000000	0.244559
658.000000	0.244826
659.000000	0.245132
660.000000	0.245454
661.000000	0.245722
662.000000	0.245983
663.000000	0.246287
664.000000	0.246599
665.000000	0.246938
666.000000	0.247310
667.000000	0.247692
668.000000	0.248075
669.000000	0.248486
670.000000	0.248940
671.000000	0.249398
672.000000	0.249900
673.000000	0.250425
674.000000	0.250915
675.000000	0.251366
676.000000	0.251832
677.000000	0.252382
678.000000	0.252885
679.000000	0.253403
680.000000	0.253989
681.000000	0.254584
682.000000	0.255216
683.000000	0.255822
684.000000	0.256444
685.000000	0.257056
686.000000	0.257683
687.000000	0.258323
688.000000	0.259001
689.000000	0.259725
690.000000	0.260509
691.000000	0.261274
692.000000	0.261961
693.000000	0.262634
694.000000	0.263342
695.000000	0.264108
696.000000	0.264899
697.000000	0.265663
698.000000	0.266432
699.000000	0.267254
700.000000	0.268141
701.000000	0.268944
702.000000	0.269732
703.000000	0.270525
704.000000	0.271326
705.000000	0.272176
706.000000	0.273046
707.000000	0.273960
708.000000	0.274884
709.000000	0.275784
710.000000	0.276661
711.000000	0.277561
712.000000	0.278467
713.000000	0.279393
714.000000	0.280352
715.000000	0.281265
716.000000	0.282121
717.000000	0.282929
718.000000	0.283802
719.000000	0.284683
720.000000	0.285532
721.000000	0.286432
722.000000	0.287303
723.000000	0.288172
724.000000	0.289046
725.000000	0.289820
726.000000	0.290638
727.000000	0.291572
728.000000	0.292410
729.000000	0.293230
730.000000	0.294072
731.000000	0.294925
732.000000	0.295743
733.000000	0.296550
734.000000	0.297347
735.000000	0.298151
736.000000	0.299015
737.000000	0.299759
738.000000	0.300460
739.000000	0.301177
740.000000	0.301794
741.000000	0.302462
742.000000	0.303099
743.000000	0.303679
744.000000	0.304325
745.000000	0.304898
746.000000	0.305470
747.000000	0.306075
748.000000	0.306658
749.000000	0.307235
750.000000	0.307782
751.000000	0.308269
752.000000	0.308748
753.000000	0.309231
754.000000	0.309675
755.000000	0.310070
756.000000	0.310465
757.000000	0.310868
758.000000	0.311291
759.000000	0.311763
760.000000	0.312214
761.000000	0.312637
762.000000	0.313002
763.000000	0.313330
764.000000	0.313753
765.000000	0.314096
766.000000	0.314401
767.000000	0.314723
768.000000	0.315010
769.000000	0.315281
770.000000	0.315544
771.000000	0.315773
772.000000	0.316019
773.000000	0.316248
774.000000	0.316525
775.000000	0.316804
776.000000	0.317033
777.000000	0.317182
778.000000	0.317348
779.000000	0.317541
780.000000	0.317733
781.000000	0.317834
782.000000	0.317994
783.000000	0.318246
784.000000	0.318412
785.000000	0.318598
786.000000	0.318748
787.000000	0.318850
788.000000	0.319003
789.000000	0.319102
790.000000	0.319128
791.000000	0.319160
792.000000	0.319245
793.000000	0.319321
794.000000	0.319347
795.000000	0.319376
796.000000	0.319443
797.000000	0.319536
798.000000	0.319608
799.000000	0.319704
800.000000	0.319784
801.000000	0.319804
802.000000	0.319813
803.000000	0.319833
804.000000	0.319892
805.000000	0.319894
806.000000	0.319828
807.000000	0.319796
808.000000	0.319795
809.000000	0.319821
810.000000	0.319907
811.000000	0.320022
812.000000	0.319995
813.000000	0.319895
814.000000	0.319795
815.000000	0.319792
816.000000	0.319814
817.000000	0.319857
818.000000	0.319851
819.000000	0.319924
820.000000	0.319921
821.000000	0.319779
822.000000	0.319737
823.000000	0.319739
824.000000	0.319742
825.000000	0.319811
826.000000	0.319804
827.000000	0.319690
828.000000	0.319544
829.000000	0.319466
830.000000	0.319409
831.000000	0.319405
832.000000	0.319347
833.000000	0.319290
834.000000	0.319260
835.000000	0.319270
836.000000	0.319163
837.000000	0.319018
838.000000	0.318919
839.000000	0.318899
840.000000	0.318905
841.000000	0.318853
842.000000	0.318677
843.000000	0.318614
844.000000	0.318516
845.000000	0.318330
846.000000	0.318194
847.000000	0.318078
848.000000	0.318030
849.000000	0.318094
850.000000	0.318014
851.000000	0.317843
852.000000	0.317698
853.000000	0.317649
854.000000	0.317475
855.000000	0.317360
856.000000	0.317363
857.000000	0.317260
858.000000	0.317189
859.000000	0.317128
860.000000	0.317024
861.000000	0.316778
862.000000	0.316528
863.000000	0.316401
864.000000	0.316357
865.000000	0.316280
866.000000	0.316154
867.000000	0.316065
868.000000	0.316028
869.000000	0.315887
870.000000	0.315575
871.000000	0.315313
872.000000	0.315115
873.000000	0.314907
874.000000	0.314724
875.000000	0.314456
876.000000	0.314173
877.000000	0.313937
878.000000	0.313671
879.000000	0.313459
880.000000	0.313219
881.000000	0.313043
882.000000	0.312844
883.000000	0.312673
884.000000	0.312550
885.000000	0.312398
886.000000	0.312191
887.000000	0.311980
888.000000	0.311839
889.000000	0.311834
890.000000	0.311757
891.000000	0.311555
892.000000	0.311282
893.000000	0.310989
894.000000	0.310831
895.000000	0.310727
896.000000	0.310530
897.000000	0.310273
898.000000	0.310044
899.000000	0.309769
900.000000	0.309491
901.000000	0.309246
902.000000	0.309190
903.000000	0.308978
904.000000	0.308699
905.000000	0.308421
906.000000	0.308113
907.000000	0.307818
908.000000	0.307620
909.000000	0.307462
910.000000	0.307341
911.000000	0.307255
912.000000	0.307189
913.000000	0.306983
914.000000	0.306749
915.000000	0.306547
916.000000	0.306233
917.000000	0.305904
918.000000	0.305709
919.000000	0.305653
920.000000	0.305466
921.000000	0.305189
922.000000	0.304929
923.000000	0.304777
924.000000	0.304519
925.000000	0.304266
926.000000	0.304075
927.000000	0.303719
928.000000	0.303395
929.000000	0.303088
930.000000	0.302753
931.000000	0.302539
932.000000	0.302324
933.000000	0.302085
934.000000	0.301815
935.000000	0.301571
936.000000	0.301401
937.000000	0.301203
938.000000	0.300866
939.000000	0.300805
940.000000	0.300811
941.000000	0.300510
942.000000	0.300294
943.000000	0.300102
944.000000	0.299798
945.000000	0.299656
946.000000	0.299374
947.000000	0.299148
948.000000	0.299138
949.000000	0.298884
950.000000	0.298644
951.000000	0.298394
952.000000	0.297965
953.000000	0.297806
954.000000	0.297622
955.000000	0.297159
956.000000	0.296912
957.000000	0.296762
958.000000	0.296552
959.000000	0.296262
960.000000	0.296018
961.000000	0.295734
962.000000	0.295380
963.000000	0.295070
964.000000	0.294886
965.000000	0.294774
966.000000	0.294551
967.000000	0.294274
968.000000	0.294069
969.000000	0.293798
970.000000	0.293387
971.000000	0.293159
972.000000	0.293140
973.000000	0.293041
974.000000	0.292466
975.000000	0.292410
976.000000	0.292458
977.000000	0.292179
978.000000	0.292068
979.000000	0.291953
980.000000	0.291593
981.000000	0.291248
982.000000	0.291159
983.000000	0.290863
984.000000	0.290464
985.000000	0.290511
986.000000	0.290360
987.000000	0.290110
988.000000	0.289804
989.000000	0.289414
990.000000	0.289458
991.000000	0.289568
992.000000	0.289293
993.000000	0.289165
994.000000	0.289243
995.000000	0.289381
996.000000	0.288993
997.000000	0.288786
998.000000	0.288900
999.000000	0.289064
1000.000000	0.288332
1001.000000	0.289302
1002.000000	0.288608
1003.000000	0.288386
1004.000000	0.288322
1005.000000	0.288250
1006.000000	0.287930
1007.000000	0.287962
1008.000000	0.287557
1009.000000	0.286764
1010.000000	0.286837
1011.000000	0.287026
1012.000000	0.286999
1013.000000	0.287043
1014.000000	0.286402
1015.000000	0.286036
1016.000000	0.287243
1017.000000	0.287927
1018.000000	0.288217
1019.000000	0.288368
1020.000000	0.287969
1021.000000	0.287435
1022.000000	0.286890
1023.000000	0.286865
1024.000000	0.286705
1025.000000	0.287230
1026.000000	0.287365
1027.000000	0.287278
1028.000000	0.287732
1029.000000	0.287668
1030.000000	0.287498
1031.000000	0.287536
1032.000000	0.287767
1033.000000	0.287918
1034.000000	0.287655
1035.000000	0.287321
1036.000000	0.287367
1037.000000	0.286708
1038.000000	0.286704
1039.000000	0.287724
1040.000000	0.288531
1041.000000	0.288348
1042.000000	0.288362
1043.000000	0.288149
1044.000000	0.287972
1045.000000	0.287920
1046.000000	0.287959
1047.000000	0.288231
1048.000000	0.288579
1049.000000	0.288751
1050.000000	0.289200
1051.000000	0.289338
1052.000000	0.289251
1053.000000	0.289033
1054.000000	0.288507
1055.000000	0.288601
1056.000000	0.288737
1057.000000	0.289147
1058.000000	0.290451
1059.000000	0.291230
1060.000000	0.291236
1061.000000	0.291062
1062.000000	0.290440
1063.000000	0.290255
1064.000000	0.290326
1065.000000	0.290885
1066.000000	0.291208
1067.000000	0.291673
1068.000000	0.291801
1069.000000	0.291577
1070.000000	0.291774
1071.000000	0.292039
1072.000000	0.292303
1073.000000	0.292844
1074.000000	0.293569
1075.000000	0.293714
1076.000000	0.293886
1077.000000	0.293994
1078.000000	0.293726
1079.000000	0.293807
1080.000000	0.293988
1081.000000	0.294120
1082.000000	0.294408
1083.000000	0.294746
1084.000000	0.295195
1085.000000	0.295434
1086.000000	0.295682
1087.000000	0.295937
1088.000000	0.295836
1089.000000	0.295940
1090.000000	0.296307
1091.000000	0.296444
1092.000000	0.296420
1093.000000	0.296364
1094.000000	0.296684
1095.000000	0.297133
1096.000000	0.297376
1097.000000	0.297850
1098.000000	0.298153
1099.000000	0.298078
1100.000000	0.298225
1101.000000	0.298528
1102.000000	0.298700
1103.000000	0.298619
1104.000000	0.298806
1105.000000	0.299130
1106.000000	0.299471
1107.000000	0.299947
1108.000000	0.300301
1109.000000	0.300815
1110.000000	0.301031
1111.000000	0.301221
1112.000000	0.301316
1113.000000	0.301454
1114.000000	0.301438
1115.000000	0.301617
1116.000000	0.302005
1117.000000	0.302108
1118.000000	0.302006
1119.000000	0.302130
1120.000000	0.302287
1121.000000	0.302373
1122.000000	0.302652
1123.000000	0.303055
1124.000000	0.303158
1125.000000	0.303351
1126.000000	0.303799
1127.000000	0.303943
1128.000000	0.303934
1129.000000	0.303738
1130.000000	0.303700
1131.000000	0.303449
1132.000000	0.303563
1133.000000	0.304174
1134.000000	0.304220
1135.000000	0.304027
1136.000000	0.304010
1137.000000	0.303599
1138.000000	0.303601
1139.000000	0.304143
1140.000000	0.304515
1141.000000	0.304962
1142.000000	0.305235
1143.000000	0.305304
1144.000000	0.305525
1145.000000	0.305591
1146.000000	0.305537
1147.000000	0.305548
1148.000000	0.305508
1149.000000	0.305489
1150.000000	0.305433
1151.000000	0.305485
1152.000000	0.305537
1153.000000	0.305642
1154.000000	0.305841
1155.000000	0.305879
1156.000000	0.305895
1157.000000	0.305849
1158.000000	0.305610
1159.000000	0.305475
1160.000000	0.305244
1161.000000	0.305182
1162.000000	0.305305
1163.000000	0.305539
1164.000000	0.305650
1165.000000	0.305782
1166.000000	0.305815
1167.000000	0.305639
1168.000000	0.305605
1169.000000	0.305611
1170.000000	0.305677
1171.000000	0.305827
1172.000000	0.305960
1173.000000	0.306113
1174.000000	0.306231
1175.000000	0.306382
1176.000000	0.306396
1177.000000	0.306345
1178.000000	0.306343
1179.000000	0.306271
1180.000000	0.306184
1181.000000	0.306193
1182.000000	0.306225
1183.000000	0.306214
1184.000000	0.306343
1185.000000	0.306480
1186.000000	0.306730
1187.000000	0.306779
1188.000000	0.306764
1189.000000	0.306784
1190.000000	0.306746
1191.000000	0.306777
1192.000000	0.307020
1193.000000	0.307193
1194.000000	0.307199
1195.000000	0.307248
1196.000000	0.307200
1197.000000	0.307236
1198.000000	0.307362
1199.000000	0.307430
1200.000000	0.307501
1201.000000	0.307621
1202.000000	0.307558
1203.000000	0.307475
1204.000000	0.307503
1205.000000	0.307421
1206.000000	0.307339
1207.000000	0.307395
1208.000000	0.307317
1209.000000	0.307142
1210.000000	0.307116
1211.000000	0.307179
1212.000000	0.307112
1213.000000	0.307054
1214.000000	0.307090
1215.000000	0.307015
1216.000000	0.307065
1217.000000	0.307406
1218.000000	0.307433
1219.000000	0.307310
1220.000000	0.307249
1221.000000	0.307188
1222.000000	0.307182
1223.000000	0.307312
1224.000000	0.307447
1225.000000	0.307568
1226.000000	0.307553
1227.000000	0.307591
1228.000000	0.307884
1229.000000	0.307927
1230.000000	0.307801
1231.000000	0.307825
1232.000000	0.307932
1233.000000	0.308054
1234.000000	0.308280
1235.000000	0.308389
1236.000000	0.308380
1237.000000	0.308393
1238.000000	0.308296
1239.000000	0.308300
1240.000000	0.308344
1241.000000	0.308291
1242.000000	0.308330
1243.000000	0.308255
1244.000000	0.308167
1245.000000	0.308239
1246.000000	0.308280
1247.000000	0.308487
1248.000000	0.308771
1249.000000	0.308812
1250.000000	0.308763
1251.000000	0.308804
1252.000000	0.308835
1253.000000	0.308847
1254.000000	0.308810
1255.000000	0.308788
1256.000000	0.308818
1257.000000	0.308808
1258.000000	0.308853
1259.000000	0.308976
1260.000000	0.309017
1261.000000	0.308862
1262.000000	0.308879
1263.000000	0.309025
1264.000000	0.309076
1265.000000	0.309201
1266.000000	0.309125
1267.000000	0.308906
1268.000000	0.308863
1269.000000	0.308837
1270.000000	0.308880
1271.000000	0.308949
1272.000000	0.308991
1273.000000	0.309058
1274.000000	0.309092
1275.000000	0.309097
1276.000000	0.309134
1277.000000	0.309185
1278.000000	0.309090
1279.000000	0.309070
1280.000000	0.309055
1281.000000	0.309053
1282.000000	0.309102
1283.000000	0.309213
1284.000000	0.309348
1285.000000	0.309373
1286.000000	0.309299
1287.000000	0.309291
1288.000000	0.309320
1289.000000	0.309353
1290.000000	0.309419
1291.000000	0.309371
1292.000000	0.309280
1293.000000	0.309174
1294.000000	0.309125
1295.000000	0.309301
1296.000000	0.309362
1297.000000	0.309302
1298.000000	0.309309
1299.000000	0.309240
1300.000000	0.309275
1301.000000	0.309456
1302.000000	0.309439
1303.000000	0.309406
1304.000000	0.309361
1305.000000	0.309330
1306.000000	0.309299
1307.000000	0.309324
1308.000000	0.309407
1309.000000	0.309556
1310.000000	0.309554
1311.000000	0.309562
1312.000000	0.309494
1313.000000	0.309263
1314.000000	0.309047
1315.000000	0.309051
1316.000000	0.309209
1317.000000	0.309305
1318.000000	0.309398
1319.000000	0.309434
1320.000000	0.309249
1321.000000	0.308878
1322.000000	0.308629
1323.000000	0.308457
1324.000000	0.308284
1325.000000	0.308305
1326.000000	0.308321
1327.000000	0.308227
1328.000000	0.308268
1329.000000	0.308220
1330.000000	0.308231
1331.000000	0.308208
1332.000000	0.308161
1333.000000	0.308134
1334.000000	0.308199
1335.000000	0.308203
1336.000000	0.308178
1337.000000	0.308136
1338.000000	0.308020
1339.000000	0.307882
1340.000000	0.307790
1341.000000	0.307722
1342.000000	0.307521
1343.000000	0.307443
1344.000000	0.307533
1345.000000	0.307505
1346.000000	0.307610
1347.000000	0.307591
1348.000000	0.307414
1349.000000	0.307223
1350.000000	0.307075
1351.000000	0.306958
1352.000000	0.306838
1353.000000	0.306700
1354.000000	0.306627
1355.000000	0.306532
1356.000000	0.306476
1357.000000	0.306394
1358.000000	0.306205
1359.000000	0.306044
1360.000000	0.305957
1361.000000	0.306024
1362.000000	0.305950
1363.000000	0.305826
1364.000000	0.305697
1365.000000	0.305460
1366.000000	0.305369
1367.000000	0.305309
1368.000000	0.305325
1369.000000	0.305400
1370.000000	0.305144
1371.000000	0.304979
1372.000000	0.304762
1373.000000	0.304439
1374.000000	0.304316
1375.000000	0.304078
1376.000000	0.303993
1377.000000	0.303953
1378.000000	0.303812
1379.000000	0.303637
1380.000000	0.303303
1381.000000	0.302967
1382.000000	0.302665
1383.000000	0.302406
1384.000000	0.302028
1385.000000	0.301600
1386.000000	0.301306
1387.000000	0.300904
1388.000000	0.300331
1389.000000	0.299852
1390.000000	0.299406
1391.000000	0.298789
1392.000000	0.298319
1393.000000	0.297831
1394.000000	0.297442
1395.000000	0.296885
1396.000000	0.296350
1397.000000	0.295555
1398.000000	0.294399
1399.000000	0.293487
1400.000000	0.292580
1401.000000	0.291706
1402.000000	0.290947
1403.000000	0.290176
1404.000000	0.289555
1405.000000	0.288796
1406.000000	0.288006
1407.000000	0.287314
1408.000000	0.286502
1409.000000	0.285747
1410.000000	0.285133
1411.000000	0.284571
1412.000000	0.283987
1413.000000	0.283387
1414.000000	0.282783
1415.000000	0.282240
1416.000000	0.281631
1417.000000	0.280897
1418.000000	0.280305
1419.000000	0.279885
1420.000000	0.279338
1421.000000	0.278887
1422.000000	0.278401
1423.000000	0.277812
1424.000000	0.277279
1425.000000	0.276872
1426.000000	0.276360
1427.000000	0.275844
1428.000000	0.275315
1429.000000	0.274733
1430.000000	0.274408
1431.000000	0.274137
1432.000000	0.273746
1433.000000	0.273404
1434.000000	0.273038
1435.000000	0.272630
1436.000000	0.272259
1437.000000	0.271903
1438.000000	0.271526
1439.000000	0.271086
1440.000000	0.270807
1441.000000	0.270643
1442.000000	0.270563
1443.000000	0.270570
1444.000000	0.270543
1445.000000	0.270451
1446.000000	0.270427
1447.000000	0.270321
1448.000000	0.270212
1449.000000	0.270244
1450.000000	0.270227
1451.000000	0.270185
1452.000000	0.270105
1453.000000	0.270002
1454.000000	0.269860
1455.000000	0.269784
1456.000000	0.269841
1457.000000	0.269852
1458.000000	0.269834
1459.000000	0.269838
1460.000000	0.269860
1461.000000	0.269806
1462.000000	0.269767
1463.000000	0.269737
1464.000000	0.269626
1465.000000	0.269632
1466.000000	0.269660
1467.000000	0.269657
1468.000000	0.269778
1469.000000	0.269952
1470.000000	0.269987
1471.000000	0.269950
1472.000000	0.269869
1473.000000	0.269843
1474.000000	0.269861
1475.000000	0.270070
1476.000000	0.270280
1477.000000	0.270423
1478.000000	0.270607
1479.000000	0.270746
1480.000000	0.271015
1481.000000	0.271238
1482.000000	0.271485
1483.000000	0.271811
1484.000000	0.272180
1485.000000	0.272519
1486.000000	0.272941
1487.000000	0.273290
1488.000000	0.273599
1489.000000	0.273878
1490.000000	0.274022
1491.000000	0.274267
1492.000000	0.274451
1493.000000	0.274706
1494.000000	0.275010
1495.000000	0.275217
1496.000000	0.275367
1497.000000	0.275585
1498.000000	0.275796
1499.000000	0.276078
1500.000000	0.276375
1501.000000	0.276602
1502.000000	0.276743
1503.000000	0.276907
1504.000000	0.277140
1505.000000	0.277356
1506.000000	0.277600
1507.000000	0.277846
1508.000000	0.277994
1509.000000	0.278104
1510.000000	0.278269
1511.000000	0.278454
1512.000000	0.278582
1513.000000	0.278741
1514.000000	0.278888
1515.000000	0.278864
1516.000000	0.278969
1517.000000	0.279165
1518.000000	0.279288
1519.000000	0.279387
1520.000000	0.279480
1521.000000	0.279506
1522.000000	0.279621
1523.000000	0.279828
1524.000000	0.279924
1525.000000	0.279978
1526.000000	0.279950
1527.000000	0.279893
1528.000000	0.280023
1529.000000	0.280158
1530.000000	0.280163
1531.000000	0.280283
1532.000000	0.280306
1533.000000	0.280202
1534.000000	0.280250
1535.000000	0.280394
1536.000000	0.280505
1537.000000	0.280733
1538.000000	0.280992
1539.000000	0.281099
1540.000000	0.281141
1541.000000	0.281229
1542.000000	0.281402
1543.000000	0.281521
1544.000000	0.281589
1545.000000	0.281708
1546.000000	0.281673
1547.000000	0.281705
1548.000000	0.281832
1549.000000	0.281841
1550.000000	0.281884
1551.000000	0.281824
1552.000000	0.281776
1553.000000	0.281805
1554.000000	0.281680
1555.000000	0.281642
1556.000000	0.281664
1557.000000	0.281647
1558.000000	0.281715
1559.000000	0.281884
1560.000000	0.281921
1561.000000	0.281914
1562.000000	0.281945
1563.000000	0.281987
1564.000000	0.282060
1565.000000	0.282238
1566.000000	0.282233
1567.000000	0.282200
1568.000000	0.282200
1569.000000	0.282200
1570.000000	0.282183
1571.000000	0.282202
1572.000000	0.282164
1573.000000	0.282043
1574.000000	0.282010
1575.000000	0.282040
1576.000000	0.282052
1577.000000	0.282077
1578.000000	0.282031
1579.000000	0.282019
1580.000000	0.281960
1581.000000	0.281870
1582.000000	0.281843
1583.000000	0.281832
1584.000000	0.281742
1585.000000	0.281714
1586.000000	0.281720
1587.000000	0.281660
1588.000000	0.281675
1589.000000	0.281877
1590.000000	0.281900
1591.000000	0.281815
1592.000000	0.281852
1593.000000	0.281880
1594.000000	0.281887
1595.000000	0.282024
1596.000000	0.282115
1597.000000	0.282141
1598.000000	0.282254
1599.000000	0.282562
1600.000000	0.282578
1601.000000	0.282483
1602.000000	0.282482
1603.000000	0.282372
1604.000000	0.282367
1605.000000	0.282531
1606.000000	0.282593
1607.000000	0.282685
1608.000000	0.282717
1609.000000	0.282807
1610.000000	0.282802
1611.000000	0.282692
1612.000000	0.282621
1613.000000	0.282572
1614.000000	0.282571
1615.000000	0.282639
1616.000000	0.282737
1617.000000	0.282916
1618.000000	0.282957
1619.000000	0.282882
1620.000000	0.282935
1621.000000	0.283050
1622.000000	0.283129
1623.000000	0.283192
1624.000000	0.283299
1625.000000	0.283251
1626.000000	0.283241
1627.000000	0.283353
1628.000000	0.283457
1629.000000	0.283480
1630.000000	0.283569
1631.000000	0.283710
1632.000000	0.283753
1633.000000	0.283740
1634.000000	0.283803
1635.000000	0.283918
1636.000000	0.283982
1637.000000	0.284051
1638.000000	0.284104
1639.000000	0.284124
1640.000000	0.284221
1641.000000	0.284508
1642.000000	0.284681
1643.000000	0.284878
1644.000000	0.284976
1645.000000	0.284920
1646.000000	0.284942
1647.000000	0.285042
1648.000000	0.285039
1649.000000	0.285052
1650.000000	0.285154
1651.000000	0.285260
1652.000000	0.285427
1653.000000	0.285695
1654.000000	0.285910
1655.000000	0.286041
1656.000000	0.286087
1657.000000	0.286183
1658.000000	0.286226
1659.000000	0.286272
1660.000000	0.286365
1661.000000	0.286377
1662.000000	0.286471
1663.000000	0.286584
1664.000000	0.286682
1665.000000	0.286810
1666.000000	0.286947
1667.000000	0.286998
1668.000000	0.287136
1669.000000	0.287309
1670.000000	0.287391
1671.000000	0.287548
1672.000000	0.287721
1673.000000	0.287803
1674.000000	0.288056
1675.000000	0.288394
1676.000000	0.288534
1677.000000	0.288628
1678.000000	0.288746
1679.000000	0.288722
1680.000000	0.288713
1681.000000	0.288806
1682.000000	0.288782
1683.000000	0.288741
1684.000000	0.288679
1685.000000	0.288575
1686.000000	0.288478
1687.000000	0.288487
1688.000000	0.288533
1689.000000	0.288637
1690.000000	0.288914
1691.000000	0.289008
1692.000000	0.288907
1693.000000	0.289082
1694.000000	0.289033
1695.000000	0.288864
1696.000000	0.288807
1697.000000	0.288797
1698.000000	0.288997
1699.000000	0.289079
1700.000000	0.289172
1701.000000	0.289251
1702.000000	0.288910
1703.000000	0.288834
1704.000000	0.289060
1705.000000	0.289176
1706.000000	0.289472
1707.000000	0.289607
1708.000000	0.289464
1709.000000	0.289467
1710.000000	0.289676
1711.000000	0.289731
1712.000000	0.289789
1713.000000	0.289814
1714.000000	0.289669
1715.000000	0.289703
1716.000000	0.289936
1717.000000	0.290036
1718.000000	0.290107
1719.000000	0.290143
1720.000000	0.290166
1721.000000	0.290155
1722.000000	0.290060
1723.000000	0.290121
1724.000000	0.290244
1725.000000	0.290377
1726.000000	0.290595
1727.000000	0.290701
1728.000000	0.290677
1729.000000	0.290636
1730.000000	0.290682
1731.000000	0.290683
1732.000000	0.290639
1733.000000	0.290678
1734.000000	0.290572
1735.000000	0.290640
1736.000000	0.290793
1737.000000	0.290890
1738.000000	0.291114
1739.000000	0.291158
1740.000000	0.291037
1741.000000	0.291059
1742.000000	0.291075
1743.000000	0.291191
1744.000000	0.291428
1745.000000	0.291464
1746.000000	0.291409
1747.000000	0.291465
1748.000000	0.291472
1749.000000	0.291606
1750.000000	0.291633
1751.000000	0.291624
1752.000000	0.291733
1753.000000	0.291799
1754.000000	0.291795
1755.000000	0.291697
1756.000000	0.291654
1757.000000	0.291498
1758.000000	0.291518
1759.000000	0.291736
1760.000000	0.291847
1761.000000	0.292015
1762.000000	0.292037
1763.000000	0.291831
1764.000000	0.291866
1765.000000	0.291956
1766.000000	0.292036
1767.000000	0.292265
1768.000000	0.292250
1769.000000	0.292054
1770.000000	0.292110
1771.000000	0.292192
1772.000000	0.292238
1773.000000	0.292371
1774.000000	0.292399
1775.000000	0.292355
1776.000000	0.292342
1777.000000	0.292314
1778.000000	0.292280
1779.000000	0.292222
1780.000000	0.292126
1781.000000	0.291940
1782.000000	0.291931
1783.000000	0.291996
1784.000000	0.292172
1785.000000	0.292235
1786.000000	0.292324
1787.000000	0.292486
1788.000000	0.292665
1789.000000	0.292823
1790.000000	0.292899
1791.000000	0.292894
1792.000000	0.292884
1793.000000	0.292907
1794.000000	0.292890
1795.000000	0.292955
1796.000000	0.293120
1797.000000	0.293202
1798.000000	0.293278
1799.000000	0.293312
1800.000000	0.293254
1801.000000	0.293252
1802.000000	0.293202
1803.000000	0.293390
1804.000000	0.293580
1805.000000	0.293741
1806.000000	0.293822
1807.000000	0.294079
1808.000000	0.294235
1809.000000	0.293859
1810.000000	0.293939
1811.000000	0.294350
1812.000000	0.295679
1813.000000	0.295745
1814.000000	0.295549
1815.000000	0.295201
1816.000000	0.293686
1817.000000	0.292840
1818.000000	0.292054
1819.000000	0.292240
1820.000000	0.291659
1821.000000	0.292106
1822.000000	0.292412
1823.000000	0.292898
1824.000000	0.293235
1825.000000	0.293929
1826.000000	0.294156
1827.000000	0.294008
1828.000000	0.293871
1829.000000	0.293514
1830.000000	0.293004
1831.000000	0.292643
1832.000000	0.292043
1833.000000	0.292014
1834.000000	0.292287
1835.000000	0.292486
1836.000000	0.293259
1837.000000	0.293432
1838.000000	0.293138
1839.000000	0.293019
1840.000000	0.292599
1841.000000	0.291424
1842.000000	0.290823
1843.000000	0.289860
1844.000000	0.289701
1845.000000	0.290166
1846.000000	0.290520
1847.000000	0.291153
1848.000000	0.291932
1849.000000	0.291895
1850.000000	0.291290
1851.000000	0.291118
1852.000000	0.290554
1853.000000	0.290533
1854.000000	0.291073
1855.000000	0.290924
1856.000000	0.290582
1857.000000	0.289925
1858.000000	0.289396
1859.000000	0.288851
1860.000000	0.288017
1861.000000	0.287298
1862.000000	0.286469
1863.000000	0.285155
1864.000000	0.284344
1865.000000	0.283846
1866.000000	0.283326
1867.000000	0.282910
1868.000000	0.282650
1869.000000	0.281949
1870.000000	0.281097
1871.000000	0.279640
1872.000000	0.278160
1873.000000	0.276899
1874.000000	0.275767
1875.000000	0.274387
1876.000000	0.272906
1877.000000	0.270997
1878.000000	0.269230
1879.000000	0.267102
1880.000000	0.264962
1881.000000	0.263305
1882.000000	0.261533
1883.000000	0.259601
1884.000000	0.257642
1885.000000	0.255833
1886.000000	0.253394
1887.000000	0.250426
1888.000000	0.247528
1889.000000	0.244078
1890.000000	0.240967
1891.000000	0.238351
1892.000000	0.235718
1893.000000	0.233772
1894.000000	0.231454
1895.000000	0.228806
1896.000000	0.226005
1897.000000	0.223102
1898.000000	0.219951
1899.000000	0.216914
1900.000000	0.213740
1901.000000	0.211387
1902.000000	0.208987
1903.000000	0.206703
1904.000000	0.205416
1905.000000	0.203724
1906.000000	0.201936
1907.000000	0.199850
1908.000000	0.198953
1909.000000	0.197927
1910.000000	0.196566
1911.000000	0.195992
1912.000000	0.194929
1913.000000	0.193399
1914.000000	0.191737
1915.000000	0.190687
1916.000000	0.189944
1917.000000	0.189187
1918.000000	0.188681
1919.000000	0.189017
1920.000000	0.188660
1921.000000	0.187998
1922.000000	0.187607
1923.000000	0.187368
1924.000000	0.186853
1925.000000	0.186036
1926.000000	0.185710
1927.000000	0.185189
1928.000000	0.185296
1929.000000	0.185956
1930.000000	0.187388
1931.000000	0.188030
1932.000000	0.188917
1933.000000	0.188798
1934.000000	0.187790
1935.000000	0.187435
1936.000000	0.186651
1937.000000	0.186295
1938.000000	0.186645
1939.000000	0.186589
1940.000000	0.186426
1941.000000	0.186376
1942.000000	0.186328
1943.000000	0.186166
1944.000000	0.186408
1945.000000	0.186656
1946.000000	0.186268
1947.000000	0.185656
1948.000000	0.185442
1949.000000	0.184947
1950.000000	0.184787
1951.000000	0.184652
1952.000000	0.184762
1953.000000	0.184374
1954.000000	0.184577
1955.000000	0.184656
1956.000000	0.184720
1957.000000	0.184025
1958.000000	0.183439
1959.000000	0.183766
1960.000000	0.183099
1961.000000	0.183358
1962.000000	0.183319
1963.000000	0.183231
1964.000000	0.182194
1965.000000	0.182501
1966.000000	0.182597
1967.000000	0.182547
1968.000000	0.183032
1969.000000	0.183224
1970.000000	0.183344
1971.000000	0.183326
1972.000000	0.183069
1973.000000	0.182958
1974.000000	0.182730
1975.000000	0.182535
1976.000000	0.182418
1977.000000	0.182678
1978.000000	0.182605
1979.000000	0.182935
1980.000000	0.183269
1981.000000	0.183976
1982.000000	0.184621
1983.000000	0.184866
1984.000000	0.185257
1985.000000	0.185629
1986.000000	0.186114
1987.000000	0.186648
1988.000000	0.187459
1989.000000	0.188135
1990.000000	0.187986
1991.000000	0.187812
1992.000000	0.188357
1993.000000	0.189043
1994.000000	0.190185
1995.000000	0.191624
1996.000000	0.192211
1997.000000	0.192812
1998.000000	0.193255
1999.000000	0.193873
2000.000000	0.194273
2001.000000	0.195016
2002.000000	0.195860
2003.000000	0.196366
2004.000000	0.196439
2005.000000	0.196468
2006.000000	0.197103
2007.000000	0.197972
2008.000000	0.198727
2009.000000	0.200068
2010.000000	0.200720
2011.000000	0.200450
2012.000000	0.200960
2013.000000	0.201534
2014.000000	0.202335
2015.000000	0.203719
2016.000000	0.205102
2017.000000	0.205520
2018.000000	0.205970
2019.000000	0.206670
2020.000000	0.206625
2021.000000	0.206850
2022.000000	0.207393
2023.000000	0.207791
2024.000000	0.207778
2025.000000	0.208345
2026.000000	0.209349
2027.000000	0.209897
2028.000000	0.210316
2029.000000	0.211159
2030.000000	0.211931
2031.000000	0.212721
2032.000000	0.213855
2033.000000	0.214646
2034.000000	0.215327
2035.000000	0.215941
2036.000000	0.216271
2037.000000	0.216249
2038.000000	0.216561
2039.000000	0.216777
2040.000000	0.217230
2041.000000	0.217942
2042.000000	0.219241
2043.000000	0.219899
2044.000000	0.220403
2045.000000	0.220646
2046.000000	0.220808
2047.000000	0.221346
2048.000000	0.222012
2049.000000	0.222828
2050.000000	0.223835
2051.000000	0.224326
2052.000000	0.224701
2053.000000	0.224910
2054.000000	0.224660
2055.000000	0.225111
2056.000000	0.225601
2057.000000	0.225815
2058.000000	0.226295
2059.000000	0.226887
2060.000000	0.227346
2061.000000	0.227894
2062.000000	0.228146
2063.000000	0.228121
2064.000000	0.228257
2065.000000	0.228387
2066.000000	0.228725
2067.000000	0.229746
2068.000000	0.230098
2069.000000	0.230562
2070.000000	0.231316
2071.000000	0.231274
2072.000000	0.232123
2073.000000	0.232675
2074.000000	0.232291
2075.000000	0.232725
2076.000000	0.233420
2077.000000	0.233976
2078.000000	0.235010
2079.000000	0.235611
2080.000000	0.235863
2081.000000	0.236101
2082.000000	0.235938
2083.000000	0.236517
2084.000000	0.236850
2085.000000	0.237515
2086.000000	0.238618
2087.000000	0.239135
2088.000000	0.239719
2089.000000	0.240422
2090.000000	0.241206
2091.000000	0.242241
2092.000000	0.242867
2093.000000	0.243523
2094.000000	0.244053
2095.000000	0.244180
2096.000000	0.244507
2097.000000	0.245255
2098.000000	0.245029
2099.000000	0.244515
2100.000000	0.244870
2101.000000	0.245290
2102.000000	0.245873
2103.000000	0.246100
2104.000000	0.246024
2105.000000	0.246112
2106.000000	0.245481
2107.000000	0.245750
2108.000000	0.246776
2109.000000	0.247443
2110.000000	0.248280
2111.000000	0.248810
2112.000000	0.249125
2113.000000	0.249169
2114.000000	0.249127
2115.000000	0.249431
2116.000000	0.249822
2117.000000	0.250032
2118.000000	0.250366
2119.000000	0.249857
2120.000000	0.249795
2121.000000	0.249611
2122.000000	0.249801
2123.000000	0.250454
2124.000000	0.250794
2125.000000	0.250858
2126.000000	0.250972
2127.000000	0.251295
2128.000000	0.251428
2129.000000	0.250955
2130.000000	0.251647
2131.000000	0.252120
2132.000000	0.251999
2133.000000	0.252785
2134.000000	0.253659
2135.000000	0.253541
2136.000000	0.253300
2137.000000	0.253312
2138.000000	0.252858
2139.000000	0.252883
2140.000000	0.253470
2141.000000	0.253820
2142.000000	0.254356
2143.000000	0.254310
2144.000000	0.254015
2145.000000	0.254236
2146.000000	0.254431
2147.000000	0.254849
2148.000000	0.255777
2149.000000	0.255191
2150.000000	0.253920
2151.000000	0.252779
2152.000000	0.250816
2153.000000	0.250508
2154.000000	0.250762
2155.000000	0.251873
2156.000000	0.252770
2157.000000	0.254997
2158.000000	0.255900
2159.000000	0.256441
2160.000000	0.256678
2161.000000	0.256129
2162.000000	0.256022
2163.000000	0.255535
2164.000000	0.255317
2165.000000	0.255459
2166.000000	0.255296
2167.000000	0.255285
2168.000000	0.255557
2169.000000	0.255983
2170.000000	0.256283
2171.000000	0.256556
2172.000000	0.257057
2173.000000	0.256894
2174.000000	0.256409
2175.000000	0.255899
2176.000000	0.254517
2177.000000	0.254155
2178.000000	0.254383
2179.000000	0.254574
2180.000000	0.255480
2181.000000	0.256166
2182.000000	0.256804
2183.000000	0.255914
2184.000000	0.256188
2185.000000	0.255314
2186.000000	0.253951
2187.000000	0.254801
2188.000000	0.255297
2189.000000	0.255492
2190.000000	0.256489
2191.000000	0.257077
2192.000000	0.256974
2193.000000	0.256347
2194.000000	0.255753
2195.000000	0.253389
2196.000000	0.253454
2197.000000	0.255006
2198.000000	0.255849
2199.000000	0.259363
2200.000000	0.260369
2201.000000	0.259432
2202.000000	0.258685
2203.000000	0.257218
2204.000000	0.253320
2205.000000	0.251458
2206.000000	0.248567
2207.000000	0.246666
2208.000000	0.248330
2209.000000	0.249601
2210.000000	0.251171
2211.000000	0.252791
2212.000000	0.254149
2213.000000	0.255600
2214.000000	0.257637
2215.000000	0.258547
2216.000000	0.258376
2217.000000	0.258994
2218.000000	0.259388
2219.000000	0.260114
2220.000000	0.262209
2221.000000	0.262576
2222.000000	0.261582
2223.000000	0.260606
2224.000000	0.258269
2225.000000	0.257755
2226.000000	0.257444
2227.000000	0.256173
2228.000000	0.255173
2229.000000	0.253826
2230.000000	0.251528
2231.000000	0.251626
2232.000000	0.250613
2233.000000	0.248982
2234.000000	0.249381
2235.000000	0.248906
2236.000000	0.249062
2237.000000	0.250873
2238.000000	0.251406
2239.000000	0.251039
2240.000000	0.250965
2241.000000	0.250801
2242.000000	0.250460
2243.000000	0.249265
2244.000000	0.249879
2245.000000	0.251514
2246.000000	0.252723
2247.000000	0.255592
2248.000000	0.256379
2249.000000	0.255561
2250.000000	0.255417
2251.000000	0.254545
2252.000000	0.253997
2253.000000	0.254196
2254.000000	0.253665
2255.000000	0.252768
2256.000000	0.252065
2257.000000	0.251579
2258.000000	0.251241
2259.000000	0.251818
2260.000000	0.251693
2261.000000	0.250335
2262.000000	0.247803
2263.000000	0.246692
2264.000000	0.244596
2265.000000	0.244174
2266.000000	0.245654
2267.000000	0.246142
2268.000000	0.247282
2269.000000	0.247375
2270.000000	0.247086
2271.000000	0.246474
2272.000000	0.243964
2273.000000	0.242987
2274.000000	0.243015
2275.000000	0.242511
2276.000000	0.242079
2277.000000	0.242614
2278.000000	0.241807
2279.000000	0.241394
2280.000000	0.243403
2281.000000	0.244773
2282.000000	0.246720
2283.000000	0.246849
2284.000000	0.241973
2285.000000	0.237915
2286.000000	0.234148
2287.000000	0.232445
2288.000000	0.234467
2289.000000	0.237926
2290.000000	0.240964
2291.000000	0.241461
2292.000000	0.241409
2293.000000	0.239236
2294.000000	0.237450
2295.000000	0.234056
2296.000000	0.233639
2297.000000	0.234044
2298.000000	0.235077
2299.000000	0.239441
2300.000000	0.240000
2301.000000	0.239125
2302.000000	0.238393
2303.000000	0.235385
2304.000000	0.233437
2305.000000	0.231553
2306.000000	0.230185
2307.000000	0.229165
2308.000000	0.228100
2309.000000	0.227861
2310.000000	0.228330
2311.000000	0.229268
2312.000000	0.231662
2313.000000	0.231642
2314.000000	0.231555
2315.000000	0.231140
2316.000000	0.230216
2317.000000	0.231535
2318.000000	0.232044
2319.000000	0.233393
2320.000000	0.233092
2321.000000	0.230617
2322.000000	0.232009
2323.000000	0.231931
2324.000000	0.230666
2325.000000	0.232874
2326.000000	0.232878
2327.000000	0.232901
2328.000000	0.234164
2329.000000	0.231879
2330.000000	0.229844
2331.000000	0.227010
2332.000000	0.224122
2333.000000	0.224544
2334.000000	0.222360
2335.000000	0.222033
2336.000000	0.223836
2337.000000	0.222958
2338.000000	0.221734
2339.000000	0.220585
2340.000000	0.217117
2341.000000	0.215104
2342.000000	0.212988
2343.000000	0.212639
2344.000000	0.214507
2345.000000	0.214521
2346.000000	0.214976
2347.000000	0.214340
2348.000000	0.211514
2349.000000	0.210652
2350.000000	0.213194
2351.000000	0.215199
2352.000000	0.215515
2353.000000	0.214907
2354.000000	0.208580
2355.000000	0.206817
2356.000000	0.208633
2357.000000	0.206682
2358.000000	0.209134
2359.000000	0.209323
2360.000000	0.206015
2361.000000	0.205765
2362.000000	0.205630
2363.000000	0.206033
2364.000000	0.202962
2365.000000	0.203795
2366.000000	0.204664
2367.000000	0.201045
2368.000000	0.206183
2369.000000	0.206764
2370.000000	0.205543
2371.000000	0.208443
2372.000000	0.204284
2373.000000	0.201720
2374.000000	0.199691
2375.000000	0.195734
2376.000000	0.195131
2377.000000	0.197005
2378.000000	0.197527
2379.000000	0.190750
2380.000000	0.183621
2381.000000	0.179970
2382.000000	0.175969
2383.000000	0.176597
2384.000000	0.181243
2385.000000	0.182080
2386.000000	0.181814
2387.000000	0.182698
2388.000000	0.180983
2389.000000	0.179084
2390.000000	0.177561
2391.000000	0.178734
2392.000000	0.180398
2393.000000	0.180186
2394.000000	0.182489
2395.000000	0.181462
2396.000000	0.178856
2397.000000	0.174602
2398.000000	0.164116
2399.000000	0.156638
2400.000000	0.153742
2401.000000	0.153945
2402.000000	0.156607
2403.000000	0.159087
2404.000000	0.160894
2405.000000	0.159084
2406.000000	0.158708
2407.000000	0.165428
2408.000000	0.166807
2409.000000	0.170409
2410.000000	0.182793
2411.000000	0.181142
2412.000000	0.177001
2413.000000	0.178957
2414.000000	0.173076
2415.000000	0.172995
2416.000000	0.181411
2417.000000	0.183044
2418.000000	0.178784
2419.000000	0.171610
2420.000000	0.166316
2421.000000	0.158396
2422.000000	0.148807
2423.000000	0.151332
2424.000000	0.151086
2425.000000	0.153518
2426.000000	0.168008
2427.000000	0.175618
2428.000000	0.179353
2429.000000	0.180909
2430.000000	0.181769
2431.000000	0.182311
2432.000000	0.179812
2433.000000	0.177877
2434.000000	0.168380
2435.000000	0.163881
2436.000000	0.158559
2437.000000	0.149741
2438.000000	0.147610
2439.000000	0.138791
2440.000000	0.147714
2441.000000	0.164774
2442.000000	0.164157
2443.000000	0.171005
2444.000000	0.164935
2445.000000	0.144469
2446.000000	0.143665
2447.000000	0.148136
2448.000000	0.151236
2449.000000	0.155477
2450.000000	0.161645
2451.000000	0.160555
2452.000000	0.148106
2453.000000	0.139165
2454.000000	0.141438
2455.000000	0.156107
2456.000000	0.173292
2457.000000	0.186015
2458.000000	0.177933
2459.000000	0.154227
2460.000000	0.139463
2461.000000	0.137236
2462.000000	0.138674
2463.000000	0.144105
2464.000000	0.141299
2465.000000	0.142819
2466.000000	0.164020
2467.000000	0.163333
2468.000000	0.144888
2469.000000	0.119415
2470.000000	0.080814
2471.000000	0.075213
2472.000000	0.104147
2473.000000	0.118779
2474.000000	0.117698
2475.000000	0.113591
2476.000000	0.096719
2477.000000	0.073807
2478.000000	0.070653
2479.000000	0.056027
2480.000000	0.039702
2481.000000	0.073365
2482.000000	0.115532
2483.000000	0.159500
2484.000000	0.178040
2485.000000	0.148941
2486.000000	0.116003
2487.000000	0.084435
2488.000000	0.086277
2489.000000	0.121663
2490.000000	0.153076
2491.000000	0.131513
2492.000000	0.126318
2493.000000	0.092746
2494.000000	0.063681
2495.000000	0.070037
2496.000000	0.061048
2497.000000	0.029034
2498.000000	0.034419
2499.000000	0.080402
2500.000000	0.096643
