# Wavelength	NAu-2-50_HEX-10_FV7-40_00001.asd.rts.txt
350.000000	0.132515
351.000000	0.122830
352.000000	0.112799
353.000000	0.107359
354.000000	0.107333
355.000000	0.105597
356.000000	0.108497
357.000000	0.114177
358.000000	0.112959
359.000000	0.110571
360.000000	0.111921
361.000000	0.119097
362.000000	0.118672
363.000000	0.114728
364.000000	0.112234
365.000000	0.116630
366.000000	0.119024
367.000000	0.116961
368.000000	0.113248
369.000000	0.113527
370.000000	0.114947
371.000000	0.113266
372.000000	0.117839
373.000000	0.120069
374.000000	0.116289
375.000000	0.119638
376.000000	0.116981
377.000000	0.108866
378.000000	0.108967
379.000000	0.110249
380.000000	0.111286
381.000000	0.112619
382.000000	0.114519
383.000000	0.117295
384.000000	0.120351
385.000000	0.120317
386.000000	0.118649
387.000000	0.116902
388.000000	0.116759
389.000000	0.116435
390.000000	0.117041
391.000000	0.119870
392.000000	0.117852
393.000000	0.117105
394.000000	0.121240
395.000000	0.120279
396.000000	0.118385
397.000000	0.117634
398.000000	0.117470
399.000000	0.117211
400.000000	0.116992
401.000000	0.117240
402.000000	0.117794
403.000000	0.118114
404.000000	0.118055
405.000000	0.119012
406.000000	0.119583
407.000000	0.119380
408.000000	0.119623
409.000000	0.120379
410.000000	0.121170
411.000000	0.121120
412.000000	0.120504
413.000000	0.120268
414.000000	0.121115
415.000000	0.121452
416.000000	0.121615
417.000000	0.121929
418.000000	0.122378
419.000000	0.122930
420.000000	0.123358
421.000000	0.123213
422.000000	0.123404
423.000000	0.123622
424.000000	0.123356
425.000000	0.123618
426.000000	0.124160
427.000000	0.124675
428.000000	0.125269
429.000000	0.125637
430.000000	0.125748
431.000000	0.125899
432.000000	0.126017
433.000000	0.126151
434.000000	0.126435
435.000000	0.126670
436.000000	0.126808
437.000000	0.126880
438.000000	0.127200
439.000000	0.127563
440.000000	0.127857
441.000000	0.128022
442.000000	0.128047
443.000000	0.128114
444.000000	0.128645
445.000000	0.129409
446.000000	0.129847
447.000000	0.129491
448.000000	0.130062
449.000000	0.130807
450.000000	0.131116
451.000000	0.131493
452.000000	0.131680
453.000000	0.131714
454.000000	0.132079
455.000000	0.132756
456.000000	0.133321
457.000000	0.133161
458.000000	0.133552
459.000000	0.134324
460.000000	0.135027
461.000000	0.135059
462.000000	0.135099
463.000000	0.135382
464.000000	0.135597
465.000000	0.135886
466.000000	0.136255
467.000000	0.136701
468.000000	0.136866
469.000000	0.136868
470.000000	0.137047
471.000000	0.137519
472.000000	0.138015
473.000000	0.138360
474.000000	0.138651
475.000000	0.138815
476.000000	0.138957
477.000000	0.139201
478.000000	0.139400
479.000000	0.139676
480.000000	0.140054
481.000000	0.140469
482.000000	0.140826
483.000000	0.140977
484.000000	0.141254
485.000000	0.141390
486.000000	0.141460
487.000000	0.141923
488.000000	0.142332
489.000000	0.142541
490.000000	0.142564
491.000000	0.142799
492.000000	0.143130
493.000000	0.143266
494.000000	0.143519
495.000000	0.143754
496.000000	0.143855
497.000000	0.143999
498.000000	0.144088
499.000000	0.144108
500.000000	0.144017
501.000000	0.144050
502.000000	0.144238
503.000000	0.144456
504.000000	0.144602
505.000000	0.144800
506.000000	0.145142
507.000000	0.145341
508.000000	0.145543
509.000000	0.145839
510.000000	0.146265
511.000000	0.146622
512.000000	0.146937
513.000000	0.147391
514.000000	0.147653
515.000000	0.147900
516.000000	0.148378
517.000000	0.148740
518.000000	0.149074
519.000000	0.149431
520.000000	0.149765
521.000000	0.150179
522.000000	0.150676
523.000000	0.151082
524.000000	0.151554
525.000000	0.152166
526.000000	0.152981
527.000000	0.153734
528.000000	0.154503
529.000000	0.155432
530.000000	0.156264
531.000000	0.157233
532.000000	0.158390
533.000000	0.159475
534.000000	0.160540
535.000000	0.161626
536.000000	0.162806
537.000000	0.163904
538.000000	0.164913
539.000000	0.165894
540.000000	0.166874
541.000000	0.167816
542.000000	0.168710
543.000000	0.169605
544.000000	0.170488
545.000000	0.171324
546.000000	0.172181
547.000000	0.173056
548.000000	0.173991
549.000000	0.174997
550.000000	0.176050
551.000000	0.177164
552.000000	0.178328
553.000000	0.179539
554.000000	0.180804
555.000000	0.182124
556.000000	0.183458
557.000000	0.184878
558.000000	0.186431
559.000000	0.187869
560.000000	0.189344
561.000000	0.190907
562.000000	0.192456
563.000000	0.193857
564.000000	0.195227
565.000000	0.196620
566.000000	0.197938
567.000000	0.199133
568.000000	0.200199
569.000000	0.201263
570.000000	0.202228
571.000000	0.203069
572.000000	0.203840
573.000000	0.204541
574.000000	0.205191
575.000000	0.205842
576.000000	0.206341
577.000000	0.206701
578.000000	0.207031
579.000000	0.207464
580.000000	0.207788
581.000000	0.207955
582.000000	0.208184
583.000000	0.208327
584.000000	0.208364
585.000000	0.208339
586.000000	0.208301
587.000000	0.208254
588.000000	0.208184
589.000000	0.208047
590.000000	0.207828
591.000000	0.207542
592.000000	0.207258
593.000000	0.206976
594.000000	0.206677
595.000000	0.206321
596.000000	0.206026
597.000000	0.205734
598.000000	0.205271
599.000000	0.204874
600.000000	0.204514
601.000000	0.204071
602.000000	0.203554
603.000000	0.203044
604.000000	0.202570
605.000000	0.202044
606.000000	0.201576
607.000000	0.201154
608.000000	0.200687
609.000000	0.200259
610.000000	0.199835
611.000000	0.199367
612.000000	0.198937
613.000000	0.198503
614.000000	0.198067
615.000000	0.197687
616.000000	0.197234
617.000000	0.196724
618.000000	0.196386
619.000000	0.196077
620.000000	0.195727
621.000000	0.195348
622.000000	0.195084
623.000000	0.194860
624.000000	0.194582
625.000000	0.194244
626.000000	0.193934
627.000000	0.193705
628.000000	0.193568
629.000000	0.193334
630.000000	0.192989
631.000000	0.192801
632.000000	0.192626
633.000000	0.192434
634.000000	0.192225
635.000000	0.192075
636.000000	0.191965
637.000000	0.191857
638.000000	0.191707
639.000000	0.191678
640.000000	0.191752
641.000000	0.191649
642.000000	0.191606
643.000000	0.191654
644.000000	0.191757
645.000000	0.191819
646.000000	0.191878
647.000000	0.191960
648.000000	0.192065
649.000000	0.192222
650.000000	0.192414
651.000000	0.192609
652.000000	0.192785
653.000000	0.192997
654.000000	0.193277
655.000000	0.193613
656.000000	0.193949
657.000000	0.194214
658.000000	0.194505
659.000000	0.194836
660.000000	0.195207
661.000000	0.195653
662.000000	0.196101
663.000000	0.196585
664.000000	0.197128
665.000000	0.197581
666.000000	0.198035
667.000000	0.198588
668.000000	0.199200
669.000000	0.199834
670.000000	0.200482
671.000000	0.201205
672.000000	0.201923
673.000000	0.202586
674.000000	0.203176
675.000000	0.203866
676.000000	0.204654
677.000000	0.205496
678.000000	0.206339
679.000000	0.207184
680.000000	0.208051
681.000000	0.208969
682.000000	0.209964
683.000000	0.210975
684.000000	0.212016
685.000000	0.213066
686.000000	0.214143
687.000000	0.215227
688.000000	0.216240
689.000000	0.217286
690.000000	0.218471
691.000000	0.219743
692.000000	0.221047
693.000000	0.222353
694.000000	0.223514
695.000000	0.224754
696.000000	0.226082
697.000000	0.227418
698.000000	0.228737
699.000000	0.230082
700.000000	0.231493
701.000000	0.232962
702.000000	0.234404
703.000000	0.235822
704.000000	0.237394
705.000000	0.238958
706.000000	0.240480
707.000000	0.242050
708.000000	0.243617
709.000000	0.245246
710.000000	0.246969
711.000000	0.248567
712.000000	0.250155
713.000000	0.251784
714.000000	0.253352
715.000000	0.254923
716.000000	0.256516
717.000000	0.258111
718.000000	0.259785
719.000000	0.261475
720.000000	0.263136
721.000000	0.264837
722.000000	0.266492
723.000000	0.268137
724.000000	0.269846
725.000000	0.271427
726.000000	0.272978
727.000000	0.274577
728.000000	0.276209
729.000000	0.277858
730.000000	0.279458
731.000000	0.281048
732.000000	0.282579
733.000000	0.284102
734.000000	0.285688
735.000000	0.287188
736.000000	0.288697
737.000000	0.290166
738.000000	0.291541
739.000000	0.292982
740.000000	0.294424
741.000000	0.295804
742.000000	0.297167
743.000000	0.298490
744.000000	0.299769
745.000000	0.300943
746.000000	0.302088
747.000000	0.303219
748.000000	0.304349
749.000000	0.305461
750.000000	0.306533
751.000000	0.307682
752.000000	0.308791
753.000000	0.309830
754.000000	0.310821
755.000000	0.311855
756.000000	0.312861
757.000000	0.313703
758.000000	0.314496
759.000000	0.315292
760.000000	0.316048
761.000000	0.316826
762.000000	0.317553
763.000000	0.318211
764.000000	0.318893
765.000000	0.319573
766.000000	0.320240
767.000000	0.320869
768.000000	0.321395
769.000000	0.321883
770.000000	0.322388
771.000000	0.322932
772.000000	0.323533
773.000000	0.324104
774.000000	0.324645
775.000000	0.325078
776.000000	0.325501
777.000000	0.325950
778.000000	0.326288
779.000000	0.326614
780.000000	0.326953
781.000000	0.327244
782.000000	0.327530
783.000000	0.327881
784.000000	0.328168
785.000000	0.328387
786.000000	0.328618
787.000000	0.328877
788.000000	0.329049
789.000000	0.329272
790.000000	0.329490
791.000000	0.329610
792.000000	0.329794
793.000000	0.329986
794.000000	0.330121
795.000000	0.330173
796.000000	0.330250
797.000000	0.330363
798.000000	0.330433
799.000000	0.330444
800.000000	0.330477
801.000000	0.330601
802.000000	0.330584
803.000000	0.330632
804.000000	0.330815
805.000000	0.330740
806.000000	0.330644
807.000000	0.330671
808.000000	0.330752
809.000000	0.330759
810.000000	0.330731
811.000000	0.330697
812.000000	0.330625
813.000000	0.330538
814.000000	0.330461
815.000000	0.330445
816.000000	0.330417
817.000000	0.330408
818.000000	0.330368
819.000000	0.330347
820.000000	0.330321
821.000000	0.330259
822.000000	0.330292
823.000000	0.330231
824.000000	0.330086
825.000000	0.330056
826.000000	0.329984
827.000000	0.329852
828.000000	0.329686
829.000000	0.329383
830.000000	0.329184
831.000000	0.329165
832.000000	0.329115
833.000000	0.328967
834.000000	0.328717
835.000000	0.328453
836.000000	0.328332
837.000000	0.328219
838.000000	0.328137
839.000000	0.328181
840.000000	0.328016
841.000000	0.327782
842.000000	0.327624
843.000000	0.327464
844.000000	0.327411
845.000000	0.327388
846.000000	0.327196
847.000000	0.326955
848.000000	0.326704
849.000000	0.326487
850.000000	0.326236
851.000000	0.326032
852.000000	0.325929
853.000000	0.325824
854.000000	0.325521
855.000000	0.325270
856.000000	0.325192
857.000000	0.324948
858.000000	0.324729
859.000000	0.324563
860.000000	0.324436
861.000000	0.324283
862.000000	0.324079
863.000000	0.323762
864.000000	0.323552
865.000000	0.323321
866.000000	0.323038
867.000000	0.322834
868.000000	0.322580
869.000000	0.322286
870.000000	0.322122
871.000000	0.321944
872.000000	0.321796
873.000000	0.321621
874.000000	0.321355
875.000000	0.320954
876.000000	0.320551
877.000000	0.320272
878.000000	0.320099
879.000000	0.319937
880.000000	0.319614
881.000000	0.319359
882.000000	0.319032
883.000000	0.318722
884.000000	0.318518
885.000000	0.318385
886.000000	0.318140
887.000000	0.317776
888.000000	0.317545
889.000000	0.317305
890.000000	0.316930
891.000000	0.316559
892.000000	0.316295
893.000000	0.316101
894.000000	0.315989
895.000000	0.315645
896.000000	0.315218
897.000000	0.314829
898.000000	0.314569
899.000000	0.314353
900.000000	0.314172
901.000000	0.313958
902.000000	0.313695
903.000000	0.313406
904.000000	0.313122
905.000000	0.312797
906.000000	0.312703
907.000000	0.312526
908.000000	0.312233
909.000000	0.311935
910.000000	0.311599
911.000000	0.311274
912.000000	0.311018
913.000000	0.310799
914.000000	0.310549
915.000000	0.310313
916.000000	0.310042
917.000000	0.309650
918.000000	0.309343
919.000000	0.309211
920.000000	0.309013
921.000000	0.308749
922.000000	0.308410
923.000000	0.307985
924.000000	0.307646
925.000000	0.307283
926.000000	0.306907
927.000000	0.306667
928.000000	0.306533
929.000000	0.306241
930.000000	0.305632
931.000000	0.305483
932.000000	0.305390
933.000000	0.305123
934.000000	0.304606
935.000000	0.304279
936.000000	0.304074
937.000000	0.303766
938.000000	0.303521
939.000000	0.303444
940.000000	0.303346
941.000000	0.303061
942.000000	0.302816
943.000000	0.302616
944.000000	0.302337
945.000000	0.302104
946.000000	0.301898
947.000000	0.301680
948.000000	0.301359
949.000000	0.301055
950.000000	0.300793
951.000000	0.300576
952.000000	0.300497
953.000000	0.300169
954.000000	0.299764
955.000000	0.299408
956.000000	0.299113
957.000000	0.298714
958.000000	0.298388
959.000000	0.298467
960.000000	0.298310
961.000000	0.298066
962.000000	0.297785
963.000000	0.297404
964.000000	0.297192
965.000000	0.297172
966.000000	0.297133
967.000000	0.296905
968.000000	0.296557
969.000000	0.296212
970.000000	0.296096
971.000000	0.295904
972.000000	0.295845
973.000000	0.295758
974.000000	0.295210
975.000000	0.294976
976.000000	0.294872
977.000000	0.294594
978.000000	0.294134
979.000000	0.294182
980.000000	0.294180
981.000000	0.293695
982.000000	0.293656
983.000000	0.293440
984.000000	0.293105
985.000000	0.293320
986.000000	0.293296
987.000000	0.293109
988.000000	0.292828
989.000000	0.292526
990.000000	0.292426
991.000000	0.292363
992.000000	0.292157
993.000000	0.292054
994.000000	0.291874
995.000000	0.291804
996.000000	0.291874
997.000000	0.291930
998.000000	0.291806
999.000000	0.291563
1000.000000	0.291338
1001.000000	0.291730
1002.000000	0.290958
1003.000000	0.292018
1004.000000	0.291948
1005.000000	0.290697
1006.000000	0.290335
1007.000000	0.290443
1008.000000	0.289914
1009.000000	0.289945
1010.000000	0.290571
1011.000000	0.291196
1012.000000	0.291606
1013.000000	0.291188
1014.000000	0.291277
1015.000000	0.291556
1016.000000	0.291505
1017.000000	0.291454
1018.000000	0.291491
1019.000000	0.291619
1020.000000	0.291645
1021.000000	0.291407
1022.000000	0.291691
1023.000000	0.291702
1024.000000	0.290984
1025.000000	0.290943
1026.000000	0.291096
1027.000000	0.291171
1028.000000	0.290908
1029.000000	0.290402
1030.000000	0.290217
1031.000000	0.289712
1032.000000	0.289970
1033.000000	0.290756
1034.000000	0.291013
1035.000000	0.291281
1036.000000	0.291272
1037.000000	0.290555
1038.000000	0.290489
1039.000000	0.290763
1040.000000	0.290832
1041.000000	0.291429
1042.000000	0.292158
1043.000000	0.292327
1044.000000	0.292635
1045.000000	0.292628
1046.000000	0.292302
1047.000000	0.292313
1048.000000	0.292203
1049.000000	0.292312
1050.000000	0.292807
1051.000000	0.293057
1052.000000	0.293155
1053.000000	0.293310
1054.000000	0.293603
1055.000000	0.293888
1056.000000	0.294277
1057.000000	0.294676
1058.000000	0.294709
1059.000000	0.294470
1060.000000	0.294364
1061.000000	0.294533
1062.000000	0.295074
1063.000000	0.295573
1064.000000	0.295801
1065.000000	0.295803
1066.000000	0.295944
1067.000000	0.295829
1068.000000	0.295954
1069.000000	0.296162
1070.000000	0.296416
1071.000000	0.296858
1072.000000	0.297206
1073.000000	0.297561
1074.000000	0.298163
1075.000000	0.298461
1076.000000	0.298823
1077.000000	0.299368
1078.000000	0.299515
1079.000000	0.299459
1080.000000	0.299068
1081.000000	0.299002
1082.000000	0.298849
1083.000000	0.298939
1084.000000	0.299412
1085.000000	0.299740
1086.000000	0.299847
1087.000000	0.300238
1088.000000	0.300986
1089.000000	0.301376
1090.000000	0.301620
1091.000000	0.301947
1092.000000	0.302103
1093.000000	0.302316
1094.000000	0.302485
1095.000000	0.302703
1096.000000	0.302913
1097.000000	0.302980
1098.000000	0.303180
1099.000000	0.303539
1100.000000	0.303787
1101.000000	0.303830
1102.000000	0.304057
1103.000000	0.304337
1104.000000	0.304635
1105.000000	0.305140
1106.000000	0.305438
1107.000000	0.305351
1108.000000	0.305604
1109.000000	0.306087
1110.000000	0.306534
1111.000000	0.306741
1112.000000	0.306985
1113.000000	0.307302
1114.000000	0.307428
1115.000000	0.307576
1116.000000	0.308049
1117.000000	0.308154
1118.000000	0.307765
1119.000000	0.307697
1120.000000	0.307600
1121.000000	0.307738
1122.000000	0.308311
1123.000000	0.308751
1124.000000	0.309055
1125.000000	0.309359
1126.000000	0.309509
1127.000000	0.309553
1128.000000	0.309543
1129.000000	0.309499
1130.000000	0.309631
1131.000000	0.309703
1132.000000	0.309872
1133.000000	0.310425
1134.000000	0.310585
1135.000000	0.310410
1136.000000	0.310485
1137.000000	0.310537
1138.000000	0.310574
1139.000000	0.310996
1140.000000	0.311086
1141.000000	0.310631
1142.000000	0.310641
1143.000000	0.310624
1144.000000	0.310830
1145.000000	0.311170
1146.000000	0.311720
1147.000000	0.311919
1148.000000	0.311872
1149.000000	0.311971
1150.000000	0.311960
1151.000000	0.312137
1152.000000	0.312427
1153.000000	0.312625
1154.000000	0.312788
1155.000000	0.312959
1156.000000	0.313202
1157.000000	0.313272
1158.000000	0.313108
1159.000000	0.313157
1160.000000	0.313158
1161.000000	0.313213
1162.000000	0.313499
1163.000000	0.313958
1164.000000	0.313957
1165.000000	0.313837
1166.000000	0.313880
1167.000000	0.313778
1168.000000	0.313776
1169.000000	0.313966
1170.000000	0.314072
1171.000000	0.314070
1172.000000	0.314294
1173.000000	0.314712
1174.000000	0.314902
1175.000000	0.315162
1176.000000	0.315204
1177.000000	0.314959
1178.000000	0.314924
1179.000000	0.314862
1180.000000	0.314846
1181.000000	0.315044
1182.000000	0.315245
1183.000000	0.315321
1184.000000	0.315398
1185.000000	0.315485
1186.000000	0.315490
1187.000000	0.315571
1188.000000	0.315755
1189.000000	0.315776
1190.000000	0.315757
1191.000000	0.315793
1192.000000	0.315868
1193.000000	0.316064
1194.000000	0.316245
1195.000000	0.316400
1196.000000	0.316543
1197.000000	0.316638
1198.000000	0.316656
1199.000000	0.316770
1200.000000	0.316901
1201.000000	0.317064
1202.000000	0.317171
1203.000000	0.317265
1204.000000	0.317280
1205.000000	0.317315
1206.000000	0.317362
1207.000000	0.317543
1208.000000	0.317638
1209.000000	0.317811
1210.000000	0.317892
1211.000000	0.317908
1212.000000	0.317978
1213.000000	0.318076
1214.000000	0.318124
1215.000000	0.318138
1216.000000	0.318195
1217.000000	0.318164
1218.000000	0.318185
1219.000000	0.318310
1220.000000	0.318470
1221.000000	0.318528
1222.000000	0.318636
1223.000000	0.318615
1224.000000	0.318614
1225.000000	0.318636
1226.000000	0.318556
1227.000000	0.318498
1228.000000	0.318636
1229.000000	0.318642
1230.000000	0.318560
1231.000000	0.318543
1232.000000	0.318646
1233.000000	0.318797
1234.000000	0.319078
1235.000000	0.319195
1236.000000	0.319116
1237.000000	0.319152
1238.000000	0.319076
1239.000000	0.319084
1240.000000	0.319171
1241.000000	0.319283
1242.000000	0.319424
1243.000000	0.319551
1244.000000	0.319709
1245.000000	0.319983
1246.000000	0.320064
1247.000000	0.320139
1248.000000	0.320148
1249.000000	0.320141
1250.000000	0.320261
1251.000000	0.320398
1252.000000	0.320513
1253.000000	0.320706
1254.000000	0.320799
1255.000000	0.320853
1256.000000	0.320854
1257.000000	0.320744
1258.000000	0.320839
1259.000000	0.320898
1260.000000	0.321093
1261.000000	0.321472
1262.000000	0.321666
1263.000000	0.321901
1264.000000	0.321912
1265.000000	0.321889
1266.000000	0.322037
1267.000000	0.322100
1268.000000	0.322178
1269.000000	0.322210
1270.000000	0.322199
1271.000000	0.322275
1272.000000	0.322447
1273.000000	0.322559
1274.000000	0.322548
1275.000000	0.322565
1276.000000	0.322543
1277.000000	0.322587
1278.000000	0.322561
1279.000000	0.322594
1280.000000	0.322523
1281.000000	0.322538
1282.000000	0.322786
1283.000000	0.322955
1284.000000	0.323052
1285.000000	0.323115
1286.000000	0.323093
1287.000000	0.323022
1288.000000	0.323097
1289.000000	0.323202
1290.000000	0.323295
1291.000000	0.323328
1292.000000	0.323296
1293.000000	0.323315
1294.000000	0.323374
1295.000000	0.323483
1296.000000	0.323497
1297.000000	0.323466
1298.000000	0.323498
1299.000000	0.323538
1300.000000	0.323588
1301.000000	0.323674
1302.000000	0.323725
1303.000000	0.323850
1304.000000	0.323846
1305.000000	0.323962
1306.000000	0.323945
1307.000000	0.323771
1308.000000	0.323824
1309.000000	0.323959
1310.000000	0.324025
1311.000000	0.324196
1312.000000	0.324276
1313.000000	0.324269
1314.000000	0.324311
1315.000000	0.324281
1316.000000	0.324136
1317.000000	0.324080
1318.000000	0.324178
1319.000000	0.324094
1320.000000	0.324057
1321.000000	0.324106
1322.000000	0.323862
1323.000000	0.323677
1324.000000	0.323730
1325.000000	0.323637
1326.000000	0.323587
1327.000000	0.323677
1328.000000	0.323714
1329.000000	0.323684
1330.000000	0.323545
1331.000000	0.323596
1332.000000	0.323840
1333.000000	0.323918
1334.000000	0.324064
1335.000000	0.324143
1336.000000	0.324061
1337.000000	0.324037
1338.000000	0.323998
1339.000000	0.323998
1340.000000	0.323861
1341.000000	0.323733
1342.000000	0.323750
1343.000000	0.323812
1344.000000	0.323951
1345.000000	0.324022
1346.000000	0.324071
1347.000000	0.324013
1348.000000	0.323970
1349.000000	0.323917
1350.000000	0.323888
1351.000000	0.323863
1352.000000	0.323889
1353.000000	0.323986
1354.000000	0.323937
1355.000000	0.323884
1356.000000	0.323891
1357.000000	0.323734
1358.000000	0.323768
1359.000000	0.323825
1360.000000	0.323808
1361.000000	0.323818
1362.000000	0.323782
1363.000000	0.323614
1364.000000	0.323566
1365.000000	0.323578
1366.000000	0.323513
1367.000000	0.323446
1368.000000	0.323334
1369.000000	0.323288
1370.000000	0.323142
1371.000000	0.322948
1372.000000	0.322830
1373.000000	0.322587
1374.000000	0.322241
1375.000000	0.322014
1376.000000	0.321905
1377.000000	0.321778
1378.000000	0.321657
1379.000000	0.321459
1380.000000	0.321114
1381.000000	0.320685
1382.000000	0.320225
1383.000000	0.319750
1384.000000	0.319119
1385.000000	0.318488
1386.000000	0.317846
1387.000000	0.317167
1388.000000	0.316710
1389.000000	0.316158
1390.000000	0.315512
1391.000000	0.314751
1392.000000	0.313758
1393.000000	0.312754
1394.000000	0.311626
1395.000000	0.310628
1396.000000	0.309749
1397.000000	0.308627
1398.000000	0.307394
1399.000000	0.306184
1400.000000	0.304726
1401.000000	0.303484
1402.000000	0.302402
1403.000000	0.301291
1404.000000	0.300289
1405.000000	0.299366
1406.000000	0.298478
1407.000000	0.297760
1408.000000	0.297058
1409.000000	0.296344
1410.000000	0.295752
1411.000000	0.295273
1412.000000	0.294779
1413.000000	0.294397
1414.000000	0.294107
1415.000000	0.293750
1416.000000	0.293474
1417.000000	0.293358
1418.000000	0.293239
1419.000000	0.293120
1420.000000	0.292926
1421.000000	0.292847
1422.000000	0.292786
1423.000000	0.292740
1424.000000	0.292634
1425.000000	0.292514
1426.000000	0.292406
1427.000000	0.292297
1428.000000	0.292242
1429.000000	0.292296
1430.000000	0.292317
1431.000000	0.292329
1432.000000	0.292297
1433.000000	0.292234
1434.000000	0.292249
1435.000000	0.292329
1436.000000	0.292425
1437.000000	0.292658
1438.000000	0.292760
1439.000000	0.292708
1440.000000	0.292923
1441.000000	0.293269
1442.000000	0.293648
1443.000000	0.294135
1444.000000	0.294596
1445.000000	0.294979
1446.000000	0.295444
1447.000000	0.296011
1448.000000	0.296683
1449.000000	0.297357
1450.000000	0.297885
1451.000000	0.298298
1452.000000	0.298625
1453.000000	0.299049
1454.000000	0.299408
1455.000000	0.299695
1456.000000	0.300142
1457.000000	0.300450
1458.000000	0.300665
1459.000000	0.300932
1460.000000	0.301134
1461.000000	0.301377
1462.000000	0.301685
1463.000000	0.301929
1464.000000	0.302102
1465.000000	0.302272
1466.000000	0.302429
1467.000000	0.302636
1468.000000	0.302908
1469.000000	0.303222
1470.000000	0.303464
1471.000000	0.303788
1472.000000	0.304156
1473.000000	0.304539
1474.000000	0.304920
1475.000000	0.305253
1476.000000	0.305522
1477.000000	0.305801
1478.000000	0.306069
1479.000000	0.306352
1480.000000	0.306731
1481.000000	0.307021
1482.000000	0.307327
1483.000000	0.307610
1484.000000	0.307798
1485.000000	0.308100
1486.000000	0.308456
1487.000000	0.308847
1488.000000	0.309406
1489.000000	0.309786
1490.000000	0.309944
1491.000000	0.310171
1492.000000	0.310215
1493.000000	0.310427
1494.000000	0.310748
1495.000000	0.311008
1496.000000	0.311338
1497.000000	0.311617
1498.000000	0.311883
1499.000000	0.312018
1500.000000	0.312196
1501.000000	0.312410
1502.000000	0.312601
1503.000000	0.312822
1504.000000	0.313121
1505.000000	0.313328
1506.000000	0.313390
1507.000000	0.313535
1508.000000	0.313747
1509.000000	0.313779
1510.000000	0.313906
1511.000000	0.314235
1512.000000	0.314349
1513.000000	0.314442
1514.000000	0.314609
1515.000000	0.314562
1516.000000	0.314678
1517.000000	0.314870
1518.000000	0.314939
1519.000000	0.314964
1520.000000	0.314976
1521.000000	0.315040
1522.000000	0.315219
1523.000000	0.315379
1524.000000	0.315457
1525.000000	0.315535
1526.000000	0.315575
1527.000000	0.315668
1528.000000	0.315782
1529.000000	0.315899
1530.000000	0.315989
1531.000000	0.316098
1532.000000	0.316271
1533.000000	0.316357
1534.000000	0.316400
1535.000000	0.316468
1536.000000	0.316418
1537.000000	0.316477
1538.000000	0.316631
1539.000000	0.316681
1540.000000	0.316867
1541.000000	0.317157
1542.000000	0.317210
1543.000000	0.317222
1544.000000	0.317286
1545.000000	0.317417
1546.000000	0.317696
1547.000000	0.317909
1548.000000	0.318136
1549.000000	0.318238
1550.000000	0.318246
1551.000000	0.318418
1552.000000	0.318450
1553.000000	0.318461
1554.000000	0.318487
1555.000000	0.318513
1556.000000	0.318723
1557.000000	0.318798
1558.000000	0.318889
1559.000000	0.318943
1560.000000	0.318994
1561.000000	0.319009
1562.000000	0.319078
1563.000000	0.319244
1564.000000	0.319343
1565.000000	0.319447
1566.000000	0.319466
1567.000000	0.319507
1568.000000	0.319492
1569.000000	0.319519
1570.000000	0.319485
1571.000000	0.319336
1572.000000	0.319290
1573.000000	0.319298
1574.000000	0.319240
1575.000000	0.319198
1576.000000	0.319215
1577.000000	0.319185
1578.000000	0.319143
1579.000000	0.319246
1580.000000	0.319283
1581.000000	0.319316
1582.000000	0.319317
1583.000000	0.319283
1584.000000	0.319253
1585.000000	0.319273
1586.000000	0.319341
1587.000000	0.319422
1588.000000	0.319525
1589.000000	0.319711
1590.000000	0.319786
1591.000000	0.319906
1592.000000	0.319989
1593.000000	0.319976
1594.000000	0.319971
1595.000000	0.320020
1596.000000	0.320055
1597.000000	0.320115
1598.000000	0.320124
1599.000000	0.320150
1600.000000	0.320078
1601.000000	0.319982
1602.000000	0.319974
1603.000000	0.319996
1604.000000	0.320011
1605.000000	0.320115
1606.000000	0.320134
1607.000000	0.320173
1608.000000	0.320165
1609.000000	0.320153
1610.000000	0.320134
1611.000000	0.320103
1612.000000	0.320072
1613.000000	0.320167
1614.000000	0.320145
1615.000000	0.320091
1616.000000	0.320117
1617.000000	0.320100
1618.000000	0.320100
1619.000000	0.320118
1620.000000	0.320145
1621.000000	0.320150
1622.000000	0.320286
1623.000000	0.320533
1624.000000	0.320677
1625.000000	0.320706
1626.000000	0.320712
1627.000000	0.320639
1628.000000	0.320628
1629.000000	0.320643
1630.000000	0.320687
1631.000000	0.320643
1632.000000	0.320666
1633.000000	0.320804
1634.000000	0.320813
1635.000000	0.320833
1636.000000	0.320829
1637.000000	0.320749
1638.000000	0.320663
1639.000000	0.320631
1640.000000	0.320626
1641.000000	0.320678
1642.000000	0.320707
1643.000000	0.320807
1644.000000	0.320843
1645.000000	0.320835
1646.000000	0.320778
1647.000000	0.320698
1648.000000	0.320683
1649.000000	0.320785
1650.000000	0.320790
1651.000000	0.320856
1652.000000	0.320914
1653.000000	0.320782
1654.000000	0.320804
1655.000000	0.320927
1656.000000	0.320874
1657.000000	0.320786
1658.000000	0.320857
1659.000000	0.321089
1660.000000	0.321190
1661.000000	0.321276
1662.000000	0.321294
1663.000000	0.321105
1664.000000	0.321053
1665.000000	0.321100
1666.000000	0.321154
1667.000000	0.321115
1668.000000	0.321102
1669.000000	0.321100
1670.000000	0.321009
1671.000000	0.320964
1672.000000	0.321015
1673.000000	0.321021
1674.000000	0.321098
1675.000000	0.321260
1676.000000	0.321345
1677.000000	0.321452
1678.000000	0.321533
1679.000000	0.321642
1680.000000	0.321666
1681.000000	0.321553
1682.000000	0.321528
1683.000000	0.321557
1684.000000	0.321665
1685.000000	0.321947
1686.000000	0.322109
1687.000000	0.322088
1688.000000	0.321959
1689.000000	0.321841
1690.000000	0.321765
1691.000000	0.321861
1692.000000	0.321948
1693.000000	0.321960
1694.000000	0.321795
1695.000000	0.321584
1696.000000	0.321490
1697.000000	0.321376
1698.000000	0.321501
1699.000000	0.321561
1700.000000	0.321510
1701.000000	0.321567
1702.000000	0.321542
1703.000000	0.321426
1704.000000	0.321308
1705.000000	0.321275
1706.000000	0.321245
1707.000000	0.321284
1708.000000	0.321485
1709.000000	0.321487
1710.000000	0.321481
1711.000000	0.321517
1712.000000	0.321569
1713.000000	0.321495
1714.000000	0.321396
1715.000000	0.321370
1716.000000	0.321318
1717.000000	0.321208
1718.000000	0.321012
1719.000000	0.321011
1720.000000	0.321134
1721.000000	0.321170
1722.000000	0.321425
1723.000000	0.321448
1724.000000	0.321181
1725.000000	0.321152
1726.000000	0.321102
1727.000000	0.321128
1728.000000	0.321253
1729.000000	0.321185
1730.000000	0.321217
1731.000000	0.321143
1732.000000	0.320909
1733.000000	0.320877
1734.000000	0.320758
1735.000000	0.320713
1736.000000	0.320707
1737.000000	0.320741
1738.000000	0.320838
1739.000000	0.320906
1740.000000	0.321008
1741.000000	0.321070
1742.000000	0.321138
1743.000000	0.321127
1744.000000	0.321055
1745.000000	0.321020
1746.000000	0.320878
1747.000000	0.321042
1748.000000	0.321044
1749.000000	0.321037
1750.000000	0.320931
1751.000000	0.320687
1752.000000	0.320712
1753.000000	0.320702
1754.000000	0.320733
1755.000000	0.320984
1756.000000	0.321030
1757.000000	0.320901
1758.000000	0.320877
1759.000000	0.320757
1760.000000	0.320729
1761.000000	0.320791
1762.000000	0.320807
1763.000000	0.320870
1764.000000	0.320876
1765.000000	0.320849
1766.000000	0.320769
1767.000000	0.320450
1768.000000	0.320342
1769.000000	0.320479
1770.000000	0.320426
1771.000000	0.320372
1772.000000	0.320246
1773.000000	0.319791
1774.000000	0.319649
1775.000000	0.319818
1776.000000	0.319716
1777.000000	0.319534
1778.000000	0.319408
1779.000000	0.319112
1780.000000	0.319037
1781.000000	0.319094
1782.000000	0.319092
1783.000000	0.319210
1784.000000	0.319139
1785.000000	0.318995
1786.000000	0.318950
1787.000000	0.318909
1788.000000	0.318838
1789.000000	0.318898
1790.000000	0.318724
1791.000000	0.318631
1792.000000	0.318742
1793.000000	0.318778
1794.000000	0.318801
1795.000000	0.318930
1796.000000	0.319188
1797.000000	0.319247
1798.000000	0.319330
1799.000000	0.319236
1800.000000	0.318803
1801.000000	0.318355
1802.000000	0.319023
1803.000000	0.319993
1804.000000	0.320516
1805.000000	0.321199
1806.000000	0.321105
1807.000000	0.320057
1808.000000	0.319711
1809.000000	0.318787
1810.000000	0.318306
1811.000000	0.319063
1812.000000	0.321597
1813.000000	0.322250
1814.000000	0.323355
1815.000000	0.323505
1816.000000	0.322058
1817.000000	0.321175
1818.000000	0.320065
1819.000000	0.319512
1820.000000	0.319311
1821.000000	0.318695
1822.000000	0.318822
1823.000000	0.320169
1824.000000	0.320001
1825.000000	0.318758
1826.000000	0.318786
1827.000000	0.318777
1828.000000	0.318365
1829.000000	0.319524
1830.000000	0.320869
1831.000000	0.321262
1832.000000	0.321100
1833.000000	0.321057
1834.000000	0.320549
1835.000000	0.320350
1836.000000	0.319994
1837.000000	0.319776
1838.000000	0.319711
1839.000000	0.319473
1840.000000	0.318894
1841.000000	0.318809
1842.000000	0.318738
1843.000000	0.318592
1844.000000	0.318664
1845.000000	0.319042
1846.000000	0.319300
1847.000000	0.319491
1848.000000	0.319476
1849.000000	0.319772
1850.000000	0.319349
1851.000000	0.318755
1852.000000	0.317209
1853.000000	0.316952
1854.000000	0.317109
1855.000000	0.316857
1856.000000	0.316929
1857.000000	0.317095
1858.000000	0.316248
1859.000000	0.314708
1860.000000	0.313968
1861.000000	0.313584
1862.000000	0.313233
1863.000000	0.313674
1864.000000	0.313437
1865.000000	0.313034
1866.000000	0.312471
1867.000000	0.312071
1868.000000	0.310288
1869.000000	0.308250
1870.000000	0.306654
1871.000000	0.304849
1872.000000	0.303236
1873.000000	0.302075
1874.000000	0.301863
1875.000000	0.300880
1876.000000	0.299441
1877.000000	0.298127
1878.000000	0.296581
1879.000000	0.294466
1880.000000	0.292738
1881.000000	0.290542
1882.000000	0.288132
1883.000000	0.285211
1884.000000	0.282236
1885.000000	0.278535
1886.000000	0.275349
1887.000000	0.272210
1888.000000	0.268905
1889.000000	0.265801
1890.000000	0.262887
1891.000000	0.259373
1892.000000	0.256049
1893.000000	0.252548
1894.000000	0.248335
1895.000000	0.244579
1896.000000	0.241128
1897.000000	0.237552
1898.000000	0.233793
1899.000000	0.230733
1900.000000	0.227775
1901.000000	0.225202
1902.000000	0.222967
1903.000000	0.220934
1904.000000	0.219395
1905.000000	0.217940
1906.000000	0.217290
1907.000000	0.217497
1908.000000	0.218249
1909.000000	0.218861
1910.000000	0.219655
1911.000000	0.219876
1912.000000	0.220250
1913.000000	0.220775
1914.000000	0.221257
1915.000000	0.222134
1916.000000	0.222994
1917.000000	0.223766
1918.000000	0.224584
1919.000000	0.225627
1920.000000	0.226516
1921.000000	0.227449
1922.000000	0.228266
1923.000000	0.228916
1924.000000	0.229628
1925.000000	0.230130
1926.000000	0.230898
1927.000000	0.231846
1928.000000	0.232522
1929.000000	0.233083
1930.000000	0.233850
1931.000000	0.234515
1932.000000	0.235135
1933.000000	0.235863
1934.000000	0.236242
1935.000000	0.236570
1936.000000	0.236486
1937.000000	0.236428
1938.000000	0.236628
1939.000000	0.236803
1940.000000	0.236824
1941.000000	0.237546
1942.000000	0.238209
1943.000000	0.238524
1944.000000	0.239112
1945.000000	0.239332
1946.000000	0.239574
1947.000000	0.239678
1948.000000	0.239721
1949.000000	0.240142
1950.000000	0.240549
1951.000000	0.241026
1952.000000	0.241980
1953.000000	0.242673
1954.000000	0.242912
1955.000000	0.243464
1956.000000	0.243613
1957.000000	0.243258
1958.000000	0.242795
1959.000000	0.241958
1960.000000	0.241191
1961.000000	0.241059
1962.000000	0.241196
1963.000000	0.242002
1964.000000	0.242749
1965.000000	0.243024
1966.000000	0.243288
1967.000000	0.243156
1968.000000	0.243180
1969.000000	0.243817
1970.000000	0.244467
1971.000000	0.245388
1972.000000	0.246172
1973.000000	0.246369
1974.000000	0.245915
1975.000000	0.245998
1976.000000	0.245851
1977.000000	0.246019
1978.000000	0.246875
1979.000000	0.248043
1980.000000	0.248578
1981.000000	0.248990
1982.000000	0.249214
1983.000000	0.249249
1984.000000	0.249399
1985.000000	0.249820
1986.000000	0.249988
1987.000000	0.250022
1988.000000	0.250049
1989.000000	0.250590
1990.000000	0.251213
1991.000000	0.251934
1992.000000	0.253069
1993.000000	0.253548
1994.000000	0.253656
1995.000000	0.254068
1996.000000	0.254169
1997.000000	0.254442
1998.000000	0.254995
1999.000000	0.255532
2000.000000	0.255976
2001.000000	0.256679
2002.000000	0.257212
2003.000000	0.257867
2004.000000	0.258585
2005.000000	0.259195
2006.000000	0.260517
2007.000000	0.261734
2008.000000	0.262779
2009.000000	0.263973
2010.000000	0.264816
2011.000000	0.265266
2012.000000	0.265744
2013.000000	0.265992
2014.000000	0.266097
2015.000000	0.266330
2016.000000	0.266642
2017.000000	0.267412
2018.000000	0.268056
2019.000000	0.269153
2020.000000	0.270069
2021.000000	0.270568
2022.000000	0.270777
2023.000000	0.271192
2024.000000	0.271191
2025.000000	0.271530
2026.000000	0.272211
2027.000000	0.272388
2028.000000	0.272421
2029.000000	0.272653
2030.000000	0.272872
2031.000000	0.272897
2032.000000	0.273014
2033.000000	0.273786
2034.000000	0.274151
2035.000000	0.274404
2036.000000	0.274732
2037.000000	0.275315
2038.000000	0.275550
2039.000000	0.275545
2040.000000	0.276072
2041.000000	0.276444
2042.000000	0.276177
2043.000000	0.276212
2044.000000	0.276418
2045.000000	0.276274
2046.000000	0.276448
2047.000000	0.277166
2048.000000	0.278474
2049.000000	0.279410
2050.000000	0.280524
2051.000000	0.281266
2052.000000	0.281515
2053.000000	0.281573
2054.000000	0.281585
2055.000000	0.281764
2056.000000	0.281737
2057.000000	0.281998
2058.000000	0.282785
2059.000000	0.283309
2060.000000	0.283657
2061.000000	0.283943
2062.000000	0.284087
2063.000000	0.283771
2064.000000	0.284026
2065.000000	0.284749
2066.000000	0.285268
2067.000000	0.286538
2068.000000	0.287421
2069.000000	0.287104
2070.000000	0.286437
2071.000000	0.285522
2072.000000	0.284322
2073.000000	0.284065
2074.000000	0.285013
2075.000000	0.285592
2076.000000	0.286882
2077.000000	0.287351
2078.000000	0.287550
2079.000000	0.287358
2080.000000	0.286242
2081.000000	0.286020
2082.000000	0.285926
2083.000000	0.286159
2084.000000	0.286991
2085.000000	0.287595
2086.000000	0.288028
2087.000000	0.288350
2088.000000	0.287962
2089.000000	0.288058
2090.000000	0.288201
2091.000000	0.288106
2092.000000	0.288623
2093.000000	0.289946
2094.000000	0.290495
2095.000000	0.291638
2096.000000	0.291761
2097.000000	0.290557
2098.000000	0.289847
2099.000000	0.289880
2100.000000	0.289238
2101.000000	0.289903
2102.000000	0.291066
2103.000000	0.291337
2104.000000	0.291725
2105.000000	0.291898
2106.000000	0.291523
2107.000000	0.291707
2108.000000	0.292185
2109.000000	0.292455
2110.000000	0.293071
2111.000000	0.293139
2112.000000	0.292843
2113.000000	0.291737
2114.000000	0.291152
2115.000000	0.290681
2116.000000	0.290837
2117.000000	0.291522
2118.000000	0.291599
2119.000000	0.291009
2120.000000	0.291252
2121.000000	0.291475
2122.000000	0.291756
2123.000000	0.293094
2124.000000	0.293422
2125.000000	0.292887
2126.000000	0.292663
2127.000000	0.291865
2128.000000	0.291991
2129.000000	0.292835
2130.000000	0.293174
2131.000000	0.293283
2132.000000	0.293602
2133.000000	0.293319
2134.000000	0.293609
2135.000000	0.294695
2136.000000	0.295508
2137.000000	0.296328
2138.000000	0.297712
2139.000000	0.297719
2140.000000	0.296948
2141.000000	0.296499
2142.000000	0.294494
2143.000000	0.293773
2144.000000	0.294699
2145.000000	0.294665
2146.000000	0.294072
2147.000000	0.295130
2148.000000	0.295721
2149.000000	0.295514
2150.000000	0.296012
2151.000000	0.296308
2152.000000	0.295899
2153.000000	0.296008
2154.000000	0.295949
2155.000000	0.296243
2156.000000	0.295770
2157.000000	0.294645
2158.000000	0.294207
2159.000000	0.293389
2160.000000	0.293427
2161.000000	0.294599
2162.000000	0.295087
2163.000000	0.295557
2164.000000	0.295923
2165.000000	0.295925
2166.000000	0.296275
2167.000000	0.296219
2168.000000	0.296223
2169.000000	0.296750
2170.000000	0.297255
2171.000000	0.297455
2172.000000	0.298079
2173.000000	0.298003
2174.000000	0.296788
2175.000000	0.296467
2176.000000	0.296325
2177.000000	0.296331
2178.000000	0.297175
2179.000000	0.297357
2180.000000	0.296665
2181.000000	0.297153
2182.000000	0.297306
2183.000000	0.297955
2184.000000	0.299495
2185.000000	0.300209
2186.000000	0.299192
2187.000000	0.297757
2188.000000	0.295960
2189.000000	0.293874
2190.000000	0.292944
2191.000000	0.292846
2192.000000	0.292839
2193.000000	0.293778
2194.000000	0.294098
2195.000000	0.295317
2196.000000	0.294890
2197.000000	0.292419
2198.000000	0.291294
2199.000000	0.288801
2200.000000	0.288087
2201.000000	0.290273
2202.000000	0.291376
2203.000000	0.291848
2204.000000	0.294507
2205.000000	0.296295
2206.000000	0.295282
2207.000000	0.295605
2208.000000	0.296301
2209.000000	0.296415
2210.000000	0.298188
2211.000000	0.298883
2212.000000	0.297044
2213.000000	0.294644
2214.000000	0.289583
2215.000000	0.286964
2216.000000	0.283636
2217.000000	0.283228
2218.000000	0.286270
2219.000000	0.286914
2220.000000	0.287935
2221.000000	0.288176
2222.000000	0.286712
2223.000000	0.286221
2224.000000	0.285570
2225.000000	0.286370
2226.000000	0.288002
2227.000000	0.288040
2228.000000	0.288756
2229.000000	0.287936
2230.000000	0.285887
2231.000000	0.285120
2232.000000	0.283711
2233.000000	0.285008
2234.000000	0.287065
2235.000000	0.288280
2236.000000	0.289280
2237.000000	0.290696
2238.000000	0.290355
2239.000000	0.288725
2240.000000	0.287386
2241.000000	0.284319
2242.000000	0.283775
2243.000000	0.285366
2244.000000	0.285340
2245.000000	0.285211
2246.000000	0.285311
2247.000000	0.284239
2248.000000	0.283185
2249.000000	0.283424
2250.000000	0.282773
2251.000000	0.280232
2252.000000	0.279283
2253.000000	0.277415
2254.000000	0.278790
2255.000000	0.281518
2256.000000	0.283605
2257.000000	0.286262
2258.000000	0.287165
2259.000000	0.285084
2260.000000	0.283170
2261.000000	0.280890
2262.000000	0.275953
2263.000000	0.275118
2264.000000	0.276351
2265.000000	0.276294
2266.000000	0.278703
2267.000000	0.278996
2268.000000	0.276886
2269.000000	0.277245
2270.000000	0.277939
2271.000000	0.278488
2272.000000	0.281891
2273.000000	0.281515
2274.000000	0.279598
2275.000000	0.277169
2276.000000	0.272684
2277.000000	0.266300
2278.000000	0.262950
2279.000000	0.260995
2280.000000	0.262159
2281.000000	0.264000
2282.000000	0.264510
2283.000000	0.264100
2284.000000	0.261989
2285.000000	0.258779
2286.000000	0.258350
2287.000000	0.257051
2288.000000	0.255718
2289.000000	0.257385
2290.000000	0.254310
2291.000000	0.251248
2292.000000	0.249915
2293.000000	0.247167
2294.000000	0.246675
2295.000000	0.250309
2296.000000	0.249535
2297.000000	0.246516
2298.000000	0.246010
2299.000000	0.244323
2300.000000	0.244182
2301.000000	0.246226
2302.000000	0.247579
2303.000000	0.249034
2304.000000	0.250634
2305.000000	0.254005
2306.000000	0.255308
2307.000000	0.254885
2308.000000	0.254333
2309.000000	0.256323
2310.000000	0.258898
2311.000000	0.262935
2312.000000	0.267023
2313.000000	0.267571
2314.000000	0.267066
2315.000000	0.266514
2316.000000	0.265155
2317.000000	0.264169
2318.000000	0.264228
2319.000000	0.264199
2320.000000	0.264971
2321.000000	0.267361
2322.000000	0.269283
2323.000000	0.272187
2324.000000	0.273466
2325.000000	0.268853
2326.000000	0.266420
2327.000000	0.266580
2328.000000	0.263511
2329.000000	0.264454
2330.000000	0.264895
2331.000000	0.261248
2332.000000	0.260788
2333.000000	0.261331
2334.000000	0.261874
2335.000000	0.261786
2336.000000	0.260850
2337.000000	0.260479
2338.000000	0.259235
2339.000000	0.258698
2340.000000	0.259457
2341.000000	0.259735
2342.000000	0.258769
2343.000000	0.259692
2344.000000	0.263428
2345.000000	0.263754
2346.000000	0.264230
2347.000000	0.263148
2348.000000	0.259442
2349.000000	0.254487
2350.000000	0.251015
2351.000000	0.250917
2352.000000	0.251982
2353.000000	0.252857
2354.000000	0.254806
2355.000000	0.256417
2356.000000	0.258864
2357.000000	0.257771
2358.000000	0.257512
2359.000000	0.258756
2360.000000	0.254770
2361.000000	0.255756
2362.000000	0.257340
2363.000000	0.252308
2364.000000	0.249241
2365.000000	0.246616
2366.000000	0.241756
2367.000000	0.240293
2368.000000	0.239012
2369.000000	0.239835
2370.000000	0.245032
2371.000000	0.246805
2372.000000	0.249836
2373.000000	0.250347
2374.000000	0.247977
2375.000000	0.249311
2376.000000	0.246558
2377.000000	0.247503
2378.000000	0.249307
2379.000000	0.247004
2380.000000	0.250906
2381.000000	0.250486
2382.000000	0.242947
2383.000000	0.235006
2384.000000	0.226756
2385.000000	0.224553
2386.000000	0.228736
2387.000000	0.232270
2388.000000	0.236677
2389.000000	0.236608
2390.000000	0.237285
2391.000000	0.241980
2392.000000	0.240267
2393.000000	0.245197
2394.000000	0.247798
2395.000000	0.247963
2396.000000	0.250391
2397.000000	0.245353
2398.000000	0.242244
2399.000000	0.234648
2400.000000	0.230669
2401.000000	0.231372
2402.000000	0.228227
2403.000000	0.227097
2404.000000	0.225827
2405.000000	0.222665
2406.000000	0.215137
2407.000000	0.212553
2408.000000	0.208360
2409.000000	0.202482
2410.000000	0.209047
2411.000000	0.217503
2412.000000	0.227133
2413.000000	0.234441
2414.000000	0.233605
2415.000000	0.225584
2416.000000	0.216394
2417.000000	0.214003
2418.000000	0.215112
2419.000000	0.219604
2420.000000	0.228923
2421.000000	0.233842
2422.000000	0.230319
2423.000000	0.230904
2424.000000	0.227257
2425.000000	0.223025
2426.000000	0.228564
2427.000000	0.226963
2428.000000	0.219889
2429.000000	0.215473
2430.000000	0.216926
2431.000000	0.226438
2432.000000	0.234197
2433.000000	0.235803
2434.000000	0.232142
2435.000000	0.216493
2436.000000	0.207302
2437.000000	0.207334
2438.000000	0.211049
2439.000000	0.218274
2440.000000	0.208810
2441.000000	0.202326
2442.000000	0.202445
2443.000000	0.216127
2444.000000	0.242539
2445.000000	0.250628
2446.000000	0.248860
2447.000000	0.230241
2448.000000	0.208593
2449.000000	0.210629
2450.000000	0.214867
2451.000000	0.218955
2452.000000	0.228297
2453.000000	0.227800
2454.000000	0.232760
2455.000000	0.235524
2456.000000	0.228423
2457.000000	0.229261
2458.000000	0.217039
2459.000000	0.200692
2460.000000	0.189483
2461.000000	0.174806
2462.000000	0.172116
2463.000000	0.167694
2464.000000	0.153771
2465.000000	0.143456
2466.000000	0.145117
2467.000000	0.161805
2468.000000	0.178255
2469.000000	0.188125
2470.000000	0.195603
2471.000000	0.195483
2472.000000	0.192519
2473.000000	0.203533
2474.000000	0.201255
2475.000000	0.194092
2476.000000	0.214830
2477.000000	0.211458
2478.000000	0.191058
2479.000000	0.174009
2480.000000	0.150189
2481.000000	0.146660
2482.000000	0.170714
2483.000000	0.203277
2484.000000	0.216869
2485.000000	0.208963
2486.000000	0.208535
2487.000000	0.176078
2488.000000	0.139166
2489.000000	0.142004
2490.000000	0.130746
2491.000000	0.140574
2492.000000	0.154839
2493.000000	0.193075
2494.000000	0.198912
2495.000000	0.179206
2496.000000	0.171184
2497.000000	0.131964
2498.000000	0.114127
2499.000000	0.151214
2500.000000	0.155743
