# Wavelength	NAu-1-40_HEX-40_FV7-20_00002.asd.rts.txt
350.000000	0.170961
351.000000	0.187194
352.000000	0.183159
353.000000	0.168686
354.000000	0.157177
355.000000	0.161265
356.000000	0.168857
357.000000	0.172609
358.000000	0.163749
359.000000	0.161574
360.000000	0.162630
361.000000	0.159091
362.000000	0.158671
363.000000	0.158486
364.000000	0.157223
365.000000	0.161760
366.000000	0.161304
367.000000	0.155944
368.000000	0.155305
369.000000	0.152138
370.000000	0.151641
371.000000	0.160193
372.000000	0.162955
373.000000	0.162879
374.000000	0.163885
375.000000	0.166057
376.000000	0.166654
377.000000	0.165502
378.000000	0.164921
379.000000	0.166768
380.000000	0.167898
381.000000	0.165204
382.000000	0.165275
383.000000	0.167272
384.000000	0.169619
385.000000	0.170936
386.000000	0.171393
387.000000	0.171421
388.000000	0.171346
389.000000	0.173035
390.000000	0.175151
391.000000	0.175301
392.000000	0.176631
393.000000	0.177962
394.000000	0.178454
395.000000	0.180514
396.000000	0.181921
397.000000	0.182078
398.000000	0.182179
399.000000	0.184981
400.000000	0.189047
401.000000	0.191025
402.000000	0.192224
403.000000	0.192931
404.000000	0.193477
405.000000	0.194261
406.000000	0.195445
407.000000	0.197064
408.000000	0.199017
409.000000	0.200114
410.000000	0.200685
411.000000	0.201928
412.000000	0.203163
413.000000	0.204053
414.000000	0.204492
415.000000	0.205049
416.000000	0.205674
417.000000	0.206353
418.000000	0.207383
419.000000	0.207846
420.000000	0.207760
421.000000	0.207917
422.000000	0.208365
423.000000	0.208838
424.000000	0.209059
425.000000	0.209316
426.000000	0.209626
427.000000	0.209941
428.000000	0.210259
429.000000	0.210219
430.000000	0.209852
431.000000	0.209662
432.000000	0.209798
433.000000	0.210007
434.000000	0.209913
435.000000	0.209793
436.000000	0.209546
437.000000	0.209114
438.000000	0.209094
439.000000	0.208869
440.000000	0.208364
441.000000	0.208427
442.000000	0.208036
443.000000	0.207389
444.000000	0.207687
445.000000	0.207820
446.000000	0.207806
447.000000	0.207874
448.000000	0.208588
449.000000	0.209784
450.000000	0.211197
451.000000	0.212482
452.000000	0.213906
453.000000	0.215712
454.000000	0.218411
455.000000	0.220977
456.000000	0.223385
457.000000	0.225856
458.000000	0.228230
459.000000	0.230440
460.000000	0.232507
461.000000	0.234446
462.000000	0.236316
463.000000	0.238035
464.000000	0.239849
465.000000	0.240973
466.000000	0.241548
467.000000	0.242461
468.000000	0.243610
469.000000	0.244621
470.000000	0.245310
471.000000	0.246238
472.000000	0.247026
473.000000	0.247524
474.000000	0.248330
475.000000	0.248913
476.000000	0.249360
477.000000	0.250107
478.000000	0.250637
479.000000	0.251204
480.000000	0.251983
481.000000	0.252527
482.000000	0.252946
483.000000	0.253260
484.000000	0.253851
485.000000	0.254512
486.000000	0.255202
487.000000	0.255601
488.000000	0.256075
489.000000	0.256719
490.000000	0.257435
491.000000	0.257922
492.000000	0.258391
493.000000	0.259019
494.000000	0.259698
495.000000	0.260417
496.000000	0.261134
497.000000	0.261878
498.000000	0.262558
499.000000	0.263207
500.000000	0.263806
501.000000	0.264367
502.000000	0.265049
503.000000	0.265958
504.000000	0.266646
505.000000	0.267298
506.000000	0.268123
507.000000	0.268750
508.000000	0.269493
509.000000	0.270401
510.000000	0.271061
511.000000	0.271751
512.000000	0.272547
513.000000	0.273326
514.000000	0.274179
515.000000	0.275113
516.000000	0.276036
517.000000	0.276940
518.000000	0.277846
519.000000	0.278706
520.000000	0.279648
521.000000	0.280529
522.000000	0.281351
523.000000	0.282313
524.000000	0.283364
525.000000	0.284402
526.000000	0.285335
527.000000	0.286377
528.000000	0.287376
529.000000	0.288233
530.000000	0.289330
531.000000	0.290525
532.000000	0.291612
533.000000	0.292692
534.000000	0.293745
535.000000	0.294768
536.000000	0.295821
537.000000	0.297023
538.000000	0.298226
539.000000	0.299187
540.000000	0.300249
541.000000	0.301380
542.000000	0.302529
543.000000	0.303668
544.000000	0.304728
545.000000	0.305685
546.000000	0.306892
547.000000	0.308053
548.000000	0.309171
549.000000	0.310337
550.000000	0.311381
551.000000	0.312414
552.000000	0.313548
553.000000	0.314704
554.000000	0.315839
555.000000	0.316936
556.000000	0.318027
557.000000	0.319032
558.000000	0.320048
559.000000	0.320976
560.000000	0.321818
561.000000	0.322728
562.000000	0.323752
563.000000	0.324659
564.000000	0.325509
565.000000	0.326309
566.000000	0.327230
567.000000	0.328149
568.000000	0.328972
569.000000	0.329786
570.000000	0.330530
571.000000	0.331203
572.000000	0.331888
573.000000	0.332570
574.000000	0.333215
575.000000	0.333846
576.000000	0.334435
577.000000	0.335002
578.000000	0.335628
579.000000	0.336223
580.000000	0.336816
581.000000	0.337368
582.000000	0.337717
583.000000	0.338026
584.000000	0.338360
585.000000	0.338744
586.000000	0.339157
587.000000	0.339585
588.000000	0.340001
589.000000	0.340319
590.000000	0.340612
591.000000	0.340929
592.000000	0.341230
593.000000	0.341500
594.000000	0.341743
595.000000	0.341998
596.000000	0.342187
597.000000	0.342344
598.000000	0.342436
599.000000	0.342552
600.000000	0.342701
601.000000	0.342799
602.000000	0.342958
603.000000	0.343161
604.000000	0.343374
605.000000	0.343490
606.000000	0.343634
607.000000	0.343767
608.000000	0.343748
609.000000	0.343815
610.000000	0.343940
611.000000	0.344027
612.000000	0.344031
613.000000	0.344037
614.000000	0.344125
615.000000	0.344168
616.000000	0.344253
617.000000	0.344334
618.000000	0.344352
619.000000	0.344418
620.000000	0.344520
621.000000	0.344653
622.000000	0.344662
623.000000	0.344620
624.000000	0.344619
625.000000	0.344690
626.000000	0.344770
627.000000	0.344848
628.000000	0.345000
629.000000	0.345184
630.000000	0.345239
631.000000	0.345269
632.000000	0.345382
633.000000	0.345558
634.000000	0.345727
635.000000	0.345865
636.000000	0.346011
637.000000	0.346174
638.000000	0.346365
639.000000	0.346586
640.000000	0.346838
641.000000	0.346924
642.000000	0.346998
643.000000	0.347109
644.000000	0.347271
645.000000	0.347408
646.000000	0.347577
647.000000	0.347778
648.000000	0.347915
649.000000	0.348109
650.000000	0.348354
651.000000	0.348559
652.000000	0.348795
653.000000	0.349081
654.000000	0.349317
655.000000	0.349570
656.000000	0.349837
657.000000	0.350045
658.000000	0.350249
659.000000	0.350487
660.000000	0.350760
661.000000	0.351083
662.000000	0.351317
663.000000	0.351530
664.000000	0.351798
665.000000	0.352093
666.000000	0.352398
667.000000	0.352663
668.000000	0.352932
669.000000	0.353200
670.000000	0.353471
671.000000	0.353744
672.000000	0.354084
673.000000	0.354461
674.000000	0.354791
675.000000	0.355154
676.000000	0.355531
677.000000	0.355898
678.000000	0.356221
679.000000	0.356537
680.000000	0.356881
681.000000	0.357217
682.000000	0.357580
683.000000	0.357889
684.000000	0.358205
685.000000	0.358540
686.000000	0.358935
687.000000	0.359368
688.000000	0.359833
689.000000	0.360264
690.000000	0.360663
691.000000	0.361077
692.000000	0.361474
693.000000	0.361918
694.000000	0.362373
695.000000	0.362756
696.000000	0.363150
697.000000	0.363681
698.000000	0.364079
699.000000	0.364465
700.000000	0.364965
701.000000	0.365449
702.000000	0.365919
703.000000	0.366367
704.000000	0.366830
705.000000	0.367339
706.000000	0.367836
707.000000	0.368332
708.000000	0.368817
709.000000	0.369258
710.000000	0.369688
711.000000	0.370295
712.000000	0.370872
713.000000	0.371353
714.000000	0.371792
715.000000	0.372306
716.000000	0.372836
717.000000	0.373220
718.000000	0.373669
719.000000	0.374079
720.000000	0.374407
721.000000	0.374975
722.000000	0.375465
723.000000	0.375856
724.000000	0.376323
725.000000	0.376760
726.000000	0.377211
727.000000	0.377582
728.000000	0.378003
729.000000	0.378455
730.000000	0.378847
731.000000	0.379282
732.000000	0.379699
733.000000	0.380109
734.000000	0.380463
735.000000	0.380742
736.000000	0.381105
737.000000	0.381455
738.000000	0.381707
739.000000	0.382038
740.000000	0.382371
741.000000	0.382744
742.000000	0.383114
743.000000	0.383439
744.000000	0.383782
745.000000	0.384010
746.000000	0.384235
747.000000	0.384515
748.000000	0.384881
749.000000	0.385203
750.000000	0.385385
751.000000	0.385626
752.000000	0.385884
753.000000	0.386141
754.000000	0.386364
755.000000	0.386578
756.000000	0.386799
757.000000	0.386969
758.000000	0.387070
759.000000	0.387157
760.000000	0.387191
761.000000	0.387276
762.000000	0.387418
763.000000	0.387545
764.000000	0.387638
765.000000	0.387717
766.000000	0.387757
767.000000	0.387749
768.000000	0.387865
769.000000	0.387963
770.000000	0.387993
771.000000	0.388030
772.000000	0.388073
773.000000	0.388017
774.000000	0.387898
775.000000	0.387818
776.000000	0.387786
777.000000	0.387761
778.000000	0.387715
779.000000	0.387714
780.000000	0.387732
781.000000	0.387628
782.000000	0.387563
783.000000	0.387570
784.000000	0.387430
785.000000	0.387239
786.000000	0.387013
787.000000	0.386775
788.000000	0.386594
789.000000	0.386480
790.000000	0.386400
791.000000	0.386348
792.000000	0.386209
793.000000	0.386018
794.000000	0.385825
795.000000	0.385573
796.000000	0.385380
797.000000	0.385257
798.000000	0.385118
799.000000	0.384913
800.000000	0.384685
801.000000	0.384507
802.000000	0.384361
803.000000	0.384213
804.000000	0.384047
805.000000	0.383700
806.000000	0.383328
807.000000	0.383057
808.000000	0.382810
809.000000	0.382619
810.000000	0.382466
811.000000	0.382287
812.000000	0.381950
813.000000	0.381698
814.000000	0.381553
815.000000	0.381371
816.000000	0.381089
817.000000	0.380742
818.000000	0.380315
819.000000	0.380037
820.000000	0.379794
821.000000	0.379474
822.000000	0.379172
823.000000	0.378974
824.000000	0.378767
825.000000	0.378527
826.000000	0.378266
827.000000	0.377949
828.000000	0.377622
829.000000	0.377320
830.000000	0.377050
831.000000	0.376792
832.000000	0.376333
833.000000	0.376033
834.000000	0.375790
835.000000	0.375517
836.000000	0.375228
837.000000	0.374949
838.000000	0.374689
839.000000	0.374392
840.000000	0.374094
841.000000	0.373816
842.000000	0.373536
843.000000	0.373349
844.000000	0.373120
845.000000	0.372826
846.000000	0.372660
847.000000	0.372361
848.000000	0.372004
849.000000	0.371757
850.000000	0.371476
851.000000	0.371191
852.000000	0.370947
853.000000	0.370663
854.000000	0.370353
855.000000	0.370135
856.000000	0.369910
857.000000	0.369647
858.000000	0.369365
859.000000	0.369011
860.000000	0.368696
861.000000	0.368421
862.000000	0.368171
863.000000	0.367850
864.000000	0.367644
865.000000	0.367444
866.000000	0.367218
867.000000	0.367027
868.000000	0.366758
869.000000	0.366409
870.000000	0.366136
871.000000	0.365694
872.000000	0.365416
873.000000	0.365334
874.000000	0.365049
875.000000	0.364785
876.000000	0.364554
877.000000	0.364220
878.000000	0.363880
879.000000	0.363589
880.000000	0.363236
881.000000	0.363021
882.000000	0.362761
883.000000	0.362520
884.000000	0.362362
885.000000	0.362241
886.000000	0.362060
887.000000	0.361816
888.000000	0.361571
889.000000	0.361469
890.000000	0.361261
891.000000	0.360892
892.000000	0.360721
893.000000	0.360536
894.000000	0.360321
895.000000	0.359989
896.000000	0.359758
897.000000	0.359632
898.000000	0.359510
899.000000	0.359214
900.000000	0.358948
901.000000	0.358784
902.000000	0.358747
903.000000	0.358438
904.000000	0.358069
905.000000	0.357836
906.000000	0.357669
907.000000	0.357480
908.000000	0.357350
909.000000	0.357329
910.000000	0.357288
911.000000	0.357234
912.000000	0.357206
913.000000	0.357138
914.000000	0.356954
915.000000	0.356764
916.000000	0.356620
917.000000	0.356418
918.000000	0.356238
919.000000	0.356099
920.000000	0.355898
921.000000	0.355706
922.000000	0.355584
923.000000	0.355522
924.000000	0.355240
925.000000	0.355071
926.000000	0.355141
927.000000	0.354964
928.000000	0.354836
929.000000	0.354733
930.000000	0.354557
931.000000	0.354341
932.000000	0.354149
933.000000	0.354047
934.000000	0.353970
935.000000	0.353740
936.000000	0.353591
937.000000	0.353565
938.000000	0.353337
939.000000	0.353105
940.000000	0.352917
941.000000	0.352907
942.000000	0.352890
943.000000	0.352888
944.000000	0.352824
945.000000	0.352909
946.000000	0.352839
947.000000	0.352813
948.000000	0.352967
949.000000	0.352732
950.000000	0.352471
951.000000	0.352223
952.000000	0.351852
953.000000	0.351978
954.000000	0.352022
955.000000	0.351569
956.000000	0.351550
957.000000	0.351498
958.000000	0.351369
959.000000	0.351404
960.000000	0.351450
961.000000	0.351397
962.000000	0.351246
963.000000	0.351192
964.000000	0.351192
965.000000	0.351182
966.000000	0.351028
967.000000	0.351026
968.000000	0.350947
969.000000	0.350884
970.000000	0.351112
971.000000	0.350818
972.000000	0.350554
973.000000	0.350523
974.000000	0.350580
975.000000	0.350758
976.000000	0.350882
977.000000	0.350830
978.000000	0.350747
979.000000	0.350851
980.000000	0.350964
981.000000	0.351232
982.000000	0.351161
983.000000	0.350873
984.000000	0.350680
985.000000	0.350815
986.000000	0.350834
987.000000	0.350962
988.000000	0.351141
989.000000	0.350854
990.000000	0.350943
991.000000	0.351409
992.000000	0.351919
993.000000	0.351951
994.000000	0.351646
995.000000	0.351409
996.000000	0.351325
997.000000	0.351520
998.000000	0.351604
999.000000	0.351640
1000.000000	0.352133
1001.000000	0.351127
1002.000000	0.352139
1003.000000	0.352110
1004.000000	0.352156
1005.000000	0.351541
1006.000000	0.351339
1007.000000	0.351069
1008.000000	0.351623
1009.000000	0.351664
1010.000000	0.351571
1011.000000	0.352005
1012.000000	0.352030
1013.000000	0.352067
1014.000000	0.352299
1015.000000	0.351828
1016.000000	0.351761
1017.000000	0.352578
1018.000000	0.353156
1019.000000	0.353661
1020.000000	0.354866
1021.000000	0.354908
1022.000000	0.354277
1023.000000	0.354218
1024.000000	0.353873
1025.000000	0.353399
1026.000000	0.353502
1027.000000	0.353685
1028.000000	0.354188
1029.000000	0.354984
1030.000000	0.355297
1031.000000	0.355477
1032.000000	0.355462
1033.000000	0.355780
1034.000000	0.356085
1035.000000	0.356437
1036.000000	0.356840
1037.000000	0.357598
1038.000000	0.357767
1039.000000	0.357564
1040.000000	0.358154
1041.000000	0.358439
1042.000000	0.358294
1043.000000	0.358725
1044.000000	0.359653
1045.000000	0.360210
1046.000000	0.360391
1047.000000	0.360959
1048.000000	0.361613
1049.000000	0.361858
1050.000000	0.362302
1051.000000	0.362521
1052.000000	0.361942
1053.000000	0.361788
1054.000000	0.361918
1055.000000	0.362415
1056.000000	0.363153
1057.000000	0.364126
1058.000000	0.365316
1059.000000	0.365735
1060.000000	0.365723
1061.000000	0.366115
1062.000000	0.366402
1063.000000	0.366490
1064.000000	0.366802
1065.000000	0.367080
1066.000000	0.367533
1067.000000	0.368200
1068.000000	0.368679
1069.000000	0.369134
1070.000000	0.369517
1071.000000	0.369878
1072.000000	0.370163
1073.000000	0.370453
1074.000000	0.370778
1075.000000	0.370705
1076.000000	0.370938
1077.000000	0.371520
1078.000000	0.371911
1079.000000	0.372288
1080.000000	0.372983
1081.000000	0.373299
1082.000000	0.373062
1083.000000	0.373620
1084.000000	0.374766
1085.000000	0.375468
1086.000000	0.376521
1087.000000	0.377119
1088.000000	0.376859
1089.000000	0.377002
1090.000000	0.376987
1091.000000	0.377360
1092.000000	0.377951
1093.000000	0.378794
1094.000000	0.379321
1095.000000	0.379794
1096.000000	0.380336
1097.000000	0.380745
1098.000000	0.381197
1099.000000	0.381715
1100.000000	0.382262
1101.000000	0.382582
1102.000000	0.383088
1103.000000	0.383867
1104.000000	0.384439
1105.000000	0.385018
1106.000000	0.385435
1107.000000	0.385423
1108.000000	0.385696
1109.000000	0.385979
1110.000000	0.386425
1111.000000	0.387109
1112.000000	0.388288
1113.000000	0.388875
1114.000000	0.389412
1115.000000	0.389839
1116.000000	0.389830
1117.000000	0.390214
1118.000000	0.390934
1119.000000	0.391203
1120.000000	0.391261
1121.000000	0.391502
1122.000000	0.391697
1123.000000	0.392123
1124.000000	0.392402
1125.000000	0.392910
1126.000000	0.393608
1127.000000	0.393977
1128.000000	0.394269
1129.000000	0.394711
1130.000000	0.394982
1131.000000	0.394850
1132.000000	0.395101
1133.000000	0.395637
1134.000000	0.396073
1135.000000	0.396473
1136.000000	0.396887
1137.000000	0.397390
1138.000000	0.397693
1139.000000	0.398077
1140.000000	0.398403
1141.000000	0.398440
1142.000000	0.398624
1143.000000	0.398682
1144.000000	0.399011
1145.000000	0.399291
1146.000000	0.399624
1147.000000	0.399794
1148.000000	0.399845
1149.000000	0.399947
1150.000000	0.399896
1151.000000	0.400089
1152.000000	0.400347
1153.000000	0.400644
1154.000000	0.401052
1155.000000	0.401307
1156.000000	0.401511
1157.000000	0.401759
1158.000000	0.401866
1159.000000	0.402051
1160.000000	0.402307
1161.000000	0.402542
1162.000000	0.402892
1163.000000	0.403330
1164.000000	0.403405
1165.000000	0.403492
1166.000000	0.403642
1167.000000	0.403512
1168.000000	0.403730
1169.000000	0.404297
1170.000000	0.404632
1171.000000	0.405064
1172.000000	0.405416
1173.000000	0.405624
1174.000000	0.405812
1175.000000	0.405874
1176.000000	0.406047
1177.000000	0.406385
1178.000000	0.406606
1179.000000	0.406863
1180.000000	0.407006
1181.000000	0.407113
1182.000000	0.407148
1183.000000	0.407349
1184.000000	0.407697
1185.000000	0.407988
1186.000000	0.408340
1187.000000	0.408579
1188.000000	0.408808
1189.000000	0.408909
1190.000000	0.408970
1191.000000	0.409057
1192.000000	0.409158
1193.000000	0.409469
1194.000000	0.409753
1195.000000	0.409969
1196.000000	0.410168
1197.000000	0.410359
1198.000000	0.410532
1199.000000	0.410700
1200.000000	0.410884
1201.000000	0.411040
1202.000000	0.411161
1203.000000	0.411223
1204.000000	0.411282
1205.000000	0.411341
1206.000000	0.411377
1207.000000	0.411470
1208.000000	0.411583
1209.000000	0.411865
1210.000000	0.411977
1211.000000	0.411991
1212.000000	0.412044
1213.000000	0.412058
1214.000000	0.412176
1215.000000	0.412382
1216.000000	0.412534
1217.000000	0.412661
1218.000000	0.412744
1219.000000	0.412736
1220.000000	0.412982
1221.000000	0.413110
1222.000000	0.413240
1223.000000	0.413538
1224.000000	0.413556
1225.000000	0.413631
1226.000000	0.413935
1227.000000	0.413833
1228.000000	0.413778
1229.000000	0.413792
1230.000000	0.413687
1231.000000	0.413628
1232.000000	0.413887
1233.000000	0.414111
1234.000000	0.414210
1235.000000	0.414384
1236.000000	0.414628
1237.000000	0.414814
1238.000000	0.414863
1239.000000	0.414944
1240.000000	0.415028
1241.000000	0.415037
1242.000000	0.415037
1243.000000	0.415292
1244.000000	0.415489
1245.000000	0.415572
1246.000000	0.415758
1247.000000	0.415916
1248.000000	0.415975
1249.000000	0.416235
1250.000000	0.416453
1251.000000	0.416577
1252.000000	0.416700
1253.000000	0.416867
1254.000000	0.416972
1255.000000	0.417021
1256.000000	0.417050
1257.000000	0.417102
1258.000000	0.417206
1259.000000	0.417244
1260.000000	0.417295
1261.000000	0.417243
1262.000000	0.417221
1263.000000	0.417230
1264.000000	0.417137
1265.000000	0.417103
1266.000000	0.417206
1267.000000	0.417300
1268.000000	0.417434
1269.000000	0.417459
1270.000000	0.417408
1271.000000	0.417263
1272.000000	0.417179
1273.000000	0.417243
1274.000000	0.417413
1275.000000	0.417536
1276.000000	0.417791
1277.000000	0.417898
1278.000000	0.417818
1279.000000	0.417800
1280.000000	0.417569
1281.000000	0.417459
1282.000000	0.417534
1283.000000	0.417610
1284.000000	0.417530
1285.000000	0.417676
1286.000000	0.417954
1287.000000	0.418123
1288.000000	0.418436
1289.000000	0.418754
1290.000000	0.418746
1291.000000	0.418707
1292.000000	0.418632
1293.000000	0.418498
1294.000000	0.418466
1295.000000	0.418430
1296.000000	0.418417
1297.000000	0.418482
1298.000000	0.418596
1299.000000	0.418712
1300.000000	0.418790
1301.000000	0.418737
1302.000000	0.418620
1303.000000	0.418583
1304.000000	0.418401
1305.000000	0.418148
1306.000000	0.418049
1307.000000	0.418016
1308.000000	0.417990
1309.000000	0.418193
1310.000000	0.418170
1311.000000	0.418005
1312.000000	0.417834
1313.000000	0.417757
1314.000000	0.417639
1315.000000	0.417623
1316.000000	0.417641
1317.000000	0.417573
1318.000000	0.417352
1319.000000	0.417041
1320.000000	0.416963
1321.000000	0.416828
1322.000000	0.416536
1323.000000	0.416365
1324.000000	0.416305
1325.000000	0.416078
1326.000000	0.415928
1327.000000	0.416077
1328.000000	0.416076
1329.000000	0.415834
1330.000000	0.415516
1331.000000	0.415239
1332.000000	0.414721
1333.000000	0.414460
1334.000000	0.414459
1335.000000	0.414444
1336.000000	0.414553
1337.000000	0.414470
1338.000000	0.414312
1339.000000	0.414044
1340.000000	0.413600
1341.000000	0.413316
1342.000000	0.413071
1343.000000	0.412934
1344.000000	0.412806
1345.000000	0.412501
1346.000000	0.412387
1347.000000	0.412152
1348.000000	0.412198
1349.000000	0.412176
1350.000000	0.411831
1351.000000	0.411572
1352.000000	0.411212
1353.000000	0.410946
1354.000000	0.410761
1355.000000	0.410359
1356.000000	0.410175
1357.000000	0.409873
1358.000000	0.409542
1359.000000	0.409406
1360.000000	0.409215
1361.000000	0.409006
1362.000000	0.408763
1363.000000	0.408553
1364.000000	0.408273
1365.000000	0.407782
1366.000000	0.407516
1367.000000	0.407343
1368.000000	0.407120
1369.000000	0.407060
1370.000000	0.406793
1371.000000	0.406266
1372.000000	0.405829
1373.000000	0.405320
1374.000000	0.404763
1375.000000	0.404273
1376.000000	0.403785
1377.000000	0.403214
1378.000000	0.402535
1379.000000	0.401788
1380.000000	0.401061
1381.000000	0.400357
1382.000000	0.399658
1383.000000	0.398804
1384.000000	0.397692
1385.000000	0.396571
1386.000000	0.395581
1387.000000	0.394614
1388.000000	0.393691
1389.000000	0.392788
1390.000000	0.391722
1391.000000	0.390563
1392.000000	0.389386
1393.000000	0.388009
1394.000000	0.386390
1395.000000	0.384980
1396.000000	0.383628
1397.000000	0.382086
1398.000000	0.380500
1399.000000	0.378946
1400.000000	0.377212
1401.000000	0.375503
1402.000000	0.373918
1403.000000	0.372265
1404.000000	0.370609
1405.000000	0.368939
1406.000000	0.367285
1407.000000	0.365740
1408.000000	0.364090
1409.000000	0.362325
1410.000000	0.360680
1411.000000	0.359089
1412.000000	0.357474
1413.000000	0.356197
1414.000000	0.355120
1415.000000	0.354055
1416.000000	0.353140
1417.000000	0.352257
1418.000000	0.351207
1419.000000	0.350293
1420.000000	0.349483
1421.000000	0.348675
1422.000000	0.347873
1423.000000	0.347076
1424.000000	0.346044
1425.000000	0.345054
1426.000000	0.344083
1427.000000	0.343075
1428.000000	0.342102
1429.000000	0.341127
1430.000000	0.340197
1431.000000	0.339331
1432.000000	0.338554
1433.000000	0.337847
1434.000000	0.337297
1435.000000	0.336946
1436.000000	0.336699
1437.000000	0.336566
1438.000000	0.336542
1439.000000	0.336703
1440.000000	0.336906
1441.000000	0.337259
1442.000000	0.337648
1443.000000	0.338029
1444.000000	0.338496
1445.000000	0.338890
1446.000000	0.339267
1447.000000	0.339671
1448.000000	0.339883
1449.000000	0.340135
1450.000000	0.340445
1451.000000	0.340510
1452.000000	0.340507
1453.000000	0.340503
1454.000000	0.340357
1455.000000	0.340280
1456.000000	0.340295
1457.000000	0.340281
1458.000000	0.340203
1459.000000	0.340081
1460.000000	0.339972
1461.000000	0.339821
1462.000000	0.339763
1463.000000	0.339683
1464.000000	0.339527
1465.000000	0.339552
1466.000000	0.339545
1467.000000	0.339499
1468.000000	0.339550
1469.000000	0.339654
1470.000000	0.339789
1471.000000	0.340087
1472.000000	0.340489
1473.000000	0.340907
1474.000000	0.341231
1475.000000	0.341568
1476.000000	0.341832
1477.000000	0.342226
1478.000000	0.342792
1479.000000	0.343319
1480.000000	0.343911
1481.000000	0.344353
1482.000000	0.344642
1483.000000	0.345134
1484.000000	0.345632
1485.000000	0.346181
1486.000000	0.346939
1487.000000	0.347491
1488.000000	0.347931
1489.000000	0.348477
1490.000000	0.348848
1491.000000	0.349362
1492.000000	0.349950
1493.000000	0.350507
1494.000000	0.351050
1495.000000	0.351517
1496.000000	0.351930
1497.000000	0.352357
1498.000000	0.352742
1499.000000	0.353212
1500.000000	0.353654
1501.000000	0.354012
1502.000000	0.354297
1503.000000	0.354655
1504.000000	0.354979
1505.000000	0.355355
1506.000000	0.355821
1507.000000	0.356063
1508.000000	0.356488
1509.000000	0.356945
1510.000000	0.357185
1511.000000	0.357632
1512.000000	0.358067
1513.000000	0.358339
1514.000000	0.358649
1515.000000	0.358884
1516.000000	0.359041
1517.000000	0.359196
1518.000000	0.359504
1519.000000	0.359794
1520.000000	0.360067
1521.000000	0.360337
1522.000000	0.360636
1523.000000	0.360918
1524.000000	0.361078
1525.000000	0.361291
1526.000000	0.361364
1527.000000	0.361393
1528.000000	0.361645
1529.000000	0.361876
1530.000000	0.362015
1531.000000	0.362230
1532.000000	0.362331
1533.000000	0.362331
1534.000000	0.362458
1535.000000	0.362674
1536.000000	0.362863
1537.000000	0.363137
1538.000000	0.363247
1539.000000	0.363210
1540.000000	0.363406
1541.000000	0.363686
1542.000000	0.363894
1543.000000	0.364239
1544.000000	0.364485
1545.000000	0.364542
1546.000000	0.364756
1547.000000	0.364964
1548.000000	0.365017
1549.000000	0.365062
1550.000000	0.365104
1551.000000	0.365161
1552.000000	0.365276
1553.000000	0.365388
1554.000000	0.365494
1555.000000	0.365684
1556.000000	0.365726
1557.000000	0.365684
1558.000000	0.365757
1559.000000	0.365719
1560.000000	0.365736
1561.000000	0.365974
1562.000000	0.366021
1563.000000	0.365964
1564.000000	0.366030
1565.000000	0.366104
1566.000000	0.366055
1567.000000	0.366172
1568.000000	0.366182
1569.000000	0.366099
1570.000000	0.366100
1571.000000	0.366126
1572.000000	0.366086
1573.000000	0.366085
1574.000000	0.366042
1575.000000	0.365912
1576.000000	0.365887
1577.000000	0.365872
1578.000000	0.365841
1579.000000	0.365951
1580.000000	0.366002
1581.000000	0.366098
1582.000000	0.366125
1583.000000	0.366097
1584.000000	0.366032
1585.000000	0.366018
1586.000000	0.366065
1587.000000	0.366122
1588.000000	0.366163
1589.000000	0.366198
1590.000000	0.366225
1591.000000	0.366330
1592.000000	0.366344
1593.000000	0.366385
1594.000000	0.366375
1595.000000	0.366275
1596.000000	0.366260
1597.000000	0.366327
1598.000000	0.366349
1599.000000	0.366395
1600.000000	0.366417
1601.000000	0.366515
1602.000000	0.366569
1603.000000	0.366677
1604.000000	0.366676
1605.000000	0.366574
1606.000000	0.366613
1607.000000	0.366742
1608.000000	0.366869
1609.000000	0.367156
1610.000000	0.367317
1611.000000	0.367474
1612.000000	0.367544
1613.000000	0.367661
1614.000000	0.367711
1615.000000	0.367737
1616.000000	0.367778
1617.000000	0.367732
1618.000000	0.367773
1619.000000	0.367798
1620.000000	0.367826
1621.000000	0.367944
1622.000000	0.368105
1623.000000	0.368226
1624.000000	0.368363
1625.000000	0.368382
1626.000000	0.368404
1627.000000	0.368414
1628.000000	0.368594
1629.000000	0.368811
1630.000000	0.369137
1631.000000	0.369595
1632.000000	0.369824
1633.000000	0.370042
1634.000000	0.370256
1635.000000	0.370329
1636.000000	0.370556
1637.000000	0.370979
1638.000000	0.371168
1639.000000	0.371354
1640.000000	0.371533
1641.000000	0.371691
1642.000000	0.371803
1643.000000	0.371944
1644.000000	0.372094
1645.000000	0.372130
1646.000000	0.372238
1647.000000	0.372516
1648.000000	0.372624
1649.000000	0.372728
1650.000000	0.372940
1651.000000	0.373218
1652.000000	0.373459
1653.000000	0.373694
1654.000000	0.373943
1655.000000	0.374061
1656.000000	0.374169
1657.000000	0.374440
1658.000000	0.374559
1659.000000	0.374681
1660.000000	0.374824
1661.000000	0.374772
1662.000000	0.374935
1663.000000	0.375227
1664.000000	0.375343
1665.000000	0.375468
1666.000000	0.375683
1667.000000	0.375662
1668.000000	0.375831
1669.000000	0.376197
1670.000000	0.376349
1671.000000	0.376528
1672.000000	0.376819
1673.000000	0.377076
1674.000000	0.377306
1675.000000	0.377658
1676.000000	0.377741
1677.000000	0.377786
1678.000000	0.377851
1679.000000	0.377967
1680.000000	0.378131
1681.000000	0.378355
1682.000000	0.378608
1683.000000	0.378715
1684.000000	0.378783
1685.000000	0.378869
1686.000000	0.379047
1687.000000	0.379208
1688.000000	0.379158
1689.000000	0.379202
1690.000000	0.379129
1691.000000	0.379102
1692.000000	0.379188
1693.000000	0.379350
1694.000000	0.379431
1695.000000	0.379567
1696.000000	0.379737
1697.000000	0.379820
1698.000000	0.379999
1699.000000	0.380100
1700.000000	0.380027
1701.000000	0.380194
1702.000000	0.380279
1703.000000	0.380273
1704.000000	0.380442
1705.000000	0.380531
1706.000000	0.380472
1707.000000	0.380558
1708.000000	0.380761
1709.000000	0.380802
1710.000000	0.380966
1711.000000	0.381039
1712.000000	0.380986
1713.000000	0.380962
1714.000000	0.380908
1715.000000	0.380992
1716.000000	0.381249
1717.000000	0.381323
1718.000000	0.381343
1719.000000	0.381353
1720.000000	0.381229
1721.000000	0.381275
1722.000000	0.381533
1723.000000	0.381635
1724.000000	0.381691
1725.000000	0.381848
1726.000000	0.381921
1727.000000	0.381972
1728.000000	0.382006
1729.000000	0.381994
1730.000000	0.382005
1731.000000	0.382110
1732.000000	0.382357
1733.000000	0.382546
1734.000000	0.382530
1735.000000	0.382703
1736.000000	0.382942
1737.000000	0.383032
1738.000000	0.383124
1739.000000	0.383323
1740.000000	0.383463
1741.000000	0.383516
1742.000000	0.383705
1743.000000	0.383821
1744.000000	0.383699
1745.000000	0.383730
1746.000000	0.383873
1747.000000	0.383993
1748.000000	0.384035
1749.000000	0.384172
1750.000000	0.384205
1751.000000	0.384283
1752.000000	0.384406
1753.000000	0.384317
1754.000000	0.384296
1755.000000	0.384245
1756.000000	0.384153
1757.000000	0.384021
1758.000000	0.384002
1759.000000	0.384025
1760.000000	0.383988
1761.000000	0.383912
1762.000000	0.383915
1763.000000	0.383891
1764.000000	0.383938
1765.000000	0.384124
1766.000000	0.384222
1767.000000	0.384197
1768.000000	0.384123
1769.000000	0.384056
1770.000000	0.384154
1771.000000	0.384263
1772.000000	0.384321
1773.000000	0.384431
1774.000000	0.384466
1775.000000	0.384434
1776.000000	0.384495
1777.000000	0.384557
1778.000000	0.384617
1779.000000	0.384721
1780.000000	0.384710
1781.000000	0.384619
1782.000000	0.384545
1783.000000	0.384406
1784.000000	0.384541
1785.000000	0.384541
1786.000000	0.384832
1787.000000	0.385138
1788.000000	0.385194
1789.000000	0.385481
1790.000000	0.385620
1791.000000	0.385629
1792.000000	0.385646
1793.000000	0.385766
1794.000000	0.385961
1795.000000	0.386069
1796.000000	0.386193
1797.000000	0.386287
1798.000000	0.386192
1799.000000	0.386206
1800.000000	0.386367
1801.000000	0.386393
1802.000000	0.386484
1803.000000	0.385888
1804.000000	0.385475
1805.000000	0.384049
1806.000000	0.384099
1807.000000	0.385634
1808.000000	0.385694
1809.000000	0.385792
1810.000000	0.385761
1811.000000	0.385144
1812.000000	0.382634
1813.000000	0.382402
1814.000000	0.383243
1815.000000	0.383648
1816.000000	0.384995
1817.000000	0.385416
1818.000000	0.384984
1819.000000	0.385565
1820.000000	0.386189
1821.000000	0.385893
1822.000000	0.385846
1823.000000	0.385870
1824.000000	0.385409
1825.000000	0.383963
1826.000000	0.383790
1827.000000	0.383665
1828.000000	0.384057
1829.000000	0.385234
1830.000000	0.385704
1831.000000	0.385634
1832.000000	0.384798
1833.000000	0.384386
1834.000000	0.383360
1835.000000	0.383116
1836.000000	0.383345
1837.000000	0.383587
1838.000000	0.384021
1839.000000	0.384554
1840.000000	0.384923
1841.000000	0.384446
1842.000000	0.384033
1843.000000	0.382761
1844.000000	0.382480
1845.000000	0.382692
1846.000000	0.382549
1847.000000	0.382426
1848.000000	0.382249
1849.000000	0.381941
1850.000000	0.381374
1851.000000	0.380798
1852.000000	0.380188
1853.000000	0.379644
1854.000000	0.378676
1855.000000	0.377865
1856.000000	0.376896
1857.000000	0.376334
1858.000000	0.376370
1859.000000	0.375829
1860.000000	0.375149
1861.000000	0.374637
1862.000000	0.373655
1863.000000	0.372143
1864.000000	0.370832
1865.000000	0.369540
1866.000000	0.367932
1867.000000	0.366221
1868.000000	0.364010
1869.000000	0.361071
1870.000000	0.359037
1871.000000	0.356928
1872.000000	0.353922
1873.000000	0.351808
1874.000000	0.350454
1875.000000	0.348491
1876.000000	0.346149
1877.000000	0.344357
1878.000000	0.341368
1879.000000	0.337630
1880.000000	0.334818
1881.000000	0.331562
1882.000000	0.328196
1883.000000	0.325292
1884.000000	0.321576
1885.000000	0.316344
1886.000000	0.311927
1887.000000	0.307656
1888.000000	0.302784
1889.000000	0.298506
1890.000000	0.295113
1891.000000	0.290724
1892.000000	0.286471
1893.000000	0.282254
1894.000000	0.277276
1895.000000	0.271964
1896.000000	0.266447
1897.000000	0.260918
1898.000000	0.255195
1899.000000	0.250697
1900.000000	0.246702
1901.000000	0.242270
1902.000000	0.238204
1903.000000	0.233446
1904.000000	0.229179
1905.000000	0.225760
1906.000000	0.222479
1907.000000	0.219641
1908.000000	0.217212
1909.000000	0.214440
1910.000000	0.211860
1911.000000	0.209813
1912.000000	0.208062
1913.000000	0.206545
1914.000000	0.205466
1915.000000	0.203983
1916.000000	0.201938
1917.000000	0.200646
1918.000000	0.199718
1919.000000	0.199229
1920.000000	0.198928
1921.000000	0.198995
1922.000000	0.198481
1923.000000	0.197492
1924.000000	0.197134
1925.000000	0.197052
1926.000000	0.196945
1927.000000	0.197645
1928.000000	0.198085
1929.000000	0.198510
1930.000000	0.198651
1931.000000	0.199455
1932.000000	0.199522
1933.000000	0.199187
1934.000000	0.199679
1935.000000	0.200053
1936.000000	0.200186
1937.000000	0.200809
1938.000000	0.200925
1939.000000	0.201138
1940.000000	0.201063
1941.000000	0.201892
1942.000000	0.201929
1943.000000	0.201757
1944.000000	0.202080
1945.000000	0.201520
1946.000000	0.201357
1947.000000	0.201727
1948.000000	0.201175
1949.000000	0.200973
1950.000000	0.200876
1951.000000	0.200441
1952.000000	0.199752
1953.000000	0.199511
1954.000000	0.198863
1955.000000	0.198334
1956.000000	0.198295
1957.000000	0.197981
1958.000000	0.197811
1959.000000	0.198079
1960.000000	0.198272
1961.000000	0.198103
1962.000000	0.198049
1963.000000	0.198017
1964.000000	0.198008
1965.000000	0.198015
1966.000000	0.198622
1967.000000	0.199312
1968.000000	0.198982
1969.000000	0.198695
1970.000000	0.198636
1971.000000	0.198188
1972.000000	0.198344
1973.000000	0.198224
1974.000000	0.197629
1975.000000	0.197811
1976.000000	0.198379
1977.000000	0.199128
1978.000000	0.199948
1979.000000	0.200917
1980.000000	0.201593
1981.000000	0.202091
1982.000000	0.203022
1983.000000	0.204248
1984.000000	0.205182
1985.000000	0.206085
1986.000000	0.206724
1987.000000	0.207159
1988.000000	0.207790
1989.000000	0.208227
1990.000000	0.209160
1991.000000	0.209693
1992.000000	0.209503
1993.000000	0.209596
1994.000000	0.209755
1995.000000	0.210418
1996.000000	0.211803
1997.000000	0.212937
1998.000000	0.214147
1999.000000	0.215427
2000.000000	0.216782
2001.000000	0.218165
2002.000000	0.219636
2003.000000	0.220998
2004.000000	0.221889
2005.000000	0.222630
2006.000000	0.222944
2007.000000	0.223861
2008.000000	0.225026
2009.000000	0.226481
2010.000000	0.227639
2011.000000	0.229107
2012.000000	0.229986
2013.000000	0.230149
2014.000000	0.230893
2015.000000	0.231647
2016.000000	0.232652
2017.000000	0.234313
2018.000000	0.236132
2019.000000	0.237702
2020.000000	0.239330
2021.000000	0.240517
2022.000000	0.241099
2023.000000	0.241889
2024.000000	0.242346
2025.000000	0.243142
2026.000000	0.243983
2027.000000	0.244956
2028.000000	0.245939
2029.000000	0.247296
2030.000000	0.248332
2031.000000	0.249419
2032.000000	0.249856
2033.000000	0.250944
2034.000000	0.252057
2035.000000	0.253248
2036.000000	0.254197
2037.000000	0.255542
2038.000000	0.256515
2039.000000	0.257157
2040.000000	0.257985
2041.000000	0.258936
2042.000000	0.260269
2043.000000	0.260781
2044.000000	0.261715
2045.000000	0.262486
2046.000000	0.262440
2047.000000	0.263018
2048.000000	0.263547
2049.000000	0.264479
2050.000000	0.265518
2051.000000	0.266630
2052.000000	0.268168
2053.000000	0.269359
2054.000000	0.270692
2055.000000	0.271961
2056.000000	0.272937
2057.000000	0.273479
2058.000000	0.273737
2059.000000	0.274109
2060.000000	0.274382
2061.000000	0.274434
2062.000000	0.274762
2063.000000	0.275011
2064.000000	0.275320
2065.000000	0.275988
2066.000000	0.276653
2067.000000	0.277587
2068.000000	0.278953
2069.000000	0.279903
2070.000000	0.280635
2071.000000	0.280841
2072.000000	0.281509
2073.000000	0.281865
2074.000000	0.282149
2075.000000	0.282849
2076.000000	0.283587
2077.000000	0.284495
2078.000000	0.285910
2079.000000	0.286922
2080.000000	0.287999
2081.000000	0.288868
2082.000000	0.289301
2083.000000	0.290420
2084.000000	0.291409
2085.000000	0.291824
2086.000000	0.292418
2087.000000	0.293115
2088.000000	0.293562
2089.000000	0.294286
2090.000000	0.295310
2091.000000	0.296989
2092.000000	0.297953
2093.000000	0.299048
2094.000000	0.299725
2095.000000	0.299479
2096.000000	0.299944
2097.000000	0.300478
2098.000000	0.301242
2099.000000	0.301940
2100.000000	0.303153
2101.000000	0.303858
2102.000000	0.303842
2103.000000	0.304285
2104.000000	0.304175
2105.000000	0.304734
2106.000000	0.305823
2107.000000	0.306770
2108.000000	0.307998
2109.000000	0.308998
2110.000000	0.309888
2111.000000	0.310236
2112.000000	0.309973
2113.000000	0.309977
2114.000000	0.309915
2115.000000	0.309957
2116.000000	0.309957
2117.000000	0.310131
2118.000000	0.310769
2119.000000	0.311372
2120.000000	0.312177
2121.000000	0.314044
2122.000000	0.314777
2123.000000	0.314806
2124.000000	0.314866
2125.000000	0.314177
2126.000000	0.314271
2127.000000	0.314880
2128.000000	0.315479
2129.000000	0.316481
2130.000000	0.317458
2131.000000	0.317099
2132.000000	0.316043
2133.000000	0.316049
2134.000000	0.316330
2135.000000	0.317279
2136.000000	0.318191
2137.000000	0.318013
2138.000000	0.316352
2139.000000	0.315873
2140.000000	0.315234
2141.000000	0.314898
2142.000000	0.315114
2143.000000	0.315345
2144.000000	0.315678
2145.000000	0.316322
2146.000000	0.317555
2147.000000	0.319325
2148.000000	0.320187
2149.000000	0.320235
2150.000000	0.320063
2151.000000	0.318505
2152.000000	0.318099
2153.000000	0.318155
2154.000000	0.317825
2155.000000	0.318075
2156.000000	0.318136
2157.000000	0.317601
2158.000000	0.317510
2159.000000	0.318059
2160.000000	0.318106
2161.000000	0.317617
2162.000000	0.317745
2163.000000	0.318206
2164.000000	0.318232
2165.000000	0.318269
2166.000000	0.318431
2167.000000	0.318090
2168.000000	0.317661
2169.000000	0.317212
2170.000000	0.317079
2171.000000	0.317360
2172.000000	0.318055
2173.000000	0.318350
2174.000000	0.319252
2175.000000	0.319360
2176.000000	0.318614
2177.000000	0.318160
2178.000000	0.317096
2179.000000	0.317086
2180.000000	0.317993
2181.000000	0.318746
2182.000000	0.319798
2183.000000	0.320173
2184.000000	0.319773
2185.000000	0.317935
2186.000000	0.316692
2187.000000	0.317511
2188.000000	0.318965
2189.000000	0.319391
2190.000000	0.319336
2191.000000	0.319326
2192.000000	0.319341
2193.000000	0.318767
2194.000000	0.319407
2195.000000	0.321346
2196.000000	0.321740
2197.000000	0.321993
2198.000000	0.321882
2199.000000	0.320439
2200.000000	0.320030
2201.000000	0.320700
2202.000000	0.320042
2203.000000	0.318420
2204.000000	0.316944
2205.000000	0.314952
2206.000000	0.312460
2207.000000	0.311740
2208.000000	0.312194
2209.000000	0.311980
2210.000000	0.314524
2211.000000	0.315906
2212.000000	0.316102
2213.000000	0.316954
2214.000000	0.317732
2215.000000	0.317503
2216.000000	0.316747
2217.000000	0.316720
2218.000000	0.316083
2219.000000	0.316607
2220.000000	0.319410
2221.000000	0.319722
2222.000000	0.317951
2223.000000	0.317629
2224.000000	0.316804
2225.000000	0.317012
2226.000000	0.316742
2227.000000	0.317194
2228.000000	0.315648
2229.000000	0.313994
2230.000000	0.312757
2231.000000	0.312884
2232.000000	0.313985
2233.000000	0.312756
2234.000000	0.313587
2235.000000	0.314789
2236.000000	0.315507
2237.000000	0.317131
2238.000000	0.317170
2239.000000	0.315626
2240.000000	0.314865
2241.000000	0.313227
2242.000000	0.312919
2243.000000	0.313583
2244.000000	0.314579
2245.000000	0.316261
2246.000000	0.317150
2247.000000	0.318440
2248.000000	0.318578
2249.000000	0.317949
2250.000000	0.317440
2251.000000	0.315393
2252.000000	0.314674
2253.000000	0.313764
2254.000000	0.313007
2255.000000	0.313668
2256.000000	0.314548
2257.000000	0.313990
2258.000000	0.312793
2259.000000	0.311456
2260.000000	0.310157
2261.000000	0.309732
2262.000000	0.311020
2263.000000	0.309741
2264.000000	0.307754
2265.000000	0.306547
2266.000000	0.304814
2267.000000	0.303466
2268.000000	0.302405
2269.000000	0.300589
2270.000000	0.297775
2271.000000	0.295989
2272.000000	0.295491
2273.000000	0.294493
2274.000000	0.293478
2275.000000	0.291579
2276.000000	0.289414
2277.000000	0.285698
2278.000000	0.282760
2279.000000	0.281175
2280.000000	0.281814
2281.000000	0.284091
2282.000000	0.283448
2283.000000	0.283198
2284.000000	0.280785
2285.000000	0.276066
2286.000000	0.275867
2287.000000	0.275362
2288.000000	0.276712
2289.000000	0.280328
2290.000000	0.280853
2291.000000	0.281881
2292.000000	0.279527
2293.000000	0.275665
2294.000000	0.275413
2295.000000	0.276337
2296.000000	0.277258
2297.000000	0.281907
2298.000000	0.282946
2299.000000	0.281842
2300.000000	0.282050
2301.000000	0.281206
2302.000000	0.281183
2303.000000	0.281756
2304.000000	0.281566
2305.000000	0.281913
2306.000000	0.281943
2307.000000	0.280981
2308.000000	0.281605
2309.000000	0.281925
2310.000000	0.280489
2311.000000	0.281234
2312.000000	0.280380
2313.000000	0.278920
2314.000000	0.278922
2315.000000	0.278201
2316.000000	0.277688
2317.000000	0.278300
2318.000000	0.280266
2319.000000	0.281308
2320.000000	0.280911
2321.000000	0.280183
2322.000000	0.279184
2323.000000	0.279041
2324.000000	0.279556
2325.000000	0.278872
2326.000000	0.275937
2327.000000	0.271097
2328.000000	0.267868
2329.000000	0.265409
2330.000000	0.262557
2331.000000	0.262843
2332.000000	0.262947
2333.000000	0.261805
2334.000000	0.261307
2335.000000	0.260912
2336.000000	0.257816
2337.000000	0.257307
2338.000000	0.259690
2339.000000	0.260859
2340.000000	0.263475
2341.000000	0.263728
2342.000000	0.262271
2343.000000	0.259760
2344.000000	0.254119
2345.000000	0.251344
2346.000000	0.249099
2347.000000	0.248018
2348.000000	0.249353
2349.000000	0.248971
2350.000000	0.247161
2351.000000	0.246629
2352.000000	0.245907
2353.000000	0.245980
2354.000000	0.248713
2355.000000	0.249567
2356.000000	0.250048
2357.000000	0.250263
2358.000000	0.245484
2359.000000	0.241465
2360.000000	0.239437
2361.000000	0.237172
2362.000000	0.236201
2363.000000	0.236243
2364.000000	0.235101
2365.000000	0.235866
2366.000000	0.237754
2367.000000	0.239658
2368.000000	0.241326
2369.000000	0.238551
2370.000000	0.235118
2371.000000	0.232462
2372.000000	0.229415
2373.000000	0.227071
2374.000000	0.225552
2375.000000	0.224153
2376.000000	0.222987
2377.000000	0.219763
2378.000000	0.214958
2379.000000	0.212620
2380.000000	0.206625
2381.000000	0.201475
2382.000000	0.199637
2383.000000	0.199541
2384.000000	0.204404
2385.000000	0.207810
2386.000000	0.211225
2387.000000	0.210587
2388.000000	0.203518
2389.000000	0.200171
2390.000000	0.198807
2391.000000	0.198617
2392.000000	0.202284
2393.000000	0.204955
2394.000000	0.208116
2395.000000	0.210028
2396.000000	0.207812
2397.000000	0.207840
2398.000000	0.205510
2399.000000	0.199982
2400.000000	0.200671
2401.000000	0.202537
2402.000000	0.199746
2403.000000	0.201751
2404.000000	0.201538
2405.000000	0.195644
2406.000000	0.195678
2407.000000	0.197279
2408.000000	0.197403
2409.000000	0.196273
2410.000000	0.193868
2411.000000	0.187353
2412.000000	0.177529
2413.000000	0.171867
2414.000000	0.172128
2415.000000	0.169091
2416.000000	0.168756
2417.000000	0.173326
2418.000000	0.173651
2419.000000	0.177602
2420.000000	0.185499
2421.000000	0.188884
2422.000000	0.183929
2423.000000	0.182017
2424.000000	0.177131
2425.000000	0.172371
2426.000000	0.181950
2427.000000	0.187177
2428.000000	0.186676
2429.000000	0.184681
2430.000000	0.174626
2431.000000	0.168439
2432.000000	0.165021
2433.000000	0.163615
2434.000000	0.171868
2435.000000	0.182667
2436.000000	0.194318
2437.000000	0.200367
2438.000000	0.203256
2439.000000	0.199942
2440.000000	0.189825
2441.000000	0.184637
2442.000000	0.186197
2443.000000	0.186001
2444.000000	0.183312
2445.000000	0.190256
2446.000000	0.186421
2447.000000	0.182622
2448.000000	0.191536
2449.000000	0.196937
2450.000000	0.210516
2451.000000	0.214142
2452.000000	0.200380
2453.000000	0.191480
2454.000000	0.178087
2455.000000	0.167619
2456.000000	0.177636
2457.000000	0.181974
2458.000000	0.178888
2459.000000	0.183976
2460.000000	0.172515
2461.000000	0.157583
2462.000000	0.156975
2463.000000	0.147270
2464.000000	0.149990
2465.000000	0.163749
2466.000000	0.152707
2467.000000	0.155751
2468.000000	0.158347
2469.000000	0.147352
2470.000000	0.149141
2471.000000	0.121104
2472.000000	0.095092
2473.000000	0.092971
2474.000000	0.101592
2475.000000	0.129326
2476.000000	0.154490
2477.000000	0.166241
2478.000000	0.149622
2479.000000	0.127410
2480.000000	0.141868
2481.000000	0.153003
2482.000000	0.160203
2483.000000	0.188794
2484.000000	0.204108
2485.000000	0.196315
2486.000000	0.200432
2487.000000	0.207227
2488.000000	0.199317
2489.000000	0.174687
2490.000000	0.141624
2491.000000	0.146177
2492.000000	0.123627
2493.000000	0.130452
2494.000000	0.110281
2495.000000	-0.001816
2496.000000	-0.009909
2497.000000	0.038317
2498.000000	0.053026
2499.000000	0.143637
2500.000000	0.170522
