# Wavelength	Nau-1_20_FV7_80_00000.asd.rts.txt
350.000000	0.177083
351.000000	0.181496
352.000000	0.190816
353.000000	0.186957
354.000000	0.171044
355.000000	0.172256
356.000000	0.177705
357.000000	0.183102
358.000000	0.186898
359.000000	0.185757
360.000000	0.183115
361.000000	0.182395
362.000000	0.176181
363.000000	0.174085
364.000000	0.180204
365.000000	0.187327
366.000000	0.185487
367.000000	0.178292
368.000000	0.182164
369.000000	0.184055
370.000000	0.183871
371.000000	0.184784
372.000000	0.185124
373.000000	0.186696
374.000000	0.190386
375.000000	0.192965
376.000000	0.192275
377.000000	0.189395
378.000000	0.188661
379.000000	0.190075
380.000000	0.193152
381.000000	0.197080
382.000000	0.194808
383.000000	0.192915
384.000000	0.196079
385.000000	0.199973
386.000000	0.200593
387.000000	0.198117
388.000000	0.196489
389.000000	0.196949
390.000000	0.198895
391.000000	0.200682
392.000000	0.202813
393.000000	0.202763
394.000000	0.200288
395.000000	0.203927
396.000000	0.205844
397.000000	0.203896
398.000000	0.202947
399.000000	0.204030
400.000000	0.206722
401.000000	0.209472
402.000000	0.208991
403.000000	0.208509
404.000000	0.210778
405.000000	0.211120
406.000000	0.211906
407.000000	0.213762
408.000000	0.213847
409.000000	0.213786
410.000000	0.214063
411.000000	0.214588
412.000000	0.215270
413.000000	0.215701
414.000000	0.215726
415.000000	0.216981
416.000000	0.217756
417.000000	0.217455
418.000000	0.218457
419.000000	0.218918
420.000000	0.218737
421.000000	0.219238
422.000000	0.219394
423.000000	0.219336
424.000000	0.219574
425.000000	0.219975
426.000000	0.220318
427.000000	0.220537
428.000000	0.221248
429.000000	0.221429
430.000000	0.221030
431.000000	0.221264
432.000000	0.221637
433.000000	0.221960
434.000000	0.222208
435.000000	0.222039
436.000000	0.221878
437.000000	0.222109
438.000000	0.222342
439.000000	0.222455
440.000000	0.222502
441.000000	0.222474
442.000000	0.222927
443.000000	0.223470
444.000000	0.223142
445.000000	0.222692
446.000000	0.222642
447.000000	0.223165
448.000000	0.223627
449.000000	0.224114
450.000000	0.224727
451.000000	0.225323
452.000000	0.226125
453.000000	0.227039
454.000000	0.227785
455.000000	0.228701
456.000000	0.229839
457.000000	0.230951
458.000000	0.231791
459.000000	0.232611
460.000000	0.233649
461.000000	0.234472
462.000000	0.235262
463.000000	0.235954
464.000000	0.236470
465.000000	0.236884
466.000000	0.237291
467.000000	0.237938
468.000000	0.238686
469.000000	0.239127
470.000000	0.239129
471.000000	0.239675
472.000000	0.240270
473.000000	0.240551
474.000000	0.240729
475.000000	0.241015
476.000000	0.241474
477.000000	0.241659
478.000000	0.241879
479.000000	0.242328
480.000000	0.242801
481.000000	0.242885
482.000000	0.243138
483.000000	0.243782
484.000000	0.244103
485.000000	0.244344
486.000000	0.244747
487.000000	0.244917
488.000000	0.245179
489.000000	0.245569
490.000000	0.245918
491.000000	0.246249
492.000000	0.246643
493.000000	0.247043
494.000000	0.247355
495.000000	0.247691
496.000000	0.248084
497.000000	0.248489
498.000000	0.248829
499.000000	0.249188
500.000000	0.249672
501.000000	0.250065
502.000000	0.250396
503.000000	0.250720
504.000000	0.251082
505.000000	0.251545
506.000000	0.252121
507.000000	0.252565
508.000000	0.252914
509.000000	0.253238
510.000000	0.253807
511.000000	0.254314
512.000000	0.254732
513.000000	0.255182
514.000000	0.255661
515.000000	0.256171
516.000000	0.256639
517.000000	0.257029
518.000000	0.257475
519.000000	0.257980
520.000000	0.258447
521.000000	0.258941
522.000000	0.259459
523.000000	0.259841
524.000000	0.260341
525.000000	0.260884
526.000000	0.261273
527.000000	0.261853
528.000000	0.262407
529.000000	0.262746
530.000000	0.263325
531.000000	0.263900
532.000000	0.264269
533.000000	0.264803
534.000000	0.265284
535.000000	0.265691
536.000000	0.266238
537.000000	0.266714
538.000000	0.267162
539.000000	0.267693
540.000000	0.268157
541.000000	0.268609
542.000000	0.269139
543.000000	0.269648
544.000000	0.270160
545.000000	0.270635
546.000000	0.271169
547.000000	0.271645
548.000000	0.272126
549.000000	0.272712
550.000000	0.273198
551.000000	0.273645
552.000000	0.274133
553.000000	0.274700
554.000000	0.275239
555.000000	0.275699
556.000000	0.276240
557.000000	0.276728
558.000000	0.277240
559.000000	0.277770
560.000000	0.278258
561.000000	0.278746
562.000000	0.279180
563.000000	0.279586
564.000000	0.280058
565.000000	0.280556
566.000000	0.280977
567.000000	0.281389
568.000000	0.281809
569.000000	0.282206
570.000000	0.282616
571.000000	0.283004
572.000000	0.283289
573.000000	0.283663
574.000000	0.284093
575.000000	0.284521
576.000000	0.284952
577.000000	0.285355
578.000000	0.285757
579.000000	0.286058
580.000000	0.286389
581.000000	0.286774
582.000000	0.287063
583.000000	0.287379
584.000000	0.287710
585.000000	0.287982
586.000000	0.288262
587.000000	0.288555
588.000000	0.288839
589.000000	0.289027
590.000000	0.289203
591.000000	0.289436
592.000000	0.289746
593.000000	0.290019
594.000000	0.290208
595.000000	0.290335
596.000000	0.290574
597.000000	0.290871
598.000000	0.290990
599.000000	0.291060
600.000000	0.291130
601.000000	0.291172
602.000000	0.291316
603.000000	0.291517
604.000000	0.291746
605.000000	0.291971
606.000000	0.292200
607.000000	0.292429
608.000000	0.292646
609.000000	0.292903
610.000000	0.293186
611.000000	0.293452
612.000000	0.293632
613.000000	0.293773
614.000000	0.293931
615.000000	0.294005
616.000000	0.294027
617.000000	0.294018
618.000000	0.294106
619.000000	0.294230
620.000000	0.294302
621.000000	0.294285
622.000000	0.294199
623.000000	0.294159
624.000000	0.294229
625.000000	0.294212
626.000000	0.294233
627.000000	0.294341
628.000000	0.294442
629.000000	0.294668
630.000000	0.294846
631.000000	0.294925
632.000000	0.295023
633.000000	0.295220
634.000000	0.295512
635.000000	0.295629
636.000000	0.295761
637.000000	0.295985
638.000000	0.296132
639.000000	0.296279
640.000000	0.296497
641.000000	0.296698
642.000000	0.296860
643.000000	0.296976
644.000000	0.297058
645.000000	0.297140
646.000000	0.297289
647.000000	0.297493
648.000000	0.297604
649.000000	0.297734
650.000000	0.297905
651.000000	0.298091
652.000000	0.298267
653.000000	0.298427
654.000000	0.298505
655.000000	0.298662
656.000000	0.298866
657.000000	0.299008
658.000000	0.299136
659.000000	0.299283
660.000000	0.299434
661.000000	0.299547
662.000000	0.299655
663.000000	0.299811
664.000000	0.299975
665.000000	0.300182
666.000000	0.300391
667.000000	0.300533
668.000000	0.300728
669.000000	0.300951
670.000000	0.301168
671.000000	0.301321
672.000000	0.301477
673.000000	0.301650
674.000000	0.301830
675.000000	0.302050
676.000000	0.302267
677.000000	0.302441
678.000000	0.302590
679.000000	0.302774
680.000000	0.303007
681.000000	0.303115
682.000000	0.303294
683.000000	0.303504
684.000000	0.303689
685.000000	0.303827
686.000000	0.304012
687.000000	0.304310
688.000000	0.304606
689.000000	0.304842
690.000000	0.305040
691.000000	0.305273
692.000000	0.305472
693.000000	0.305695
694.000000	0.305981
695.000000	0.306235
696.000000	0.306441
697.000000	0.306622
698.000000	0.306788
699.000000	0.306989
700.000000	0.307254
701.000000	0.307501
702.000000	0.307756
703.000000	0.307997
704.000000	0.308173
705.000000	0.308438
706.000000	0.308726
707.000000	0.308970
708.000000	0.309193
709.000000	0.309457
710.000000	0.309803
711.000000	0.310076
712.000000	0.310259
713.000000	0.310423
714.000000	0.310712
715.000000	0.310982
716.000000	0.311195
717.000000	0.311340
718.000000	0.311465
719.000000	0.311636
720.000000	0.311884
721.000000	0.312049
722.000000	0.312184
723.000000	0.312378
724.000000	0.312593
725.000000	0.312771
726.000000	0.312972
727.000000	0.313141
728.000000	0.313319
729.000000	0.313473
730.000000	0.313552
731.000000	0.313755
732.000000	0.313980
733.000000	0.314178
734.000000	0.314234
735.000000	0.314426
736.000000	0.314772
737.000000	0.314933
738.000000	0.314991
739.000000	0.315088
740.000000	0.315159
741.000000	0.315267
742.000000	0.315428
743.000000	0.315591
744.000000	0.315721
745.000000	0.315863
746.000000	0.316040
747.000000	0.316162
748.000000	0.316271
749.000000	0.316404
750.000000	0.316532
751.000000	0.316605
752.000000	0.316660
753.000000	0.316754
754.000000	0.316946
755.000000	0.317076
756.000000	0.317154
757.000000	0.317197
758.000000	0.317311
759.000000	0.317387
760.000000	0.317342
761.000000	0.317470
762.000000	0.317539
763.000000	0.317512
764.000000	0.317538
765.000000	0.317606
766.000000	0.317708
767.000000	0.317811
768.000000	0.317835
769.000000	0.317801
770.000000	0.317756
771.000000	0.317781
772.000000	0.317811
773.000000	0.317793
774.000000	0.317815
775.000000	0.317811
776.000000	0.317852
777.000000	0.317945
778.000000	0.317955
779.000000	0.317904
780.000000	0.317868
781.000000	0.317955
782.000000	0.317999
783.000000	0.318080
784.000000	0.318138
785.000000	0.318164
786.000000	0.318151
787.000000	0.318119
788.000000	0.318149
789.000000	0.318192
790.000000	0.318202
791.000000	0.318192
792.000000	0.318244
793.000000	0.318242
794.000000	0.318113
795.000000	0.317989
796.000000	0.317895
797.000000	0.317822
798.000000	0.317733
799.000000	0.317752
800.000000	0.317823
801.000000	0.317843
802.000000	0.317788
803.000000	0.317707
804.000000	0.317663
805.000000	0.317611
806.000000	0.317430
807.000000	0.317269
808.000000	0.317235
809.000000	0.317084
810.000000	0.316984
811.000000	0.317034
812.000000	0.317003
813.000000	0.316885
814.000000	0.316725
815.000000	0.316638
816.000000	0.316653
817.000000	0.316639
818.000000	0.316428
819.000000	0.316444
820.000000	0.316528
821.000000	0.316516
822.000000	0.316423
823.000000	0.316383
824.000000	0.316322
825.000000	0.316219
826.000000	0.316010
827.000000	0.315783
828.000000	0.315622
829.000000	0.315405
830.000000	0.315190
831.000000	0.315046
832.000000	0.314885
833.000000	0.314829
834.000000	0.314814
835.000000	0.314804
836.000000	0.314812
837.000000	0.314697
838.000000	0.314477
839.000000	0.314256
840.000000	0.314085
841.000000	0.314034
842.000000	0.314082
843.000000	0.314120
844.000000	0.314106
845.000000	0.314014
846.000000	0.313914
847.000000	0.313824
848.000000	0.313736
849.000000	0.313653
850.000000	0.313474
851.000000	0.313163
852.000000	0.312858
853.000000	0.312823
854.000000	0.312840
855.000000	0.312920
856.000000	0.312929
857.000000	0.312742
858.000000	0.312566
859.000000	0.312420
860.000000	0.312242
861.000000	0.311977
862.000000	0.311778
863.000000	0.311742
864.000000	0.311594
865.000000	0.311382
866.000000	0.311196
867.000000	0.311050
868.000000	0.311046
869.000000	0.311021
870.000000	0.310850
871.000000	0.310689
872.000000	0.310535
873.000000	0.310351
874.000000	0.310285
875.000000	0.310254
876.000000	0.310162
877.000000	0.309889
878.000000	0.309830
879.000000	0.309741
880.000000	0.309370
881.000000	0.309078
882.000000	0.308879
883.000000	0.308700
884.000000	0.308379
885.000000	0.308129
886.000000	0.307990
887.000000	0.307919
888.000000	0.307653
889.000000	0.307403
890.000000	0.307187
891.000000	0.307134
892.000000	0.306919
893.000000	0.306729
894.000000	0.306748
895.000000	0.306703
896.000000	0.306395
897.000000	0.305981
898.000000	0.305726
899.000000	0.305561
900.000000	0.305421
901.000000	0.305237
902.000000	0.305077
903.000000	0.304998
904.000000	0.304916
905.000000	0.304667
906.000000	0.304580
907.000000	0.304512
908.000000	0.304421
909.000000	0.304209
910.000000	0.303865
911.000000	0.303490
912.000000	0.303199
913.000000	0.302991
914.000000	0.302710
915.000000	0.302458
916.000000	0.302352
917.000000	0.302242
918.000000	0.302120
919.000000	0.301947
920.000000	0.301610
921.000000	0.301221
922.000000	0.300853
923.000000	0.300534
924.000000	0.300364
925.000000	0.300234
926.000000	0.300068
927.000000	0.299778
928.000000	0.299462
929.000000	0.299208
930.000000	0.299050
931.000000	0.298746
932.000000	0.298420
933.000000	0.298177
934.000000	0.297977
935.000000	0.297834
936.000000	0.297769
937.000000	0.297645
938.000000	0.297273
939.000000	0.296972
940.000000	0.296691
941.000000	0.296331
942.000000	0.296059
943.000000	0.295912
944.000000	0.295737
945.000000	0.295482
946.000000	0.295286
947.000000	0.295183
948.000000	0.295070
949.000000	0.294771
950.000000	0.294624
951.000000	0.294575
952.000000	0.294308
953.000000	0.294005
954.000000	0.293698
955.000000	0.293386
956.000000	0.293352
957.000000	0.293211
958.000000	0.292924
959.000000	0.292711
960.000000	0.292428
961.000000	0.292342
962.000000	0.292350
963.000000	0.291962
964.000000	0.291614
965.000000	0.291392
966.000000	0.291200
967.000000	0.291198
968.000000	0.291013
969.000000	0.290721
970.000000	0.290697
971.000000	0.290677
972.000000	0.290644
973.000000	0.290539
974.000000	0.290419
975.000000	0.290089
976.000000	0.289786
977.000000	0.289652
978.000000	0.289309
979.000000	0.289207
980.000000	0.289040
981.000000	0.288731
982.000000	0.288647
983.000000	0.288543
984.000000	0.288354
985.000000	0.288107
986.000000	0.288057
987.000000	0.288032
988.000000	0.287805
989.000000	0.287623
990.000000	0.287642
991.000000	0.287552
992.000000	0.287101
993.000000	0.286871
994.000000	0.286850
995.000000	0.286871
996.000000	0.286403
997.000000	0.286538
998.000000	0.286626
999.000000	0.286369
1000.000000	0.286078
1001.000000	0.285720
1002.000000	0.286214
1003.000000	0.287138
1004.000000	0.287269
1005.000000	0.287215
1006.000000	0.286726
1007.000000	0.285348
1008.000000	0.284364
1009.000000	0.285051
1010.000000	0.284916
1011.000000	0.285009
1012.000000	0.285526
1013.000000	0.285304
1014.000000	0.285717
1015.000000	0.285662
1016.000000	0.285375
1017.000000	0.284795
1018.000000	0.284096
1019.000000	0.284231
1020.000000	0.285804
1021.000000	0.285669
1022.000000	0.285269
1023.000000	0.285287
1024.000000	0.284295
1025.000000	0.284352
1026.000000	0.285145
1027.000000	0.285043
1028.000000	0.284982
1029.000000	0.284797
1030.000000	0.284548
1031.000000	0.284539
1032.000000	0.284143
1033.000000	0.283990
1034.000000	0.284029
1035.000000	0.284288
1036.000000	0.284419
1037.000000	0.284761
1038.000000	0.284754
1039.000000	0.284596
1040.000000	0.284552
1041.000000	0.284160
1042.000000	0.284366
1043.000000	0.284813
1044.000000	0.285030
1045.000000	0.285693
1046.000000	0.286298
1047.000000	0.286590
1048.000000	0.286690
1049.000000	0.286697
1050.000000	0.286247
1051.000000	0.286221
1052.000000	0.286196
1053.000000	0.286265
1054.000000	0.286736
1055.000000	0.287220
1056.000000	0.287767
1057.000000	0.288501
1058.000000	0.288752
1059.000000	0.288542
1060.000000	0.288791
1061.000000	0.288851
1062.000000	0.289016
1063.000000	0.290249
1064.000000	0.290590
1065.000000	0.290176
1066.000000	0.290461
1067.000000	0.290912
1068.000000	0.291088
1069.000000	0.291796
1070.000000	0.291917
1071.000000	0.290904
1072.000000	0.290921
1073.000000	0.291498
1074.000000	0.291840
1075.000000	0.292341
1076.000000	0.293310
1077.000000	0.293497
1078.000000	0.293641
1079.000000	0.293702
1080.000000	0.293648
1081.000000	0.293779
1082.000000	0.293918
1083.000000	0.294052
1084.000000	0.294374
1085.000000	0.294753
1086.000000	0.295113
1087.000000	0.295450
1088.000000	0.295846
1089.000000	0.296146
1090.000000	0.296418
1091.000000	0.296405
1092.000000	0.296243
1093.000000	0.296609
1094.000000	0.296803
1095.000000	0.296841
1096.000000	0.297022
1097.000000	0.297370
1098.000000	0.297662
1099.000000	0.297791
1100.000000	0.298220
1101.000000	0.298803
1102.000000	0.299282
1103.000000	0.299991
1104.000000	0.300418
1105.000000	0.300632
1106.000000	0.300865
1107.000000	0.300848
1108.000000	0.300909
1109.000000	0.300641
1110.000000	0.301166
1111.000000	0.301560
1112.000000	0.302181
1113.000000	0.302488
1114.000000	0.302907
1115.000000	0.303125
1116.000000	0.303068
1117.000000	0.303093
1118.000000	0.302932
1119.000000	0.303089
1120.000000	0.303435
1121.000000	0.303612
1122.000000	0.304157
1123.000000	0.304561
1124.000000	0.304371
1125.000000	0.304459
1126.000000	0.304580
1127.000000	0.304679
1128.000000	0.304797
1129.000000	0.304954
1130.000000	0.305266
1131.000000	0.305764
1132.000000	0.305928
1133.000000	0.306147
1134.000000	0.306287
1135.000000	0.305937
1136.000000	0.306090
1137.000000	0.306707
1138.000000	0.306869
1139.000000	0.307038
1140.000000	0.307275
1141.000000	0.307130
1142.000000	0.307267
1143.000000	0.307666
1144.000000	0.308035
1145.000000	0.308345
1146.000000	0.308530
1147.000000	0.308585
1148.000000	0.308358
1149.000000	0.308420
1150.000000	0.308459
1151.000000	0.308599
1152.000000	0.308921
1153.000000	0.309076
1154.000000	0.309145
1155.000000	0.309200
1156.000000	0.309148
1157.000000	0.309229
1158.000000	0.309378
1159.000000	0.309391
1160.000000	0.309375
1161.000000	0.309363
1162.000000	0.309227
1163.000000	0.309351
1164.000000	0.309426
1165.000000	0.309529
1166.000000	0.309660
1167.000000	0.309822
1168.000000	0.309799
1169.000000	0.309684
1170.000000	0.309754
1171.000000	0.309817
1172.000000	0.309951
1173.000000	0.310264
1174.000000	0.310448
1175.000000	0.310549
1176.000000	0.310568
1177.000000	0.310613
1178.000000	0.310650
1179.000000	0.310524
1180.000000	0.310516
1181.000000	0.310732
1182.000000	0.310795
1183.000000	0.311057
1184.000000	0.311290
1185.000000	0.311415
1186.000000	0.311518
1187.000000	0.311528
1188.000000	0.311402
1189.000000	0.311358
1190.000000	0.311367
1191.000000	0.311301
1192.000000	0.311262
1193.000000	0.311364
1194.000000	0.311333
1195.000000	0.311419
1196.000000	0.311611
1197.000000	0.311760
1198.000000	0.312047
1199.000000	0.312132
1200.000000	0.312061
1201.000000	0.312073
1202.000000	0.311905
1203.000000	0.311790
1204.000000	0.311990
1205.000000	0.312177
1206.000000	0.312270
1207.000000	0.312558
1208.000000	0.312574
1209.000000	0.312410
1210.000000	0.312390
1211.000000	0.312335
1212.000000	0.312324
1213.000000	0.312411
1214.000000	0.312495
1215.000000	0.312643
1216.000000	0.312697
1217.000000	0.312691
1218.000000	0.312657
1219.000000	0.312626
1220.000000	0.312417
1221.000000	0.312435
1222.000000	0.312574
1223.000000	0.312677
1224.000000	0.312804
1225.000000	0.312758
1226.000000	0.312664
1227.000000	0.312565
1228.000000	0.312543
1229.000000	0.312541
1230.000000	0.312605
1231.000000	0.312563
1232.000000	0.312610
1233.000000	0.312713
1234.000000	0.312820
1235.000000	0.312822
1236.000000	0.312779
1237.000000	0.312755
1238.000000	0.312533
1239.000000	0.312378
1240.000000	0.312308
1241.000000	0.312124
1242.000000	0.311883
1243.000000	0.311983
1244.000000	0.312170
1245.000000	0.312289
1246.000000	0.312250
1247.000000	0.312175
1248.000000	0.312144
1249.000000	0.312100
1250.000000	0.312145
1251.000000	0.312261
1252.000000	0.312271
1253.000000	0.312153
1254.000000	0.312102
1255.000000	0.312075
1256.000000	0.312076
1257.000000	0.312164
1258.000000	0.312197
1259.000000	0.312104
1260.000000	0.312129
1261.000000	0.312060
1262.000000	0.312069
1263.000000	0.312216
1264.000000	0.312393
1265.000000	0.312406
1266.000000	0.312308
1267.000000	0.312276
1268.000000	0.312285
1269.000000	0.312306
1270.000000	0.312377
1271.000000	0.312395
1272.000000	0.312387
1273.000000	0.312364
1274.000000	0.312385
1275.000000	0.312323
1276.000000	0.312187
1277.000000	0.312162
1278.000000	0.312069
1279.000000	0.311975
1280.000000	0.311839
1281.000000	0.311797
1282.000000	0.311767
1283.000000	0.311878
1284.000000	0.312220
1285.000000	0.312281
1286.000000	0.312172
1287.000000	0.312151
1288.000000	0.312150
1289.000000	0.311946
1290.000000	0.311917
1291.000000	0.311960
1292.000000	0.311866
1293.000000	0.311916
1294.000000	0.312004
1295.000000	0.312134
1296.000000	0.312250
1297.000000	0.312232
1298.000000	0.312160
1299.000000	0.311973
1300.000000	0.311833
1301.000000	0.311854
1302.000000	0.311817
1303.000000	0.312002
1304.000000	0.311922
1305.000000	0.311793
1306.000000	0.311715
1307.000000	0.311553
1308.000000	0.311554
1309.000000	0.311713
1310.000000	0.311769
1311.000000	0.311833
1312.000000	0.311928
1313.000000	0.311912
1314.000000	0.311719
1315.000000	0.311480
1316.000000	0.311449
1317.000000	0.311508
1318.000000	0.311640
1319.000000	0.311791
1320.000000	0.311815
1321.000000	0.311802
1322.000000	0.311802
1323.000000	0.311812
1324.000000	0.311856
1325.000000	0.311745
1326.000000	0.311656
1327.000000	0.311677
1328.000000	0.311597
1329.000000	0.311435
1330.000000	0.311273
1331.000000	0.311114
1332.000000	0.310847
1333.000000	0.310744
1334.000000	0.310850
1335.000000	0.310846
1336.000000	0.310787
1337.000000	0.310783
1338.000000	0.310687
1339.000000	0.310723
1340.000000	0.310869
1341.000000	0.311111
1342.000000	0.311352
1343.000000	0.311345
1344.000000	0.311125
1345.000000	0.310989
1346.000000	0.310896
1347.000000	0.310791
1348.000000	0.310890
1349.000000	0.310840
1350.000000	0.310969
1351.000000	0.311144
1352.000000	0.311123
1353.000000	0.311236
1354.000000	0.311307
1355.000000	0.311264
1356.000000	0.311272
1357.000000	0.311142
1358.000000	0.311024
1359.000000	0.310918
1360.000000	0.310868
1361.000000	0.311054
1362.000000	0.311030
1363.000000	0.310856
1364.000000	0.310775
1365.000000	0.310685
1366.000000	0.310566
1367.000000	0.310469
1368.000000	0.310257
1369.000000	0.310188
1370.000000	0.310009
1371.000000	0.309806
1372.000000	0.309836
1373.000000	0.309892
1374.000000	0.309812
1375.000000	0.309850
1376.000000	0.310010
1377.000000	0.309984
1378.000000	0.309995
1379.000000	0.310082
1380.000000	0.310078
1381.000000	0.309934
1382.000000	0.309703
1383.000000	0.309417
1384.000000	0.309089
1385.000000	0.308889
1386.000000	0.308889
1387.000000	0.308831
1388.000000	0.308704
1389.000000	0.308537
1390.000000	0.308179
1391.000000	0.307920
1392.000000	0.307687
1393.000000	0.307427
1394.000000	0.307268
1395.000000	0.307137
1396.000000	0.306994
1397.000000	0.306780
1398.000000	0.306487
1399.000000	0.306238
1400.000000	0.305965
1401.000000	0.305678
1402.000000	0.305455
1403.000000	0.305258
1404.000000	0.304975
1405.000000	0.304539
1406.000000	0.304269
1407.000000	0.304106
1408.000000	0.303868
1409.000000	0.303821
1410.000000	0.303730
1411.000000	0.303361
1412.000000	0.303108
1413.000000	0.303025
1414.000000	0.302920
1415.000000	0.302996
1416.000000	0.303108
1417.000000	0.303027
1418.000000	0.302895
1419.000000	0.302916
1420.000000	0.302818
1421.000000	0.302795
1422.000000	0.302865
1423.000000	0.302821
1424.000000	0.302672
1425.000000	0.302670
1426.000000	0.302615
1427.000000	0.302482
1428.000000	0.302549
1429.000000	0.302585
1430.000000	0.302524
1431.000000	0.302573
1432.000000	0.302519
1433.000000	0.302318
1434.000000	0.302239
1435.000000	0.302284
1436.000000	0.302362
1437.000000	0.302488
1438.000000	0.302601
1439.000000	0.302748
1440.000000	0.302928
1441.000000	0.303160
1442.000000	0.303448
1443.000000	0.303739
1444.000000	0.304066
1445.000000	0.304343
1446.000000	0.304629
1447.000000	0.304938
1448.000000	0.305136
1449.000000	0.305319
1450.000000	0.305415
1451.000000	0.305424
1452.000000	0.305491
1453.000000	0.305521
1454.000000	0.305510
1455.000000	0.305576
1456.000000	0.305596
1457.000000	0.305681
1458.000000	0.305838
1459.000000	0.305831
1460.000000	0.305811
1461.000000	0.305782
1462.000000	0.305731
1463.000000	0.305738
1464.000000	0.305863
1465.000000	0.306067
1466.000000	0.306158
1467.000000	0.306201
1468.000000	0.306259
1469.000000	0.306396
1470.000000	0.306428
1471.000000	0.306514
1472.000000	0.306692
1473.000000	0.306758
1474.000000	0.306808
1475.000000	0.306965
1476.000000	0.306940
1477.000000	0.306874
1478.000000	0.306839
1479.000000	0.306700
1480.000000	0.306657
1481.000000	0.306676
1482.000000	0.306901
1483.000000	0.306975
1484.000000	0.306992
1485.000000	0.307054
1486.000000	0.307032
1487.000000	0.307032
1488.000000	0.307137
1489.000000	0.307234
1490.000000	0.307177
1491.000000	0.307200
1492.000000	0.307266
1493.000000	0.307308
1494.000000	0.307266
1495.000000	0.307267
1496.000000	0.307279
1497.000000	0.307323
1498.000000	0.307441
1499.000000	0.307454
1500.000000	0.307486
1501.000000	0.307465
1502.000000	0.307414
1503.000000	0.307440
1504.000000	0.307491
1505.000000	0.307534
1506.000000	0.307564
1507.000000	0.307558
1508.000000	0.307623
1509.000000	0.307695
1510.000000	0.307705
1511.000000	0.307716
1512.000000	0.307606
1513.000000	0.307512
1514.000000	0.307525
1515.000000	0.307558
1516.000000	0.307724
1517.000000	0.307791
1518.000000	0.307714
1519.000000	0.307620
1520.000000	0.307525
1521.000000	0.307424
1522.000000	0.307495
1523.000000	0.307617
1524.000000	0.307600
1525.000000	0.307725
1526.000000	0.307840
1527.000000	0.307764
1528.000000	0.307807
1529.000000	0.307778
1530.000000	0.307537
1531.000000	0.307549
1532.000000	0.307621
1533.000000	0.307655
1534.000000	0.307803
1535.000000	0.307851
1536.000000	0.307769
1537.000000	0.307792
1538.000000	0.307855
1539.000000	0.307844
1540.000000	0.307930
1541.000000	0.308097
1542.000000	0.308138
1543.000000	0.308183
1544.000000	0.308230
1545.000000	0.308273
1546.000000	0.308338
1547.000000	0.308250
1548.000000	0.308151
1549.000000	0.308104
1550.000000	0.308039
1551.000000	0.308087
1552.000000	0.308185
1553.000000	0.308141
1554.000000	0.307960
1555.000000	0.307907
1556.000000	0.307983
1557.000000	0.307903
1558.000000	0.307915
1559.000000	0.307980
1560.000000	0.308065
1561.000000	0.308209
1562.000000	0.308256
1563.000000	0.308307
1564.000000	0.308358
1565.000000	0.308378
1566.000000	0.308323
1567.000000	0.308368
1568.000000	0.308363
1569.000000	0.308325
1570.000000	0.308284
1571.000000	0.308233
1572.000000	0.308247
1573.000000	0.308335
1574.000000	0.308212
1575.000000	0.307993
1576.000000	0.307996
1577.000000	0.307892
1578.000000	0.307845
1579.000000	0.308135
1580.000000	0.308274
1581.000000	0.308368
1582.000000	0.308405
1583.000000	0.308445
1584.000000	0.308399
1585.000000	0.308252
1586.000000	0.308243
1587.000000	0.308306
1588.000000	0.308365
1589.000000	0.308497
1590.000000	0.308550
1591.000000	0.308634
1592.000000	0.308649
1593.000000	0.308594
1594.000000	0.308542
1595.000000	0.308526
1596.000000	0.308471
1597.000000	0.308353
1598.000000	0.308342
1599.000000	0.308447
1600.000000	0.308409
1601.000000	0.308460
1602.000000	0.308410
1603.000000	0.308257
1604.000000	0.308154
1605.000000	0.308032
1606.000000	0.307984
1607.000000	0.308042
1608.000000	0.307997
1609.000000	0.308026
1610.000000	0.308041
1611.000000	0.307981
1612.000000	0.307961
1613.000000	0.308138
1614.000000	0.308127
1615.000000	0.308112
1616.000000	0.308106
1617.000000	0.307985
1618.000000	0.307834
1619.000000	0.307596
1620.000000	0.307436
1621.000000	0.307258
1622.000000	0.307256
1623.000000	0.307361
1624.000000	0.307426
1625.000000	0.307488
1626.000000	0.307405
1627.000000	0.307266
1628.000000	0.307197
1629.000000	0.306974
1630.000000	0.306929
1631.000000	0.306967
1632.000000	0.306940
1633.000000	0.306995
1634.000000	0.307049
1635.000000	0.307107
1636.000000	0.307130
1637.000000	0.307191
1638.000000	0.307176
1639.000000	0.307113
1640.000000	0.307123
1641.000000	0.307219
1642.000000	0.307288
1643.000000	0.307453
1644.000000	0.307521
1645.000000	0.307550
1646.000000	0.307496
1647.000000	0.307404
1648.000000	0.307271
1649.000000	0.307096
1650.000000	0.307029
1651.000000	0.307033
1652.000000	0.307062
1653.000000	0.307136
1654.000000	0.307186
1655.000000	0.307181
1656.000000	0.307061
1657.000000	0.306903
1658.000000	0.306888
1659.000000	0.306975
1660.000000	0.307082
1661.000000	0.307319
1662.000000	0.307290
1663.000000	0.307053
1664.000000	0.306955
1665.000000	0.306771
1666.000000	0.306772
1667.000000	0.306862
1668.000000	0.306841
1669.000000	0.306787
1670.000000	0.306652
1671.000000	0.306545
1672.000000	0.306510
1673.000000	0.306437
1674.000000	0.306447
1675.000000	0.306434
1676.000000	0.306480
1677.000000	0.306645
1678.000000	0.306761
1679.000000	0.306822
1680.000000	0.306796
1681.000000	0.306705
1682.000000	0.306761
1683.000000	0.306936
1684.000000	0.307031
1685.000000	0.307149
1686.000000	0.307161
1687.000000	0.307002
1688.000000	0.306894
1689.000000	0.306780
1690.000000	0.306570
1691.000000	0.306611
1692.000000	0.306625
1693.000000	0.306509
1694.000000	0.306406
1695.000000	0.306313
1696.000000	0.306188
1697.000000	0.306048
1698.000000	0.305951
1699.000000	0.305905
1700.000000	0.305825
1701.000000	0.305904
1702.000000	0.306011
1703.000000	0.306019
1704.000000	0.306190
1705.000000	0.306192
1706.000000	0.306040
1707.000000	0.305951
1708.000000	0.305720
1709.000000	0.305577
1710.000000	0.305667
1711.000000	0.305634
1712.000000	0.305582
1713.000000	0.305553
1714.000000	0.305508
1715.000000	0.305500
1716.000000	0.305562
1717.000000	0.305598
1718.000000	0.305607
1719.000000	0.305574
1720.000000	0.305619
1721.000000	0.305567
1722.000000	0.305344
1723.000000	0.305333
1724.000000	0.305407
1725.000000	0.305523
1726.000000	0.305789
1727.000000	0.305834
1728.000000	0.305698
1729.000000	0.305578
1730.000000	0.305481
1731.000000	0.305405
1732.000000	0.305370
1733.000000	0.305367
1734.000000	0.305226
1735.000000	0.305174
1736.000000	0.305149
1737.000000	0.305112
1738.000000	0.305107
1739.000000	0.305094
1740.000000	0.305035
1741.000000	0.305074
1742.000000	0.305161
1743.000000	0.305314
1744.000000	0.305603
1745.000000	0.305571
1746.000000	0.305396
1747.000000	0.305270
1748.000000	0.305201
1749.000000	0.305399
1750.000000	0.305486
1751.000000	0.305669
1752.000000	0.305851
1753.000000	0.305886
1754.000000	0.305911
1755.000000	0.305836
1756.000000	0.305754
1757.000000	0.305658
1758.000000	0.305566
1759.000000	0.305430
1760.000000	0.305307
1761.000000	0.305068
1762.000000	0.304986
1763.000000	0.305075
1764.000000	0.305045
1765.000000	0.305020
1766.000000	0.305009
1767.000000	0.304798
1768.000000	0.304695
1769.000000	0.304823
1770.000000	0.304862
1771.000000	0.304870
1772.000000	0.304798
1773.000000	0.304587
1774.000000	0.304484
1775.000000	0.304415
1776.000000	0.304348
1777.000000	0.304295
1778.000000	0.304256
1779.000000	0.304176
1780.000000	0.304175
1781.000000	0.304233
1782.000000	0.304242
1783.000000	0.304329
1784.000000	0.304324
1785.000000	0.304105
1786.000000	0.304261
1787.000000	0.304336
1788.000000	0.304412
1789.000000	0.304645
1790.000000	0.304696
1791.000000	0.304658
1792.000000	0.304759
1793.000000	0.304743
1794.000000	0.304471
1795.000000	0.304407
1796.000000	0.304379
1797.000000	0.304423
1798.000000	0.304663
1799.000000	0.304791
1800.000000	0.304971
1801.000000	0.305769
1802.000000	0.305271
1803.000000	0.303386
1804.000000	0.303104
1805.000000	0.303732
1806.000000	0.303560
1807.000000	0.303514
1808.000000	0.303646
1809.000000	0.303935
1810.000000	0.303031
1811.000000	0.302855
1812.000000	0.303302
1813.000000	0.303285
1814.000000	0.302597
1815.000000	0.302879
1816.000000	0.304265
1817.000000	0.304297
1818.000000	0.303753
1819.000000	0.304029
1820.000000	0.303337
1821.000000	0.302691
1822.000000	0.302526
1823.000000	0.302891
1824.000000	0.302819
1825.000000	0.302880
1826.000000	0.302659
1827.000000	0.301605
1828.000000	0.301677
1829.000000	0.301975
1830.000000	0.302123
1831.000000	0.302394
1832.000000	0.303456
1833.000000	0.303627
1834.000000	0.303113
1835.000000	0.302946
1836.000000	0.302681
1837.000000	0.302554
1838.000000	0.302645
1839.000000	0.302117
1840.000000	0.302115
1841.000000	0.301284
1842.000000	0.300999
1843.000000	0.301031
1844.000000	0.300816
1845.000000	0.300382
1846.000000	0.300400
1847.000000	0.300475
1848.000000	0.299915
1849.000000	0.300299
1850.000000	0.300644
1851.000000	0.301020
1852.000000	0.301452
1853.000000	0.301837
1854.000000	0.302219
1855.000000	0.302377
1856.000000	0.302308
1857.000000	0.302174
1858.000000	0.301631
1859.000000	0.301431
1860.000000	0.301483
1861.000000	0.301391
1862.000000	0.301230
1863.000000	0.301088
1864.000000	0.301186
1865.000000	0.301444
1866.000000	0.301340
1867.000000	0.301337
1868.000000	0.301550
1869.000000	0.300431
1870.000000	0.299748
1871.000000	0.299273
1872.000000	0.298629
1873.000000	0.298622
1874.000000	0.299500
1875.000000	0.299554
1876.000000	0.299361
1877.000000	0.298963
1878.000000	0.298407
1879.000000	0.297076
1880.000000	0.296453
1881.000000	0.296366
1882.000000	0.295890
1883.000000	0.295651
1884.000000	0.295304
1885.000000	0.294757
1886.000000	0.293896
1887.000000	0.292561
1888.000000	0.291983
1889.000000	0.290987
1890.000000	0.290192
1891.000000	0.289849
1892.000000	0.288335
1893.000000	0.287307
1894.000000	0.286444
1895.000000	0.285402
1896.000000	0.284521
1897.000000	0.284066
1898.000000	0.282851
1899.000000	0.282289
1900.000000	0.282224
1901.000000	0.281918
1902.000000	0.281428
1903.000000	0.280653
1904.000000	0.280170
1905.000000	0.279441
1906.000000	0.278960
1907.000000	0.278802
1908.000000	0.279023
1909.000000	0.279258
1910.000000	0.279819
1911.000000	0.279990
1912.000000	0.279799
1913.000000	0.279396
1914.000000	0.278669
1915.000000	0.278072
1916.000000	0.278484
1917.000000	0.278745
1918.000000	0.279307
1919.000000	0.279824
1920.000000	0.280023
1921.000000	0.279799
1922.000000	0.279845
1923.000000	0.279763
1924.000000	0.279995
1925.000000	0.280298
1926.000000	0.280661
1927.000000	0.281071
1928.000000	0.281311
1929.000000	0.281844
1930.000000	0.282192
1931.000000	0.281500
1932.000000	0.281251
1933.000000	0.281310
1934.000000	0.281475
1935.000000	0.282695
1936.000000	0.283561
1937.000000	0.284380
1938.000000	0.285480
1939.000000	0.285987
1940.000000	0.285908
1941.000000	0.286433
1942.000000	0.287115
1943.000000	0.286961
1944.000000	0.287453
1945.000000	0.287444
1946.000000	0.286594
1947.000000	0.286170
1948.000000	0.285810
1949.000000	0.285764
1950.000000	0.286438
1951.000000	0.286898
1952.000000	0.287872
1953.000000	0.288145
1954.000000	0.288150
1955.000000	0.287463
1956.000000	0.286043
1957.000000	0.285328
1958.000000	0.284884
1959.000000	0.285093
1960.000000	0.285457
1961.000000	0.285629
1962.000000	0.285907
1963.000000	0.286297
1964.000000	0.286413
1965.000000	0.287049
1966.000000	0.287711
1967.000000	0.287695
1968.000000	0.287428
1969.000000	0.286891
1970.000000	0.286607
1971.000000	0.287046
1972.000000	0.288019
1973.000000	0.288404
1974.000000	0.288932
1975.000000	0.289156
1976.000000	0.289003
1977.000000	0.288730
1978.000000	0.288922
1979.000000	0.288927
1980.000000	0.288826
1981.000000	0.289082
1982.000000	0.289069
1983.000000	0.289471
1984.000000	0.289557
1985.000000	0.289660
1986.000000	0.289423
1987.000000	0.288881
1988.000000	0.288630
1989.000000	0.288352
1990.000000	0.288528
1991.000000	0.289495
1992.000000	0.289740
1993.000000	0.289450
1994.000000	0.289720
1995.000000	0.289128
1996.000000	0.288564
1997.000000	0.288682
1998.000000	0.289653
1999.000000	0.290059
2000.000000	0.290609
2001.000000	0.291316
2002.000000	0.291439
2003.000000	0.290991
2004.000000	0.290975
2005.000000	0.290385
2006.000000	0.289974
2007.000000	0.290107
2008.000000	0.290302
2009.000000	0.290836
2010.000000	0.291431
2011.000000	0.292287
2012.000000	0.292529
2013.000000	0.292590
2014.000000	0.292181
2015.000000	0.291652
2016.000000	0.291438
2017.000000	0.291174
2018.000000	0.290933
2019.000000	0.290785
2020.000000	0.290157
2021.000000	0.290084
2022.000000	0.290404
2023.000000	0.290556
2024.000000	0.290947
2025.000000	0.291356
2026.000000	0.291681
2027.000000	0.291889
2028.000000	0.292009
2029.000000	0.292278
2030.000000	0.292594
2031.000000	0.292432
2032.000000	0.292597
2033.000000	0.292686
2034.000000	0.292699
2035.000000	0.292777
2036.000000	0.292877
2037.000000	0.292946
2038.000000	0.293289
2039.000000	0.294078
2040.000000	0.294558
2041.000000	0.294514
2042.000000	0.294116
2043.000000	0.293304
2044.000000	0.292189
2045.000000	0.291898
2046.000000	0.291815
2047.000000	0.291853
2048.000000	0.292354
2049.000000	0.292666
2050.000000	0.292709
2051.000000	0.292693
2052.000000	0.292287
2053.000000	0.292150
2054.000000	0.292390
2055.000000	0.292482
2056.000000	0.292709
2057.000000	0.292864
2058.000000	0.292439
2059.000000	0.292668
2060.000000	0.292812
2061.000000	0.292966
2062.000000	0.293159
2063.000000	0.293622
2064.000000	0.293738
2065.000000	0.294035
2066.000000	0.294129
2067.000000	0.294410
2068.000000	0.294489
2069.000000	0.294023
2070.000000	0.294101
2071.000000	0.293918
2072.000000	0.293513
2073.000000	0.293498
2074.000000	0.293456
2075.000000	0.293637
2076.000000	0.294246
2077.000000	0.294270
2078.000000	0.294370
2079.000000	0.294003
2080.000000	0.292816
2081.000000	0.292124
2082.000000	0.291223
2083.000000	0.290836
2084.000000	0.290973
2085.000000	0.291819
2086.000000	0.292168
2087.000000	0.292175
2088.000000	0.292027
2089.000000	0.291432
2090.000000	0.291569
2091.000000	0.292525
2092.000000	0.292946
2093.000000	0.293830
2094.000000	0.293788
2095.000000	0.292758
2096.000000	0.292422
2097.000000	0.291917
2098.000000	0.291385
2099.000000	0.291024
2100.000000	0.291034
2101.000000	0.291370
2102.000000	0.292055
2103.000000	0.293147
2104.000000	0.293838
2105.000000	0.293718
2106.000000	0.292235
2107.000000	0.291821
2108.000000	0.291110
2109.000000	0.290895
2110.000000	0.291521
2111.000000	0.291556
2112.000000	0.290895
2113.000000	0.290990
2114.000000	0.291492
2115.000000	0.291555
2116.000000	0.292181
2117.000000	0.292563
2118.000000	0.292196
2119.000000	0.291473
2120.000000	0.291376
2121.000000	0.291289
2122.000000	0.291333
2123.000000	0.292259
2124.000000	0.292378
2125.000000	0.291717
2126.000000	0.291693
2127.000000	0.291711
2128.000000	0.291695
2129.000000	0.291943
2130.000000	0.292232
2131.000000	0.291878
2132.000000	0.291477
2133.000000	0.291263
2134.000000	0.291609
2135.000000	0.292408
2136.000000	0.293497
2137.000000	0.293935
2138.000000	0.294203
2139.000000	0.294383
2140.000000	0.294349
2141.000000	0.294008
2142.000000	0.293453
2143.000000	0.292916
2144.000000	0.291699
2145.000000	0.290995
2146.000000	0.290794
2147.000000	0.290983
2148.000000	0.290682
2149.000000	0.291105
2150.000000	0.291387
2151.000000	0.291418
2152.000000	0.291626
2153.000000	0.292366
2154.000000	0.292299
2155.000000	0.291869
2156.000000	0.291679
2157.000000	0.291008
2158.000000	0.290616
2159.000000	0.290590
2160.000000	0.290724
2161.000000	0.290865
2162.000000	0.291184
2163.000000	0.291966
2164.000000	0.292167
2165.000000	0.292170
2166.000000	0.291764
2167.000000	0.291776
2168.000000	0.292327
2169.000000	0.291913
2170.000000	0.291672
2171.000000	0.291703
2172.000000	0.291384
2173.000000	0.291268
2174.000000	0.292168
2175.000000	0.291852
2176.000000	0.290465
2177.000000	0.289824
2178.000000	0.288632
2179.000000	0.288510
2180.000000	0.289716
2181.000000	0.290010
2182.000000	0.289923
2183.000000	0.289860
2184.000000	0.288310
2185.000000	0.286307
2186.000000	0.285847
2187.000000	0.286686
2188.000000	0.288490
2189.000000	0.291022
2190.000000	0.292078
2191.000000	0.292638
2192.000000	0.292748
2193.000000	0.291523
2194.000000	0.291130
2195.000000	0.290656
2196.000000	0.290360
2197.000000	0.290393
2198.000000	0.290154
2199.000000	0.290533
2200.000000	0.290131
2201.000000	0.288702
2202.000000	0.288025
2203.000000	0.287517
2204.000000	0.285397
2205.000000	0.284956
2206.000000	0.284456
2207.000000	0.283719
2208.000000	0.284711
2209.000000	0.285252
2210.000000	0.285045
2211.000000	0.285349
2212.000000	0.285114
2213.000000	0.285206
2214.000000	0.285723
2215.000000	0.285798
2216.000000	0.286140
2217.000000	0.285430
2218.000000	0.283868
2219.000000	0.282777
2220.000000	0.280348
2221.000000	0.280125
2222.000000	0.281541
2223.000000	0.282119
2224.000000	0.283333
2225.000000	0.284761
2226.000000	0.284190
2227.000000	0.283546
2228.000000	0.286895
2229.000000	0.286374
2230.000000	0.285779
2231.000000	0.287387
2232.000000	0.284883
2233.000000	0.283908
2234.000000	0.284808
2235.000000	0.285742
2236.000000	0.286814
2237.000000	0.289879
2238.000000	0.290088
2239.000000	0.288060
2240.000000	0.287153
2241.000000	0.286031
2242.000000	0.284285
2243.000000	0.282269
2244.000000	0.281556
2245.000000	0.278636
2246.000000	0.278912
2247.000000	0.283377
2248.000000	0.285864
2249.000000	0.289535
2250.000000	0.292253
2251.000000	0.292328
2252.000000	0.289856
2253.000000	0.289039
2254.000000	0.289049
2255.000000	0.289135
2256.000000	0.292044
2257.000000	0.292137
2258.000000	0.290605
2259.000000	0.289679
2260.000000	0.288195
2261.000000	0.287004
2262.000000	0.285533
2263.000000	0.285967
2264.000000	0.287388
2265.000000	0.287453
2266.000000	0.289098
2267.000000	0.288035
2268.000000	0.283782
2269.000000	0.282941
2270.000000	0.282766
2271.000000	0.282275
2272.000000	0.283446
2273.000000	0.284125
2274.000000	0.283422
2275.000000	0.284011
2276.000000	0.287527
2277.000000	0.286477
2278.000000	0.284707
2279.000000	0.282397
2280.000000	0.277726
2281.000000	0.276239
2282.000000	0.276512
2283.000000	0.277299
2284.000000	0.278842
2285.000000	0.278531
2286.000000	0.276877
2287.000000	0.275570
2288.000000	0.274675
2289.000000	0.275374
2290.000000	0.278149
2291.000000	0.279376
2292.000000	0.278692
2293.000000	0.279253
2294.000000	0.279833
2295.000000	0.279472
2296.000000	0.280580
2297.000000	0.283586
2298.000000	0.284013
2299.000000	0.283237
2300.000000	0.282989
2301.000000	0.282285
2302.000000	0.281839
2303.000000	0.281344
2304.000000	0.281511
2305.000000	0.281828
2306.000000	0.282134
2307.000000	0.283069
2308.000000	0.283867
2309.000000	0.283577
2310.000000	0.282559
2311.000000	0.284564
2312.000000	0.285149
2313.000000	0.284936
2314.000000	0.284272
2315.000000	0.280638
2316.000000	0.280343
2317.000000	0.281119
2318.000000	0.283614
2319.000000	0.287314
2320.000000	0.286793
2321.000000	0.285975
2322.000000	0.285555
2323.000000	0.284300
2324.000000	0.283907
2325.000000	0.283026
2326.000000	0.282663
2327.000000	0.283637
2328.000000	0.284533
2329.000000	0.285920
2330.000000	0.285392
2331.000000	0.283784
2332.000000	0.282991
2333.000000	0.282342
2334.000000	0.282093
2335.000000	0.281801
2336.000000	0.279691
2337.000000	0.280818
2338.000000	0.284432
2339.000000	0.286114
2340.000000	0.290431
2341.000000	0.290179
2342.000000	0.285117
2343.000000	0.283214
2344.000000	0.280420
2345.000000	0.280347
2346.000000	0.282382
2347.000000	0.282985
2348.000000	0.285078
2349.000000	0.285328
2350.000000	0.281744
2351.000000	0.282191
2352.000000	0.280932
2353.000000	0.277358
2354.000000	0.276763
2355.000000	0.279250
2356.000000	0.284957
2357.000000	0.289796
2358.000000	0.292995
2359.000000	0.292863
2360.000000	0.287075
2361.000000	0.284609
2362.000000	0.284094
2363.000000	0.281367
2364.000000	0.280771
2365.000000	0.279279
2366.000000	0.277891
2367.000000	0.279445
2368.000000	0.281358
2369.000000	0.281615
2370.000000	0.278635
2371.000000	0.275782
2372.000000	0.273547
2373.000000	0.273330
2374.000000	0.278733
2375.000000	0.286648
2376.000000	0.292614
2377.000000	0.294022
2378.000000	0.290511
2379.000000	0.284575
2380.000000	0.278493
2381.000000	0.274203
2382.000000	0.270563
2383.000000	0.266295
2384.000000	0.264216
2385.000000	0.263665
2386.000000	0.263970
2387.000000	0.266124
2388.000000	0.268381
2389.000000	0.269491
2390.000000	0.266872
2391.000000	0.261845
2392.000000	0.258013
2393.000000	0.257210
2394.000000	0.262063
2395.000000	0.271836
2396.000000	0.278268
2397.000000	0.280328
2398.000000	0.278044
2399.000000	0.268383
2400.000000	0.264419
2401.000000	0.260326
2402.000000	0.253017
2403.000000	0.254406
2404.000000	0.249461
2405.000000	0.245225
2406.000000	0.251512
2407.000000	0.250856
2408.000000	0.253058
2409.000000	0.254673
2410.000000	0.251926
2411.000000	0.259098
2412.000000	0.262950
2413.000000	0.264791
2414.000000	0.267328
2415.000000	0.260404
2416.000000	0.257853
2417.000000	0.262865
2418.000000	0.264799
2419.000000	0.272295
2420.000000	0.275092
2421.000000	0.264661
2422.000000	0.264142
2423.000000	0.263564
2424.000000	0.263176
2425.000000	0.267767
2426.000000	0.261655
2427.000000	0.266821
2428.000000	0.270610
2429.000000	0.264616
2430.000000	0.267547
2431.000000	0.259891
2432.000000	0.251553
2433.000000	0.247177
2434.000000	0.238605
2435.000000	0.237666
2436.000000	0.228159
2437.000000	0.222826
2438.000000	0.236011
2439.000000	0.245517
2440.000000	0.262947
2441.000000	0.278140
2442.000000	0.275444
2443.000000	0.264386
2444.000000	0.251354
2445.000000	0.246941
2446.000000	0.251245
2447.000000	0.258945
2448.000000	0.261528
2449.000000	0.250920
2450.000000	0.243423
2451.000000	0.240416
2452.000000	0.225282
2453.000000	0.216016
2454.000000	0.197595
2455.000000	0.185492
2456.000000	0.208287
2457.000000	0.233999
2458.000000	0.269573
2459.000000	0.302697
2460.000000	0.306184
2461.000000	0.295582
2462.000000	0.269348
2463.000000	0.241989
2464.000000	0.224735
2465.000000	0.212343
2466.000000	0.212301
2467.000000	0.198956
2468.000000	0.178628
2469.000000	0.177584
2470.000000	0.196855
2471.000000	0.230131
2472.000000	0.262804
2473.000000	0.277805
2474.000000	0.247011
2475.000000	0.233997
2476.000000	0.230174
2477.000000	0.208711
2478.000000	0.210708
2479.000000	0.189366
2480.000000	0.174975
2481.000000	0.203665
2482.000000	0.228972
2483.000000	0.251455
2484.000000	0.244491
2485.000000	0.184339
2486.000000	0.158792
2487.000000	0.150436
2488.000000	0.153296
2489.000000	0.209449
2490.000000	0.227615
2491.000000	0.276385
2492.000000	0.279947
2493.000000	0.227755
2494.000000	0.212095
2495.000000	0.168810
2496.000000	0.153216
2497.000000	0.183347
2498.000000	0.194148
2499.000000	0.225700
2500.000000	0.233735
