# Wavelength	NAu-1-10_HEX-70_FV7-20_00001.asd.rts.txt
350.000000	0.258655
351.000000	0.263150
352.000000	0.256523
353.000000	0.249407
354.000000	0.248550
355.000000	0.245779
356.000000	0.252039
357.000000	0.261930
358.000000	0.253694
359.000000	0.246322
360.000000	0.242519
361.000000	0.241755
362.000000	0.252795
363.000000	0.257741
364.000000	0.249173
365.000000	0.249977
366.000000	0.248019
367.000000	0.243155
368.000000	0.246251
369.000000	0.245889
370.000000	0.242992
371.000000	0.242215
372.000000	0.248086
373.000000	0.249528
374.000000	0.242501
375.000000	0.241393
376.000000	0.242960
377.000000	0.246700
378.000000	0.255583
379.000000	0.257936
380.000000	0.254919
381.000000	0.252852
382.000000	0.253166
383.000000	0.254398
384.000000	0.255570
385.000000	0.257153
386.000000	0.259433
387.000000	0.261636
388.000000	0.261180
389.000000	0.260854
390.000000	0.261869
391.000000	0.264258
392.000000	0.264785
393.000000	0.264719
394.000000	0.265602
395.000000	0.268117
396.000000	0.269440
397.000000	0.268849
398.000000	0.268156
399.000000	0.268614
400.000000	0.270057
401.000000	0.271477
402.000000	0.273733
403.000000	0.274639
404.000000	0.273305
405.000000	0.275162
406.000000	0.276577
407.000000	0.276196
408.000000	0.276384
409.000000	0.278030
410.000000	0.279976
411.000000	0.279738
412.000000	0.280217
413.000000	0.280972
414.000000	0.281144
415.000000	0.281855
416.000000	0.282854
417.000000	0.283834
418.000000	0.284647
419.000000	0.284981
420.000000	0.284990
421.000000	0.285220
422.000000	0.285984
423.000000	0.286573
424.000000	0.286231
425.000000	0.286255
426.000000	0.286603
427.000000	0.286962
428.000000	0.286787
429.000000	0.286871
430.000000	0.287271
431.000000	0.286953
432.000000	0.287510
433.000000	0.288447
434.000000	0.288485
435.000000	0.288309
436.000000	0.288331
437.000000	0.288731
438.000000	0.289051
439.000000	0.288971
440.000000	0.288646
441.000000	0.288780
442.000000	0.288499
443.000000	0.288108
444.000000	0.288954
445.000000	0.289296
446.000000	0.289440
447.000000	0.289924
448.000000	0.290246
449.000000	0.290702
450.000000	0.291437
451.000000	0.291833
452.000000	0.292810
453.000000	0.294269
454.000000	0.295195
455.000000	0.296196
456.000000	0.297551
457.000000	0.299188
458.000000	0.300801
459.000000	0.302246
460.000000	0.303434
461.000000	0.303883
462.000000	0.304577
463.000000	0.305654
464.000000	0.306322
465.000000	0.307213
466.000000	0.308040
467.000000	0.308116
468.000000	0.308578
469.000000	0.309068
470.000000	0.309222
471.000000	0.309876
472.000000	0.310644
473.000000	0.311181
474.000000	0.311325
475.000000	0.311529
476.000000	0.312055
477.000000	0.312560
478.000000	0.312950
479.000000	0.313461
480.000000	0.314006
481.000000	0.314101
482.000000	0.314407
483.000000	0.315152
484.000000	0.315535
485.000000	0.315736
486.000000	0.316094
487.000000	0.316446
488.000000	0.316777
489.000000	0.317163
490.000000	0.317726
491.000000	0.318363
492.000000	0.318986
493.000000	0.319372
494.000000	0.319767
495.000000	0.320122
496.000000	0.320388
497.000000	0.320816
498.000000	0.321325
499.000000	0.321912
500.000000	0.322437
501.000000	0.322858
502.000000	0.323282
503.000000	0.323777
504.000000	0.324279
505.000000	0.324697
506.000000	0.325007
507.000000	0.325451
508.000000	0.326029
509.000000	0.326638
510.000000	0.327186
511.000000	0.327677
512.000000	0.328182
513.000000	0.328766
514.000000	0.329272
515.000000	0.329786
516.000000	0.330377
517.000000	0.331018
518.000000	0.331661
519.000000	0.332197
520.000000	0.332823
521.000000	0.333428
522.000000	0.333976
523.000000	0.334526
524.000000	0.335127
525.000000	0.335737
526.000000	0.336320
527.000000	0.336960
528.000000	0.337547
529.000000	0.338045
530.000000	0.338644
531.000000	0.339328
532.000000	0.339954
533.000000	0.340548
534.000000	0.341143
535.000000	0.341736
536.000000	0.342338
537.000000	0.343030
538.000000	0.343698
539.000000	0.344163
540.000000	0.344772
541.000000	0.345425
542.000000	0.346027
543.000000	0.346590
544.000000	0.347249
545.000000	0.347932
546.000000	0.348469
547.000000	0.349065
548.000000	0.349768
549.000000	0.350403
550.000000	0.351020
551.000000	0.351662
552.000000	0.352295
553.000000	0.352858
554.000000	0.353453
555.000000	0.354157
556.000000	0.354932
557.000000	0.355505
558.000000	0.356002
559.000000	0.356602
560.000000	0.357127
561.000000	0.357687
562.000000	0.358319
563.000000	0.358854
564.000000	0.359389
565.000000	0.359918
566.000000	0.360525
567.000000	0.361117
568.000000	0.361635
569.000000	0.362221
570.000000	0.362714
571.000000	0.363099
572.000000	0.363518
573.000000	0.363951
574.000000	0.364399
575.000000	0.364928
576.000000	0.365443
577.000000	0.365861
578.000000	0.366236
579.000000	0.366688
580.000000	0.367130
581.000000	0.367533
582.000000	0.367987
583.000000	0.368377
584.000000	0.368711
585.000000	0.369070
586.000000	0.369388
587.000000	0.369694
588.000000	0.370042
589.000000	0.370484
590.000000	0.370874
591.000000	0.371135
592.000000	0.371371
593.000000	0.371642
594.000000	0.371941
595.000000	0.372197
596.000000	0.372440
597.000000	0.372701
598.000000	0.372887
599.000000	0.373077
600.000000	0.373288
601.000000	0.373443
602.000000	0.373696
603.000000	0.373895
604.000000	0.373999
605.000000	0.374121
606.000000	0.374268
607.000000	0.374430
608.000000	0.374573
609.000000	0.374669
610.000000	0.374805
611.000000	0.375052
612.000000	0.375202
613.000000	0.375333
614.000000	0.375543
615.000000	0.375737
616.000000	0.375866
617.000000	0.375924
618.000000	0.376097
619.000000	0.376281
620.000000	0.376412
621.000000	0.376514
622.000000	0.376597
623.000000	0.376672
624.000000	0.376757
625.000000	0.376917
626.000000	0.377069
627.000000	0.377195
628.000000	0.377384
629.000000	0.377616
630.000000	0.377747
631.000000	0.377925
632.000000	0.378129
633.000000	0.378320
634.000000	0.378451
635.000000	0.378586
636.000000	0.378729
637.000000	0.378879
638.000000	0.379152
639.000000	0.379349
640.000000	0.379492
641.000000	0.379573
642.000000	0.379675
643.000000	0.379811
644.000000	0.379973
645.000000	0.380143
646.000000	0.380322
647.000000	0.380486
648.000000	0.380667
649.000000	0.380875
650.000000	0.381086
651.000000	0.381308
652.000000	0.381477
653.000000	0.381673
654.000000	0.381921
655.000000	0.382066
656.000000	0.382233
657.000000	0.382468
658.000000	0.382658
659.000000	0.382864
660.000000	0.383093
661.000000	0.383326
662.000000	0.383500
663.000000	0.383688
664.000000	0.383904
665.000000	0.384030
666.000000	0.384152
667.000000	0.384343
668.000000	0.384562
669.000000	0.384811
670.000000	0.385078
671.000000	0.385276
672.000000	0.385488
673.000000	0.385742
674.000000	0.386060
675.000000	0.386308
676.000000	0.386526
677.000000	0.386812
678.000000	0.387071
679.000000	0.387292
680.000000	0.387493
681.000000	0.387688
682.000000	0.387952
683.000000	0.388207
684.000000	0.388512
685.000000	0.388769
686.000000	0.389053
687.000000	0.389410
688.000000	0.389679
689.000000	0.389855
690.000000	0.390023
691.000000	0.390261
692.000000	0.390521
693.000000	0.390818
694.000000	0.391004
695.000000	0.391267
696.000000	0.391589
697.000000	0.391876
698.000000	0.392176
699.000000	0.392480
700.000000	0.392784
701.000000	0.393072
702.000000	0.393339
703.000000	0.393579
704.000000	0.393850
705.000000	0.394170
706.000000	0.394479
707.000000	0.394803
708.000000	0.395128
709.000000	0.395416
710.000000	0.395680
711.000000	0.396008
712.000000	0.396278
713.000000	0.396477
714.000000	0.396673
715.000000	0.396940
716.000000	0.397254
717.000000	0.397504
718.000000	0.397706
719.000000	0.397918
720.000000	0.398196
721.000000	0.398482
722.000000	0.398778
723.000000	0.399110
724.000000	0.399283
725.000000	0.399447
726.000000	0.399719
727.000000	0.399981
728.000000	0.400235
729.000000	0.400484
730.000000	0.400680
731.000000	0.400966
732.000000	0.401198
733.000000	0.401402
734.000000	0.401665
735.000000	0.401903
736.000000	0.402180
737.000000	0.402292
738.000000	0.402337
739.000000	0.402563
740.000000	0.402858
741.000000	0.403011
742.000000	0.403160
743.000000	0.403326
744.000000	0.403516
745.000000	0.403639
746.000000	0.403780
747.000000	0.403944
748.000000	0.404167
749.000000	0.404312
750.000000	0.404313
751.000000	0.404519
752.000000	0.404760
753.000000	0.404967
754.000000	0.405109
755.000000	0.405244
756.000000	0.405376
757.000000	0.405443
758.000000	0.405536
759.000000	0.405642
760.000000	0.405684
761.000000	0.405849
762.000000	0.405968
763.000000	0.406041
764.000000	0.406267
765.000000	0.406411
766.000000	0.406502
767.000000	0.406607
768.000000	0.406787
769.000000	0.406879
770.000000	0.406849
771.000000	0.406821
772.000000	0.406892
773.000000	0.406944
774.000000	0.406946
775.000000	0.406939
776.000000	0.406919
777.000000	0.406864
778.000000	0.406800
779.000000	0.406836
780.000000	0.406911
781.000000	0.406775
782.000000	0.406776
783.000000	0.406924
784.000000	0.406925
785.000000	0.406987
786.000000	0.407014
787.000000	0.406958
788.000000	0.406911
789.000000	0.406901
790.000000	0.406875
791.000000	0.406804
792.000000	0.406854
793.000000	0.406886
794.000000	0.406802
795.000000	0.406770
796.000000	0.406764
797.000000	0.406726
798.000000	0.406577
799.000000	0.406520
800.000000	0.406512
801.000000	0.406454
802.000000	0.406375
803.000000	0.406316
804.000000	0.406307
805.000000	0.406178
806.000000	0.406093
807.000000	0.406134
808.000000	0.406139
809.000000	0.406130
810.000000	0.406058
811.000000	0.405899
812.000000	0.405792
813.000000	0.405725
814.000000	0.405658
815.000000	0.405557
816.000000	0.405380
817.000000	0.405177
818.000000	0.404938
819.000000	0.404928
820.000000	0.404921
821.000000	0.404781
822.000000	0.404742
823.000000	0.404657
824.000000	0.404495
825.000000	0.404423
826.000000	0.404382
827.000000	0.404339
828.000000	0.404333
829.000000	0.404372
830.000000	0.404245
831.000000	0.404046
832.000000	0.403818
833.000000	0.403659
834.000000	0.403551
835.000000	0.403485
836.000000	0.403347
837.000000	0.403276
838.000000	0.403279
839.000000	0.403210
840.000000	0.403178
841.000000	0.403078
842.000000	0.402796
843.000000	0.402616
844.000000	0.402457
845.000000	0.402283
846.000000	0.402216
847.000000	0.402174
848.000000	0.402112
849.000000	0.402026
850.000000	0.401784
851.000000	0.401572
852.000000	0.401500
853.000000	0.401417
854.000000	0.401280
855.000000	0.401169
856.000000	0.400974
857.000000	0.400863
858.000000	0.400830
859.000000	0.400728
860.000000	0.400519
861.000000	0.400299
862.000000	0.400193
863.000000	0.400190
864.000000	0.400090
865.000000	0.399968
866.000000	0.399869
867.000000	0.399613
868.000000	0.399480
869.000000	0.399353
870.000000	0.399119
871.000000	0.398834
872.000000	0.398695
873.000000	0.398662
874.000000	0.398494
875.000000	0.398312
876.000000	0.398158
877.000000	0.397968
878.000000	0.397904
879.000000	0.397825
880.000000	0.397519
881.000000	0.397350
882.000000	0.397083
883.000000	0.396797
884.000000	0.396594
885.000000	0.396485
886.000000	0.396369
887.000000	0.396238
888.000000	0.396157
889.000000	0.396043
890.000000	0.395832
891.000000	0.395739
892.000000	0.395531
893.000000	0.395300
894.000000	0.395209
895.000000	0.394974
896.000000	0.394696
897.000000	0.394454
898.000000	0.394305
899.000000	0.394180
900.000000	0.394068
901.000000	0.393905
902.000000	0.393718
903.000000	0.393565
904.000000	0.393543
905.000000	0.393545
906.000000	0.393361
907.000000	0.393047
908.000000	0.392761
909.000000	0.392529
910.000000	0.392431
911.000000	0.392348
912.000000	0.392172
913.000000	0.391882
914.000000	0.391645
915.000000	0.391519
916.000000	0.391262
917.000000	0.391032
918.000000	0.390913
919.000000	0.390852
920.000000	0.390591
921.000000	0.390293
922.000000	0.390100
923.000000	0.390062
924.000000	0.389831
925.000000	0.389586
926.000000	0.389462
927.000000	0.389271
928.000000	0.389072
929.000000	0.388918
930.000000	0.388840
931.000000	0.388749
932.000000	0.388516
933.000000	0.388219
934.000000	0.388015
935.000000	0.387718
936.000000	0.387509
937.000000	0.387369
938.000000	0.386956
939.000000	0.386855
940.000000	0.386872
941.000000	0.386593
942.000000	0.386358
943.000000	0.386250
944.000000	0.386127
945.000000	0.386076
946.000000	0.385823
947.000000	0.385532
948.000000	0.385363
949.000000	0.385209
950.000000	0.385057
951.000000	0.384854
952.000000	0.384664
953.000000	0.384490
954.000000	0.384330
955.000000	0.384086
956.000000	0.383767
957.000000	0.383669
958.000000	0.383671
959.000000	0.383608
960.000000	0.383106
961.000000	0.382881
962.000000	0.382965
963.000000	0.382604
964.000000	0.382412
965.000000	0.382384
966.000000	0.382284
967.000000	0.382325
968.000000	0.382121
969.000000	0.381807
970.000000	0.381842
971.000000	0.381573
972.000000	0.381310
973.000000	0.381152
974.000000	0.381089
975.000000	0.380836
976.000000	0.380441
977.000000	0.380083
978.000000	0.380106
979.000000	0.380187
980.000000	0.380073
981.000000	0.380132
982.000000	0.379963
983.000000	0.379699
984.000000	0.379506
985.000000	0.379339
986.000000	0.379320
987.000000	0.379422
988.000000	0.379397
989.000000	0.379110
990.000000	0.379006
991.000000	0.378981
992.000000	0.378884
993.000000	0.379101
994.000000	0.378854
995.000000	0.378427
996.000000	0.378337
997.000000	0.378267
998.000000	0.378300
999.000000	0.378566
1000.000000	0.378868
1001.000000	0.378607
1002.000000	0.378625
1003.000000	0.378502
1004.000000	0.378375
1005.000000	0.377818
1006.000000	0.377375
1007.000000	0.377140
1008.000000	0.376848
1009.000000	0.376480
1010.000000	0.375766
1011.000000	0.376216
1012.000000	0.377164
1013.000000	0.377177
1014.000000	0.377408
1015.000000	0.377873
1016.000000	0.377953
1017.000000	0.378046
1018.000000	0.378570
1019.000000	0.378815
1020.000000	0.378926
1021.000000	0.378485
1022.000000	0.377900
1023.000000	0.377868
1024.000000	0.377543
1025.000000	0.377288
1026.000000	0.377537
1027.000000	0.378044
1028.000000	0.378333
1029.000000	0.378600
1030.000000	0.379009
1031.000000	0.379004
1032.000000	0.378659
1033.000000	0.378636
1034.000000	0.378567
1035.000000	0.378353
1036.000000	0.378314
1037.000000	0.378395
1038.000000	0.378632
1039.000000	0.379027
1040.000000	0.379797
1041.000000	0.380732
1042.000000	0.381313
1043.000000	0.381713
1044.000000	0.382335
1045.000000	0.382592
1046.000000	0.382354
1047.000000	0.382359
1048.000000	0.382045
1049.000000	0.382034
1050.000000	0.382554
1051.000000	0.382337
1052.000000	0.381296
1053.000000	0.381320
1054.000000	0.381816
1055.000000	0.382061
1056.000000	0.382909
1057.000000	0.383690
1058.000000	0.383517
1059.000000	0.383560
1060.000000	0.384166
1061.000000	0.384725
1062.000000	0.384761
1063.000000	0.384498
1064.000000	0.384850
1065.000000	0.385262
1066.000000	0.385578
1067.000000	0.386495
1068.000000	0.386768
1069.000000	0.386100
1070.000000	0.386072
1071.000000	0.386293
1072.000000	0.386593
1073.000000	0.387233
1074.000000	0.387873
1075.000000	0.388270
1076.000000	0.388697
1077.000000	0.388933
1078.000000	0.389091
1079.000000	0.389437
1080.000000	0.389877
1081.000000	0.390284
1082.000000	0.391182
1083.000000	0.391412
1084.000000	0.391182
1085.000000	0.391345
1086.000000	0.391125
1087.000000	0.391329
1088.000000	0.392158
1089.000000	0.392503
1090.000000	0.392663
1091.000000	0.392677
1092.000000	0.392998
1093.000000	0.393502
1094.000000	0.393600
1095.000000	0.393642
1096.000000	0.393830
1097.000000	0.393654
1098.000000	0.393823
1099.000000	0.394377
1100.000000	0.394780
1101.000000	0.394985
1102.000000	0.395274
1103.000000	0.395634
1104.000000	0.396039
1105.000000	0.396413
1106.000000	0.396861
1107.000000	0.397509
1108.000000	0.397854
1109.000000	0.398198
1110.000000	0.398314
1111.000000	0.398527
1112.000000	0.398529
1113.000000	0.398860
1114.000000	0.399545
1115.000000	0.399731
1116.000000	0.399693
1117.000000	0.399904
1118.000000	0.399922
1119.000000	0.400044
1120.000000	0.400629
1121.000000	0.400756
1122.000000	0.400487
1123.000000	0.400784
1124.000000	0.400900
1125.000000	0.401125
1126.000000	0.401721
1127.000000	0.401980
1128.000000	0.402087
1129.000000	0.401997
1130.000000	0.402133
1131.000000	0.402188
1132.000000	0.402347
1133.000000	0.402952
1134.000000	0.402975
1135.000000	0.402408
1136.000000	0.402433
1137.000000	0.402494
1138.000000	0.402502
1139.000000	0.403033
1140.000000	0.403360
1141.000000	0.403282
1142.000000	0.403399
1143.000000	0.403588
1144.000000	0.403869
1145.000000	0.404023
1146.000000	0.404083
1147.000000	0.404062
1148.000000	0.403821
1149.000000	0.403790
1150.000000	0.403720
1151.000000	0.403796
1152.000000	0.403987
1153.000000	0.404137
1154.000000	0.404294
1155.000000	0.404352
1156.000000	0.404319
1157.000000	0.404418
1158.000000	0.404609
1159.000000	0.404566
1160.000000	0.404327
1161.000000	0.404294
1162.000000	0.404359
1163.000000	0.404390
1164.000000	0.404466
1165.000000	0.404481
1166.000000	0.404518
1167.000000	0.404258
1168.000000	0.404272
1169.000000	0.404556
1170.000000	0.404723
1171.000000	0.404936
1172.000000	0.405134
1173.000000	0.405362
1174.000000	0.405443
1175.000000	0.405383
1176.000000	0.405305
1177.000000	0.405183
1178.000000	0.405136
1179.000000	0.405106
1180.000000	0.405048
1181.000000	0.405171
1182.000000	0.405192
1183.000000	0.405133
1184.000000	0.405148
1185.000000	0.405134
1186.000000	0.405049
1187.000000	0.405014
1188.000000	0.404974
1189.000000	0.405017
1190.000000	0.405188
1191.000000	0.405272
1192.000000	0.405616
1193.000000	0.405800
1194.000000	0.405624
1195.000000	0.405630
1196.000000	0.405585
1197.000000	0.405538
1198.000000	0.405542
1199.000000	0.405598
1200.000000	0.405666
1201.000000	0.405679
1202.000000	0.405766
1203.000000	0.405827
1204.000000	0.405670
1205.000000	0.405593
1206.000000	0.405493
1207.000000	0.405451
1208.000000	0.405356
1209.000000	0.405369
1210.000000	0.405352
1211.000000	0.405268
1212.000000	0.405292
1213.000000	0.405463
1214.000000	0.405563
1215.000000	0.405613
1216.000000	0.405711
1217.000000	0.405815
1218.000000	0.405837
1219.000000	0.405787
1220.000000	0.406024
1221.000000	0.406146
1222.000000	0.406074
1223.000000	0.406091
1224.000000	0.406108
1225.000000	0.406120
1226.000000	0.406215
1227.000000	0.406216
1228.000000	0.406238
1229.000000	0.406113
1230.000000	0.405704
1231.000000	0.405551
1232.000000	0.405622
1233.000000	0.405722
1234.000000	0.406004
1235.000000	0.406073
1236.000000	0.405859
1237.000000	0.405870
1238.000000	0.405847
1239.000000	0.405842
1240.000000	0.405931
1241.000000	0.406039
1242.000000	0.406015
1243.000000	0.406059
1244.000000	0.406144
1245.000000	0.406269
1246.000000	0.406396
1247.000000	0.406511
1248.000000	0.406522
1249.000000	0.406547
1250.000000	0.406569
1251.000000	0.406574
1252.000000	0.406632
1253.000000	0.406858
1254.000000	0.406865
1255.000000	0.406802
1256.000000	0.406751
1257.000000	0.406589
1258.000000	0.406574
1259.000000	0.406523
1260.000000	0.406519
1261.000000	0.406544
1262.000000	0.406529
1263.000000	0.406460
1264.000000	0.406531
1265.000000	0.406757
1266.000000	0.406719
1267.000000	0.406757
1268.000000	0.406911
1269.000000	0.406768
1270.000000	0.406665
1271.000000	0.406648
1272.000000	0.406718
1273.000000	0.406833
1274.000000	0.406853
1275.000000	0.406906
1276.000000	0.406996
1277.000000	0.407059
1278.000000	0.407060
1279.000000	0.407018
1280.000000	0.406747
1281.000000	0.406615
1282.000000	0.406531
1283.000000	0.406630
1284.000000	0.406868
1285.000000	0.406997
1286.000000	0.407148
1287.000000	0.407196
1288.000000	0.407290
1289.000000	0.407303
1290.000000	0.407108
1291.000000	0.407120
1292.000000	0.407123
1293.000000	0.406867
1294.000000	0.406823
1295.000000	0.406848
1296.000000	0.406682
1297.000000	0.406621
1298.000000	0.406737
1299.000000	0.406821
1300.000000	0.406902
1301.000000	0.407098
1302.000000	0.407104
1303.000000	0.407067
1304.000000	0.406963
1305.000000	0.406942
1306.000000	0.406820
1307.000000	0.406689
1308.000000	0.406614
1309.000000	0.406418
1310.000000	0.406336
1311.000000	0.406362
1312.000000	0.406340
1313.000000	0.406426
1314.000000	0.406450
1315.000000	0.406217
1316.000000	0.406037
1317.000000	0.405714
1318.000000	0.405376
1319.000000	0.405302
1320.000000	0.405138
1321.000000	0.404959
1322.000000	0.404967
1323.000000	0.404785
1324.000000	0.404544
1325.000000	0.404433
1326.000000	0.404207
1327.000000	0.403883
1328.000000	0.403863
1329.000000	0.403613
1330.000000	0.403165
1331.000000	0.402876
1332.000000	0.402701
1333.000000	0.402447
1334.000000	0.402316
1335.000000	0.402185
1336.000000	0.402064
1337.000000	0.401824
1338.000000	0.401484
1339.000000	0.401085
1340.000000	0.400719
1341.000000	0.400272
1342.000000	0.399878
1343.000000	0.399818
1344.000000	0.399714
1345.000000	0.399478
1346.000000	0.399374
1347.000000	0.398893
1348.000000	0.398409
1349.000000	0.398054
1350.000000	0.397760
1351.000000	0.397605
1352.000000	0.397470
1353.000000	0.397321
1354.000000	0.397099
1355.000000	0.396733
1356.000000	0.396468
1357.000000	0.396081
1358.000000	0.395809
1359.000000	0.395713
1360.000000	0.395467
1361.000000	0.395242
1362.000000	0.394953
1363.000000	0.394492
1364.000000	0.394146
1365.000000	0.393786
1366.000000	0.393481
1367.000000	0.393247
1368.000000	0.392914
1369.000000	0.392712
1370.000000	0.392358
1371.000000	0.391805
1372.000000	0.391353
1373.000000	0.390863
1374.000000	0.390492
1375.000000	0.390218
1376.000000	0.389935
1377.000000	0.389775
1378.000000	0.389485
1379.000000	0.388846
1380.000000	0.388258
1381.000000	0.387544
1382.000000	0.386642
1383.000000	0.386109
1384.000000	0.385562
1385.000000	0.384834
1386.000000	0.384302
1387.000000	0.383726
1388.000000	0.383027
1389.000000	0.382286
1390.000000	0.381499
1391.000000	0.380582
1392.000000	0.379585
1393.000000	0.378614
1394.000000	0.377792
1395.000000	0.376790
1396.000000	0.375697
1397.000000	0.374459
1398.000000	0.373022
1399.000000	0.371719
1400.000000	0.370358
1401.000000	0.369038
1402.000000	0.367942
1403.000000	0.366466
1404.000000	0.364941
1405.000000	0.363448
1406.000000	0.361957
1407.000000	0.360483
1408.000000	0.358906
1409.000000	0.357453
1410.000000	0.355894
1411.000000	0.354137
1412.000000	0.352645
1413.000000	0.351162
1414.000000	0.349488
1415.000000	0.348039
1416.000000	0.346560
1417.000000	0.344984
1418.000000	0.343475
1419.000000	0.342034
1420.000000	0.340503
1421.000000	0.339083
1422.000000	0.337670
1423.000000	0.336262
1424.000000	0.334854
1425.000000	0.333499
1426.000000	0.332085
1427.000000	0.330645
1428.000000	0.329296
1429.000000	0.327890
1430.000000	0.326514
1431.000000	0.325346
1432.000000	0.324196
1433.000000	0.323108
1434.000000	0.322052
1435.000000	0.321152
1436.000000	0.320262
1437.000000	0.319357
1438.000000	0.318520
1439.000000	0.317858
1440.000000	0.317172
1441.000000	0.316494
1442.000000	0.315893
1443.000000	0.315287
1444.000000	0.314670
1445.000000	0.314136
1446.000000	0.313563
1447.000000	0.312974
1448.000000	0.312493
1449.000000	0.312043
1450.000000	0.311663
1451.000000	0.311348
1452.000000	0.310859
1453.000000	0.310259
1454.000000	0.309722
1455.000000	0.309183
1456.000000	0.308780
1457.000000	0.308552
1458.000000	0.308308
1459.000000	0.308042
1460.000000	0.307744
1461.000000	0.307372
1462.000000	0.306996
1463.000000	0.306663
1464.000000	0.306404
1465.000000	0.306165
1466.000000	0.305931
1467.000000	0.305787
1468.000000	0.305643
1469.000000	0.305596
1470.000000	0.305597
1471.000000	0.305605
1472.000000	0.305671
1473.000000	0.305868
1474.000000	0.306016
1475.000000	0.306190
1476.000000	0.306508
1477.000000	0.306918
1478.000000	0.307264
1479.000000	0.307651
1480.000000	0.308112
1481.000000	0.308457
1482.000000	0.308671
1483.000000	0.309156
1484.000000	0.309745
1485.000000	0.310263
1486.000000	0.310915
1487.000000	0.311430
1488.000000	0.311796
1489.000000	0.312333
1490.000000	0.312814
1491.000000	0.313356
1492.000000	0.314004
1493.000000	0.314524
1494.000000	0.314880
1495.000000	0.315363
1496.000000	0.315843
1497.000000	0.316296
1498.000000	0.316834
1499.000000	0.317338
1500.000000	0.317688
1501.000000	0.318115
1502.000000	0.318512
1503.000000	0.318945
1504.000000	0.319416
1505.000000	0.319801
1506.000000	0.320266
1507.000000	0.320724
1508.000000	0.321066
1509.000000	0.321349
1510.000000	0.321596
1511.000000	0.321825
1512.000000	0.322032
1513.000000	0.322328
1514.000000	0.322606
1515.000000	0.322800
1516.000000	0.323169
1517.000000	0.323555
1518.000000	0.323959
1519.000000	0.324255
1520.000000	0.324462
1521.000000	0.324722
1522.000000	0.324920
1523.000000	0.325072
1524.000000	0.325248
1525.000000	0.325381
1526.000000	0.325458
1527.000000	0.325652
1528.000000	0.325853
1529.000000	0.325969
1530.000000	0.325993
1531.000000	0.326022
1532.000000	0.326174
1533.000000	0.326294
1534.000000	0.326377
1535.000000	0.326539
1536.000000	0.326587
1537.000000	0.326718
1538.000000	0.326879
1539.000000	0.326937
1540.000000	0.327009
1541.000000	0.327132
1542.000000	0.327354
1543.000000	0.327479
1544.000000	0.327506
1545.000000	0.327505
1546.000000	0.327444
1547.000000	0.327485
1548.000000	0.327626
1549.000000	0.327700
1550.000000	0.327665
1551.000000	0.327685
1552.000000	0.327760
1553.000000	0.327828
1554.000000	0.327887
1555.000000	0.328008
1556.000000	0.328076
1557.000000	0.327969
1558.000000	0.328010
1559.000000	0.328081
1560.000000	0.328071
1561.000000	0.328159
1562.000000	0.328151
1563.000000	0.328071
1564.000000	0.328024
1565.000000	0.327920
1566.000000	0.327797
1567.000000	0.327804
1568.000000	0.327734
1569.000000	0.327680
1570.000000	0.327681
1571.000000	0.327646
1572.000000	0.327646
1573.000000	0.327769
1574.000000	0.327752
1575.000000	0.327664
1576.000000	0.327657
1577.000000	0.327631
1578.000000	0.327534
1579.000000	0.327561
1580.000000	0.327480
1581.000000	0.327258
1582.000000	0.327209
1583.000000	0.327207
1584.000000	0.327157
1585.000000	0.327273
1586.000000	0.327344
1587.000000	0.327384
1588.000000	0.327450
1589.000000	0.327552
1590.000000	0.327617
1591.000000	0.327654
1592.000000	0.327740
1593.000000	0.327904
1594.000000	0.327974
1595.000000	0.328111
1596.000000	0.328204
1597.000000	0.328233
1598.000000	0.328252
1599.000000	0.328288
1600.000000	0.328266
1601.000000	0.328270
1602.000000	0.328293
1603.000000	0.328313
1604.000000	0.328402
1605.000000	0.328566
1606.000000	0.328696
1607.000000	0.329008
1608.000000	0.329089
1609.000000	0.329030
1610.000000	0.329065
1611.000000	0.329048
1612.000000	0.329077
1613.000000	0.329342
1614.000000	0.329449
1615.000000	0.329528
1616.000000	0.329605
1617.000000	0.329535
1618.000000	0.329591
1619.000000	0.329653
1620.000000	0.329819
1621.000000	0.330226
1622.000000	0.330455
1623.000000	0.330577
1624.000000	0.330710
1625.000000	0.330581
1626.000000	0.330628
1627.000000	0.330768
1628.000000	0.330972
1629.000000	0.331300
1630.000000	0.331502
1631.000000	0.331598
1632.000000	0.331787
1633.000000	0.331958
1634.000000	0.332174
1635.000000	0.332553
1636.000000	0.332823
1637.000000	0.333045
1638.000000	0.333264
1639.000000	0.333540
1640.000000	0.333765
1641.000000	0.333985
1642.000000	0.334230
1643.000000	0.334512
1644.000000	0.334824
1645.000000	0.335173
1646.000000	0.335469
1647.000000	0.335845
1648.000000	0.336061
1649.000000	0.336236
1650.000000	0.336530
1651.000000	0.336825
1652.000000	0.337187
1653.000000	0.337623
1654.000000	0.338048
1655.000000	0.338435
1656.000000	0.338706
1657.000000	0.339042
1658.000000	0.339286
1659.000000	0.339501
1660.000000	0.339796
1661.000000	0.340056
1662.000000	0.340267
1663.000000	0.340428
1664.000000	0.340617
1665.000000	0.340736
1666.000000	0.341037
1667.000000	0.341384
1668.000000	0.341588
1669.000000	0.341778
1670.000000	0.341927
1671.000000	0.342080
1672.000000	0.342302
1673.000000	0.342534
1674.000000	0.342706
1675.000000	0.342919
1676.000000	0.343213
1677.000000	0.343452
1678.000000	0.343641
1679.000000	0.343934
1680.000000	0.344126
1681.000000	0.344326
1682.000000	0.344618
1683.000000	0.344832
1684.000000	0.344960
1685.000000	0.345205
1686.000000	0.345296
1687.000000	0.345405
1688.000000	0.345576
1689.000000	0.345733
1690.000000	0.346010
1691.000000	0.346252
1692.000000	0.346502
1693.000000	0.346723
1694.000000	0.346767
1695.000000	0.347132
1696.000000	0.347326
1697.000000	0.347371
1698.000000	0.347272
1699.000000	0.347368
1700.000000	0.347537
1701.000000	0.347746
1702.000000	0.347921
1703.000000	0.348048
1704.000000	0.348194
1705.000000	0.348311
1706.000000	0.348472
1707.000000	0.348631
1708.000000	0.348663
1709.000000	0.348759
1710.000000	0.349126
1711.000000	0.349313
1712.000000	0.349391
1713.000000	0.349535
1714.000000	0.349629
1715.000000	0.349837
1716.000000	0.350229
1717.000000	0.350523
1718.000000	0.350787
1719.000000	0.350997
1720.000000	0.351277
1721.000000	0.351403
1722.000000	0.351399
1723.000000	0.351454
1724.000000	0.351360
1725.000000	0.351545
1726.000000	0.351888
1727.000000	0.352043
1728.000000	0.352229
1729.000000	0.352205
1730.000000	0.351997
1731.000000	0.352072
1732.000000	0.352228
1733.000000	0.352488
1734.000000	0.352821
1735.000000	0.353033
1736.000000	0.353196
1737.000000	0.353320
1738.000000	0.353375
1739.000000	0.353540
1740.000000	0.353699
1741.000000	0.353865
1742.000000	0.354128
1743.000000	0.354324
1744.000000	0.354468
1745.000000	0.354554
1746.000000	0.354518
1747.000000	0.355003
1748.000000	0.355182
1749.000000	0.355431
1750.000000	0.355569
1751.000000	0.355456
1752.000000	0.355563
1753.000000	0.355695
1754.000000	0.355785
1755.000000	0.355891
1756.000000	0.355867
1757.000000	0.355643
1758.000000	0.355630
1759.000000	0.355648
1760.000000	0.355651
1761.000000	0.355697
1762.000000	0.355813
1763.000000	0.356008
1764.000000	0.356093
1765.000000	0.356152
1766.000000	0.356291
1767.000000	0.356305
1768.000000	0.356246
1769.000000	0.356340
1770.000000	0.356467
1771.000000	0.356362
1772.000000	0.356488
1773.000000	0.356842
1774.000000	0.357007
1775.000000	0.357165
1776.000000	0.357386
1777.000000	0.357556
1778.000000	0.357715
1779.000000	0.357979
1780.000000	0.358043
1781.000000	0.357875
1782.000000	0.357888
1783.000000	0.357909
1784.000000	0.358043
1785.000000	0.358308
1786.000000	0.358721
1787.000000	0.359043
1788.000000	0.359230
1789.000000	0.359315
1790.000000	0.359230
1791.000000	0.359234
1792.000000	0.359429
1793.000000	0.359626
1794.000000	0.359956
1795.000000	0.360176
1796.000000	0.360339
1797.000000	0.360514
1798.000000	0.360480
1799.000000	0.360691
1800.000000	0.361261
1801.000000	0.360354
1802.000000	0.360584
1803.000000	0.361493
1804.000000	0.361938
1805.000000	0.362443
1806.000000	0.362761
1807.000000	0.362950
1808.000000	0.363015
1809.000000	0.362544
1810.000000	0.362525
1811.000000	0.362874
1812.000000	0.363304
1813.000000	0.364154
1814.000000	0.366296
1815.000000	0.366921
1816.000000	0.367257
1817.000000	0.367136
1818.000000	0.366060
1819.000000	0.365198
1820.000000	0.364627
1821.000000	0.363842
1822.000000	0.363528
1823.000000	0.363332
1824.000000	0.363178
1825.000000	0.363385
1826.000000	0.363529
1827.000000	0.363745
1828.000000	0.363533
1829.000000	0.363464
1830.000000	0.363337
1831.000000	0.363412
1832.000000	0.363614
1833.000000	0.363750
1834.000000	0.364178
1835.000000	0.364008
1836.000000	0.363314
1837.000000	0.362838
1838.000000	0.361635
1839.000000	0.361256
1840.000000	0.361610
1841.000000	0.361682
1842.000000	0.361477
1843.000000	0.361566
1844.000000	0.361036
1845.000000	0.359080
1846.000000	0.358626
1847.000000	0.358631
1848.000000	0.358484
1849.000000	0.359018
1850.000000	0.359257
1851.000000	0.358840
1852.000000	0.357366
1853.000000	0.356841
1854.000000	0.356544
1855.000000	0.355526
1856.000000	0.354218
1857.000000	0.353090
1858.000000	0.351603
1859.000000	0.349759
1860.000000	0.348816
1861.000000	0.348531
1862.000000	0.347718
1863.000000	0.347450
1864.000000	0.346299
1865.000000	0.344197
1866.000000	0.342504
1867.000000	0.340682
1868.000000	0.338510
1869.000000	0.336417
1870.000000	0.334948
1871.000000	0.333201
1872.000000	0.330444
1873.000000	0.327981
1874.000000	0.325382
1875.000000	0.323017
1876.000000	0.320216
1877.000000	0.317818
1878.000000	0.315732
1879.000000	0.313202
1880.000000	0.310301
1881.000000	0.306865
1882.000000	0.302772
1883.000000	0.298720
1884.000000	0.295347
1885.000000	0.292568
1886.000000	0.289029
1887.000000	0.285700
1888.000000	0.281888
1889.000000	0.277013
1890.000000	0.272041
1891.000000	0.267940
1892.000000	0.263478
1893.000000	0.259017
1894.000000	0.254836
1895.000000	0.250345
1896.000000	0.245683
1897.000000	0.240937
1898.000000	0.236681
1899.000000	0.232869
1900.000000	0.228795
1901.000000	0.224787
1902.000000	0.220528
1903.000000	0.216485
1904.000000	0.212153
1905.000000	0.207991
1906.000000	0.204259
1907.000000	0.201188
1908.000000	0.197146
1909.000000	0.193522
1910.000000	0.190657
1911.000000	0.187518
1912.000000	0.184873
1913.000000	0.182503
1914.000000	0.179481
1915.000000	0.176428
1916.000000	0.173357
1917.000000	0.170797
1918.000000	0.168441
1919.000000	0.167141
1920.000000	0.165741
1921.000000	0.164829
1922.000000	0.163681
1923.000000	0.162390
1924.000000	0.161217
1925.000000	0.159556
1926.000000	0.158633
1927.000000	0.157994
1928.000000	0.157415
1929.000000	0.157090
1930.000000	0.157137
1931.000000	0.157337
1932.000000	0.157642
1933.000000	0.157802
1934.000000	0.158248
1935.000000	0.158533
1936.000000	0.158365
1937.000000	0.158908
1938.000000	0.159235
1939.000000	0.158845
1940.000000	0.157860
1941.000000	0.157311
1942.000000	0.156389
1943.000000	0.155399
1944.000000	0.155630
1945.000000	0.156104
1946.000000	0.156005
1947.000000	0.155722
1948.000000	0.155624
1949.000000	0.154889
1950.000000	0.154011
1951.000000	0.153291
1952.000000	0.152935
1953.000000	0.151558
1954.000000	0.151004
1955.000000	0.151038
1956.000000	0.150559
1957.000000	0.151206
1958.000000	0.151336
1959.000000	0.151069
1960.000000	0.150534
1961.000000	0.149350
1962.000000	0.148702
1963.000000	0.148069
1964.000000	0.147395
1965.000000	0.147503
1966.000000	0.148285
1967.000000	0.148528
1968.000000	0.148500
1969.000000	0.148333
1970.000000	0.148177
1971.000000	0.147797
1972.000000	0.147551
1973.000000	0.147444
1974.000000	0.147109
1975.000000	0.147230
1976.000000	0.147773
1977.000000	0.148701
1978.000000	0.148762
1979.000000	0.149553
1980.000000	0.150428
1981.000000	0.150515
1982.000000	0.151172
1983.000000	0.151998
1984.000000	0.152504
1985.000000	0.152367
1986.000000	0.152856
1987.000000	0.153710
1988.000000	0.154494
1989.000000	0.154893
1990.000000	0.156259
1991.000000	0.157235
1992.000000	0.157775
1993.000000	0.158927
1994.000000	0.159701
1995.000000	0.160432
1996.000000	0.161415
1997.000000	0.162004
1998.000000	0.162164
1999.000000	0.162697
2000.000000	0.163145
2001.000000	0.163699
2002.000000	0.164830
2003.000000	0.165841
2004.000000	0.166842
2005.000000	0.167689
2006.000000	0.168223
2007.000000	0.169177
2008.000000	0.170152
2009.000000	0.171222
2010.000000	0.172280
2011.000000	0.173327
2012.000000	0.174384
2013.000000	0.175443
2014.000000	0.176369
2015.000000	0.177401
2016.000000	0.178823
2017.000000	0.180041
2018.000000	0.181307
2019.000000	0.182879
2020.000000	0.183951
2021.000000	0.185008
2022.000000	0.185962
2023.000000	0.186877
2024.000000	0.187553
2025.000000	0.188607
2026.000000	0.189680
2027.000000	0.190788
2028.000000	0.192318
2029.000000	0.193542
2030.000000	0.194803
2031.000000	0.196328
2032.000000	0.197581
2033.000000	0.198626
2034.000000	0.199692
2035.000000	0.200761
2036.000000	0.201601
2037.000000	0.202341
2038.000000	0.203245
2039.000000	0.203914
2040.000000	0.205096
2041.000000	0.206698
2042.000000	0.208070
2043.000000	0.209363
2044.000000	0.209693
2045.000000	0.209356
2046.000000	0.209451
2047.000000	0.210085
2048.000000	0.211104
2049.000000	0.212084
2050.000000	0.213359
2051.000000	0.214482
2052.000000	0.215399
2053.000000	0.216259
2054.000000	0.217493
2055.000000	0.218413
2056.000000	0.219037
2057.000000	0.219887
2058.000000	0.221323
2059.000000	0.222588
2060.000000	0.223274
2061.000000	0.223771
2062.000000	0.224359
2063.000000	0.223992
2064.000000	0.224625
2065.000000	0.226341
2066.000000	0.227339
2067.000000	0.228361
2068.000000	0.229909
2069.000000	0.231348
2070.000000	0.232371
2071.000000	0.232985
2072.000000	0.233521
2073.000000	0.233429
2074.000000	0.233444
2075.000000	0.234074
2076.000000	0.235311
2077.000000	0.236368
2078.000000	0.237900
2079.000000	0.238844
2080.000000	0.239688
2081.000000	0.240404
2082.000000	0.240614
2083.000000	0.241289
2084.000000	0.242005
2085.000000	0.242365
2086.000000	0.243351
2087.000000	0.244193
2088.000000	0.245407
2089.000000	0.247217
2090.000000	0.248387
2091.000000	0.249536
2092.000000	0.250611
2093.000000	0.250947
2094.000000	0.251828
2095.000000	0.253260
2096.000000	0.254305
2097.000000	0.254857
2098.000000	0.256672
2099.000000	0.257363
2100.000000	0.257915
2101.000000	0.259138
2102.000000	0.259387
2103.000000	0.259857
2104.000000	0.261074
2105.000000	0.262083
2106.000000	0.263197
2107.000000	0.264090
2108.000000	0.265113
2109.000000	0.265791
2110.000000	0.265828
2111.000000	0.266099
2112.000000	0.266477
2113.000000	0.266216
2114.000000	0.266034
2115.000000	0.266526
2116.000000	0.267424
2117.000000	0.268486
2118.000000	0.269897
2119.000000	0.271570
2120.000000	0.272591
2121.000000	0.273365
2122.000000	0.273937
2123.000000	0.273904
2124.000000	0.274017
2125.000000	0.273825
2126.000000	0.273903
2127.000000	0.274022
2128.000000	0.274565
2129.000000	0.275226
2130.000000	0.276517
2131.000000	0.277119
2132.000000	0.276897
2133.000000	0.277322
2134.000000	0.277173
2135.000000	0.277274
2136.000000	0.278012
2137.000000	0.278259
2138.000000	0.278183
2139.000000	0.278205
2140.000000	0.278113
2141.000000	0.278107
2142.000000	0.277717
2143.000000	0.277720
2144.000000	0.278658
2145.000000	0.279063
2146.000000	0.279201
2147.000000	0.280275
2148.000000	0.280611
2149.000000	0.280156
2150.000000	0.280739
2151.000000	0.280969
2152.000000	0.280737
2153.000000	0.280888
2154.000000	0.281080
2155.000000	0.280922
2156.000000	0.281412
2157.000000	0.283015
2158.000000	0.283467
2159.000000	0.283827
2160.000000	0.283882
2161.000000	0.282686
2162.000000	0.282481
2163.000000	0.282679
2164.000000	0.282618
2165.000000	0.282637
2166.000000	0.283228
2167.000000	0.282851
2168.000000	0.282077
2169.000000	0.282364
2170.000000	0.282132
2171.000000	0.281647
2172.000000	0.281200
2173.000000	0.280913
2174.000000	0.279752
2175.000000	0.279770
2176.000000	0.281043
2177.000000	0.281581
2178.000000	0.282205
2179.000000	0.282977
2180.000000	0.283671
2181.000000	0.284316
2182.000000	0.284601
2183.000000	0.284940
2184.000000	0.284867
2185.000000	0.284970
2186.000000	0.284492
2187.000000	0.283336
2188.000000	0.282638
2189.000000	0.281729
2190.000000	0.282602
2191.000000	0.284759
2192.000000	0.285030
2193.000000	0.284378
2194.000000	0.284621
2195.000000	0.284190
2196.000000	0.283966
2197.000000	0.284717
2198.000000	0.285029
2199.000000	0.284596
2200.000000	0.284243
2201.000000	0.284683
2202.000000	0.284601
2203.000000	0.283075
2204.000000	0.282178
2205.000000	0.282679
2206.000000	0.283701
2207.000000	0.284312
2208.000000	0.283503
2209.000000	0.282897
2210.000000	0.281219
2211.000000	0.279732
2212.000000	0.279889
2213.000000	0.278989
2214.000000	0.277265
2215.000000	0.276778
2216.000000	0.275952
2217.000000	0.276857
2218.000000	0.279117
2219.000000	0.280603
2220.000000	0.284755
2221.000000	0.285593
2222.000000	0.283586
2223.000000	0.283740
2224.000000	0.284194
2225.000000	0.282084
2226.000000	0.282806
2227.000000	0.282772
2228.000000	0.282118
2229.000000	0.280909
2230.000000	0.281203
2231.000000	0.282055
2232.000000	0.281899
2233.000000	0.283077
2234.000000	0.282454
2235.000000	0.283564
2236.000000	0.284294
2237.000000	0.284914
2238.000000	0.285767
2239.000000	0.287144
2240.000000	0.287265
2241.000000	0.287311
2242.000000	0.287154
2243.000000	0.285842
2244.000000	0.285754
2245.000000	0.285624
2246.000000	0.285851
2247.000000	0.287527
2248.000000	0.287727
2249.000000	0.287341
2250.000000	0.287523
2251.000000	0.286278
2252.000000	0.283543
2253.000000	0.282695
2254.000000	0.281998
2255.000000	0.281301
2256.000000	0.282946
2257.000000	0.282172
2258.000000	0.280583
2259.000000	0.279517
2260.000000	0.276171
2261.000000	0.276189
2262.000000	0.279331
2263.000000	0.279326
2264.000000	0.279705
2265.000000	0.280167
2266.000000	0.277819
2267.000000	0.277848
2268.000000	0.280159
2269.000000	0.281268
2270.000000	0.284457
2271.000000	0.283837
2272.000000	0.280312
2273.000000	0.278046
2274.000000	0.272253
2275.000000	0.269116
2276.000000	0.267794
2277.000000	0.267811
2278.000000	0.268043
2279.000000	0.268805
2280.000000	0.266595
2281.000000	0.263544
2282.000000	0.260780
2283.000000	0.258591
2284.000000	0.259081
2285.000000	0.260623
2286.000000	0.261082
2287.000000	0.260849
2288.000000	0.260153
2289.000000	0.259244
2290.000000	0.258737
2291.000000	0.259363
2292.000000	0.259671
2293.000000	0.259432
2294.000000	0.259587
2295.000000	0.259100
2296.000000	0.258788
2297.000000	0.259355
2298.000000	0.259786
2299.000000	0.260284
2300.000000	0.260281
2301.000000	0.259343
2302.000000	0.259396
2303.000000	0.259663
2304.000000	0.259582
2305.000000	0.260949
2306.000000	0.260682
2307.000000	0.258567
2308.000000	0.258094
2309.000000	0.256386
2310.000000	0.253231
2311.000000	0.252036
2312.000000	0.249352
2313.000000	0.247524
2314.000000	0.248737
2315.000000	0.248658
2316.000000	0.248751
2317.000000	0.247889
2318.000000	0.246409
2319.000000	0.245598
2320.000000	0.244010
2321.000000	0.244242
2322.000000	0.244565
2323.000000	0.244906
2324.000000	0.245121
2325.000000	0.242627
2326.000000	0.239008
2327.000000	0.235369
2328.000000	0.230740
2329.000000	0.229497
2330.000000	0.231277
2331.000000	0.230973
2332.000000	0.231379
2333.000000	0.227941
2334.000000	0.221881
2335.000000	0.219288
2336.000000	0.217108
2337.000000	0.215410
2338.000000	0.216954
2339.000000	0.215266
2340.000000	0.209776
2341.000000	0.209346
2342.000000	0.211262
2343.000000	0.213049
2344.000000	0.219780
2345.000000	0.220676
2346.000000	0.218319
2347.000000	0.215101
2348.000000	0.208636
2349.000000	0.203464
2350.000000	0.198933
2351.000000	0.196001
2352.000000	0.197120
2353.000000	0.200401
2354.000000	0.203372
2355.000000	0.206138
2356.000000	0.206756
2357.000000	0.204600
2358.000000	0.201975
2359.000000	0.200386
2360.000000	0.200799
2361.000000	0.199886
2362.000000	0.199185
2363.000000	0.195820
2364.000000	0.189440
2365.000000	0.187048
2366.000000	0.186094
2367.000000	0.188753
2368.000000	0.194667
2369.000000	0.196792
2370.000000	0.195603
2371.000000	0.193592
2372.000000	0.189624
2373.000000	0.184984
2374.000000	0.181799
2375.000000	0.179192
2376.000000	0.177596
2377.000000	0.175632
2378.000000	0.173075
2379.000000	0.169979
2380.000000	0.165243
2381.000000	0.164724
2382.000000	0.163493
2383.000000	0.159805
2384.000000	0.162058
2385.000000	0.161406
2386.000000	0.160528
2387.000000	0.162592
2388.000000	0.160487
2389.000000	0.160722
2390.000000	0.162163
2391.000000	0.164980
2392.000000	0.167872
2393.000000	0.163959
2394.000000	0.159845
2395.000000	0.152504
2396.000000	0.145186
2397.000000	0.147553
2398.000000	0.149127
2399.000000	0.153197
2400.000000	0.161548
2401.000000	0.164373
2402.000000	0.162643
2403.000000	0.163484
2404.000000	0.164781
2405.000000	0.157909
2406.000000	0.158928
2407.000000	0.159699
2408.000000	0.151638
2409.000000	0.154443
2410.000000	0.154520
2411.000000	0.150410
2412.000000	0.152275
2413.000000	0.155839
2414.000000	0.160677
2415.000000	0.162423
2416.000000	0.161745
2417.000000	0.156341
2418.000000	0.146662
2419.000000	0.141748
2420.000000	0.143344
2421.000000	0.145044
2422.000000	0.142839
2423.000000	0.145590
2424.000000	0.141696
2425.000000	0.132558
2426.000000	0.136570
2427.000000	0.133853
2428.000000	0.129849
2429.000000	0.131747
2430.000000	0.124913
2431.000000	0.129339
2432.000000	0.136136
2433.000000	0.139583
2434.000000	0.151411
2435.000000	0.157327
2436.000000	0.164969
2437.000000	0.174777
2438.000000	0.174234
2439.000000	0.161944
2440.000000	0.152998
2441.000000	0.151139
2442.000000	0.146563
2443.000000	0.145249
2444.000000	0.137150
2445.000000	0.124611
2446.000000	0.119067
2447.000000	0.125777
2448.000000	0.142336
2449.000000	0.155540
2450.000000	0.162800
2451.000000	0.159179
2452.000000	0.143340
2453.000000	0.128955
2454.000000	0.122941
2455.000000	0.121127
2456.000000	0.120213
2457.000000	0.111608
2458.000000	0.105185
2459.000000	0.104650
2460.000000	0.101721
2461.000000	0.107448
2462.000000	0.107234
2463.000000	0.096973
2464.000000	0.099973
2465.000000	0.098873
2466.000000	0.092806
2467.000000	0.092532
2468.000000	0.080693
2469.000000	0.069480
2470.000000	0.061948
2471.000000	0.055654
2472.000000	0.055754
2473.000000	0.063905
2474.000000	0.084461
2475.000000	0.104860
2476.000000	0.121964
2477.000000	0.120644
2478.000000	0.107385
2479.000000	0.090006
2480.000000	0.064945
2481.000000	0.058082
2482.000000	0.060441
2483.000000	0.050577
2484.000000	0.035911
2485.000000	0.029171
2486.000000	0.041909
2487.000000	0.064506
2488.000000	0.086517
2489.000000	0.101440
2490.000000	0.084172
2491.000000	0.064110
2492.000000	0.070377
2493.000000	0.115523
2494.000000	0.130366
2495.000000	0.137140
2496.000000	0.119994
2497.000000	0.042062
2498.000000	0.012920
2499.000000	0.023728
2500.000000	0.029703
