# Wavelength	NAu-2-20_HEX-70_FV7-10_00000.asd.rts.txt
350.000000	0.199231
351.000000	0.222725
352.000000	0.220222
353.000000	0.208575
354.000000	0.201306
355.000000	0.190447
356.000000	0.194720
357.000000	0.205533
358.000000	0.190523
359.000000	0.191730
360.000000	0.203294
361.000000	0.208657
362.000000	0.208150
363.000000	0.206932
364.000000	0.207610
365.000000	0.208079
366.000000	0.206023
367.000000	0.202398
368.000000	0.201572
369.000000	0.205525
370.000000	0.208534
371.000000	0.204378
372.000000	0.201787
373.000000	0.202307
374.000000	0.205361
375.000000	0.206318
376.000000	0.205745
377.000000	0.204088
378.000000	0.201661
379.000000	0.205137
380.000000	0.209484
381.000000	0.207895
382.000000	0.207145
383.000000	0.205832
384.000000	0.204162
385.000000	0.209506
386.000000	0.212614
387.000000	0.211344
388.000000	0.210256
389.000000	0.209990
390.000000	0.210661
391.000000	0.211533
392.000000	0.209519
393.000000	0.209066
394.000000	0.212334
395.000000	0.210939
396.000000	0.210689
397.000000	0.212638
398.000000	0.211442
399.000000	0.210950
400.000000	0.211493
401.000000	0.211959
402.000000	0.212712
403.000000	0.213028
404.000000	0.212703
405.000000	0.213615
406.000000	0.214795
407.000000	0.215469
408.000000	0.214938
409.000000	0.214964
410.000000	0.215379
411.000000	0.214893
412.000000	0.214867
413.000000	0.215125
414.000000	0.215318
415.000000	0.216251
416.000000	0.216822
417.000000	0.216678
418.000000	0.217376
419.000000	0.217728
420.000000	0.217797
421.000000	0.218692
422.000000	0.219324
423.000000	0.219585
424.000000	0.219739
425.000000	0.219708
426.000000	0.220131
427.000000	0.221134
428.000000	0.221124
429.000000	0.221119
430.000000	0.221492
431.000000	0.221802
432.000000	0.222109
433.000000	0.222399
434.000000	0.222732
435.000000	0.222883
436.000000	0.223124
437.000000	0.223651
438.000000	0.223993
439.000000	0.224112
440.000000	0.224213
441.000000	0.224690
442.000000	0.224908
443.000000	0.224925
444.000000	0.225446
445.000000	0.226274
446.000000	0.226986
447.000000	0.227058
448.000000	0.227188
449.000000	0.227706
450.000000	0.228592
451.000000	0.228981
452.000000	0.229393
453.000000	0.229826
454.000000	0.229860
455.000000	0.230232
456.000000	0.230842
457.000000	0.231120
458.000000	0.231642
459.000000	0.232055
460.000000	0.232118
461.000000	0.232393
462.000000	0.232801
463.000000	0.233168
464.000000	0.233687
465.000000	0.234230
466.000000	0.234634
467.000000	0.234826
468.000000	0.235271
469.000000	0.235758
470.000000	0.236077
471.000000	0.236113
472.000000	0.236347
473.000000	0.237008
474.000000	0.237467
475.000000	0.237731
476.000000	0.238028
477.000000	0.238532
478.000000	0.238877
479.000000	0.239182
480.000000	0.239435
481.000000	0.239706
482.000000	0.239973
483.000000	0.240066
484.000000	0.240426
485.000000	0.240802
486.000000	0.241189
487.000000	0.241530
488.000000	0.241719
489.000000	0.241841
490.000000	0.242095
491.000000	0.242318
492.000000	0.242624
493.000000	0.243012
494.000000	0.243237
495.000000	0.243408
496.000000	0.243588
497.000000	0.243785
498.000000	0.243886
499.000000	0.243991
500.000000	0.244302
501.000000	0.244398
502.000000	0.244365
503.000000	0.244435
504.000000	0.244706
505.000000	0.245030
506.000000	0.245261
507.000000	0.245473
508.000000	0.245769
509.000000	0.246133
510.000000	0.246428
511.000000	0.246821
512.000000	0.247318
513.000000	0.247748
514.000000	0.248135
515.000000	0.248515
516.000000	0.248879
517.000000	0.249291
518.000000	0.249751
519.000000	0.250184
520.000000	0.250674
521.000000	0.251152
522.000000	0.251615
523.000000	0.252129
524.000000	0.252778
525.000000	0.253515
526.000000	0.254256
527.000000	0.254962
528.000000	0.255732
529.000000	0.256715
530.000000	0.257773
531.000000	0.258961
532.000000	0.260200
533.000000	0.261370
534.000000	0.262571
535.000000	0.263817
536.000000	0.265077
537.000000	0.266348
538.000000	0.267572
539.000000	0.268672
540.000000	0.269781
541.000000	0.270823
542.000000	0.271772
543.000000	0.272762
544.000000	0.273760
545.000000	0.274687
546.000000	0.275613
547.000000	0.276658
548.000000	0.277816
549.000000	0.278887
550.000000	0.280026
551.000000	0.281289
552.000000	0.282639
553.000000	0.284049
554.000000	0.285474
555.000000	0.286918
556.000000	0.288485
557.000000	0.290052
558.000000	0.291670
559.000000	0.293206
560.000000	0.294843
561.000000	0.296585
562.000000	0.298194
563.000000	0.299805
564.000000	0.301380
565.000000	0.302765
566.000000	0.304194
567.000000	0.305559
568.000000	0.306779
569.000000	0.307969
570.000000	0.309078
571.000000	0.310078
572.000000	0.310981
573.000000	0.311734
574.000000	0.312390
575.000000	0.313091
576.000000	0.313724
577.000000	0.314235
578.000000	0.314666
579.000000	0.315009
580.000000	0.315276
581.000000	0.315486
582.000000	0.315686
583.000000	0.315794
584.000000	0.315830
585.000000	0.315876
586.000000	0.315865
587.000000	0.315803
588.000000	0.315707
589.000000	0.315562
590.000000	0.315369
591.000000	0.315134
592.000000	0.314866
593.000000	0.314607
594.000000	0.314311
595.000000	0.313831
596.000000	0.313483
597.000000	0.313214
598.000000	0.312729
599.000000	0.312206
600.000000	0.311689
601.000000	0.311141
602.000000	0.310747
603.000000	0.310304
604.000000	0.309730
605.000000	0.309112
606.000000	0.308561
607.000000	0.308088
608.000000	0.307628
609.000000	0.307171
610.000000	0.306706
611.000000	0.306220
612.000000	0.305666
613.000000	0.305144
614.000000	0.304735
615.000000	0.304304
616.000000	0.303847
617.000000	0.303379
618.000000	0.303041
619.000000	0.302689
620.000000	0.302266
621.000000	0.301815
622.000000	0.301396
623.000000	0.301013
624.000000	0.300660
625.000000	0.300324
626.000000	0.300046
627.000000	0.299822
628.000000	0.299564
629.000000	0.299378
630.000000	0.299174
631.000000	0.299043
632.000000	0.298899
633.000000	0.298718
634.000000	0.298491
635.000000	0.298291
636.000000	0.298195
637.000000	0.298179
638.000000	0.298081
639.000000	0.297994
640.000000	0.297982
641.000000	0.297939
642.000000	0.297953
643.000000	0.298011
644.000000	0.298069
645.000000	0.298067
646.000000	0.298109
647.000000	0.298241
648.000000	0.298391
649.000000	0.298571
650.000000	0.298775
651.000000	0.299041
652.000000	0.299253
653.000000	0.299473
654.000000	0.299757
655.000000	0.300079
656.000000	0.300407
657.000000	0.300698
658.000000	0.301204
659.000000	0.301743
660.000000	0.302195
661.000000	0.302596
662.000000	0.303017
663.000000	0.303518
664.000000	0.304045
665.000000	0.304633
666.000000	0.305256
667.000000	0.305853
668.000000	0.306472
669.000000	0.307147
670.000000	0.307881
671.000000	0.308592
672.000000	0.309359
673.000000	0.310168
674.000000	0.310952
675.000000	0.311758
676.000000	0.312623
677.000000	0.313581
678.000000	0.314526
679.000000	0.315462
680.000000	0.316402
681.000000	0.317289
682.000000	0.318368
683.000000	0.319553
684.000000	0.320656
685.000000	0.321794
686.000000	0.322982
687.000000	0.324158
688.000000	0.325403
689.000000	0.326658
690.000000	0.327933
691.000000	0.329341
692.000000	0.330701
693.000000	0.332067
694.000000	0.333574
695.000000	0.335054
696.000000	0.336512
697.000000	0.338020
698.000000	0.339575
699.000000	0.341151
700.000000	0.342727
701.000000	0.344263
702.000000	0.345872
703.000000	0.347556
704.000000	0.349225
705.000000	0.350921
706.000000	0.352629
707.000000	0.354415
708.000000	0.356164
709.000000	0.357884
710.000000	0.359635
711.000000	0.361472
712.000000	0.363270
713.000000	0.365022
714.000000	0.366834
715.000000	0.368644
716.000000	0.370466
717.000000	0.372306
718.000000	0.374153
719.000000	0.375984
720.000000	0.377806
721.000000	0.379625
722.000000	0.381481
723.000000	0.383421
724.000000	0.385271
725.000000	0.387145
726.000000	0.389058
727.000000	0.390789
728.000000	0.392575
729.000000	0.394398
730.000000	0.396152
731.000000	0.397949
732.000000	0.399713
733.000000	0.401468
734.000000	0.403219
735.000000	0.404873
736.000000	0.406592
737.000000	0.408284
738.000000	0.409762
739.000000	0.411285
740.000000	0.412827
741.000000	0.414363
742.000000	0.415868
743.000000	0.417304
744.000000	0.418743
745.000000	0.420102
746.000000	0.421481
747.000000	0.422880
748.000000	0.424192
749.000000	0.425440
750.000000	0.426620
751.000000	0.427825
752.000000	0.428974
753.000000	0.430066
754.000000	0.431131
755.000000	0.432275
756.000000	0.433440
757.000000	0.434471
758.000000	0.435447
759.000000	0.436445
760.000000	0.437396
761.000000	0.438329
762.000000	0.439191
763.000000	0.439971
764.000000	0.440793
765.000000	0.441571
766.000000	0.442291
767.000000	0.442960
768.000000	0.443664
769.000000	0.444330
770.000000	0.444946
771.000000	0.445584
772.000000	0.446215
773.000000	0.446769
774.000000	0.447343
775.000000	0.447819
776.000000	0.448301
777.000000	0.448818
778.000000	0.449215
779.000000	0.449598
780.000000	0.449992
781.000000	0.450313
782.000000	0.450583
783.000000	0.450937
784.000000	0.451255
785.000000	0.451533
786.000000	0.451819
787.000000	0.452096
788.000000	0.452224
789.000000	0.452383
790.000000	0.452573
791.000000	0.452779
792.000000	0.453103
793.000000	0.453387
794.000000	0.453537
795.000000	0.453785
796.000000	0.453971
797.000000	0.454049
798.000000	0.454111
799.000000	0.454159
800.000000	0.454221
801.000000	0.454329
802.000000	0.454450
803.000000	0.454580
804.000000	0.454733
805.000000	0.454750
806.000000	0.454691
807.000000	0.454704
808.000000	0.454754
809.000000	0.454783
810.000000	0.454803
811.000000	0.454796
812.000000	0.454706
813.000000	0.454615
814.000000	0.454575
815.000000	0.454642
816.000000	0.454573
817.000000	0.454486
818.000000	0.454424
819.000000	0.454387
820.000000	0.454349
821.000000	0.454256
822.000000	0.454238
823.000000	0.454198
824.000000	0.454092
825.000000	0.454056
826.000000	0.453907
827.000000	0.453714
828.000000	0.453608
829.000000	0.453572
830.000000	0.453459
831.000000	0.453370
832.000000	0.453284
833.000000	0.453122
834.000000	0.452967
835.000000	0.452896
836.000000	0.452664
837.000000	0.452425
838.000000	0.452288
839.000000	0.452254
840.000000	0.452210
841.000000	0.452120
842.000000	0.451926
843.000000	0.451724
844.000000	0.451509
845.000000	0.451276
846.000000	0.451144
847.000000	0.450980
848.000000	0.450785
849.000000	0.450638
850.000000	0.450499
851.000000	0.450289
852.000000	0.450078
853.000000	0.449990
854.000000	0.449783
855.000000	0.449653
856.000000	0.449590
857.000000	0.449289
858.000000	0.449119
859.000000	0.449063
860.000000	0.448756
861.000000	0.448581
862.000000	0.448488
863.000000	0.448181
864.000000	0.447888
865.000000	0.447600
866.000000	0.447367
867.000000	0.447297
868.000000	0.447128
869.000000	0.446786
870.000000	0.446474
871.000000	0.446346
872.000000	0.446169
873.000000	0.445770
874.000000	0.445475
875.000000	0.445256
876.000000	0.445061
877.000000	0.444727
878.000000	0.444361
879.000000	0.444118
880.000000	0.443878
881.000000	0.443724
882.000000	0.443504
883.000000	0.443246
884.000000	0.442971
885.000000	0.442833
886.000000	0.442672
887.000000	0.442416
888.000000	0.442081
889.000000	0.441752
890.000000	0.441342
891.000000	0.441037
892.000000	0.440811
893.000000	0.440584
894.000000	0.440455
895.000000	0.440263
896.000000	0.439950
897.000000	0.439610
898.000000	0.439371
899.000000	0.439153
900.000000	0.438910
901.000000	0.438616
902.000000	0.438454
903.000000	0.438211
904.000000	0.437974
905.000000	0.437740
906.000000	0.437615
907.000000	0.437393
908.000000	0.437119
909.000000	0.436854
910.000000	0.436532
911.000000	0.436377
912.000000	0.436480
913.000000	0.436122
914.000000	0.435673
915.000000	0.435340
916.000000	0.434958
917.000000	0.434630
918.000000	0.434445
919.000000	0.434349
920.000000	0.434050
921.000000	0.433800
922.000000	0.433593
923.000000	0.433267
924.000000	0.432958
925.000000	0.432712
926.000000	0.432563
927.000000	0.432388
928.000000	0.432106
929.000000	0.431707
930.000000	0.431266
931.000000	0.431039
932.000000	0.430871
933.000000	0.430689
934.000000	0.430383
935.000000	0.429923
936.000000	0.429550
937.000000	0.429319
938.000000	0.429197
939.000000	0.429058
940.000000	0.428719
941.000000	0.428240
942.000000	0.427862
943.000000	0.427620
944.000000	0.427369
945.000000	0.427333
946.000000	0.426959
947.000000	0.426632
948.000000	0.426730
949.000000	0.426498
950.000000	0.426282
951.000000	0.426045
952.000000	0.425552
953.000000	0.425402
954.000000	0.425342
955.000000	0.425023
956.000000	0.424690
957.000000	0.424478
958.000000	0.424239
959.000000	0.423916
960.000000	0.423625
961.000000	0.423323
962.000000	0.423065
963.000000	0.423095
964.000000	0.422767
965.000000	0.422331
966.000000	0.421972
967.000000	0.421782
968.000000	0.421687
969.000000	0.421546
970.000000	0.421380
971.000000	0.421133
972.000000	0.420961
973.000000	0.420793
974.000000	0.420542
975.000000	0.420312
976.000000	0.420100
977.000000	0.419875
978.000000	0.419608
979.000000	0.419565
980.000000	0.419435
981.000000	0.419333
982.000000	0.419016
983.000000	0.418771
984.000000	0.418746
985.000000	0.418688
986.000000	0.418797
987.000000	0.418717
988.000000	0.418184
989.000000	0.417928
990.000000	0.418040
991.000000	0.418130
992.000000	0.417872
993.000000	0.417864
994.000000	0.417834
995.000000	0.417876
996.000000	0.417811
997.000000	0.417788
998.000000	0.417805
999.000000	0.417801
1000.000000	0.417312
1001.000000	0.418405
1002.000000	0.417259
1003.000000	0.417254
1004.000000	0.417496
1005.000000	0.418237
1006.000000	0.418076
1007.000000	0.418077
1008.000000	0.418021
1009.000000	0.417184
1010.000000	0.416654
1011.000000	0.416797
1012.000000	0.416971
1013.000000	0.417150
1014.000000	0.416887
1015.000000	0.416915
1016.000000	0.417723
1017.000000	0.417541
1018.000000	0.417302
1019.000000	0.417402
1020.000000	0.417725
1021.000000	0.417225
1022.000000	0.416801
1023.000000	0.416987
1024.000000	0.416794
1025.000000	0.416949
1026.000000	0.417741
1027.000000	0.417790
1028.000000	0.417460
1029.000000	0.417585
1030.000000	0.417628
1031.000000	0.417517
1032.000000	0.417702
1033.000000	0.417441
1034.000000	0.417597
1035.000000	0.418030
1036.000000	0.418431
1037.000000	0.419128
1038.000000	0.419386
1039.000000	0.419510
1040.000000	0.419577
1041.000000	0.419676
1042.000000	0.419763
1043.000000	0.420177
1044.000000	0.420309
1045.000000	0.419985
1046.000000	0.419698
1047.000000	0.419944
1048.000000	0.420418
1049.000000	0.420521
1050.000000	0.420923
1051.000000	0.421124
1052.000000	0.420589
1053.000000	0.420523
1054.000000	0.421291
1055.000000	0.421692
1056.000000	0.422140
1057.000000	0.422224
1058.000000	0.422421
1059.000000	0.422416
1060.000000	0.422397
1061.000000	0.422799
1062.000000	0.423124
1063.000000	0.423565
1064.000000	0.423894
1065.000000	0.424157
1066.000000	0.424476
1067.000000	0.424704
1068.000000	0.424849
1069.000000	0.425025
1070.000000	0.425199
1071.000000	0.425191
1072.000000	0.425438
1073.000000	0.425983
1074.000000	0.426527
1075.000000	0.426783
1076.000000	0.426693
1077.000000	0.426594
1078.000000	0.426404
1079.000000	0.426601
1080.000000	0.427356
1081.000000	0.427597
1082.000000	0.427790
1083.000000	0.428157
1084.000000	0.428666
1085.000000	0.428789
1086.000000	0.428672
1087.000000	0.428911
1088.000000	0.428861
1089.000000	0.428909
1090.000000	0.429431
1091.000000	0.429589
1092.000000	0.429660
1093.000000	0.429889
1094.000000	0.430230
1095.000000	0.430896
1096.000000	0.431072
1097.000000	0.430867
1098.000000	0.431226
1099.000000	0.431575
1100.000000	0.431966
1101.000000	0.432800
1102.000000	0.433198
1103.000000	0.433245
1104.000000	0.433373
1105.000000	0.433243
1106.000000	0.433479
1107.000000	0.433952
1108.000000	0.434112
1109.000000	0.434451
1110.000000	0.434671
1111.000000	0.434845
1112.000000	0.434723
1113.000000	0.434793
1114.000000	0.434945
1115.000000	0.435213
1116.000000	0.435558
1117.000000	0.435750
1118.000000	0.436126
1119.000000	0.436178
1120.000000	0.435803
1121.000000	0.435717
1122.000000	0.435740
1123.000000	0.436063
1124.000000	0.436385
1125.000000	0.436627
1126.000000	0.436777
1127.000000	0.436923
1128.000000	0.437034
1129.000000	0.437076
1130.000000	0.437273
1131.000000	0.437596
1132.000000	0.437778
1133.000000	0.438082
1134.000000	0.438254
1135.000000	0.438244
1136.000000	0.438256
1137.000000	0.438200
1138.000000	0.438136
1139.000000	0.438176
1140.000000	0.438264
1141.000000	0.438323
1142.000000	0.438341
1143.000000	0.438146
1144.000000	0.438280
1145.000000	0.438497
1146.000000	0.438288
1147.000000	0.438297
1148.000000	0.438396
1149.000000	0.438212
1150.000000	0.437823
1151.000000	0.437666
1152.000000	0.437249
1153.000000	0.437223
1154.000000	0.437620
1155.000000	0.437577
1156.000000	0.437388
1157.000000	0.437380
1158.000000	0.437195
1159.000000	0.437064
1160.000000	0.437148
1161.000000	0.437103
1162.000000	0.436927
1163.000000	0.436964
1164.000000	0.437079
1165.000000	0.437165
1166.000000	0.437216
1167.000000	0.437212
1168.000000	0.437198
1169.000000	0.437191
1170.000000	0.437184
1171.000000	0.437264
1172.000000	0.437301
1173.000000	0.437205
1174.000000	0.437158
1175.000000	0.437035
1176.000000	0.437029
1177.000000	0.437242
1178.000000	0.437328
1179.000000	0.437394
1180.000000	0.437412
1181.000000	0.437437
1182.000000	0.437553
1183.000000	0.437546
1184.000000	0.437629
1185.000000	0.437683
1186.000000	0.437660
1187.000000	0.437623
1188.000000	0.437580
1189.000000	0.437627
1190.000000	0.437761
1191.000000	0.437766
1192.000000	0.438002
1193.000000	0.438196
1194.000000	0.437964
1195.000000	0.437983
1196.000000	0.438206
1197.000000	0.438205
1198.000000	0.438023
1199.000000	0.438099
1200.000000	0.438256
1201.000000	0.438304
1202.000000	0.438409
1203.000000	0.438607
1204.000000	0.438622
1205.000000	0.438606
1206.000000	0.438560
1207.000000	0.438662
1208.000000	0.438666
1209.000000	0.438640
1210.000000	0.438669
1211.000000	0.438848
1212.000000	0.438815
1213.000000	0.438661
1214.000000	0.438675
1215.000000	0.438591
1216.000000	0.438627
1217.000000	0.438880
1218.000000	0.438923
1219.000000	0.438888
1220.000000	0.438917
1221.000000	0.439041
1222.000000	0.439088
1223.000000	0.439159
1224.000000	0.439365
1225.000000	0.439351
1226.000000	0.439390
1227.000000	0.439590
1228.000000	0.439757
1229.000000	0.439817
1230.000000	0.439816
1231.000000	0.439807
1232.000000	0.439838
1233.000000	0.440034
1234.000000	0.440363
1235.000000	0.440494
1236.000000	0.440437
1237.000000	0.440559
1238.000000	0.440615
1239.000000	0.440651
1240.000000	0.440838
1241.000000	0.440816
1242.000000	0.440618
1243.000000	0.440575
1244.000000	0.440724
1245.000000	0.441112
1246.000000	0.441358
1247.000000	0.441499
1248.000000	0.441631
1249.000000	0.441614
1250.000000	0.441661
1251.000000	0.441963
1252.000000	0.442040
1253.000000	0.442025
1254.000000	0.441985
1255.000000	0.441766
1256.000000	0.441777
1257.000000	0.441940
1258.000000	0.442165
1259.000000	0.442541
1260.000000	0.442760
1261.000000	0.442705
1262.000000	0.442814
1263.000000	0.442969
1264.000000	0.443128
1265.000000	0.443372
1266.000000	0.443613
1267.000000	0.443753
1268.000000	0.443899
1269.000000	0.443802
1270.000000	0.443820
1271.000000	0.443926
1272.000000	0.443880
1273.000000	0.444005
1274.000000	0.444213
1275.000000	0.444296
1276.000000	0.444268
1277.000000	0.444435
1278.000000	0.444573
1279.000000	0.444670
1280.000000	0.444722
1281.000000	0.444712
1282.000000	0.444664
1283.000000	0.444798
1284.000000	0.444959
1285.000000	0.445051
1286.000000	0.445161
1287.000000	0.445200
1288.000000	0.445225
1289.000000	0.445201
1290.000000	0.445182
1291.000000	0.445155
1292.000000	0.445138
1293.000000	0.445230
1294.000000	0.445322
1295.000000	0.445435
1296.000000	0.445464
1297.000000	0.445388
1298.000000	0.445405
1299.000000	0.445397
1300.000000	0.445387
1301.000000	0.445332
1302.000000	0.445246
1303.000000	0.445279
1304.000000	0.445284
1305.000000	0.445438
1306.000000	0.445467
1307.000000	0.445554
1308.000000	0.445526
1309.000000	0.445340
1310.000000	0.445259
1311.000000	0.445207
1312.000000	0.445084
1313.000000	0.445149
1314.000000	0.445226
1315.000000	0.445042
1316.000000	0.444922
1317.000000	0.444708
1318.000000	0.444447
1319.000000	0.444295
1320.000000	0.444143
1321.000000	0.443911
1322.000000	0.443707
1323.000000	0.443548
1324.000000	0.443415
1325.000000	0.443219
1326.000000	0.443013
1327.000000	0.442833
1328.000000	0.442693
1329.000000	0.442476
1330.000000	0.442320
1331.000000	0.442110
1332.000000	0.441916
1333.000000	0.441604
1334.000000	0.441341
1335.000000	0.441058
1336.000000	0.440598
1337.000000	0.440262
1338.000000	0.439978
1339.000000	0.439558
1340.000000	0.439067
1341.000000	0.438812
1342.000000	0.438634
1343.000000	0.438376
1344.000000	0.438010
1345.000000	0.437566
1346.000000	0.437313
1347.000000	0.436800
1348.000000	0.436357
1349.000000	0.436020
1350.000000	0.435504
1351.000000	0.435073
1352.000000	0.434747
1353.000000	0.434426
1354.000000	0.434036
1355.000000	0.433421
1356.000000	0.433139
1357.000000	0.432828
1358.000000	0.432475
1359.000000	0.432239
1360.000000	0.431823
1361.000000	0.431192
1362.000000	0.430761
1363.000000	0.430329
1364.000000	0.429966
1365.000000	0.429701
1366.000000	0.429354
1367.000000	0.429016
1368.000000	0.428512
1369.000000	0.428176
1370.000000	0.427663
1371.000000	0.427016
1372.000000	0.426508
1373.000000	0.425939
1374.000000	0.425392
1375.000000	0.424906
1376.000000	0.424443
1377.000000	0.423839
1378.000000	0.423051
1379.000000	0.422081
1380.000000	0.421072
1381.000000	0.419994
1382.000000	0.418933
1383.000000	0.418066
1384.000000	0.417017
1385.000000	0.415870
1386.000000	0.414660
1387.000000	0.413254
1388.000000	0.411734
1389.000000	0.410113
1390.000000	0.408554
1391.000000	0.406781
1392.000000	0.405018
1393.000000	0.403152
1394.000000	0.401261
1395.000000	0.399201
1396.000000	0.397054
1397.000000	0.394769
1398.000000	0.392228
1399.000000	0.389888
1400.000000	0.387568
1401.000000	0.385128
1402.000000	0.382692
1403.000000	0.380360
1404.000000	0.378049
1405.000000	0.375705
1406.000000	0.373503
1407.000000	0.371225
1408.000000	0.368814
1409.000000	0.366601
1410.000000	0.364530
1411.000000	0.362508
1412.000000	0.360466
1413.000000	0.358327
1414.000000	0.356155
1415.000000	0.353989
1416.000000	0.351889
1417.000000	0.349949
1418.000000	0.347906
1419.000000	0.345869
1420.000000	0.343877
1421.000000	0.342056
1422.000000	0.340407
1423.000000	0.338962
1424.000000	0.337407
1425.000000	0.335688
1426.000000	0.333899
1427.000000	0.332163
1428.000000	0.330524
1429.000000	0.328900
1430.000000	0.327463
1431.000000	0.326179
1432.000000	0.324789
1433.000000	0.323432
1434.000000	0.322148
1435.000000	0.320881
1436.000000	0.319648
1437.000000	0.318532
1438.000000	0.317383
1439.000000	0.316211
1440.000000	0.315213
1441.000000	0.314286
1442.000000	0.313439
1443.000000	0.312618
1444.000000	0.311983
1445.000000	0.311354
1446.000000	0.310872
1447.000000	0.310490
1448.000000	0.310010
1449.000000	0.309592
1450.000000	0.309200
1451.000000	0.308829
1452.000000	0.308426
1453.000000	0.307982
1454.000000	0.307590
1455.000000	0.307239
1456.000000	0.307099
1457.000000	0.307061
1458.000000	0.306889
1459.000000	0.306694
1460.000000	0.306407
1461.000000	0.306061
1462.000000	0.305879
1463.000000	0.305649
1464.000000	0.305473
1465.000000	0.305393
1466.000000	0.305238
1467.000000	0.305223
1468.000000	0.305191
1469.000000	0.305238
1470.000000	0.305305
1471.000000	0.305375
1472.000000	0.305512
1473.000000	0.305723
1474.000000	0.305966
1475.000000	0.306255
1476.000000	0.306664
1477.000000	0.307100
1478.000000	0.307544
1479.000000	0.308028
1480.000000	0.308562
1481.000000	0.309134
1482.000000	0.309759
1483.000000	0.310514
1484.000000	0.311448
1485.000000	0.312228
1486.000000	0.313016
1487.000000	0.313843
1488.000000	0.314583
1489.000000	0.315396
1490.000000	0.316213
1491.000000	0.317015
1492.000000	0.317809
1493.000000	0.318556
1494.000000	0.319230
1495.000000	0.319847
1496.000000	0.320309
1497.000000	0.320864
1498.000000	0.321395
1499.000000	0.322131
1500.000000	0.322939
1501.000000	0.323610
1502.000000	0.324289
1503.000000	0.325002
1504.000000	0.325603
1505.000000	0.326206
1506.000000	0.326719
1507.000000	0.327137
1508.000000	0.327635
1509.000000	0.328178
1510.000000	0.328792
1511.000000	0.329330
1512.000000	0.329695
1513.000000	0.330146
1514.000000	0.330594
1515.000000	0.330934
1516.000000	0.331418
1517.000000	0.331726
1518.000000	0.331916
1519.000000	0.332199
1520.000000	0.332450
1521.000000	0.332655
1522.000000	0.332976
1523.000000	0.333384
1524.000000	0.333681
1525.000000	0.333989
1526.000000	0.334334
1527.000000	0.334655
1528.000000	0.334963
1529.000000	0.335254
1530.000000	0.335427
1531.000000	0.335602
1532.000000	0.335891
1533.000000	0.336137
1534.000000	0.336429
1535.000000	0.336735
1536.000000	0.336791
1537.000000	0.336927
1538.000000	0.337148
1539.000000	0.337336
1540.000000	0.337679
1541.000000	0.338005
1542.000000	0.338189
1543.000000	0.338263
1544.000000	0.338213
1545.000000	0.338313
1546.000000	0.338464
1547.000000	0.338572
1548.000000	0.338688
1549.000000	0.338698
1550.000000	0.338717
1551.000000	0.338788
1552.000000	0.338902
1553.000000	0.338959
1554.000000	0.338946
1555.000000	0.338989
1556.000000	0.338989
1557.000000	0.338957
1558.000000	0.338988
1559.000000	0.338938
1560.000000	0.338942
1561.000000	0.339116
1562.000000	0.339121
1563.000000	0.339112
1564.000000	0.339121
1565.000000	0.339017
1566.000000	0.338930
1567.000000	0.338982
1568.000000	0.338969
1569.000000	0.338986
1570.000000	0.339029
1571.000000	0.339102
1572.000000	0.339134
1573.000000	0.339195
1574.000000	0.339187
1575.000000	0.339093
1576.000000	0.339085
1577.000000	0.339061
1578.000000	0.339048
1579.000000	0.339182
1580.000000	0.339208
1581.000000	0.339215
1582.000000	0.339315
1583.000000	0.339438
1584.000000	0.339475
1585.000000	0.339645
1586.000000	0.339757
1587.000000	0.339750
1588.000000	0.339806
1589.000000	0.339951
1590.000000	0.339998
1591.000000	0.340022
1592.000000	0.340085
1593.000000	0.340129
1594.000000	0.340188
1595.000000	0.340309
1596.000000	0.340414
1597.000000	0.340589
1598.000000	0.340698
1599.000000	0.340856
1600.000000	0.340880
1601.000000	0.340871
1602.000000	0.340888
1603.000000	0.340859
1604.000000	0.340841
1605.000000	0.340850
1606.000000	0.340912
1607.000000	0.341042
1608.000000	0.341176
1609.000000	0.341491
1610.000000	0.341613
1611.000000	0.341583
1612.000000	0.341721
1613.000000	0.341986
1614.000000	0.342203
1615.000000	0.342596
1616.000000	0.342886
1617.000000	0.343019
1618.000000	0.343256
1619.000000	0.343499
1620.000000	0.343742
1621.000000	0.344067
1622.000000	0.344372
1623.000000	0.344589
1624.000000	0.344896
1625.000000	0.345129
1626.000000	0.345290
1627.000000	0.345424
1628.000000	0.345726
1629.000000	0.346049
1630.000000	0.346397
1631.000000	0.346814
1632.000000	0.347139
1633.000000	0.347402
1634.000000	0.347722
1635.000000	0.348110
1636.000000	0.348480
1637.000000	0.348899
1638.000000	0.349196
1639.000000	0.349512
1640.000000	0.349819
1641.000000	0.350006
1642.000000	0.350420
1643.000000	0.351052
1644.000000	0.351568
1645.000000	0.352253
1646.000000	0.352584
1647.000000	0.352722
1648.000000	0.352889
1649.000000	0.352906
1650.000000	0.353241
1651.000000	0.353814
1652.000000	0.354253
1653.000000	0.354651
1654.000000	0.355178
1655.000000	0.355687
1656.000000	0.356053
1657.000000	0.356632
1658.000000	0.356979
1659.000000	0.357186
1660.000000	0.357486
1661.000000	0.357648
1662.000000	0.357931
1663.000000	0.358182
1664.000000	0.358555
1665.000000	0.359075
1666.000000	0.359529
1667.000000	0.359935
1668.000000	0.360303
1669.000000	0.360600
1670.000000	0.360879
1671.000000	0.361262
1672.000000	0.361598
1673.000000	0.361805
1674.000000	0.362333
1675.000000	0.362738
1676.000000	0.363171
1677.000000	0.363560
1678.000000	0.363576
1679.000000	0.363736
1680.000000	0.364031
1681.000000	0.364347
1682.000000	0.364677
1683.000000	0.365034
1684.000000	0.365484
1685.000000	0.365859
1686.000000	0.366219
1687.000000	0.366573
1688.000000	0.366644
1689.000000	0.366607
1690.000000	0.366684
1691.000000	0.367000
1692.000000	0.367160
1693.000000	0.367372
1694.000000	0.367670
1695.000000	0.367842
1696.000000	0.368011
1697.000000	0.368129
1698.000000	0.368129
1699.000000	0.368276
1700.000000	0.368582
1701.000000	0.368891
1702.000000	0.369046
1703.000000	0.369179
1704.000000	0.369336
1705.000000	0.369507
1706.000000	0.369780
1707.000000	0.369972
1708.000000	0.370079
1709.000000	0.370169
1710.000000	0.370321
1711.000000	0.370491
1712.000000	0.370723
1713.000000	0.370885
1714.000000	0.371008
1715.000000	0.371210
1716.000000	0.371404
1717.000000	0.371699
1718.000000	0.372148
1719.000000	0.372425
1720.000000	0.372773
1721.000000	0.372990
1722.000000	0.372981
1723.000000	0.373160
1724.000000	0.373442
1725.000000	0.373679
1726.000000	0.373878
1727.000000	0.374072
1728.000000	0.374083
1729.000000	0.374214
1730.000000	0.374614
1731.000000	0.374878
1732.000000	0.375180
1733.000000	0.375471
1734.000000	0.375453
1735.000000	0.375769
1736.000000	0.376258
1737.000000	0.376532
1738.000000	0.376931
1739.000000	0.377124
1740.000000	0.377014
1741.000000	0.377132
1742.000000	0.377336
1743.000000	0.377540
1744.000000	0.377778
1745.000000	0.377891
1746.000000	0.377937
1747.000000	0.378009
1748.000000	0.378065
1749.000000	0.378183
1750.000000	0.378281
1751.000000	0.378531
1752.000000	0.378838
1753.000000	0.379091
1754.000000	0.379242
1755.000000	0.379187
1756.000000	0.379253
1757.000000	0.379277
1758.000000	0.379405
1759.000000	0.379730
1760.000000	0.379906
1761.000000	0.379963
1762.000000	0.380049
1763.000000	0.380121
1764.000000	0.380175
1765.000000	0.380103
1766.000000	0.380260
1767.000000	0.380395
1768.000000	0.380569
1769.000000	0.381101
1770.000000	0.381455
1771.000000	0.381678
1772.000000	0.381883
1773.000000	0.381955
1774.000000	0.382117
1775.000000	0.382306
1776.000000	0.382576
1777.000000	0.383020
1778.000000	0.383075
1779.000000	0.382899
1780.000000	0.382991
1781.000000	0.382856
1782.000000	0.383019
1783.000000	0.383596
1784.000000	0.383967
1785.000000	0.384193
1786.000000	0.384291
1787.000000	0.384582
1788.000000	0.384890
1789.000000	0.385210
1790.000000	0.385570
1791.000000	0.385759
1792.000000	0.385671
1793.000000	0.385818
1794.000000	0.386190
1795.000000	0.386494
1796.000000	0.386858
1797.000000	0.387173
1798.000000	0.387359
1799.000000	0.387595
1800.000000	0.387943
1801.000000	0.387732
1802.000000	0.387871
1803.000000	0.387294
1804.000000	0.387719
1805.000000	0.388840
1806.000000	0.389227
1807.000000	0.390088
1808.000000	0.390282
1809.000000	0.389138
1810.000000	0.388723
1811.000000	0.389052
1812.000000	0.389888
1813.000000	0.390336
1814.000000	0.391877
1815.000000	0.392181
1816.000000	0.391305
1817.000000	0.390944
1818.000000	0.390644
1819.000000	0.390149
1820.000000	0.390299
1821.000000	0.390342
1822.000000	0.390393
1823.000000	0.390358
1824.000000	0.390549
1825.000000	0.390927
1826.000000	0.391180
1827.000000	0.391585
1828.000000	0.391651
1829.000000	0.391358
1830.000000	0.390489
1831.000000	0.389867
1832.000000	0.388761
1833.000000	0.388278
1834.000000	0.388011
1835.000000	0.387984
1836.000000	0.388662
1837.000000	0.388674
1838.000000	0.388616
1839.000000	0.387906
1840.000000	0.387158
1841.000000	0.386021
1842.000000	0.385297
1843.000000	0.384630
1844.000000	0.384384
1845.000000	0.384398
1846.000000	0.384319
1847.000000	0.384626
1848.000000	0.384232
1849.000000	0.383427
1850.000000	0.382493
1851.000000	0.381548
1852.000000	0.380136
1853.000000	0.378975
1854.000000	0.377862
1855.000000	0.376542
1856.000000	0.375024
1857.000000	0.373415
1858.000000	0.371595
1859.000000	0.369686
1860.000000	0.367872
1861.000000	0.366496
1862.000000	0.364454
1863.000000	0.362108
1864.000000	0.360040
1865.000000	0.357417
1866.000000	0.355295
1867.000000	0.353738
1868.000000	0.352313
1869.000000	0.350016
1870.000000	0.347708
1871.000000	0.344949
1872.000000	0.341272
1873.000000	0.337677
1874.000000	0.333828
1875.000000	0.329969
1876.000000	0.325444
1877.000000	0.321295
1878.000000	0.317467
1879.000000	0.312779
1880.000000	0.308302
1881.000000	0.303756
1882.000000	0.298834
1883.000000	0.293369
1884.000000	0.288120
1885.000000	0.282642
1886.000000	0.277121
1887.000000	0.271401
1888.000000	0.265792
1889.000000	0.259810
1890.000000	0.253988
1891.000000	0.248226
1892.000000	0.242230
1893.000000	0.236278
1894.000000	0.229526
1895.000000	0.223332
1896.000000	0.217266
1897.000000	0.211374
1898.000000	0.204832
1899.000000	0.199573
1900.000000	0.194243
1901.000000	0.188865
1902.000000	0.185019
1903.000000	0.180888
1904.000000	0.176330
1905.000000	0.172289
1906.000000	0.168266
1907.000000	0.164177
1908.000000	0.160699
1909.000000	0.157616
1910.000000	0.154509
1911.000000	0.151974
1912.000000	0.149880
1913.000000	0.148015
1914.000000	0.146030
1915.000000	0.144246
1916.000000	0.142476
1917.000000	0.140679
1918.000000	0.138851
1919.000000	0.137502
1920.000000	0.136166
1921.000000	0.134743
1922.000000	0.133410
1923.000000	0.132434
1924.000000	0.131355
1925.000000	0.130504
1926.000000	0.130371
1927.000000	0.130335
1928.000000	0.130208
1929.000000	0.130265
1930.000000	0.130518
1931.000000	0.130450
1932.000000	0.129837
1933.000000	0.129385
1934.000000	0.129011
1935.000000	0.129005
1936.000000	0.129155
1937.000000	0.129007
1938.000000	0.129436
1939.000000	0.129595
1940.000000	0.129345
1941.000000	0.129393
1942.000000	0.130143
1943.000000	0.130023
1944.000000	0.129684
1945.000000	0.129374
1946.000000	0.128962
1947.000000	0.128304
1948.000000	0.127659
1949.000000	0.127331
1950.000000	0.126831
1951.000000	0.126299
1952.000000	0.125755
1953.000000	0.125537
1954.000000	0.125429
1955.000000	0.125319
1956.000000	0.125281
1957.000000	0.124956
1958.000000	0.124616
1959.000000	0.124315
1960.000000	0.123602
1961.000000	0.123392
1962.000000	0.123227
1963.000000	0.123101
1964.000000	0.122874
1965.000000	0.122928
1966.000000	0.122227
1967.000000	0.121451
1968.000000	0.120835
1969.000000	0.120593
1970.000000	0.121128
1971.000000	0.121553
1972.000000	0.122101
1973.000000	0.122344
1974.000000	0.122191
1975.000000	0.122216
1976.000000	0.122381
1977.000000	0.122322
1978.000000	0.121856
1979.000000	0.122190
1980.000000	0.122837
1981.000000	0.123334
1982.000000	0.124032
1983.000000	0.124552
1984.000000	0.125237
1985.000000	0.125741
1986.000000	0.126572
1987.000000	0.127634
1988.000000	0.129211
1989.000000	0.130278
1990.000000	0.130851
1991.000000	0.131506
1992.000000	0.131706
1993.000000	0.132248
1994.000000	0.133036
1995.000000	0.133532
1996.000000	0.134436
1997.000000	0.135431
1998.000000	0.136625
1999.000000	0.137608
2000.000000	0.138766
2001.000000	0.139766
2002.000000	0.140545
2003.000000	0.141109
2004.000000	0.141900
2005.000000	0.142658
2006.000000	0.143357
2007.000000	0.144576
2008.000000	0.145620
2009.000000	0.146754
2010.000000	0.147982
2011.000000	0.148990
2012.000000	0.150124
2013.000000	0.151480
2014.000000	0.152566
2015.000000	0.153802
2016.000000	0.155363
2017.000000	0.156812
2018.000000	0.158462
2019.000000	0.159671
2020.000000	0.161116
2021.000000	0.162618
2022.000000	0.164159
2023.000000	0.165491
2024.000000	0.166789
2025.000000	0.168091
2026.000000	0.169243
2027.000000	0.170317
2028.000000	0.171381
2029.000000	0.172952
2030.000000	0.173868
2031.000000	0.174776
2032.000000	0.175899
2033.000000	0.176653
2034.000000	0.177717
2035.000000	0.179136
2036.000000	0.180261
2037.000000	0.181250
2038.000000	0.182771
2039.000000	0.184658
2040.000000	0.186203
2041.000000	0.188081
2042.000000	0.189706
2043.000000	0.190308
2044.000000	0.190912
2045.000000	0.191813
2046.000000	0.192494
2047.000000	0.193515
2048.000000	0.195144
2049.000000	0.196241
2050.000000	0.196821
2051.000000	0.197589
2052.000000	0.197836
2053.000000	0.198621
2054.000000	0.199797
2055.000000	0.201470
2056.000000	0.202777
2057.000000	0.204785
2058.000000	0.206316
2059.000000	0.207308
2060.000000	0.208118
2061.000000	0.208352
2062.000000	0.208835
2063.000000	0.208978
2064.000000	0.209653
2065.000000	0.210928
2066.000000	0.212215
2067.000000	0.213975
2068.000000	0.215635
2069.000000	0.217159
2070.000000	0.218505
2071.000000	0.219177
2072.000000	0.219702
2073.000000	0.220200
2074.000000	0.220426
2075.000000	0.221076
2076.000000	0.221823
2077.000000	0.222823
2078.000000	0.224223
2079.000000	0.225486
2080.000000	0.227222
2081.000000	0.228383
2082.000000	0.229284
2083.000000	0.230005
2084.000000	0.230508
2085.000000	0.231342
2086.000000	0.232571
2087.000000	0.234056
2088.000000	0.235786
2089.000000	0.237103
2090.000000	0.238318
2091.000000	0.239437
2092.000000	0.240495
2093.000000	0.241505
2094.000000	0.242273
2095.000000	0.242661
2096.000000	0.243419
2097.000000	0.243858
2098.000000	0.244647
2099.000000	0.246262
2100.000000	0.248413
2101.000000	0.250401
2102.000000	0.251767
2103.000000	0.253101
2104.000000	0.253628
2105.000000	0.254206
2106.000000	0.254503
2107.000000	0.255056
2108.000000	0.255375
2109.000000	0.256029
2110.000000	0.256711
2111.000000	0.257531
2112.000000	0.258491
2113.000000	0.259199
2114.000000	0.260417
2115.000000	0.261360
2116.000000	0.261818
2117.000000	0.262522
2118.000000	0.262809
2119.000000	0.263494
2120.000000	0.264304
2121.000000	0.265498
2122.000000	0.266243
2123.000000	0.266907
2124.000000	0.267539
2125.000000	0.268070
2126.000000	0.268504
2127.000000	0.268768
2128.000000	0.269428
2129.000000	0.270001
2130.000000	0.270859
2131.000000	0.271843
2132.000000	0.272081
2133.000000	0.272551
2134.000000	0.273138
2135.000000	0.273635
2136.000000	0.274848
2137.000000	0.275439
2138.000000	0.275786
2139.000000	0.275941
2140.000000	0.275596
2141.000000	0.275632
2142.000000	0.275756
2143.000000	0.275672
2144.000000	0.275546
2145.000000	0.275993
2146.000000	0.276849
2147.000000	0.277716
2148.000000	0.278069
2149.000000	0.279030
2150.000000	0.278811
2151.000000	0.277999
2152.000000	0.278693
2153.000000	0.278962
2154.000000	0.279234
2155.000000	0.279828
2156.000000	0.280100
2157.000000	0.280105
2158.000000	0.280169
2159.000000	0.280160
2160.000000	0.280711
2161.000000	0.281272
2162.000000	0.282045
2163.000000	0.284273
2164.000000	0.284405
2165.000000	0.283437
2166.000000	0.282066
2167.000000	0.280175
2168.000000	0.279108
2169.000000	0.278949
2170.000000	0.279372
2171.000000	0.279581
2172.000000	0.279691
2173.000000	0.279969
2174.000000	0.280597
2175.000000	0.281180
2176.000000	0.281889
2177.000000	0.282767
2178.000000	0.284075
2179.000000	0.284552
2180.000000	0.284857
2181.000000	0.285058
2182.000000	0.283477
2183.000000	0.283522
2184.000000	0.283687
2185.000000	0.282543
2186.000000	0.281633
2187.000000	0.280590
2188.000000	0.279847
2189.000000	0.278862
2190.000000	0.278534
2191.000000	0.278488
2192.000000	0.278484
2193.000000	0.278555
2194.000000	0.279151
2195.000000	0.280496
2196.000000	0.281466
2197.000000	0.282622
2198.000000	0.283547
2199.000000	0.285365
2200.000000	0.285300
2201.000000	0.283736
2202.000000	0.282710
2203.000000	0.279695
2204.000000	0.276540
2205.000000	0.279353
2206.000000	0.279547
2207.000000	0.280315
2208.000000	0.283026
2209.000000	0.280988
2210.000000	0.280981
2211.000000	0.283490
2212.000000	0.285234
2213.000000	0.285937
2214.000000	0.286891
2215.000000	0.287554
2216.000000	0.286274
2217.000000	0.285994
2218.000000	0.287068
2219.000000	0.286825
2220.000000	0.285744
2221.000000	0.285082
2222.000000	0.282921
2223.000000	0.282874
2224.000000	0.283714
2225.000000	0.285691
2226.000000	0.287104
2227.000000	0.289061
2228.000000	0.289320
2229.000000	0.287076
2230.000000	0.286692
2231.000000	0.286943
2232.000000	0.286365
2233.000000	0.287342
2234.000000	0.287074
2235.000000	0.286643
2236.000000	0.285914
2237.000000	0.284701
2238.000000	0.283434
2239.000000	0.280578
2240.000000	0.280852
2241.000000	0.284177
2242.000000	0.284902
2243.000000	0.285779
2244.000000	0.286341
2245.000000	0.284668
2246.000000	0.284168
2247.000000	0.285053
2248.000000	0.285782
2249.000000	0.287146
2250.000000	0.286444
2251.000000	0.285877
2252.000000	0.285404
2253.000000	0.284385
2254.000000	0.283503
2255.000000	0.283394
2256.000000	0.284169
2257.000000	0.285462
2258.000000	0.285178
2259.000000	0.283500
2260.000000	0.282495
2261.000000	0.281267
2262.000000	0.279477
2263.000000	0.278209
2264.000000	0.276977
2265.000000	0.276272
2266.000000	0.274598
2267.000000	0.274817
2268.000000	0.278146
2269.000000	0.278974
2270.000000	0.279922
2271.000000	0.279536
2272.000000	0.276534
2273.000000	0.274319
2274.000000	0.272425
2275.000000	0.270323
2276.000000	0.267363
2277.000000	0.266071
2278.000000	0.264055
2279.000000	0.262235
2280.000000	0.261832
2281.000000	0.260921
2282.000000	0.261126
2283.000000	0.259445
2284.000000	0.256539
2285.000000	0.255598
2286.000000	0.254417
2287.000000	0.252911
2288.000000	0.251575
2289.000000	0.250591
2290.000000	0.249574
2291.000000	0.249765
2292.000000	0.252415
2293.000000	0.252989
2294.000000	0.251645
2295.000000	0.248246
2296.000000	0.245814
2297.000000	0.240815
2298.000000	0.238671
2299.000000	0.239018
2300.000000	0.238239
2301.000000	0.237418
2302.000000	0.237410
2303.000000	0.238356
2304.000000	0.237427
2305.000000	0.235862
2306.000000	0.234778
2307.000000	0.232236
2308.000000	0.230627
2309.000000	0.231610
2310.000000	0.234435
2311.000000	0.236646
2312.000000	0.236670
2313.000000	0.237772
2314.000000	0.236535
2315.000000	0.234056
2316.000000	0.234225
2317.000000	0.233383
2318.000000	0.234010
2319.000000	0.233851
2320.000000	0.231764
2321.000000	0.229292
2322.000000	0.223642
2323.000000	0.220972
2324.000000	0.220857
2325.000000	0.218454
2326.000000	0.216695
2327.000000	0.215916
2328.000000	0.215371
2329.000000	0.216460
2330.000000	0.219016
2331.000000	0.219236
2332.000000	0.217455
2333.000000	0.216158
2334.000000	0.214726
2335.000000	0.213950
2336.000000	0.214180
2337.000000	0.212861
2338.000000	0.210066
2339.000000	0.208448
2340.000000	0.207370
2341.000000	0.205529
2342.000000	0.204010
2343.000000	0.202994
2344.000000	0.199868
2345.000000	0.198592
2346.000000	0.201109
2347.000000	0.199170
2348.000000	0.195252
2349.000000	0.193448
2350.000000	0.186663
2351.000000	0.182232
2352.000000	0.184129
2353.000000	0.184059
2354.000000	0.184298
2355.000000	0.186606
2356.000000	0.184609
2357.000000	0.183504
2358.000000	0.185422
2359.000000	0.183700
2360.000000	0.181782
2361.000000	0.179925
2362.000000	0.177382
2363.000000	0.176841
2364.000000	0.176502
2365.000000	0.175970
2366.000000	0.174027
2367.000000	0.170077
2368.000000	0.169089
2369.000000	0.171759
2370.000000	0.172319
2371.000000	0.172604
2372.000000	0.174637
2373.000000	0.168828
2374.000000	0.160288
2375.000000	0.158533
2376.000000	0.155206
2377.000000	0.152845
2378.000000	0.152379
2379.000000	0.147150
2380.000000	0.142583
2381.000000	0.140839
2382.000000	0.140406
2383.000000	0.144319
2384.000000	0.147330
2385.000000	0.145160
2386.000000	0.144786
2387.000000	0.145627
2388.000000	0.143352
2389.000000	0.141190
2390.000000	0.139378
2391.000000	0.134372
2392.000000	0.127183
2393.000000	0.128497
2394.000000	0.134940
2395.000000	0.137683
2396.000000	0.143922
2397.000000	0.146561
2398.000000	0.142482
2399.000000	0.139214
2400.000000	0.139227
2401.000000	0.139910
2402.000000	0.145770
2403.000000	0.152986
2404.000000	0.152030
2405.000000	0.148128
2406.000000	0.142197
2407.000000	0.138079
2408.000000	0.132080
2409.000000	0.131674
2410.000000	0.129351
2411.000000	0.114610
2412.000000	0.110799
2413.000000	0.111720
2414.000000	0.112883
2415.000000	0.116363
2416.000000	0.116619
2417.000000	0.117392
2418.000000	0.116115
2419.000000	0.120268
2420.000000	0.125632
2421.000000	0.126535
2422.000000	0.125704
2423.000000	0.120656
2424.000000	0.116763
2425.000000	0.111853
2426.000000	0.111210
2427.000000	0.115080
2428.000000	0.115965
2429.000000	0.116819
2430.000000	0.118414
2431.000000	0.123138
2432.000000	0.125249
2433.000000	0.127012
2434.000000	0.136457
2435.000000	0.144289
2436.000000	0.143053
2437.000000	0.145615
2438.000000	0.149578
2439.000000	0.139065
2440.000000	0.133044
2441.000000	0.136971
2442.000000	0.124870
2443.000000	0.101944
2444.000000	0.092927
2445.000000	0.079622
2446.000000	0.069182
2447.000000	0.086151
2448.000000	0.091259
2449.000000	0.096896
2450.000000	0.108650
2451.000000	0.098423
2452.000000	0.104774
2453.000000	0.111995
2454.000000	0.112685
2455.000000	0.122034
2456.000000	0.123486
2457.000000	0.124939
2458.000000	0.116156
2459.000000	0.105506
2460.000000	0.105575
2461.000000	0.108137
2462.000000	0.111020
2463.000000	0.115498
2464.000000	0.111877
2465.000000	0.108197
2466.000000	0.118184
2467.000000	0.117593
2468.000000	0.114514
2469.000000	0.110615
2470.000000	0.080263
2471.000000	0.058474
2472.000000	0.058199
2473.000000	0.056452
2474.000000	0.071375
2475.000000	0.096053
2476.000000	0.118854
2477.000000	0.131684
2478.000000	0.129254
2479.000000	0.132756
2480.000000	0.128863
2481.000000	0.116806
2482.000000	0.111503
2483.000000	0.076428
2484.000000	0.036836
2485.000000	0.046397
2486.000000	0.067011
2487.000000	0.115612
2488.000000	0.158521
2489.000000	0.145974
2490.000000	0.115609
2491.000000	0.095042
2492.000000	0.082531
2493.000000	0.087877
2494.000000	0.092587
2495.000000	0.099031
2496.000000	0.096119
2497.000000	0.090031
2498.000000	0.074628
2499.000000	0.060054
2500.000000	0.014276
