# Wavelength	NAu-2-10_HEX-60_FV7-30_00001.asd.rts.txt
350.000000	0.211012
351.000000	0.218131
352.000000	0.197867
353.000000	0.185703
354.000000	0.197274
355.000000	0.199335
356.000000	0.194657
357.000000	0.192245
358.000000	0.204397
359.000000	0.202048
360.000000	0.191388
361.000000	0.186736
362.000000	0.196182
363.000000	0.201585
364.000000	0.195334
365.000000	0.200100
366.000000	0.201588
367.000000	0.197376
368.000000	0.194991
369.000000	0.193229
370.000000	0.194665
371.000000	0.200774
372.000000	0.197799
373.000000	0.194764
374.000000	0.198236
375.000000	0.202064
376.000000	0.200867
377.000000	0.197976
378.000000	0.206138
379.000000	0.206265
380.000000	0.200478
381.000000	0.198125
382.000000	0.200802
383.000000	0.203743
384.000000	0.204188
385.000000	0.206151
386.000000	0.208846
387.000000	0.210672
388.000000	0.208353
389.000000	0.207431
390.000000	0.207731
391.000000	0.207003
392.000000	0.206786
393.000000	0.206922
394.000000	0.207193
395.000000	0.208121
396.000000	0.208622
397.000000	0.208273
398.000000	0.207367
399.000000	0.207168
400.000000	0.208200
401.000000	0.210318
402.000000	0.209768
403.000000	0.208948
404.000000	0.210319
405.000000	0.211524
406.000000	0.212329
407.000000	0.212624
408.000000	0.211934
409.000000	0.211832
410.000000	0.212332
411.000000	0.212510
412.000000	0.212016
413.000000	0.211954
414.000000	0.213258
415.000000	0.213892
416.000000	0.213809
417.000000	0.213559
418.000000	0.214768
419.000000	0.215549
420.000000	0.215603
421.000000	0.215896
422.000000	0.216113
423.000000	0.216416
424.000000	0.217058
425.000000	0.217135
426.000000	0.217305
427.000000	0.217890
428.000000	0.217560
429.000000	0.217531
430.000000	0.218148
431.000000	0.218656
432.000000	0.219021
433.000000	0.219371
434.000000	0.219993
435.000000	0.219918
436.000000	0.219728
437.000000	0.220096
438.000000	0.220882
439.000000	0.220982
440.000000	0.220396
441.000000	0.221055
442.000000	0.221732
443.000000	0.221875
444.000000	0.221431
445.000000	0.221595
446.000000	0.222261
447.000000	0.222776
448.000000	0.223071
449.000000	0.223177
450.000000	0.223314
451.000000	0.224204
452.000000	0.224927
453.000000	0.225176
454.000000	0.225519
455.000000	0.225450
456.000000	0.225207
457.000000	0.225188
458.000000	0.225868
459.000000	0.226585
460.000000	0.226829
461.000000	0.227359
462.000000	0.227757
463.000000	0.227820
464.000000	0.228284
465.000000	0.228658
466.000000	0.228881
467.000000	0.229262
468.000000	0.229309
469.000000	0.229325
470.000000	0.229846
471.000000	0.230272
472.000000	0.230600
473.000000	0.230829
474.000000	0.230604
475.000000	0.230687
476.000000	0.231253
477.000000	0.231538
478.000000	0.231640
479.000000	0.231892
480.000000	0.232381
481.000000	0.232375
482.000000	0.232512
483.000000	0.233150
484.000000	0.233672
485.000000	0.233910
486.000000	0.234031
487.000000	0.234204
488.000000	0.234433
489.000000	0.234733
490.000000	0.235093
491.000000	0.235278
492.000000	0.235388
493.000000	0.235497
494.000000	0.235788
495.000000	0.236006
496.000000	0.236032
497.000000	0.236444
498.000000	0.236838
499.000000	0.237126
500.000000	0.237410
501.000000	0.237574
502.000000	0.237774
503.000000	0.238186
504.000000	0.238463
505.000000	0.238678
506.000000	0.238932
507.000000	0.238968
508.000000	0.239168
509.000000	0.239614
510.000000	0.239846
511.000000	0.240141
512.000000	0.240524
513.000000	0.240785
514.000000	0.241077
515.000000	0.241491
516.000000	0.241997
517.000000	0.242286
518.000000	0.242563
519.000000	0.242933
520.000000	0.243327
521.000000	0.243668
522.000000	0.243982
523.000000	0.244454
524.000000	0.244877
525.000000	0.245272
526.000000	0.245815
527.000000	0.246322
528.000000	0.246811
529.000000	0.247380
530.000000	0.247944
531.000000	0.248625
532.000000	0.249382
533.000000	0.250083
534.000000	0.250672
535.000000	0.251200
536.000000	0.251885
537.000000	0.252540
538.000000	0.253128
539.000000	0.253658
540.000000	0.254285
541.000000	0.254861
542.000000	0.255317
543.000000	0.255936
544.000000	0.256567
545.000000	0.257086
546.000000	0.257666
547.000000	0.258281
548.000000	0.258931
549.000000	0.259536
550.000000	0.260071
551.000000	0.260654
552.000000	0.261364
553.000000	0.262030
554.000000	0.262768
555.000000	0.263631
556.000000	0.264362
557.000000	0.265094
558.000000	0.265982
559.000000	0.266890
560.000000	0.267683
561.000000	0.268452
562.000000	0.269260
563.000000	0.270048
564.000000	0.270873
565.000000	0.271690
566.000000	0.272478
567.000000	0.273191
568.000000	0.273800
569.000000	0.274384
570.000000	0.275010
571.000000	0.275649
572.000000	0.276202
573.000000	0.276695
574.000000	0.277129
575.000000	0.277557
576.000000	0.277923
577.000000	0.278244
578.000000	0.278610
579.000000	0.279021
580.000000	0.279353
581.000000	0.279595
582.000000	0.279952
583.000000	0.280173
584.000000	0.280314
585.000000	0.280595
586.000000	0.280799
587.000000	0.280908
588.000000	0.280979
589.000000	0.281176
590.000000	0.281302
591.000000	0.281277
592.000000	0.281369
593.000000	0.281472
594.000000	0.281532
595.000000	0.281538
596.000000	0.281557
597.000000	0.281608
598.000000	0.281592
599.000000	0.281510
600.000000	0.281445
601.000000	0.281392
602.000000	0.281350
603.000000	0.281275
604.000000	0.281163
605.000000	0.281043
606.000000	0.280952
607.000000	0.280904
608.000000	0.280886
609.000000	0.280899
610.000000	0.280862
611.000000	0.280712
612.000000	0.280627
613.000000	0.280594
614.000000	0.280594
615.000000	0.280487
616.000000	0.280408
617.000000	0.280342
618.000000	0.280224
619.000000	0.280175
620.000000	0.280148
621.000000	0.280093
622.000000	0.280078
623.000000	0.280022
624.000000	0.279879
625.000000	0.279819
626.000000	0.279815
627.000000	0.279828
628.000000	0.279801
629.000000	0.279805
630.000000	0.279791
631.000000	0.279910
632.000000	0.279878
633.000000	0.279837
634.000000	0.279940
635.000000	0.279951
636.000000	0.279976
637.000000	0.280055
638.000000	0.280096
639.000000	0.280159
640.000000	0.280284
641.000000	0.280341
642.000000	0.280424
643.000000	0.280550
644.000000	0.280707
645.000000	0.280834
646.000000	0.280975
647.000000	0.281143
648.000000	0.281315
649.000000	0.281511
650.000000	0.281728
651.000000	0.282003
652.000000	0.282174
653.000000	0.282299
654.000000	0.282461
655.000000	0.282745
656.000000	0.283067
657.000000	0.283290
658.000000	0.283513
659.000000	0.283779
660.000000	0.284073
661.000000	0.284313
662.000000	0.284529
663.000000	0.284831
664.000000	0.285275
665.000000	0.285610
666.000000	0.285923
667.000000	0.286320
668.000000	0.286711
669.000000	0.287043
670.000000	0.287328
671.000000	0.287695
672.000000	0.288108
673.000000	0.288545
674.000000	0.289001
675.000000	0.289420
676.000000	0.289810
677.000000	0.290217
678.000000	0.290633
679.000000	0.291064
680.000000	0.291519
681.000000	0.291971
682.000000	0.292468
683.000000	0.292956
684.000000	0.293498
685.000000	0.294030
686.000000	0.294591
687.000000	0.295194
688.000000	0.295785
689.000000	0.296365
690.000000	0.296977
691.000000	0.297618
692.000000	0.298223
693.000000	0.298848
694.000000	0.299531
695.000000	0.300162
696.000000	0.300757
697.000000	0.301385
698.000000	0.302031
699.000000	0.302675
700.000000	0.303325
701.000000	0.304069
702.000000	0.304794
703.000000	0.305455
704.000000	0.306151
705.000000	0.306890
706.000000	0.307596
707.000000	0.308257
708.000000	0.308945
709.000000	0.309628
710.000000	0.310307
711.000000	0.311059
712.000000	0.311824
713.000000	0.312576
714.000000	0.313269
715.000000	0.313981
716.000000	0.314741
717.000000	0.315525
718.000000	0.316218
719.000000	0.316857
720.000000	0.317520
721.000000	0.318266
722.000000	0.318982
723.000000	0.319692
724.000000	0.320423
725.000000	0.321099
726.000000	0.321790
727.000000	0.322462
728.000000	0.323220
729.000000	0.323942
730.000000	0.324495
731.000000	0.325113
732.000000	0.325765
733.000000	0.326450
734.000000	0.327085
735.000000	0.327637
736.000000	0.328235
737.000000	0.328801
738.000000	0.329329
739.000000	0.329910
740.000000	0.330430
741.000000	0.330978
742.000000	0.331524
743.000000	0.332009
744.000000	0.332443
745.000000	0.332830
746.000000	0.333240
747.000000	0.333654
748.000000	0.334081
749.000000	0.334579
750.000000	0.335112
751.000000	0.335539
752.000000	0.335993
753.000000	0.336479
754.000000	0.336867
755.000000	0.337259
756.000000	0.337648
757.000000	0.337951
758.000000	0.338216
759.000000	0.338502
760.000000	0.338780
761.000000	0.339147
762.000000	0.339483
763.000000	0.339760
764.000000	0.340092
765.000000	0.340339
766.000000	0.340564
767.000000	0.340835
768.000000	0.341110
769.000000	0.341319
770.000000	0.341487
771.000000	0.341765
772.000000	0.342064
773.000000	0.342273
774.000000	0.342432
775.000000	0.342649
776.000000	0.342822
777.000000	0.342889
778.000000	0.343089
779.000000	0.343325
780.000000	0.343542
781.000000	0.343689
782.000000	0.343728
783.000000	0.343810
784.000000	0.343912
785.000000	0.344015
786.000000	0.344146
787.000000	0.344299
788.000000	0.344415
789.000000	0.344546
790.000000	0.344654
791.000000	0.344714
792.000000	0.344770
793.000000	0.344803
794.000000	0.344821
795.000000	0.344915
796.000000	0.345017
797.000000	0.345086
798.000000	0.345117
799.000000	0.345200
800.000000	0.345276
801.000000	0.345271
802.000000	0.345306
803.000000	0.345401
804.000000	0.345558
805.000000	0.345609
806.000000	0.345627
807.000000	0.345691
808.000000	0.345712
809.000000	0.345611
810.000000	0.345525
811.000000	0.345529
812.000000	0.345495
813.000000	0.345437
814.000000	0.345382
815.000000	0.345392
816.000000	0.345426
817.000000	0.345485
818.000000	0.345481
819.000000	0.345480
820.000000	0.345555
821.000000	0.345628
822.000000	0.345580
823.000000	0.345497
824.000000	0.345401
825.000000	0.345412
826.000000	0.345359
827.000000	0.345287
828.000000	0.345291
829.000000	0.345375
830.000000	0.345363
831.000000	0.345285
832.000000	0.345108
833.000000	0.345000
834.000000	0.344964
835.000000	0.344976
836.000000	0.344871
837.000000	0.344789
838.000000	0.344745
839.000000	0.344614
840.000000	0.344548
841.000000	0.344583
842.000000	0.344627
843.000000	0.344443
844.000000	0.344371
845.000000	0.344427
846.000000	0.344355
847.000000	0.344394
848.000000	0.344396
849.000000	0.344222
850.000000	0.344072
851.000000	0.344019
852.000000	0.344051
853.000000	0.343920
854.000000	0.343798
855.000000	0.343756
856.000000	0.343624
857.000000	0.343451
858.000000	0.343359
859.000000	0.343283
860.000000	0.343110
861.000000	0.342986
862.000000	0.342868
863.000000	0.342600
864.000000	0.342468
865.000000	0.342359
866.000000	0.342244
867.000000	0.342234
868.000000	0.342167
869.000000	0.341987
870.000000	0.341815
871.000000	0.341605
872.000000	0.341458
873.000000	0.341345
874.000000	0.341205
875.000000	0.341013
876.000000	0.340798
877.000000	0.340552
878.000000	0.340381
879.000000	0.340243
880.000000	0.339990
881.000000	0.339857
882.000000	0.339740
883.000000	0.339618
884.000000	0.339423
885.000000	0.339191
886.000000	0.338941
887.000000	0.338715
888.000000	0.338507
889.000000	0.338335
890.000000	0.338146
891.000000	0.338087
892.000000	0.337869
893.000000	0.337642
894.000000	0.337562
895.000000	0.337295
896.000000	0.336942
897.000000	0.336644
898.000000	0.336519
899.000000	0.336409
900.000000	0.336211
901.000000	0.335894
902.000000	0.335665
903.000000	0.335539
904.000000	0.335400
905.000000	0.335062
906.000000	0.334963
907.000000	0.334788
908.000000	0.334525
909.000000	0.334315
910.000000	0.334201
911.000000	0.334118
912.000000	0.333988
913.000000	0.333734
914.000000	0.333419
915.000000	0.333160
916.000000	0.332922
917.000000	0.332598
918.000000	0.332304
919.000000	0.332108
920.000000	0.331963
921.000000	0.331801
922.000000	0.331595
923.000000	0.331325
924.000000	0.331094
925.000000	0.330863
926.000000	0.330597
927.000000	0.330153
928.000000	0.329864
929.000000	0.329655
930.000000	0.329355
931.000000	0.329068
932.000000	0.328789
933.000000	0.328607
934.000000	0.328587
935.000000	0.328294
936.000000	0.328000
937.000000	0.327858
938.000000	0.327589
939.000000	0.327358
940.000000	0.327148
941.000000	0.326994
942.000000	0.326724
943.000000	0.326417
944.000000	0.326076
945.000000	0.325984
946.000000	0.325798
947.000000	0.325665
948.000000	0.325674
949.000000	0.325236
950.000000	0.324991
951.000000	0.324906
952.000000	0.324431
953.000000	0.324209
954.000000	0.324008
955.000000	0.323548
956.000000	0.323164
957.000000	0.322982
958.000000	0.322854
959.000000	0.322668
960.000000	0.322496
961.000000	0.322426
962.000000	0.322342
963.000000	0.321973
964.000000	0.321659
965.000000	0.321444
966.000000	0.321148
967.000000	0.320701
968.000000	0.320384
969.000000	0.320294
970.000000	0.320458
971.000000	0.320193
972.000000	0.319828
973.000000	0.319533
974.000000	0.319367
975.000000	0.319149
976.000000	0.318983
977.000000	0.318875
978.000000	0.318351
979.000000	0.318201
980.000000	0.318140
981.000000	0.317967
982.000000	0.317773
983.000000	0.317475
984.000000	0.317173
985.000000	0.317002
986.000000	0.317018
987.000000	0.317114
988.000000	0.316971
989.000000	0.316318
990.000000	0.315864
991.000000	0.315762
992.000000	0.315926
993.000000	0.316036
994.000000	0.315934
995.000000	0.315804
996.000000	0.315627
997.000000	0.315233
998.000000	0.315127
999.000000	0.315351
1000.000000	0.314919
1001.000000	0.315633
1002.000000	0.315168
1003.000000	0.314597
1004.000000	0.314290
1005.000000	0.313786
1006.000000	0.313514
1007.000000	0.313373
1008.000000	0.313983
1009.000000	0.314495
1010.000000	0.314301
1011.000000	0.314815
1012.000000	0.314950
1013.000000	0.313575
1014.000000	0.312729
1015.000000	0.312299
1016.000000	0.311655
1017.000000	0.312009
1018.000000	0.312795
1019.000000	0.313361
1020.000000	0.314445
1021.000000	0.314493
1022.000000	0.314115
1023.000000	0.314109
1024.000000	0.313714
1025.000000	0.313144
1026.000000	0.313002
1027.000000	0.313037
1028.000000	0.313319
1029.000000	0.313620
1030.000000	0.313672
1031.000000	0.313939
1032.000000	0.314023
1033.000000	0.313956
1034.000000	0.313938
1035.000000	0.313918
1036.000000	0.314026
1037.000000	0.314352
1038.000000	0.314264
1039.000000	0.314124
1040.000000	0.314147
1041.000000	0.314034
1042.000000	0.313910
1043.000000	0.314319
1044.000000	0.314679
1045.000000	0.314614
1046.000000	0.314644
1047.000000	0.314956
1048.000000	0.315429
1049.000000	0.315432
1050.000000	0.315534
1051.000000	0.315567
1052.000000	0.314834
1053.000000	0.314780
1054.000000	0.315530
1055.000000	0.315894
1056.000000	0.316133
1057.000000	0.316751
1058.000000	0.317099
1059.000000	0.317249
1060.000000	0.317496
1061.000000	0.317552
1062.000000	0.317469
1063.000000	0.317216
1064.000000	0.317386
1065.000000	0.317696
1066.000000	0.317971
1067.000000	0.318590
1068.000000	0.318873
1069.000000	0.318833
1070.000000	0.318929
1071.000000	0.319011
1072.000000	0.319137
1073.000000	0.319343
1074.000000	0.319667
1075.000000	0.319569
1076.000000	0.319690
1077.000000	0.320065
1078.000000	0.319916
1079.000000	0.319902
1080.000000	0.319954
1081.000000	0.320219
1082.000000	0.320506
1083.000000	0.320826
1084.000000	0.321562
1085.000000	0.322012
1086.000000	0.322264
1087.000000	0.322521
1088.000000	0.322522
1089.000000	0.322739
1090.000000	0.323072
1091.000000	0.323205
1092.000000	0.323153
1093.000000	0.323586
1094.000000	0.323805
1095.000000	0.323658
1096.000000	0.323955
1097.000000	0.324702
1098.000000	0.324966
1099.000000	0.325105
1100.000000	0.325215
1101.000000	0.325066
1102.000000	0.324973
1103.000000	0.324558
1104.000000	0.324711
1105.000000	0.325196
1106.000000	0.325530
1107.000000	0.326288
1108.000000	0.326702
1109.000000	0.326942
1110.000000	0.326826
1111.000000	0.327134
1112.000000	0.327645
1113.000000	0.327813
1114.000000	0.327949
1115.000000	0.328155
1116.000000	0.328188
1117.000000	0.328247
1118.000000	0.328376
1119.000000	0.328535
1120.000000	0.328578
1121.000000	0.328698
1122.000000	0.329181
1123.000000	0.329594
1124.000000	0.329690
1125.000000	0.329817
1126.000000	0.329842
1127.000000	0.329837
1128.000000	0.329790
1129.000000	0.329712
1130.000000	0.329683
1131.000000	0.329623
1132.000000	0.329655
1133.000000	0.329791
1134.000000	0.329921
1135.000000	0.330077
1136.000000	0.330185
1137.000000	0.330298
1138.000000	0.330325
1139.000000	0.330334
1140.000000	0.330479
1141.000000	0.330545
1142.000000	0.330707
1143.000000	0.331009
1144.000000	0.331290
1145.000000	0.331397
1146.000000	0.331447
1147.000000	0.331487
1148.000000	0.331346
1149.000000	0.331324
1150.000000	0.331316
1151.000000	0.331401
1152.000000	0.331561
1153.000000	0.331557
1154.000000	0.331411
1155.000000	0.331421
1156.000000	0.331412
1157.000000	0.331417
1158.000000	0.331555
1159.000000	0.331600
1160.000000	0.331558
1161.000000	0.331453
1162.000000	0.331362
1163.000000	0.331334
1164.000000	0.331307
1165.000000	0.331280
1166.000000	0.331358
1167.000000	0.331617
1168.000000	0.331571
1169.000000	0.331450
1170.000000	0.331374
1171.000000	0.331094
1172.000000	0.331167
1173.000000	0.331435
1174.000000	0.331579
1175.000000	0.331851
1176.000000	0.331972
1177.000000	0.332065
1178.000000	0.332121
1179.000000	0.332099
1180.000000	0.332055
1181.000000	0.332080
1182.000000	0.332021
1183.000000	0.331954
1184.000000	0.331994
1185.000000	0.331985
1186.000000	0.331895
1187.000000	0.331952
1188.000000	0.332138
1189.000000	0.332158
1190.000000	0.332258
1191.000000	0.332211
1192.000000	0.332084
1193.000000	0.332141
1194.000000	0.332108
1195.000000	0.332087
1196.000000	0.332010
1197.000000	0.332004
1198.000000	0.332112
1199.000000	0.332140
1200.000000	0.332194
1201.000000	0.332167
1202.000000	0.332160
1203.000000	0.332142
1204.000000	0.332191
1205.000000	0.332391
1206.000000	0.332444
1207.000000	0.332573
1208.000000	0.332476
1209.000000	0.332284
1210.000000	0.332228
1211.000000	0.332131
1212.000000	0.332022
1213.000000	0.331941
1214.000000	0.332008
1215.000000	0.332183
1216.000000	0.332182
1217.000000	0.332186
1218.000000	0.332190
1219.000000	0.332068
1220.000000	0.331935
1221.000000	0.332051
1222.000000	0.332222
1223.000000	0.332183
1224.000000	0.332111
1225.000000	0.332165
1226.000000	0.332240
1227.000000	0.332252
1228.000000	0.332382
1229.000000	0.332436
1230.000000	0.332436
1231.000000	0.332293
1232.000000	0.332168
1233.000000	0.332195
1234.000000	0.332050
1235.000000	0.332099
1236.000000	0.332402
1237.000000	0.332533
1238.000000	0.332538
1239.000000	0.332577
1240.000000	0.332545
1241.000000	0.332563
1242.000000	0.332766
1243.000000	0.332874
1244.000000	0.332907
1245.000000	0.332993
1246.000000	0.332897
1247.000000	0.332933
1248.000000	0.333044
1249.000000	0.333100
1250.000000	0.333146
1251.000000	0.333101
1252.000000	0.333137
1253.000000	0.333265
1254.000000	0.333262
1255.000000	0.333233
1256.000000	0.333214
1257.000000	0.333061
1258.000000	0.333134
1259.000000	0.333354
1260.000000	0.333450
1261.000000	0.333543
1262.000000	0.333505
1263.000000	0.333237
1264.000000	0.333187
1265.000000	0.333400
1266.000000	0.333486
1267.000000	0.333601
1268.000000	0.333705
1269.000000	0.333533
1270.000000	0.333589
1271.000000	0.333684
1272.000000	0.333667
1273.000000	0.333810
1274.000000	0.333885
1275.000000	0.333884
1276.000000	0.333941
1277.000000	0.333993
1278.000000	0.333762
1279.000000	0.333767
1280.000000	0.333910
1281.000000	0.333849
1282.000000	0.333792
1283.000000	0.333851
1284.000000	0.333785
1285.000000	0.333782
1286.000000	0.333881
1287.000000	0.333921
1288.000000	0.333944
1289.000000	0.333937
1290.000000	0.333889
1291.000000	0.333888
1292.000000	0.333907
1293.000000	0.333942
1294.000000	0.333998
1295.000000	0.334057
1296.000000	0.334190
1297.000000	0.334189
1298.000000	0.334112
1299.000000	0.334133
1300.000000	0.334052
1301.000000	0.333956
1302.000000	0.333880
1303.000000	0.334009
1304.000000	0.333985
1305.000000	0.334029
1306.000000	0.333996
1307.000000	0.333957
1308.000000	0.333951
1309.000000	0.333880
1310.000000	0.333850
1311.000000	0.333925
1312.000000	0.333879
1313.000000	0.333706
1314.000000	0.333549
1315.000000	0.333417
1316.000000	0.333398
1317.000000	0.333454
1318.000000	0.333542
1319.000000	0.333537
1320.000000	0.333482
1321.000000	0.333406
1322.000000	0.333337
1323.000000	0.333223
1324.000000	0.332905
1325.000000	0.332479
1326.000000	0.332263
1327.000000	0.332073
1328.000000	0.332012
1329.000000	0.331949
1330.000000	0.332044
1331.000000	0.332024
1332.000000	0.332099
1333.000000	0.331957
1334.000000	0.331670
1335.000000	0.331639
1336.000000	0.331577
1337.000000	0.331509
1338.000000	0.331562
1339.000000	0.331607
1340.000000	0.331410
1341.000000	0.331236
1342.000000	0.331157
1343.000000	0.331001
1344.000000	0.330689
1345.000000	0.330408
1346.000000	0.330306
1347.000000	0.330053
1348.000000	0.329862
1349.000000	0.329727
1350.000000	0.329625
1351.000000	0.329495
1352.000000	0.329374
1353.000000	0.329250
1354.000000	0.328956
1355.000000	0.328617
1356.000000	0.328534
1357.000000	0.328511
1358.000000	0.328460
1359.000000	0.328330
1360.000000	0.328196
1361.000000	0.327985
1362.000000	0.327765
1363.000000	0.327520
1364.000000	0.327371
1365.000000	0.327201
1366.000000	0.327009
1367.000000	0.326825
1368.000000	0.326736
1369.000000	0.326608
1370.000000	0.326222
1371.000000	0.325959
1372.000000	0.325707
1373.000000	0.325499
1374.000000	0.325514
1375.000000	0.325322
1376.000000	0.325065
1377.000000	0.324847
1378.000000	0.324429
1379.000000	0.324054
1380.000000	0.323800
1381.000000	0.323358
1382.000000	0.322902
1383.000000	0.322493
1384.000000	0.321933
1385.000000	0.321403
1386.000000	0.320887
1387.000000	0.320391
1388.000000	0.319924
1389.000000	0.319317
1390.000000	0.318731
1391.000000	0.318129
1392.000000	0.317557
1393.000000	0.316937
1394.000000	0.316450
1395.000000	0.315743
1396.000000	0.314867
1397.000000	0.313964
1398.000000	0.312908
1399.000000	0.311928
1400.000000	0.310924
1401.000000	0.309950
1402.000000	0.309052
1403.000000	0.308066
1404.000000	0.307165
1405.000000	0.306300
1406.000000	0.305237
1407.000000	0.304146
1408.000000	0.303085
1409.000000	0.302032
1410.000000	0.301161
1411.000000	0.300265
1412.000000	0.299251
1413.000000	0.298279
1414.000000	0.297188
1415.000000	0.296197
1416.000000	0.295230
1417.000000	0.294122
1418.000000	0.293116
1419.000000	0.292162
1420.000000	0.291098
1421.000000	0.290252
1422.000000	0.289447
1423.000000	0.288577
1424.000000	0.287728
1425.000000	0.286939
1426.000000	0.286047
1427.000000	0.285153
1428.000000	0.284352
1429.000000	0.283564
1430.000000	0.282771
1431.000000	0.282118
1432.000000	0.281378
1433.000000	0.280578
1434.000000	0.279862
1435.000000	0.279269
1436.000000	0.278555
1437.000000	0.277838
1438.000000	0.277164
1439.000000	0.276399
1440.000000	0.275826
1441.000000	0.275492
1442.000000	0.275008
1443.000000	0.274431
1444.000000	0.273955
1445.000000	0.273501
1446.000000	0.273039
1447.000000	0.272785
1448.000000	0.272585
1449.000000	0.272315
1450.000000	0.272106
1451.000000	0.271982
1452.000000	0.271771
1453.000000	0.271558
1454.000000	0.271362
1455.000000	0.271075
1456.000000	0.270869
1457.000000	0.270721
1458.000000	0.270631
1459.000000	0.270607
1460.000000	0.270488
1461.000000	0.270364
1462.000000	0.270193
1463.000000	0.269983
1464.000000	0.269970
1465.000000	0.269938
1466.000000	0.269844
1467.000000	0.269777
1468.000000	0.269645
1469.000000	0.269579
1470.000000	0.269450
1471.000000	0.269499
1472.000000	0.269643
1473.000000	0.269776
1474.000000	0.269954
1475.000000	0.270119
1476.000000	0.270258
1477.000000	0.270419
1478.000000	0.270710
1479.000000	0.271006
1480.000000	0.271237
1481.000000	0.271566
1482.000000	0.272025
1483.000000	0.272467
1484.000000	0.272990
1485.000000	0.273426
1486.000000	0.273849
1487.000000	0.274200
1488.000000	0.274451
1489.000000	0.274828
1490.000000	0.275094
1491.000000	0.275425
1492.000000	0.275824
1493.000000	0.276185
1494.000000	0.276478
1495.000000	0.276841
1496.000000	0.277252
1497.000000	0.277625
1498.000000	0.278054
1499.000000	0.278375
1500.000000	0.278644
1501.000000	0.278937
1502.000000	0.279186
1503.000000	0.279476
1504.000000	0.279836
1505.000000	0.280154
1506.000000	0.280544
1507.000000	0.280900
1508.000000	0.281156
1509.000000	0.281458
1510.000000	0.281645
1511.000000	0.281850
1512.000000	0.282139
1513.000000	0.282315
1514.000000	0.282546
1515.000000	0.282751
1516.000000	0.282932
1517.000000	0.283168
1518.000000	0.283330
1519.000000	0.283441
1520.000000	0.283548
1521.000000	0.283479
1522.000000	0.283518
1523.000000	0.283683
1524.000000	0.283785
1525.000000	0.284015
1526.000000	0.284173
1527.000000	0.284229
1528.000000	0.284378
1529.000000	0.284472
1530.000000	0.284423
1531.000000	0.284406
1532.000000	0.284416
1533.000000	0.284435
1534.000000	0.284608
1535.000000	0.284861
1536.000000	0.284933
1537.000000	0.284989
1538.000000	0.285032
1539.000000	0.284985
1540.000000	0.285083
1541.000000	0.285284
1542.000000	0.285276
1543.000000	0.285245
1544.000000	0.285341
1545.000000	0.285430
1546.000000	0.285553
1547.000000	0.285656
1548.000000	0.285664
1549.000000	0.285602
1550.000000	0.285488
1551.000000	0.285430
1552.000000	0.285398
1553.000000	0.285343
1554.000000	0.285333
1555.000000	0.285433
1556.000000	0.285647
1557.000000	0.285763
1558.000000	0.285814
1559.000000	0.285806
1560.000000	0.285786
1561.000000	0.285640
1562.000000	0.285627
1563.000000	0.285771
1564.000000	0.285854
1565.000000	0.285961
1566.000000	0.285917
1567.000000	0.285847
1568.000000	0.285761
1569.000000	0.285676
1570.000000	0.285648
1571.000000	0.285636
1572.000000	0.285624
1573.000000	0.285605
1574.000000	0.285615
1575.000000	0.285741
1576.000000	0.285775
1577.000000	0.285729
1578.000000	0.285676
1579.000000	0.285579
1580.000000	0.285527
1581.000000	0.285589
1582.000000	0.285663
1583.000000	0.285773
1584.000000	0.285787
1585.000000	0.285892
1586.000000	0.285936
1587.000000	0.285849
1588.000000	0.285852
1589.000000	0.285864
1590.000000	0.285902
1591.000000	0.286045
1592.000000	0.286146
1593.000000	0.286285
1594.000000	0.286373
1595.000000	0.286461
1596.000000	0.286499
1597.000000	0.286556
1598.000000	0.286545
1599.000000	0.286431
1600.000000	0.286434
1601.000000	0.286571
1602.000000	0.286609
1603.000000	0.286736
1604.000000	0.286745
1605.000000	0.286610
1606.000000	0.286552
1607.000000	0.286546
1608.000000	0.286550
1609.000000	0.286667
1610.000000	0.286633
1611.000000	0.286531
1612.000000	0.286503
1613.000000	0.286462
1614.000000	0.286524
1615.000000	0.286812
1616.000000	0.286983
1617.000000	0.287112
1618.000000	0.287224
1619.000000	0.287287
1620.000000	0.287292
1621.000000	0.287240
1622.000000	0.287355
1623.000000	0.287431
1624.000000	0.287562
1625.000000	0.287768
1626.000000	0.287810
1627.000000	0.287713
1628.000000	0.287822
1629.000000	0.287998
1630.000000	0.288147
1631.000000	0.288357
1632.000000	0.288486
1633.000000	0.288449
1634.000000	0.288622
1635.000000	0.288940
1636.000000	0.289223
1637.000000	0.289714
1638.000000	0.289902
1639.000000	0.289922
1640.000000	0.290100
1641.000000	0.290271
1642.000000	0.290455
1643.000000	0.290797
1644.000000	0.291061
1645.000000	0.291234
1646.000000	0.291390
1647.000000	0.291604
1648.000000	0.291757
1649.000000	0.291921
1650.000000	0.292108
1651.000000	0.292355
1652.000000	0.292567
1653.000000	0.292656
1654.000000	0.292877
1655.000000	0.293181
1656.000000	0.293265
1657.000000	0.293321
1658.000000	0.293444
1659.000000	0.293545
1660.000000	0.293765
1661.000000	0.294075
1662.000000	0.294308
1663.000000	0.294477
1664.000000	0.294677
1665.000000	0.294897
1666.000000	0.295169
1667.000000	0.295358
1668.000000	0.295602
1669.000000	0.295932
1670.000000	0.296015
1671.000000	0.296106
1672.000000	0.296277
1673.000000	0.296257
1674.000000	0.296574
1675.000000	0.296846
1676.000000	0.297019
1677.000000	0.297200
1678.000000	0.297267
1679.000000	0.297316
1680.000000	0.297179
1681.000000	0.297082
1682.000000	0.297201
1683.000000	0.297342
1684.000000	0.297614
1685.000000	0.297928
1686.000000	0.297922
1687.000000	0.297936
1688.000000	0.298026
1689.000000	0.298018
1690.000000	0.298183
1691.000000	0.298366
1692.000000	0.298201
1693.000000	0.298283
1694.000000	0.298489
1695.000000	0.298529
1696.000000	0.298782
1697.000000	0.298896
1698.000000	0.298831
1699.000000	0.298926
1700.000000	0.299231
1701.000000	0.299358
1702.000000	0.299206
1703.000000	0.299143
1704.000000	0.298973
1705.000000	0.298952
1706.000000	0.299207
1707.000000	0.299345
1708.000000	0.299387
1709.000000	0.299465
1710.000000	0.299698
1711.000000	0.299821
1712.000000	0.299941
1713.000000	0.300055
1714.000000	0.300034
1715.000000	0.300194
1716.000000	0.300525
1717.000000	0.300778
1718.000000	0.301138
1719.000000	0.301299
1720.000000	0.301327
1721.000000	0.301425
1722.000000	0.301435
1723.000000	0.301537
1724.000000	0.301737
1725.000000	0.301969
1726.000000	0.302163
1727.000000	0.302356
1728.000000	0.302578
1729.000000	0.302638
1730.000000	0.302749
1731.000000	0.302775
1732.000000	0.302679
1733.000000	0.302735
1734.000000	0.302728
1735.000000	0.302635
1736.000000	0.302469
1737.000000	0.302413
1738.000000	0.302318
1739.000000	0.302291
1740.000000	0.302372
1741.000000	0.302449
1742.000000	0.302457
1743.000000	0.302730
1744.000000	0.303236
1745.000000	0.303423
1746.000000	0.303607
1747.000000	0.303496
1748.000000	0.303482
1749.000000	0.303561
1750.000000	0.303625
1751.000000	0.303879
1752.000000	0.304148
1753.000000	0.304314
1754.000000	0.304462
1755.000000	0.304524
1756.000000	0.304604
1757.000000	0.304678
1758.000000	0.304761
1759.000000	0.304808
1760.000000	0.304914
1761.000000	0.305010
1762.000000	0.305108
1763.000000	0.305351
1764.000000	0.305428
1765.000000	0.305223
1766.000000	0.305358
1767.000000	0.305614
1768.000000	0.305653
1769.000000	0.305914
1770.000000	0.306046
1771.000000	0.305829
1772.000000	0.305803
1773.000000	0.305803
1774.000000	0.305921
1775.000000	0.306169
1776.000000	0.306358
1777.000000	0.306681
1778.000000	0.306775
1779.000000	0.306683
1780.000000	0.306659
1781.000000	0.306556
1782.000000	0.306447
1783.000000	0.306330
1784.000000	0.306349
1785.000000	0.306400
1786.000000	0.306526
1787.000000	0.306736
1788.000000	0.306976
1789.000000	0.307177
1790.000000	0.307611
1791.000000	0.307727
1792.000000	0.307568
1793.000000	0.307607
1794.000000	0.307586
1795.000000	0.307680
1796.000000	0.308031
1797.000000	0.308204
1798.000000	0.308210
1799.000000	0.308360
1800.000000	0.308596
1801.000000	0.308398
1802.000000	0.308599
1803.000000	0.308170
1804.000000	0.308186
1805.000000	0.308451
1806.000000	0.308390
1807.000000	0.308245
1808.000000	0.307966
1809.000000	0.307092
1810.000000	0.306745
1811.000000	0.306782
1812.000000	0.307210
1813.000000	0.307268
1814.000000	0.307664
1815.000000	0.307881
1816.000000	0.307872
1817.000000	0.307739
1818.000000	0.307729
1819.000000	0.307832
1820.000000	0.307535
1821.000000	0.306383
1822.000000	0.306162
1823.000000	0.305919
1824.000000	0.306135
1825.000000	0.307236
1826.000000	0.307802
1827.000000	0.308629
1828.000000	0.308743
1829.000000	0.308103
1830.000000	0.307246
1831.000000	0.306670
1832.000000	0.305289
1833.000000	0.305012
1834.000000	0.305793
1835.000000	0.305869
1836.000000	0.306188
1837.000000	0.306265
1838.000000	0.305913
1839.000000	0.305196
1840.000000	0.304847
1841.000000	0.304363
1842.000000	0.304430
1843.000000	0.305127
1844.000000	0.305316
1845.000000	0.305643
1846.000000	0.305693
1847.000000	0.305443
1848.000000	0.304586
1849.000000	0.303860
1850.000000	0.303325
1851.000000	0.303199
1852.000000	0.303449
1853.000000	0.303202
1854.000000	0.303241
1855.000000	0.302665
1856.000000	0.301390
1857.000000	0.299887
1858.000000	0.299007
1859.000000	0.298399
1860.000000	0.297125
1861.000000	0.296099
1862.000000	0.295159
1863.000000	0.293884
1864.000000	0.292828
1865.000000	0.292422
1866.000000	0.291616
1867.000000	0.290643
1868.000000	0.289425
1869.000000	0.287998
1870.000000	0.286488
1871.000000	0.285134
1872.000000	0.283871
1873.000000	0.282330
1874.000000	0.280681
1875.000000	0.279120
1876.000000	0.277250
1877.000000	0.275171
1878.000000	0.272780
1879.000000	0.270644
1880.000000	0.268452
1881.000000	0.265500
1882.000000	0.263038
1883.000000	0.260588
1884.000000	0.257888
1885.000000	0.254667
1886.000000	0.251682
1887.000000	0.248810
1888.000000	0.245324
1889.000000	0.241787
1890.000000	0.238830
1891.000000	0.235414
1892.000000	0.231987
1893.000000	0.228939
1894.000000	0.225226
1895.000000	0.221530
1896.000000	0.217900
1897.000000	0.214201
1898.000000	0.210219
1899.000000	0.206473
1900.000000	0.202990
1901.000000	0.200088
1902.000000	0.197355
1903.000000	0.195090
1904.000000	0.192449
1905.000000	0.189429
1906.000000	0.186795
1907.000000	0.184305
1908.000000	0.181999
1909.000000	0.179680
1910.000000	0.177132
1911.000000	0.174626
1912.000000	0.171683
1913.000000	0.169553
1914.000000	0.168326
1915.000000	0.166823
1916.000000	0.165835
1917.000000	0.164811
1918.000000	0.163847
1919.000000	0.162876
1920.000000	0.162093
1921.000000	0.160945
1922.000000	0.160202
1923.000000	0.159366
1924.000000	0.158337
1925.000000	0.158023
1926.000000	0.156983
1927.000000	0.155973
1928.000000	0.155410
1929.000000	0.155332
1930.000000	0.154638
1931.000000	0.154754
1932.000000	0.155520
1933.000000	0.155612
1934.000000	0.156305
1935.000000	0.157109
1936.000000	0.156665
1937.000000	0.156373
1938.000000	0.156027
1939.000000	0.155726
1940.000000	0.155004
1941.000000	0.155365
1942.000000	0.155874
1943.000000	0.156520
1944.000000	0.157375
1945.000000	0.157107
1946.000000	0.156796
1947.000000	0.156407
1948.000000	0.155578
1949.000000	0.155299
1950.000000	0.154735
1951.000000	0.154003
1952.000000	0.152928
1953.000000	0.152163
1954.000000	0.151916
1955.000000	0.152086
1956.000000	0.152278
1957.000000	0.152632
1958.000000	0.152528
1959.000000	0.151868
1960.000000	0.151166
1961.000000	0.150454
1962.000000	0.149910
1963.000000	0.149332
1964.000000	0.148991
1965.000000	0.148564
1966.000000	0.148281
1967.000000	0.148003
1968.000000	0.147670
1969.000000	0.148112
1970.000000	0.148310
1971.000000	0.148127
1972.000000	0.148261
1973.000000	0.148550
1974.000000	0.149072
1975.000000	0.149547
1976.000000	0.150436
1977.000000	0.150938
1978.000000	0.150764
1979.000000	0.150455
1980.000000	0.150582
1981.000000	0.151150
1982.000000	0.151817
1983.000000	0.152827
1984.000000	0.153264
1985.000000	0.153104
1986.000000	0.153182
1987.000000	0.153251
1988.000000	0.153136
1989.000000	0.153295
1990.000000	0.153939
1991.000000	0.154560
1992.000000	0.155112
1993.000000	0.155841
1994.000000	0.156580
1995.000000	0.157270
1996.000000	0.158045
1997.000000	0.158658
1998.000000	0.159199
1999.000000	0.159511
2000.000000	0.159432
2001.000000	0.159947
2002.000000	0.160059
2003.000000	0.161143
2004.000000	0.162498
2005.000000	0.162963
2006.000000	0.164394
2007.000000	0.165687
2008.000000	0.166700
2009.000000	0.167625
2010.000000	0.168899
2011.000000	0.170040
2012.000000	0.171090
2013.000000	0.172276
2014.000000	0.173747
2015.000000	0.174476
2016.000000	0.174361
2017.000000	0.174705
2018.000000	0.174785
2019.000000	0.174959
2020.000000	0.175905
2021.000000	0.176732
2022.000000	0.177765
2023.000000	0.178734
2024.000000	0.180047
2025.000000	0.180895
2026.000000	0.181394
2027.000000	0.181853
2028.000000	0.182465
2029.000000	0.182943
2030.000000	0.184172
2031.000000	0.185822
2032.000000	0.187166
2033.000000	0.188605
2034.000000	0.189745
2035.000000	0.190605
2036.000000	0.191272
2037.000000	0.192002
2038.000000	0.192448
2039.000000	0.192269
2040.000000	0.193048
2041.000000	0.193410
2042.000000	0.193490
2043.000000	0.194519
2044.000000	0.194803
2045.000000	0.195820
2046.000000	0.197291
2047.000000	0.198123
2048.000000	0.198837
2049.000000	0.199696
2050.000000	0.199732
2051.000000	0.200273
2052.000000	0.201123
2053.000000	0.201773
2054.000000	0.202551
2055.000000	0.203582
2056.000000	0.204394
2057.000000	0.204777
2058.000000	0.205371
2059.000000	0.206723
2060.000000	0.207581
2061.000000	0.208779
2062.000000	0.209436
2063.000000	0.209392
2064.000000	0.209609
2065.000000	0.209839
2066.000000	0.210166
2067.000000	0.210707
2068.000000	0.211621
2069.000000	0.212256
2070.000000	0.213147
2071.000000	0.213886
2072.000000	0.214508
2073.000000	0.215054
2074.000000	0.215343
2075.000000	0.215627
2076.000000	0.215579
2077.000000	0.215784
2078.000000	0.215913
2079.000000	0.216451
2080.000000	0.217342
2081.000000	0.218427
2082.000000	0.220071
2083.000000	0.221166
2084.000000	0.222526
2085.000000	0.223556
2086.000000	0.223709
2087.000000	0.224185
2088.000000	0.224563
2089.000000	0.225144
2090.000000	0.225912
2091.000000	0.227179
2092.000000	0.228164
2093.000000	0.229337
2094.000000	0.230046
2095.000000	0.230707
2096.000000	0.231188
2097.000000	0.231220
2098.000000	0.231061
2099.000000	0.231305
2100.000000	0.231599
2101.000000	0.232331
2102.000000	0.233291
2103.000000	0.234010
2104.000000	0.234824
2105.000000	0.235463
2106.000000	0.235815
2107.000000	0.236357
2108.000000	0.236840
2109.000000	0.237478
2110.000000	0.238226
2111.000000	0.238692
2112.000000	0.238873
2113.000000	0.239426
2114.000000	0.239423
2115.000000	0.239696
2116.000000	0.240290
2117.000000	0.240263
2118.000000	0.240265
2119.000000	0.240196
2120.000000	0.240386
2121.000000	0.240558
2122.000000	0.241060
2123.000000	0.242052
2124.000000	0.242606
2125.000000	0.243215
2126.000000	0.243587
2127.000000	0.243653
2128.000000	0.243942
2129.000000	0.244414
2130.000000	0.244371
2131.000000	0.244207
2132.000000	0.243625
2133.000000	0.242773
2134.000000	0.242989
2135.000000	0.243547
2136.000000	0.244068
2137.000000	0.244649
2138.000000	0.245471
2139.000000	0.246055
2140.000000	0.246710
2141.000000	0.247123
2142.000000	0.247512
2143.000000	0.247471
2144.000000	0.246931
2145.000000	0.247052
2146.000000	0.247163
2147.000000	0.247773
2148.000000	0.249782
2149.000000	0.250029
2150.000000	0.249952
2151.000000	0.250491
2152.000000	0.249261
2153.000000	0.248623
2154.000000	0.248249
2155.000000	0.247793
2156.000000	0.247855
2157.000000	0.248701
2158.000000	0.249040
2159.000000	0.249426
2160.000000	0.249976
2161.000000	0.250805
2162.000000	0.251183
2163.000000	0.251628
2164.000000	0.251535
2165.000000	0.250791
2166.000000	0.249596
2167.000000	0.249071
2168.000000	0.248630
2169.000000	0.248891
2170.000000	0.248946
2171.000000	0.249317
2172.000000	0.250193
2173.000000	0.250692
2174.000000	0.251593
2175.000000	0.251756
2176.000000	0.250947
2177.000000	0.250852
2178.000000	0.250595
2179.000000	0.250665
2180.000000	0.251517
2181.000000	0.251940
2182.000000	0.251923
2183.000000	0.251375
2184.000000	0.251226
2185.000000	0.251366
2186.000000	0.250935
2187.000000	0.252204
2188.000000	0.252490
2189.000000	0.251240
2190.000000	0.250261
2191.000000	0.249227
2192.000000	0.248516
2193.000000	0.247848
2194.000000	0.247539
2195.000000	0.248048
2196.000000	0.247715
2197.000000	0.247059
2198.000000	0.246870
2199.000000	0.246322
2200.000000	0.246240
2201.000000	0.247872
2202.000000	0.247693
2203.000000	0.246113
2204.000000	0.244703
2205.000000	0.243128
2206.000000	0.240517
2207.000000	0.240358
2208.000000	0.242409
2209.000000	0.244035
2210.000000	0.245656
2211.000000	0.247068
2212.000000	0.246832
2213.000000	0.246900
2214.000000	0.246227
2215.000000	0.245940
2216.000000	0.246314
2217.000000	0.245903
2218.000000	0.243916
2219.000000	0.244329
2220.000000	0.245609
2221.000000	0.246582
2222.000000	0.250569
2223.000000	0.251360
2224.000000	0.250718
2225.000000	0.247527
2226.000000	0.248380
2227.000000	0.247089
2228.000000	0.246239
2229.000000	0.248353
2230.000000	0.247259
2231.000000	0.246784
2232.000000	0.248300
2233.000000	0.249391
2234.000000	0.249155
2235.000000	0.250609
2236.000000	0.250880
2237.000000	0.249612
2238.000000	0.250027
2239.000000	0.251445
2240.000000	0.251740
2241.000000	0.252960
2242.000000	0.253033
2243.000000	0.251673
2244.000000	0.250327
2245.000000	0.247846
2246.000000	0.246502
2247.000000	0.244927
2248.000000	0.244335
2249.000000	0.244247
2250.000000	0.246203
2251.000000	0.248185
2252.000000	0.249853
2253.000000	0.249782
2254.000000	0.248161
2255.000000	0.245961
2256.000000	0.245728
2257.000000	0.246357
2258.000000	0.247581
2259.000000	0.250727
2260.000000	0.250679
2261.000000	0.251144
2262.000000	0.252374
2263.000000	0.252239
2264.000000	0.250282
2265.000000	0.250334
2266.000000	0.251338
2267.000000	0.251013
2268.000000	0.250724
2269.000000	0.250096
2270.000000	0.248265
2271.000000	0.246346
2272.000000	0.244854
2273.000000	0.243396
2274.000000	0.240392
2275.000000	0.239708
2276.000000	0.240962
2277.000000	0.240717
2278.000000	0.241844
2279.000000	0.241362
2280.000000	0.238847
2281.000000	0.237232
2282.000000	0.234671
2283.000000	0.233970
2284.000000	0.234755
2285.000000	0.233302
2286.000000	0.234403
2287.000000	0.234672
2288.000000	0.231949
2289.000000	0.232860
2290.000000	0.233471
2291.000000	0.232750
2292.000000	0.233049
2293.000000	0.231162
2294.000000	0.229719
2295.000000	0.226034
2296.000000	0.225110
2297.000000	0.226174
2298.000000	0.226152
2299.000000	0.226906
2300.000000	0.226974
2301.000000	0.226610
2302.000000	0.225836
2303.000000	0.223788
2304.000000	0.222694
2305.000000	0.221686
2306.000000	0.221413
2307.000000	0.222118
2308.000000	0.222706
2309.000000	0.223809
2310.000000	0.223239
2311.000000	0.222564
2312.000000	0.222428
2313.000000	0.221852
2314.000000	0.221538
2315.000000	0.220064
2316.000000	0.219352
2317.000000	0.218866
2318.000000	0.217478
2319.000000	0.217613
2320.000000	0.219029
2321.000000	0.220065
2322.000000	0.219527
2323.000000	0.218961
2324.000000	0.217261
2325.000000	0.214386
2326.000000	0.213723
2327.000000	0.213974
2328.000000	0.212825
2329.000000	0.212717
2330.000000	0.213215
2331.000000	0.212379
2332.000000	0.213142
2333.000000	0.212517
2334.000000	0.209842
2335.000000	0.208610
2336.000000	0.206495
2337.000000	0.205934
2338.000000	0.207188
2339.000000	0.205522
2340.000000	0.203167
2341.000000	0.199800
2342.000000	0.194713
2343.000000	0.192163
2344.000000	0.189143
2345.000000	0.187962
2346.000000	0.187979
2347.000000	0.188168
2348.000000	0.190050
2349.000000	0.192306
2350.000000	0.192118
2351.000000	0.191713
2352.000000	0.189961
2353.000000	0.189772
2354.000000	0.191305
2355.000000	0.192358
2356.000000	0.193157
2357.000000	0.191067
2358.000000	0.187533
2359.000000	0.184442
2360.000000	0.182841
2361.000000	0.182454
2362.000000	0.180816
2363.000000	0.180493
2364.000000	0.179073
2365.000000	0.178367
2366.000000	0.177520
2367.000000	0.173818
2368.000000	0.173523
2369.000000	0.171121
2370.000000	0.168761
2371.000000	0.169131
2372.000000	0.168895
2373.000000	0.170037
2374.000000	0.169589
2375.000000	0.171385
2376.000000	0.173550
2377.000000	0.172139
2378.000000	0.170925
2379.000000	0.170852
2380.000000	0.169917
2381.000000	0.169183
2382.000000	0.168719
2383.000000	0.165240
2384.000000	0.161868
2385.000000	0.156990
2386.000000	0.154256
2387.000000	0.154473
2388.000000	0.154737
2389.000000	0.157003
2390.000000	0.154940
2391.000000	0.155412
2392.000000	0.155351
2393.000000	0.153421
2394.000000	0.153603
2395.000000	0.149951
2396.000000	0.149049
2397.000000	0.149737
2398.000000	0.150117
2399.000000	0.155323
2400.000000	0.158519
2401.000000	0.154117
2402.000000	0.155467
2403.000000	0.154176
2404.000000	0.145921
2405.000000	0.143543
2406.000000	0.137523
2407.000000	0.130782
2408.000000	0.128348
2409.000000	0.129091
2410.000000	0.128361
2411.000000	0.129977
2412.000000	0.137440
2413.000000	0.136362
2414.000000	0.140107
2415.000000	0.142490
2416.000000	0.138913
2417.000000	0.144752
2418.000000	0.136888
2419.000000	0.134954
2420.000000	0.137596
2421.000000	0.124162
2422.000000	0.125850
2423.000000	0.132158
2424.000000	0.133008
2425.000000	0.138627
2426.000000	0.144100
2427.000000	0.135186
2428.000000	0.124506
2429.000000	0.128222
2430.000000	0.128446
2431.000000	0.133313
2432.000000	0.151211
2433.000000	0.155668
2434.000000	0.151923
2435.000000	0.153307
2436.000000	0.133080
2437.000000	0.110976
2438.000000	0.104791
2439.000000	0.098806
2440.000000	0.102550
2441.000000	0.109868
2442.000000	0.110127
2443.000000	0.106956
2444.000000	0.107396
2445.000000	0.115730
2446.000000	0.131605
2447.000000	0.145242
2448.000000	0.147201
2449.000000	0.148944
2450.000000	0.139912
2451.000000	0.126896
2452.000000	0.133183
2453.000000	0.128256
2454.000000	0.122256
2455.000000	0.123367
2456.000000	0.108932
2457.000000	0.097937
2458.000000	0.087886
2459.000000	0.080966
2460.000000	0.078116
2461.000000	0.090377
2462.000000	0.108988
2463.000000	0.108779
2464.000000	0.111577
2465.000000	0.102909
2466.000000	0.097167
2467.000000	0.108717
2468.000000	0.121911
2469.000000	0.141855
2470.000000	0.161318
2471.000000	0.165363
2472.000000	0.148329
2473.000000	0.130573
2474.000000	0.115419
2475.000000	0.112469
2476.000000	0.127698
2477.000000	0.126865
2478.000000	0.114215
2479.000000	0.092008
2480.000000	0.080181
2481.000000	0.102379
2482.000000	0.129853
2483.000000	0.162020
2484.000000	0.168166
2485.000000	0.133489
2486.000000	0.099770
2487.000000	0.045076
2488.000000	0.017512
2489.000000	0.072207
2490.000000	0.062305
2491.000000	0.078664
2492.000000	0.107816
2493.000000	0.135567
2494.000000	0.164026
2495.000000	0.224843
2496.000000	0.230925
2497.000000	0.160750
2498.000000	0.142039
2499.000000	0.160892
2500.000000	0.138195
