# Wavelength	NAu-1-10_HEX-50_FV7-40_00002.asd.rts.txt
350.000000	0.234256
351.000000	0.219569
352.000000	0.191829
353.000000	0.189061
354.000000	0.216407
355.000000	0.219858
356.000000	0.214776
357.000000	0.209528
358.000000	0.205931
359.000000	0.206368
360.000000	0.210131
361.000000	0.214625
362.000000	0.214226
363.000000	0.210315
364.000000	0.205917
365.000000	0.208859
366.000000	0.209582
367.000000	0.205971
368.000000	0.202265
369.000000	0.201546
370.000000	0.203777
371.000000	0.207222
372.000000	0.207001
373.000000	0.207600
374.000000	0.211621
375.000000	0.213008
376.000000	0.211510
377.000000	0.209432
378.000000	0.212024
379.000000	0.216891
380.000000	0.219670
381.000000	0.217443
382.000000	0.217830
383.000000	0.218407
384.000000	0.217405
385.000000	0.217485
386.000000	0.216590
387.000000	0.215129
388.000000	0.215870
389.000000	0.218044
390.000000	0.220053
391.000000	0.220039
392.000000	0.221564
393.000000	0.223570
394.000000	0.224443
395.000000	0.222561
396.000000	0.221543
397.000000	0.222596
398.000000	0.224184
399.000000	0.225592
400.000000	0.226212
401.000000	0.225545
402.000000	0.225704
403.000000	0.226857
404.000000	0.228492
405.000000	0.228028
406.000000	0.229731
407.000000	0.233828
408.000000	0.233220
409.000000	0.232969
410.000000	0.233876
411.000000	0.234523
412.000000	0.234079
413.000000	0.233948
414.000000	0.235427
415.000000	0.235930
416.000000	0.236092
417.000000	0.236494
418.000000	0.237163
419.000000	0.237242
420.000000	0.237023
421.000000	0.237825
422.000000	0.238139
423.000000	0.238122
424.000000	0.238485
425.000000	0.239145
426.000000	0.239610
427.000000	0.239608
428.000000	0.239681
429.000000	0.239968
430.000000	0.240345
431.000000	0.240259
432.000000	0.240508
433.000000	0.241062
434.000000	0.241610
435.000000	0.241966
436.000000	0.242058
437.000000	0.241910
438.000000	0.241875
439.000000	0.241949
440.000000	0.242075
441.000000	0.241718
442.000000	0.241834
443.000000	0.242195
444.000000	0.241889
445.000000	0.242060
446.000000	0.242394
447.000000	0.242233
448.000000	0.243125
449.000000	0.244082
450.000000	0.244407
451.000000	0.244758
452.000000	0.245514
453.000000	0.246567
454.000000	0.247460
455.000000	0.248390
456.000000	0.249330
457.000000	0.250055
458.000000	0.251327
459.000000	0.252577
460.000000	0.253306
461.000000	0.253991
462.000000	0.254773
463.000000	0.255482
464.000000	0.255903
465.000000	0.256536
466.000000	0.257182
467.000000	0.257331
468.000000	0.257947
469.000000	0.258506
470.000000	0.258509
471.000000	0.259178
472.000000	0.259746
473.000000	0.259836
474.000000	0.260471
475.000000	0.260904
476.000000	0.261105
477.000000	0.261436
478.000000	0.261654
479.000000	0.262020
480.000000	0.262589
481.000000	0.262905
482.000000	0.263311
483.000000	0.263870
484.000000	0.264164
485.000000	0.264450
486.000000	0.264941
487.000000	0.265103
488.000000	0.265320
489.000000	0.265681
490.000000	0.266081
491.000000	0.266449
492.000000	0.266810
493.000000	0.267084
494.000000	0.267402
495.000000	0.267741
496.000000	0.268086
497.000000	0.268732
498.000000	0.269196
499.000000	0.269481
500.000000	0.269976
501.000000	0.270410
502.000000	0.270811
503.000000	0.271231
504.000000	0.271723
505.000000	0.272175
506.000000	0.272502
507.000000	0.272844
508.000000	0.273292
509.000000	0.273809
510.000000	0.274252
511.000000	0.274770
512.000000	0.275344
513.000000	0.275763
514.000000	0.276244
515.000000	0.276801
516.000000	0.277308
517.000000	0.277708
518.000000	0.278172
519.000000	0.278715
520.000000	0.279182
521.000000	0.279640
522.000000	0.280133
523.000000	0.280665
524.000000	0.281096
525.000000	0.281496
526.000000	0.282104
527.000000	0.282619
528.000000	0.283107
529.000000	0.283720
530.000000	0.284222
531.000000	0.284672
532.000000	0.285074
533.000000	0.285618
534.000000	0.286207
535.000000	0.286773
536.000000	0.287302
537.000000	0.287864
538.000000	0.288442
539.000000	0.288970
540.000000	0.289448
541.000000	0.289909
542.000000	0.290422
543.000000	0.290985
544.000000	0.291527
545.000000	0.291958
546.000000	0.292389
547.000000	0.292903
548.000000	0.293503
549.000000	0.294031
550.000000	0.294515
551.000000	0.295023
552.000000	0.295561
553.000000	0.296070
554.000000	0.296564
555.000000	0.297086
556.000000	0.297722
557.000000	0.298273
558.000000	0.298788
559.000000	0.299231
560.000000	0.299742
561.000000	0.300356
562.000000	0.300883
563.000000	0.301270
564.000000	0.301765
565.000000	0.302438
566.000000	0.302857
567.000000	0.303258
568.000000	0.303762
569.000000	0.304229
570.000000	0.304670
571.000000	0.305097
572.000000	0.305556
573.000000	0.305963
574.000000	0.306304
575.000000	0.306658
576.000000	0.307070
577.000000	0.307494
578.000000	0.307934
579.000000	0.308307
580.000000	0.308675
581.000000	0.309051
582.000000	0.309357
583.000000	0.309692
584.000000	0.310082
585.000000	0.310510
586.000000	0.310810
587.000000	0.311041
588.000000	0.311317
589.000000	0.311682
590.000000	0.312003
591.000000	0.312225
592.000000	0.312529
593.000000	0.312810
594.000000	0.313051
595.000000	0.313331
596.000000	0.313548
597.000000	0.313760
598.000000	0.313968
599.000000	0.314116
600.000000	0.314316
601.000000	0.314555
602.000000	0.314701
603.000000	0.314850
604.000000	0.315065
605.000000	0.315311
606.000000	0.315529
607.000000	0.315753
608.000000	0.316070
609.000000	0.316249
610.000000	0.316396
611.000000	0.316659
612.000000	0.316820
613.000000	0.316997
614.000000	0.317271
615.000000	0.317396
616.000000	0.317496
617.000000	0.317587
618.000000	0.317702
619.000000	0.317817
620.000000	0.317910
621.000000	0.318024
622.000000	0.318152
623.000000	0.318237
624.000000	0.318261
625.000000	0.318394
626.000000	0.318520
627.000000	0.318594
628.000000	0.318682
629.000000	0.318887
630.000000	0.319076
631.000000	0.319283
632.000000	0.319447
633.000000	0.319604
634.000000	0.319783
635.000000	0.319975
636.000000	0.320199
637.000000	0.320427
638.000000	0.320597
639.000000	0.320801
640.000000	0.321062
641.000000	0.321168
642.000000	0.321348
643.000000	0.321622
644.000000	0.321925
645.000000	0.322018
646.000000	0.322104
647.000000	0.322297
648.000000	0.322366
649.000000	0.322522
650.000000	0.322773
651.000000	0.322941
652.000000	0.323034
653.000000	0.323140
654.000000	0.323303
655.000000	0.323504
656.000000	0.323757
657.000000	0.323999
658.000000	0.324170
659.000000	0.324385
660.000000	0.324648
661.000000	0.324806
662.000000	0.324928
663.000000	0.325108
664.000000	0.325348
665.000000	0.325549
666.000000	0.325702
667.000000	0.325806
668.000000	0.325999
669.000000	0.326233
670.000000	0.326461
671.000000	0.326633
672.000000	0.326850
673.000000	0.327106
674.000000	0.327331
675.000000	0.327545
676.000000	0.327734
677.000000	0.327914
678.000000	0.328181
679.000000	0.328432
680.000000	0.328612
681.000000	0.328781
682.000000	0.329034
683.000000	0.329297
684.000000	0.329567
685.000000	0.329716
686.000000	0.329858
687.000000	0.330113
688.000000	0.330362
689.000000	0.330551
690.000000	0.330722
691.000000	0.331016
692.000000	0.331276
693.000000	0.331516
694.000000	0.331759
695.000000	0.332039
696.000000	0.332301
697.000000	0.332465
698.000000	0.332702
699.000000	0.333007
700.000000	0.333332
701.000000	0.333530
702.000000	0.333781
703.000000	0.334106
704.000000	0.334365
705.000000	0.334591
706.000000	0.334833
707.000000	0.335225
708.000000	0.335422
709.000000	0.335582
710.000000	0.335896
711.000000	0.336247
712.000000	0.336507
713.000000	0.336681
714.000000	0.336888
715.000000	0.337075
716.000000	0.337264
717.000000	0.337478
718.000000	0.337730
719.000000	0.337998
720.000000	0.338265
721.000000	0.338490
722.000000	0.338685
723.000000	0.338920
724.000000	0.339143
725.000000	0.339309
726.000000	0.339484
727.000000	0.339603
728.000000	0.339777
729.000000	0.339973
730.000000	0.340106
731.000000	0.340308
732.000000	0.340532
733.000000	0.340779
734.000000	0.340990
735.000000	0.341130
736.000000	0.341337
737.000000	0.341534
738.000000	0.341731
739.000000	0.341980
740.000000	0.342127
741.000000	0.342275
742.000000	0.342473
743.000000	0.342663
744.000000	0.342744
745.000000	0.342830
746.000000	0.342974
747.000000	0.343099
748.000000	0.343285
749.000000	0.343494
750.000000	0.343645
751.000000	0.343720
752.000000	0.343833
753.000000	0.343999
754.000000	0.344123
755.000000	0.344253
756.000000	0.344390
757.000000	0.344473
758.000000	0.344545
759.000000	0.344626
760.000000	0.344669
761.000000	0.344807
762.000000	0.344890
763.000000	0.344912
764.000000	0.345035
765.000000	0.345086
766.000000	0.345138
767.000000	0.345276
768.000000	0.345489
769.000000	0.345626
770.000000	0.345656
771.000000	0.345717
772.000000	0.345805
773.000000	0.345816
774.000000	0.345770
775.000000	0.345826
776.000000	0.345916
777.000000	0.345959
778.000000	0.346017
779.000000	0.346112
780.000000	0.346204
781.000000	0.346171
782.000000	0.346113
783.000000	0.346103
784.000000	0.346020
785.000000	0.346027
786.000000	0.346050
787.000000	0.346056
788.000000	0.346159
789.000000	0.346165
790.000000	0.346081
791.000000	0.346066
792.000000	0.346071
793.000000	0.346073
794.000000	0.346060
795.000000	0.346018
796.000000	0.345931
797.000000	0.345825
798.000000	0.345794
799.000000	0.345829
800.000000	0.345882
801.000000	0.345885
802.000000	0.345754
803.000000	0.345665
804.000000	0.345698
805.000000	0.345562
806.000000	0.345455
807.000000	0.345474
808.000000	0.345494
809.000000	0.345492
810.000000	0.345416
811.000000	0.345256
812.000000	0.345184
813.000000	0.345102
814.000000	0.345041
815.000000	0.345171
816.000000	0.345090
817.000000	0.344961
818.000000	0.344921
819.000000	0.344846
820.000000	0.344850
821.000000	0.344847
822.000000	0.344607
823.000000	0.344501
824.000000	0.344453
825.000000	0.344384
826.000000	0.344386
827.000000	0.344341
828.000000	0.344257
829.000000	0.344293
830.000000	0.344243
831.000000	0.344152
832.000000	0.344014
833.000000	0.343869
834.000000	0.343756
835.000000	0.343709
836.000000	0.343603
837.000000	0.343464
838.000000	0.343361
839.000000	0.343345
840.000000	0.343210
841.000000	0.343129
842.000000	0.343194
843.000000	0.343077
844.000000	0.342942
845.000000	0.342838
846.000000	0.342779
847.000000	0.342677
848.000000	0.342633
849.000000	0.342750
850.000000	0.342644
851.000000	0.342422
852.000000	0.342244
853.000000	0.342186
854.000000	0.342101
855.000000	0.342034
856.000000	0.341880
857.000000	0.341628
858.000000	0.341474
859.000000	0.341375
860.000000	0.341159
861.000000	0.341011
862.000000	0.340950
863.000000	0.340842
864.000000	0.340705
865.000000	0.340547
866.000000	0.340414
867.000000	0.340324
868.000000	0.340249
869.000000	0.340130
870.000000	0.340027
871.000000	0.339898
872.000000	0.339708
873.000000	0.339454
874.000000	0.339448
875.000000	0.339414
876.000000	0.339267
877.000000	0.338946
878.000000	0.338654
879.000000	0.338508
880.000000	0.338364
881.000000	0.338141
882.000000	0.338044
883.000000	0.338026
884.000000	0.337870
885.000000	0.337678
886.000000	0.337490
887.000000	0.337348
888.000000	0.337211
889.000000	0.337105
890.000000	0.336916
891.000000	0.336741
892.000000	0.336565
893.000000	0.336347
894.000000	0.336175
895.000000	0.335904
896.000000	0.335698
897.000000	0.335547
898.000000	0.335394
899.000000	0.335302
900.000000	0.335201
901.000000	0.335027
902.000000	0.334889
903.000000	0.334691
904.000000	0.334452
905.000000	0.334124
906.000000	0.333889
907.000000	0.333750
908.000000	0.333680
909.000000	0.333436
910.000000	0.333192
911.000000	0.332971
912.000000	0.332767
913.000000	0.332490
914.000000	0.332250
915.000000	0.332132
916.000000	0.332006
917.000000	0.331848
918.000000	0.331621
919.000000	0.331323
920.000000	0.331136
921.000000	0.330991
922.000000	0.330861
923.000000	0.330708
924.000000	0.330610
925.000000	0.330481
926.000000	0.330293
927.000000	0.330023
928.000000	0.329727
929.000000	0.329379
930.000000	0.328988
931.000000	0.328870
932.000000	0.328727
933.000000	0.328522
934.000000	0.328423
935.000000	0.328205
936.000000	0.328009
937.000000	0.327847
938.000000	0.327555
939.000000	0.327474
940.000000	0.327449
941.000000	0.327217
942.000000	0.326876
943.000000	0.326747
944.000000	0.326731
945.000000	0.326402
946.000000	0.326146
947.000000	0.326036
948.000000	0.325913
949.000000	0.325497
950.000000	0.325199
951.000000	0.325027
952.000000	0.324718
953.000000	0.324595
954.000000	0.324395
955.000000	0.323942
956.000000	0.323862
957.000000	0.323731
958.000000	0.323446
959.000000	0.323192
960.000000	0.323108
961.000000	0.322839
962.000000	0.322400
963.000000	0.322317
964.000000	0.322293
965.000000	0.322193
966.000000	0.321871
967.000000	0.321609
968.000000	0.321472
969.000000	0.321287
970.000000	0.320949
971.000000	0.320634
972.000000	0.320585
973.000000	0.320632
974.000000	0.320340
975.000000	0.320380
976.000000	0.320403
977.000000	0.320072
978.000000	0.319748
979.000000	0.319718
980.000000	0.319663
981.000000	0.319538
982.000000	0.319296
983.000000	0.319059
984.000000	0.318904
985.000000	0.318687
986.000000	0.318749
987.000000	0.318580
988.000000	0.317874
989.000000	0.317546
990.000000	0.317744
991.000000	0.318027
992.000000	0.317967
993.000000	0.318157
994.000000	0.318113
995.000000	0.317900
996.000000	0.317648
997.000000	0.318164
998.000000	0.318187
999.000000	0.317522
1000.000000	0.317604
1001.000000	0.317372
1002.000000	0.317968
1003.000000	0.317973
1004.000000	0.317850
1005.000000	0.317472
1006.000000	0.317180
1007.000000	0.316580
1008.000000	0.316727
1009.000000	0.316979
1010.000000	0.316730
1011.000000	0.316683
1012.000000	0.316547
1013.000000	0.316263
1014.000000	0.316639
1015.000000	0.317106
1016.000000	0.316562
1017.000000	0.315634
1018.000000	0.315413
1019.000000	0.315344
1020.000000	0.315778
1021.000000	0.315891
1022.000000	0.316441
1023.000000	0.316601
1024.000000	0.316226
1025.000000	0.316344
1026.000000	0.316431
1027.000000	0.316072
1028.000000	0.316344
1029.000000	0.316793
1030.000000	0.316385
1031.000000	0.316329
1032.000000	0.316695
1033.000000	0.316440
1034.000000	0.316430
1035.000000	0.316920
1036.000000	0.317166
1037.000000	0.317039
1038.000000	0.316967
1039.000000	0.316967
1040.000000	0.317270
1041.000000	0.317448
1042.000000	0.317933
1043.000000	0.318431
1044.000000	0.318360
1045.000000	0.318363
1046.000000	0.318307
1047.000000	0.318468
1048.000000	0.319071
1049.000000	0.319133
1050.000000	0.318908
1051.000000	0.318811
1052.000000	0.318207
1053.000000	0.318195
1054.000000	0.318950
1055.000000	0.319240
1056.000000	0.319459
1057.000000	0.319991
1058.000000	0.320235
1059.000000	0.320541
1060.000000	0.321371
1061.000000	0.321557
1062.000000	0.321253
1063.000000	0.321437
1064.000000	0.321664
1065.000000	0.321898
1066.000000	0.322281
1067.000000	0.322894
1068.000000	0.323240
1069.000000	0.323530
1070.000000	0.323762
1071.000000	0.324021
1072.000000	0.324116
1073.000000	0.323916
1074.000000	0.324102
1075.000000	0.324227
1076.000000	0.324846
1077.000000	0.325822
1078.000000	0.325884
1079.000000	0.325965
1080.000000	0.325625
1081.000000	0.325740
1082.000000	0.325893
1083.000000	0.326163
1084.000000	0.326849
1085.000000	0.327194
1086.000000	0.327322
1087.000000	0.327617
1088.000000	0.327773
1089.000000	0.327967
1090.000000	0.328176
1091.000000	0.328434
1092.000000	0.328743
1093.000000	0.329026
1094.000000	0.329102
1095.000000	0.329002
1096.000000	0.329069
1097.000000	0.328877
1098.000000	0.329136
1099.000000	0.329653
1100.000000	0.330105
1101.000000	0.330744
1102.000000	0.331225
1103.000000	0.331679
1104.000000	0.332052
1105.000000	0.332427
1106.000000	0.332617
1107.000000	0.332506
1108.000000	0.332496
1109.000000	0.332572
1110.000000	0.332307
1111.000000	0.332547
1112.000000	0.333034
1113.000000	0.333427
1114.000000	0.334049
1115.000000	0.334486
1116.000000	0.334927
1117.000000	0.335153
1118.000000	0.335185
1119.000000	0.335278
1120.000000	0.335149
1121.000000	0.335233
1122.000000	0.335597
1123.000000	0.336049
1124.000000	0.336406
1125.000000	0.336712
1126.000000	0.336992
1127.000000	0.337134
1128.000000	0.337182
1129.000000	0.337103
1130.000000	0.337195
1131.000000	0.337295
1132.000000	0.337348
1133.000000	0.337524
1134.000000	0.337662
1135.000000	0.337608
1136.000000	0.337722
1137.000000	0.338052
1138.000000	0.338108
1139.000000	0.338100
1140.000000	0.338273
1141.000000	0.338306
1142.000000	0.338434
1143.000000	0.338681
1144.000000	0.339006
1145.000000	0.339205
1146.000000	0.339349
1147.000000	0.339393
1148.000000	0.339271
1149.000000	0.339293
1150.000000	0.339200
1151.000000	0.339360
1152.000000	0.339755
1153.000000	0.339916
1154.000000	0.340035
1155.000000	0.340095
1156.000000	0.339946
1157.000000	0.339985
1158.000000	0.340115
1159.000000	0.340160
1160.000000	0.340246
1161.000000	0.340260
1162.000000	0.340249
1163.000000	0.340284
1164.000000	0.340368
1165.000000	0.340407
1166.000000	0.340460
1167.000000	0.340518
1168.000000	0.340475
1169.000000	0.340356
1170.000000	0.340382
1171.000000	0.340387
1172.000000	0.340595
1173.000000	0.341066
1174.000000	0.341228
1175.000000	0.341341
1176.000000	0.341361
1177.000000	0.341155
1178.000000	0.341140
1179.000000	0.341273
1180.000000	0.341274
1181.000000	0.341365
1182.000000	0.341416
1183.000000	0.341476
1184.000000	0.341360
1185.000000	0.341356
1186.000000	0.341362
1187.000000	0.341385
1188.000000	0.341479
1189.000000	0.341458
1190.000000	0.341437
1191.000000	0.341409
1192.000000	0.341388
1193.000000	0.341507
1194.000000	0.341604
1195.000000	0.341668
1196.000000	0.341712
1197.000000	0.341721
1198.000000	0.341681
1199.000000	0.341695
1200.000000	0.341687
1201.000000	0.341718
1202.000000	0.341819
1203.000000	0.341962
1204.000000	0.342038
1205.000000	0.341990
1206.000000	0.341938
1207.000000	0.341888
1208.000000	0.341806
1209.000000	0.341782
1210.000000	0.341766
1211.000000	0.341706
1212.000000	0.341684
1213.000000	0.341742
1214.000000	0.341795
1215.000000	0.341893
1216.000000	0.341873
1217.000000	0.341731
1218.000000	0.341667
1219.000000	0.341544
1220.000000	0.341565
1221.000000	0.341722
1222.000000	0.341803
1223.000000	0.341913
1224.000000	0.342062
1225.000000	0.342038
1226.000000	0.341988
1227.000000	0.341869
1228.000000	0.341686
1229.000000	0.341599
1230.000000	0.341529
1231.000000	0.341478
1232.000000	0.341605
1233.000000	0.341812
1234.000000	0.342162
1235.000000	0.342218
1236.000000	0.342026
1237.000000	0.342092
1238.000000	0.342045
1239.000000	0.342023
1240.000000	0.342202
1241.000000	0.342330
1242.000000	0.342182
1243.000000	0.342087
1244.000000	0.342163
1245.000000	0.342244
1246.000000	0.342294
1247.000000	0.342399
1248.000000	0.342452
1249.000000	0.342467
1250.000000	0.342474
1251.000000	0.342431
1252.000000	0.342405
1253.000000	0.342397
1254.000000	0.342407
1255.000000	0.342434
1256.000000	0.342446
1257.000000	0.342522
1258.000000	0.342567
1259.000000	0.342454
1260.000000	0.342508
1261.000000	0.342594
1262.000000	0.342615
1263.000000	0.342720
1264.000000	0.342719
1265.000000	0.342700
1266.000000	0.342608
1267.000000	0.342546
1268.000000	0.342622
1269.000000	0.342522
1270.000000	0.342672
1271.000000	0.342822
1272.000000	0.342779
1273.000000	0.342867
1274.000000	0.342796
1275.000000	0.342786
1276.000000	0.342758
1277.000000	0.342882
1278.000000	0.343107
1279.000000	0.343110
1280.000000	0.342956
1281.000000	0.342840
1282.000000	0.342623
1283.000000	0.342564
1284.000000	0.342497
1285.000000	0.342512
1286.000000	0.342566
1287.000000	0.342645
1288.000000	0.342822
1289.000000	0.343011
1290.000000	0.343009
1291.000000	0.342956
1292.000000	0.342813
1293.000000	0.342630
1294.000000	0.342458
1295.000000	0.342302
1296.000000	0.342279
1297.000000	0.342320
1298.000000	0.342371
1299.000000	0.342326
1300.000000	0.342272
1301.000000	0.342221
1302.000000	0.342124
1303.000000	0.342179
1304.000000	0.342126
1305.000000	0.342087
1306.000000	0.342033
1307.000000	0.341991
1308.000000	0.342004
1309.000000	0.342064
1310.000000	0.342085
1311.000000	0.342144
1312.000000	0.342146
1313.000000	0.342099
1314.000000	0.341946
1315.000000	0.341796
1316.000000	0.341635
1317.000000	0.341519
1318.000000	0.341504
1319.000000	0.341392
1320.000000	0.341271
1321.000000	0.341067
1322.000000	0.340826
1323.000000	0.340864
1324.000000	0.341104
1325.000000	0.341166
1326.000000	0.341064
1327.000000	0.340957
1328.000000	0.340873
1329.000000	0.340660
1330.000000	0.340461
1331.000000	0.340366
1332.000000	0.340245
1333.000000	0.340063
1334.000000	0.340129
1335.000000	0.340127
1336.000000	0.339870
1337.000000	0.339761
1338.000000	0.339750
1339.000000	0.339597
1340.000000	0.339514
1341.000000	0.339542
1342.000000	0.339365
1343.000000	0.339130
1344.000000	0.338946
1345.000000	0.338797
1346.000000	0.338694
1347.000000	0.338624
1348.000000	0.338559
1349.000000	0.338196
1350.000000	0.338026
1351.000000	0.337922
1352.000000	0.337676
1353.000000	0.337572
1354.000000	0.337568
1355.000000	0.337498
1356.000000	0.337370
1357.000000	0.337184
1358.000000	0.337001
1359.000000	0.336803
1360.000000	0.336632
1361.000000	0.336604
1362.000000	0.336466
1363.000000	0.336165
1364.000000	0.336010
1365.000000	0.335938
1366.000000	0.335846
1367.000000	0.335758
1368.000000	0.335740
1369.000000	0.335756
1370.000000	0.335435
1371.000000	0.335202
1372.000000	0.334957
1373.000000	0.334637
1374.000000	0.334466
1375.000000	0.334159
1376.000000	0.334005
1377.000000	0.333950
1378.000000	0.333738
1379.000000	0.333550
1380.000000	0.333306
1381.000000	0.332889
1382.000000	0.332503
1383.000000	0.332176
1384.000000	0.331811
1385.000000	0.331482
1386.000000	0.331140
1387.000000	0.330758
1388.000000	0.330302
1389.000000	0.329825
1390.000000	0.329437
1391.000000	0.328914
1392.000000	0.328359
1393.000000	0.327859
1394.000000	0.327373
1395.000000	0.326932
1396.000000	0.326674
1397.000000	0.326108
1398.000000	0.325441
1399.000000	0.324669
1400.000000	0.323548
1401.000000	0.322696
1402.000000	0.321974
1403.000000	0.321142
1404.000000	0.320524
1405.000000	0.319898
1406.000000	0.319062
1407.000000	0.318287
1408.000000	0.317362
1409.000000	0.316355
1410.000000	0.315548
1411.000000	0.314724
1412.000000	0.313816
1413.000000	0.312978
1414.000000	0.312130
1415.000000	0.311268
1416.000000	0.310576
1417.000000	0.309930
1418.000000	0.309160
1419.000000	0.308464
1420.000000	0.307648
1421.000000	0.307014
1422.000000	0.306438
1423.000000	0.305686
1424.000000	0.304940
1425.000000	0.304158
1426.000000	0.303254
1427.000000	0.302606
1428.000000	0.302011
1429.000000	0.301358
1430.000000	0.300851
1431.000000	0.300344
1432.000000	0.299769
1433.000000	0.299150
1434.000000	0.298625
1435.000000	0.298113
1436.000000	0.297705
1437.000000	0.297531
1438.000000	0.297165
1439.000000	0.296740
1440.000000	0.296436
1441.000000	0.296066
1442.000000	0.295799
1443.000000	0.295617
1444.000000	0.295442
1445.000000	0.295199
1446.000000	0.294983
1447.000000	0.294708
1448.000000	0.294502
1449.000000	0.294360
1450.000000	0.294240
1451.000000	0.294041
1452.000000	0.293739
1453.000000	0.293523
1454.000000	0.293155
1455.000000	0.292863
1456.000000	0.292824
1457.000000	0.292556
1458.000000	0.292286
1459.000000	0.292213
1460.000000	0.292093
1461.000000	0.291999
1462.000000	0.291994
1463.000000	0.291895
1464.000000	0.291797
1465.000000	0.291817
1466.000000	0.291795
1467.000000	0.291857
1468.000000	0.291865
1469.000000	0.291800
1470.000000	0.291820
1471.000000	0.291819
1472.000000	0.291849
1473.000000	0.292092
1474.000000	0.292246
1475.000000	0.292430
1476.000000	0.292599
1477.000000	0.292721
1478.000000	0.292951
1479.000000	0.293079
1480.000000	0.293239
1481.000000	0.293438
1482.000000	0.293702
1483.000000	0.293970
1484.000000	0.294293
1485.000000	0.294562
1486.000000	0.294792
1487.000000	0.295032
1488.000000	0.295299
1489.000000	0.295566
1490.000000	0.295683
1491.000000	0.295921
1492.000000	0.296144
1493.000000	0.296476
1494.000000	0.296956
1495.000000	0.297285
1496.000000	0.297529
1497.000000	0.297809
1498.000000	0.298095
1499.000000	0.298254
1500.000000	0.298463
1501.000000	0.298720
1502.000000	0.298922
1503.000000	0.299159
1504.000000	0.299376
1505.000000	0.299675
1506.000000	0.299854
1507.000000	0.299835
1508.000000	0.300010
1509.000000	0.300201
1510.000000	0.300302
1511.000000	0.300615
1512.000000	0.300925
1513.000000	0.301073
1514.000000	0.301218
1515.000000	0.301327
1516.000000	0.301523
1517.000000	0.301729
1518.000000	0.301872
1519.000000	0.302000
1520.000000	0.302085
1521.000000	0.302044
1522.000000	0.302118
1523.000000	0.302322
1524.000000	0.302447
1525.000000	0.302663
1526.000000	0.302837
1527.000000	0.302921
1528.000000	0.303006
1529.000000	0.302939
1530.000000	0.302790
1531.000000	0.302779
1532.000000	0.302882
1533.000000	0.302961
1534.000000	0.303067
1535.000000	0.303174
1536.000000	0.303094
1537.000000	0.303142
1538.000000	0.303269
1539.000000	0.303341
1540.000000	0.303465
1541.000000	0.303485
1542.000000	0.303518
1543.000000	0.303589
1544.000000	0.303554
1545.000000	0.303726
1546.000000	0.303863
1547.000000	0.303821
1548.000000	0.303970
1549.000000	0.304013
1550.000000	0.303945
1551.000000	0.304001
1552.000000	0.303937
1553.000000	0.303810
1554.000000	0.303878
1555.000000	0.303978
1556.000000	0.304003
1557.000000	0.304062
1558.000000	0.304087
1559.000000	0.303926
1560.000000	0.303890
1561.000000	0.303945
1562.000000	0.303947
1563.000000	0.304010
1564.000000	0.304002
1565.000000	0.303995
1566.000000	0.303911
1567.000000	0.303802
1568.000000	0.303752
1569.000000	0.303766
1570.000000	0.303749
1571.000000	0.303732
1572.000000	0.303700
1573.000000	0.303691
1574.000000	0.303634
1575.000000	0.303545
1576.000000	0.303554
1577.000000	0.303534
1578.000000	0.303519
1579.000000	0.303673
1580.000000	0.303685
1581.000000	0.303638
1582.000000	0.303683
1583.000000	0.303763
1584.000000	0.303728
1585.000000	0.303799
1586.000000	0.303809
1587.000000	0.303672
1588.000000	0.303653
1589.000000	0.303686
1590.000000	0.303702
1591.000000	0.303792
1592.000000	0.303818
1593.000000	0.303857
1594.000000	0.303876
1595.000000	0.303872
1596.000000	0.303938
1597.000000	0.304090
1598.000000	0.304104
1599.000000	0.304153
1600.000000	0.304126
1601.000000	0.304035
1602.000000	0.304008
1603.000000	0.303988
1604.000000	0.303994
1605.000000	0.304072
1606.000000	0.304102
1607.000000	0.304211
1608.000000	0.304272
1609.000000	0.304288
1610.000000	0.304309
1611.000000	0.304407
1612.000000	0.304441
1613.000000	0.304555
1614.000000	0.304562
1615.000000	0.304514
1616.000000	0.304542
1617.000000	0.304481
1618.000000	0.304473
1619.000000	0.304551
1620.000000	0.304582
1621.000000	0.304570
1622.000000	0.304730
1623.000000	0.304917
1624.000000	0.305099
1625.000000	0.305294
1626.000000	0.305359
1627.000000	0.305362
1628.000000	0.305481
1629.000000	0.305532
1630.000000	0.305722
1631.000000	0.305995
1632.000000	0.306186
1633.000000	0.306443
1634.000000	0.306591
1635.000000	0.306688
1636.000000	0.306785
1637.000000	0.306872
1638.000000	0.306894
1639.000000	0.306945
1640.000000	0.306967
1641.000000	0.306941
1642.000000	0.306987
1643.000000	0.307097
1644.000000	0.307231
1645.000000	0.307454
1646.000000	0.307527
1647.000000	0.307597
1648.000000	0.307573
1649.000000	0.307454
1650.000000	0.307531
1651.000000	0.307703
1652.000000	0.307902
1653.000000	0.308218
1654.000000	0.308370
1655.000000	0.308365
1656.000000	0.308418
1657.000000	0.308482
1658.000000	0.308537
1659.000000	0.308786
1660.000000	0.308915
1661.000000	0.308872
1662.000000	0.308934
1663.000000	0.308928
1664.000000	0.308988
1665.000000	0.309091
1666.000000	0.309313
1667.000000	0.309573
1668.000000	0.309780
1669.000000	0.309972
1670.000000	0.310153
1671.000000	0.310438
1672.000000	0.310629
1673.000000	0.310772
1674.000000	0.311037
1675.000000	0.311176
1676.000000	0.311238
1677.000000	0.311392
1678.000000	0.311404
1679.000000	0.311379
1680.000000	0.311604
1681.000000	0.311825
1682.000000	0.311917
1683.000000	0.312036
1684.000000	0.312003
1685.000000	0.311951
1686.000000	0.311942
1687.000000	0.311961
1688.000000	0.312093
1689.000000	0.312252
1690.000000	0.312434
1691.000000	0.312709
1692.000000	0.312797
1693.000000	0.312882
1694.000000	0.313054
1695.000000	0.313182
1696.000000	0.313209
1697.000000	0.313227
1698.000000	0.313149
1699.000000	0.313184
1700.000000	0.313420
1701.000000	0.313548
1702.000000	0.313393
1703.000000	0.313327
1704.000000	0.313334
1705.000000	0.313288
1706.000000	0.313311
1707.000000	0.313358
1708.000000	0.313282
1709.000000	0.313252
1710.000000	0.313445
1711.000000	0.313560
1712.000000	0.313707
1713.000000	0.313766
1714.000000	0.313747
1715.000000	0.313825
1716.000000	0.313901
1717.000000	0.314002
1718.000000	0.314279
1719.000000	0.314294
1720.000000	0.314103
1721.000000	0.314132
1722.000000	0.314179
1723.000000	0.314194
1724.000000	0.314399
1725.000000	0.314480
1726.000000	0.314206
1727.000000	0.314305
1728.000000	0.314593
1729.000000	0.314678
1730.000000	0.314971
1731.000000	0.315126
1732.000000	0.315123
1733.000000	0.315261
1734.000000	0.315354
1735.000000	0.315413
1736.000000	0.315396
1737.000000	0.315453
1738.000000	0.315548
1739.000000	0.315624
1740.000000	0.315715
1741.000000	0.315764
1742.000000	0.315792
1743.000000	0.315860
1744.000000	0.315915
1745.000000	0.315956
1746.000000	0.315962
1747.000000	0.316213
1748.000000	0.316204
1749.000000	0.316013
1750.000000	0.315916
1751.000000	0.315722
1752.000000	0.315790
1753.000000	0.316112
1754.000000	0.316243
1755.000000	0.316194
1756.000000	0.316311
1757.000000	0.316541
1758.000000	0.316598
1759.000000	0.316614
1760.000000	0.316708
1761.000000	0.316605
1762.000000	0.316600
1763.000000	0.316891
1764.000000	0.316958
1765.000000	0.316721
1766.000000	0.316758
1767.000000	0.316845
1768.000000	0.316825
1769.000000	0.316986
1770.000000	0.317101
1771.000000	0.317033
1772.000000	0.317075
1773.000000	0.317114
1774.000000	0.317279
1775.000000	0.317596
1776.000000	0.317774
1777.000000	0.318015
1778.000000	0.318108
1779.000000	0.318046
1780.000000	0.317982
1781.000000	0.317768
1782.000000	0.317789
1783.000000	0.317874
1784.000000	0.317967
1785.000000	0.318246
1786.000000	0.318325
1787.000000	0.318324
1788.000000	0.318348
1789.000000	0.318390
1790.000000	0.318546
1791.000000	0.318661
1792.000000	0.319026
1793.000000	0.319213
1794.000000	0.319293
1795.000000	0.319379
1796.000000	0.319327
1797.000000	0.319343
1798.000000	0.319358
1799.000000	0.319415
1800.000000	0.319616
1801.000000	0.319875
1802.000000	0.319726
1803.000000	0.318788
1804.000000	0.318744
1805.000000	0.319109
1806.000000	0.319291
1807.000000	0.319665
1808.000000	0.320041
1809.000000	0.320607
1810.000000	0.320747
1811.000000	0.320858
1812.000000	0.321056
1813.000000	0.321001
1814.000000	0.320425
1815.000000	0.320394
1816.000000	0.320794
1817.000000	0.320693
1818.000000	0.320433
1819.000000	0.320440
1820.000000	0.320698
1821.000000	0.320768
1822.000000	0.320788
1823.000000	0.320958
1824.000000	0.320967
1825.000000	0.320487
1826.000000	0.320360
1827.000000	0.320119
1828.000000	0.320630
1829.000000	0.320436
1830.000000	0.320449
1831.000000	0.320169
1832.000000	0.319489
1833.000000	0.319122
1834.000000	0.318618
1835.000000	0.318442
1836.000000	0.318293
1837.000000	0.318539
1838.000000	0.319489
1839.000000	0.319689
1840.000000	0.319262
1841.000000	0.319686
1842.000000	0.319750
1843.000000	0.319417
1844.000000	0.319113
1845.000000	0.318759
1846.000000	0.318417
1847.000000	0.317443
1848.000000	0.316893
1849.000000	0.317510
1850.000000	0.318008
1851.000000	0.317753
1852.000000	0.317353
1853.000000	0.316913
1854.000000	0.315410
1855.000000	0.314750
1856.000000	0.314480
1857.000000	0.314154
1858.000000	0.313790
1859.000000	0.312967
1860.000000	0.312868
1861.000000	0.312737
1862.000000	0.312114
1863.000000	0.311720
1864.000000	0.310727
1865.000000	0.308792
1866.000000	0.307374
1867.000000	0.305604
1868.000000	0.304509
1869.000000	0.303781
1870.000000	0.303196
1871.000000	0.303527
1872.000000	0.303422
1873.000000	0.302529
1874.000000	0.301209
1875.000000	0.299767
1876.000000	0.297461
1877.000000	0.294696
1878.000000	0.292458
1879.000000	0.290330
1880.000000	0.288538
1881.000000	0.287044
1882.000000	0.285915
1883.000000	0.283748
1884.000000	0.281434
1885.000000	0.278188
1886.000000	0.275732
1887.000000	0.273032
1888.000000	0.270900
1889.000000	0.269443
1890.000000	0.266694
1891.000000	0.263974
1892.000000	0.261721
1893.000000	0.258976
1894.000000	0.256706
1895.000000	0.253803
1896.000000	0.250778
1897.000000	0.247276
1898.000000	0.244164
1899.000000	0.240966
1900.000000	0.238742
1901.000000	0.236456
1902.000000	0.233349
1903.000000	0.230572
1904.000000	0.227653
1905.000000	0.224833
1906.000000	0.222220
1907.000000	0.219968
1908.000000	0.217842
1909.000000	0.215812
1910.000000	0.213567
1911.000000	0.210960
1912.000000	0.208502
1913.000000	0.206438
1914.000000	0.204609
1915.000000	0.203483
1916.000000	0.202716
1917.000000	0.201511
1918.000000	0.200278
1919.000000	0.198808
1920.000000	0.197349
1921.000000	0.196247
1922.000000	0.195001
1923.000000	0.194213
1924.000000	0.193553
1925.000000	0.192319
1926.000000	0.192055
1927.000000	0.192064
1928.000000	0.191976
1929.000000	0.192094
1930.000000	0.192720
1931.000000	0.192566
1932.000000	0.192189
1933.000000	0.191957
1934.000000	0.191449
1935.000000	0.190865
1936.000000	0.190727
1937.000000	0.190598
1938.000000	0.190349
1939.000000	0.190367
1940.000000	0.190744
1941.000000	0.190909
1942.000000	0.191087
1943.000000	0.190847
1944.000000	0.190310
1945.000000	0.189835
1946.000000	0.189183
1947.000000	0.189184
1948.000000	0.189329
1949.000000	0.189700
1950.000000	0.189837
1951.000000	0.189523
1952.000000	0.188837
1953.000000	0.188228
1954.000000	0.187151
1955.000000	0.186759
1956.000000	0.186935
1957.000000	0.186761
1958.000000	0.186968
1959.000000	0.186937
1960.000000	0.186751
1961.000000	0.186649
1962.000000	0.186616
1963.000000	0.186638
1964.000000	0.186901
1965.000000	0.186938
1966.000000	0.186920
1967.000000	0.186678
1968.000000	0.186099
1969.000000	0.185707
1970.000000	0.185464
1971.000000	0.185292
1972.000000	0.185565
1973.000000	0.185728
1974.000000	0.186126
1975.000000	0.186296
1976.000000	0.186574
1977.000000	0.186496
1978.000000	0.186196
1979.000000	0.186417
1980.000000	0.186789
1981.000000	0.187299
1982.000000	0.188279
1983.000000	0.188863
1984.000000	0.189071
1985.000000	0.188820
1986.000000	0.189055
1987.000000	0.189092
1988.000000	0.189498
1989.000000	0.190571
1990.000000	0.191198
1991.000000	0.191583
1992.000000	0.192250
1993.000000	0.192389
1994.000000	0.192992
1995.000000	0.194091
1996.000000	0.194554
1997.000000	0.195187
1998.000000	0.196287
1999.000000	0.196865
2000.000000	0.196930
2001.000000	0.197309
2002.000000	0.197910
2003.000000	0.199007
2004.000000	0.200648
2005.000000	0.201863
2006.000000	0.202835
2007.000000	0.203666
2008.000000	0.204254
2009.000000	0.204366
2010.000000	0.204880
2011.000000	0.205080
2012.000000	0.205723
2013.000000	0.206628
2014.000000	0.207441
2015.000000	0.208974
2016.000000	0.210105
2017.000000	0.210683
2018.000000	0.211841
2019.000000	0.212518
2020.000000	0.212731
2021.000000	0.213318
2022.000000	0.213891
2023.000000	0.214620
2024.000000	0.215755
2025.000000	0.216783
2026.000000	0.217800
2027.000000	0.218677
2028.000000	0.219644
2029.000000	0.220022
2030.000000	0.220752
2031.000000	0.221874
2032.000000	0.222643
2033.000000	0.223664
2034.000000	0.224219
2035.000000	0.224348
2036.000000	0.224455
2037.000000	0.224413
2038.000000	0.224461
2039.000000	0.224212
2040.000000	0.224796
2041.000000	0.225579
2042.000000	0.226504
2043.000000	0.227494
2044.000000	0.228506
2045.000000	0.229423
2046.000000	0.230207
2047.000000	0.230853
2048.000000	0.231448
2049.000000	0.232019
2050.000000	0.231919
2051.000000	0.232155
2052.000000	0.232248
2053.000000	0.232889
2054.000000	0.233871
2055.000000	0.235336
2056.000000	0.237453
2057.000000	0.239007
2058.000000	0.239932
2059.000000	0.240854
2060.000000	0.241172
2061.000000	0.240562
2062.000000	0.240502
2063.000000	0.240211
2064.000000	0.240097
2065.000000	0.240173
2066.000000	0.240596
2067.000000	0.241498
2068.000000	0.242523
2069.000000	0.243587
2070.000000	0.244911
2071.000000	0.245189
2072.000000	0.244712
2073.000000	0.244922
2074.000000	0.244773
2075.000000	0.245285
2076.000000	0.246866
2077.000000	0.247627
2078.000000	0.248391
2079.000000	0.248900
2080.000000	0.248596
2081.000000	0.248942
2082.000000	0.249786
2083.000000	0.250015
2084.000000	0.250473
2085.000000	0.251719
2086.000000	0.252398
2087.000000	0.253146
2088.000000	0.253485
2089.000000	0.253374
2090.000000	0.253813
2091.000000	0.254134
2092.000000	0.254739
2093.000000	0.256161
2094.000000	0.257025
2095.000000	0.257741
2096.000000	0.258456
2097.000000	0.259060
2098.000000	0.259321
2099.000000	0.259722
2100.000000	0.260392
2101.000000	0.260905
2102.000000	0.261422
2103.000000	0.261970
2104.000000	0.262564
2105.000000	0.262852
2106.000000	0.262704
2107.000000	0.263203
2108.000000	0.263863
2109.000000	0.264206
2110.000000	0.264777
2111.000000	0.265354
2112.000000	0.265500
2113.000000	0.265481
2114.000000	0.266636
2115.000000	0.267246
2116.000000	0.267467
2117.000000	0.267726
2118.000000	0.267375
2119.000000	0.267156
2120.000000	0.267193
2121.000000	0.267315
2122.000000	0.267645
2123.000000	0.268363
2124.000000	0.268714
2125.000000	0.269216
2126.000000	0.269398
2127.000000	0.269174
2128.000000	0.269247
2129.000000	0.269454
2130.000000	0.269243
2131.000000	0.268644
2132.000000	0.267815
2133.000000	0.267491
2134.000000	0.267707
2135.000000	0.267807
2136.000000	0.268653
2137.000000	0.269453
2138.000000	0.270245
2139.000000	0.270598
2140.000000	0.271448
2141.000000	0.271795
2142.000000	0.271217
2143.000000	0.271021
2144.000000	0.270654
2145.000000	0.270974
2146.000000	0.272227
2147.000000	0.272730
2148.000000	0.273437
2149.000000	0.274331
2150.000000	0.273148
2151.000000	0.272570
2152.000000	0.271976
2153.000000	0.271703
2154.000000	0.271660
2155.000000	0.271902
2156.000000	0.272435
2157.000000	0.273799
2158.000000	0.274024
2159.000000	0.274321
2160.000000	0.274368
2161.000000	0.273254
2162.000000	0.272782
2163.000000	0.272485
2164.000000	0.272110
2165.000000	0.271693
2166.000000	0.271349
2167.000000	0.271332
2168.000000	0.271681
2169.000000	0.272258
2170.000000	0.273213
2171.000000	0.273751
2172.000000	0.274490
2173.000000	0.274512
2174.000000	0.273554
2175.000000	0.273690
2176.000000	0.273941
2177.000000	0.274298
2178.000000	0.276257
2179.000000	0.276454
2180.000000	0.275117
2181.000000	0.274798
2182.000000	0.273936
2183.000000	0.272292
2184.000000	0.272058
2185.000000	0.271503
2186.000000	0.270138
2187.000000	0.270597
2188.000000	0.270854
2189.000000	0.270718
2190.000000	0.271822
2191.000000	0.272933
2192.000000	0.273708
2193.000000	0.274670
2194.000000	0.275554
2195.000000	0.276420
2196.000000	0.276504
2197.000000	0.275660
2198.000000	0.276091
2199.000000	0.276999
2200.000000	0.277237
2201.000000	0.278133
2202.000000	0.278532
2203.000000	0.277940
2204.000000	0.276209
2205.000000	0.276080
2206.000000	0.276948
2207.000000	0.274657
2208.000000	0.274022
2209.000000	0.273701
2210.000000	0.273184
2211.000000	0.273049
2212.000000	0.271173
2213.000000	0.269793
2214.000000	0.265760
2215.000000	0.265786
2216.000000	0.268515
2217.000000	0.270267
2218.000000	0.274871
2219.000000	0.275818
2220.000000	0.274053
2221.000000	0.273841
2222.000000	0.272766
2223.000000	0.271663
2224.000000	0.270590
2225.000000	0.270805
2226.000000	0.270158
2227.000000	0.269280
2228.000000	0.271286
2229.000000	0.273721
2230.000000	0.275143
2231.000000	0.276050
2232.000000	0.276121
2233.000000	0.274766
2234.000000	0.273133
2235.000000	0.274233
2236.000000	0.274474
2237.000000	0.275116
2238.000000	0.274825
2239.000000	0.273659
2240.000000	0.273379
2241.000000	0.272541
2242.000000	0.273294
2243.000000	0.276310
2244.000000	0.277968
2245.000000	0.279701
2246.000000	0.280377
2247.000000	0.279565
2248.000000	0.279020
2249.000000	0.277997
2250.000000	0.277931
2251.000000	0.276656
2252.000000	0.278411
2253.000000	0.279166
2254.000000	0.278202
2255.000000	0.278606
2256.000000	0.278248
2257.000000	0.276721
2258.000000	0.276703
2259.000000	0.275953
2260.000000	0.273770
2261.000000	0.273162
2262.000000	0.273613
2263.000000	0.274056
2264.000000	0.275044
2265.000000	0.275692
2266.000000	0.277649
2267.000000	0.276353
2268.000000	0.272973
2269.000000	0.271057
2270.000000	0.266549
2271.000000	0.264948
2272.000000	0.267510
2273.000000	0.266308
2274.000000	0.263250
2275.000000	0.261811
2276.000000	0.259628
2277.000000	0.256774
2278.000000	0.256568
2279.000000	0.258181
2280.000000	0.258483
2281.000000	0.259796
2282.000000	0.260445
2283.000000	0.259783
2284.000000	0.259780
2285.000000	0.259394
2286.000000	0.261325
2287.000000	0.263029
2288.000000	0.263532
2289.000000	0.264172
2290.000000	0.261343
2291.000000	0.259527
2292.000000	0.259377
2293.000000	0.255993
2294.000000	0.255082
2295.000000	0.255845
2296.000000	0.256397
2297.000000	0.258394
2298.000000	0.259266
2299.000000	0.260442
2300.000000	0.260219
2301.000000	0.257481
2302.000000	0.256492
2303.000000	0.255148
2304.000000	0.255035
2305.000000	0.257438
2306.000000	0.257930
2307.000000	0.258468
2308.000000	0.257464
2309.000000	0.256533
2310.000000	0.255387
2311.000000	0.254330
2312.000000	0.255112
2313.000000	0.254401
2314.000000	0.252539
2315.000000	0.250673
2316.000000	0.249448
2317.000000	0.249576
2318.000000	0.249296
2319.000000	0.249673
2320.000000	0.249305
2321.000000	0.247673
2322.000000	0.246845
2323.000000	0.245891
2324.000000	0.245179
2325.000000	0.244074
2326.000000	0.242985
2327.000000	0.242902
2328.000000	0.242092
2329.000000	0.242365
2330.000000	0.242636
2331.000000	0.240271
2332.000000	0.239235
2333.000000	0.237555
2334.000000	0.235277
2335.000000	0.234587
2336.000000	0.234611
2337.000000	0.234665
2338.000000	0.235364
2339.000000	0.236009
2340.000000	0.237625
2341.000000	0.238102
2342.000000	0.239260
2343.000000	0.238426
2344.000000	0.235578
2345.000000	0.233117
2346.000000	0.228260
2347.000000	0.226361
2348.000000	0.226128
2349.000000	0.225391
2350.000000	0.225623
2351.000000	0.225211
2352.000000	0.222561
2353.000000	0.220308
2354.000000	0.219622
2355.000000	0.218414
2356.000000	0.217230
2357.000000	0.216888
2358.000000	0.214370
2359.000000	0.213509
2360.000000	0.216478
2361.000000	0.221429
2362.000000	0.227337
2363.000000	0.229650
2364.000000	0.226178
2365.000000	0.220309
2366.000000	0.211939
2367.000000	0.206960
2368.000000	0.205946
2369.000000	0.205329
2370.000000	0.207425
2371.000000	0.207128
2372.000000	0.209681
2373.000000	0.213784
2374.000000	0.214153
2375.000000	0.214643
2376.000000	0.209632
2377.000000	0.203022
2378.000000	0.199571
2379.000000	0.197111
2380.000000	0.193902
2381.000000	0.191337
2382.000000	0.189422
2383.000000	0.184761
2384.000000	0.186307
2385.000000	0.189227
2386.000000	0.185824
2387.000000	0.189471
2388.000000	0.192845
2389.000000	0.190999
2390.000000	0.194827
2391.000000	0.195142
2392.000000	0.192455
2393.000000	0.191012
2394.000000	0.190325
2395.000000	0.191237
2396.000000	0.189509
2397.000000	0.190721
2398.000000	0.185647
2399.000000	0.178164
2400.000000	0.179614
2401.000000	0.181189
2402.000000	0.186321
2403.000000	0.194144
2404.000000	0.196490
2405.000000	0.192258
2406.000000	0.192480
2407.000000	0.195964
2408.000000	0.192728
2409.000000	0.193466
2410.000000	0.190328
2411.000000	0.178929
2412.000000	0.180146
2413.000000	0.188510
2414.000000	0.192401
2415.000000	0.198129
2416.000000	0.198533
2417.000000	0.187221
2418.000000	0.177829
2419.000000	0.164777
2420.000000	0.151760
2421.000000	0.152891
2422.000000	0.149130
2423.000000	0.153635
2424.000000	0.164144
2425.000000	0.161627
2426.000000	0.166076
2427.000000	0.171800
2428.000000	0.170405
2429.000000	0.168698
2430.000000	0.177159
2431.000000	0.189158
2432.000000	0.196199
2433.000000	0.208515
2434.000000	0.212307
2435.000000	0.202606
2436.000000	0.188145
2437.000000	0.175392
2438.000000	0.164405
2439.000000	0.157234
2440.000000	0.157430
2441.000000	0.155730
2442.000000	0.155151
2443.000000	0.142532
2444.000000	0.131205
2445.000000	0.143051
2446.000000	0.142602
2447.000000	0.142851
2448.000000	0.154106
2449.000000	0.148520
2450.000000	0.152855
2451.000000	0.169768
2452.000000	0.182018
2453.000000	0.193499
2454.000000	0.189259
2455.000000	0.175325
2456.000000	0.158564
2457.000000	0.138654
2458.000000	0.119816
2459.000000	0.115551
2460.000000	0.127184
2461.000000	0.126161
2462.000000	0.141747
2463.000000	0.155286
2464.000000	0.136080
2465.000000	0.136526
2466.000000	0.144655
2467.000000	0.141685
2468.000000	0.149366
2469.000000	0.145391
2470.000000	0.124034
2471.000000	0.114010
2472.000000	0.116809
2473.000000	0.133711
2474.000000	0.146848
2475.000000	0.144589
2476.000000	0.147244
2477.000000	0.138514
2478.000000	0.137248
2479.000000	0.146349
2480.000000	0.147055
2481.000000	0.143656
2482.000000	0.131577
2483.000000	0.117040
2484.000000	0.101622
2485.000000	0.095705
2486.000000	0.091131
2487.000000	0.115286
2488.000000	0.150989
2489.000000	0.165871
2490.000000	0.191009
2491.000000	0.167251
2492.000000	0.136404
2493.000000	0.114849
2494.000000	0.087530
2495.000000	0.015665
2496.000000	-0.006885
2497.000000	-0.007910
2498.000000	-0.013953
2499.000000	0.024724
2500.000000	0.036365
