# Wavelength	NAu-1-50_HEX-20_FV7-30_00000.asd.rts.txt
350.000000	0.159135
351.000000	0.142793
352.000000	0.138754
353.000000	0.128425
354.000000	0.110473
355.000000	0.121717
356.000000	0.132564
357.000000	0.136382
358.000000	0.137860
359.000000	0.136137
360.000000	0.132388
361.000000	0.128207
362.000000	0.124977
363.000000	0.129587
364.000000	0.140050
365.000000	0.133498
366.000000	0.128267
367.000000	0.129736
368.000000	0.133199
369.000000	0.139526
370.000000	0.141402
371.000000	0.132195
372.000000	0.129712
373.000000	0.131213
374.000000	0.132787
375.000000	0.132416
376.000000	0.135106
377.000000	0.139613
378.000000	0.138917
379.000000	0.138671
380.000000	0.140200
381.000000	0.143699
382.000000	0.147170
383.000000	0.147631
384.000000	0.144721
385.000000	0.143501
386.000000	0.145242
387.000000	0.148568
388.000000	0.148801
389.000000	0.150994
390.000000	0.154257
391.000000	0.155692
392.000000	0.156053
393.000000	0.156226
394.000000	0.156907
395.000000	0.158266
396.000000	0.159437
397.000000	0.160512
398.000000	0.163038
399.000000	0.165710
400.000000	0.167743
401.000000	0.168448
402.000000	0.168887
403.000000	0.169937
404.000000	0.172046
405.000000	0.174017
406.000000	0.175264
407.000000	0.175937
408.000000	0.177217
409.000000	0.178339
410.000000	0.179245
411.000000	0.180205
412.000000	0.180960
413.000000	0.181993
414.000000	0.183688
415.000000	0.184945
416.000000	0.185699
417.000000	0.186014
418.000000	0.185770
419.000000	0.186511
420.000000	0.187837
421.000000	0.187588
422.000000	0.188587
423.000000	0.189782
424.000000	0.189330
425.000000	0.189426
426.000000	0.189453
427.000000	0.188894
428.000000	0.188676
429.000000	0.188630
430.000000	0.188653
431.000000	0.188719
432.000000	0.188715
433.000000	0.188786
434.000000	0.189250
435.000000	0.189511
436.000000	0.189263
437.000000	0.188515
438.000000	0.188404
439.000000	0.188275
440.000000	0.187895
441.000000	0.187714
442.000000	0.187792
443.000000	0.187764
444.000000	0.187042
445.000000	0.186798
446.000000	0.186925
447.000000	0.186914
448.000000	0.187365
449.000000	0.188071
450.000000	0.188953
451.000000	0.190491
452.000000	0.192404
453.000000	0.194521
454.000000	0.196984
455.000000	0.199080
456.000000	0.201255
457.000000	0.204209
458.000000	0.206755
459.000000	0.209009
460.000000	0.211248
461.000000	0.213137
462.000000	0.214895
463.000000	0.216516
464.000000	0.218058
465.000000	0.219260
466.000000	0.220157
467.000000	0.221097
468.000000	0.222128
469.000000	0.223100
470.000000	0.223943
471.000000	0.224435
472.000000	0.225027
473.000000	0.225948
474.000000	0.226619
475.000000	0.227172
476.000000	0.227800
477.000000	0.228490
478.000000	0.228973
479.000000	0.229446
480.000000	0.229992
481.000000	0.230758
482.000000	0.231411
483.000000	0.231592
484.000000	0.232266
485.000000	0.232953
486.000000	0.233507
487.000000	0.233905
488.000000	0.234424
489.000000	0.235061
490.000000	0.235601
491.000000	0.236144
492.000000	0.236827
493.000000	0.237606
494.000000	0.238093
495.000000	0.238580
496.000000	0.239235
497.000000	0.239877
498.000000	0.240527
499.000000	0.241263
500.000000	0.242078
501.000000	0.242726
502.000000	0.243297
503.000000	0.243956
504.000000	0.244708
505.000000	0.245454
506.000000	0.246128
507.000000	0.246898
508.000000	0.247600
509.000000	0.248176
510.000000	0.248940
511.000000	0.249656
512.000000	0.250388
513.000000	0.251390
514.000000	0.252265
515.000000	0.253102
516.000000	0.254050
517.000000	0.254925
518.000000	0.255713
519.000000	0.256414
520.000000	0.257399
521.000000	0.258379
522.000000	0.259251
523.000000	0.260167
524.000000	0.261040
525.000000	0.261908
526.000000	0.262918
527.000000	0.263975
528.000000	0.265003
529.000000	0.266002
530.000000	0.267064
531.000000	0.268120
532.000000	0.269075
533.000000	0.270160
534.000000	0.271220
535.000000	0.272242
536.000000	0.273400
537.000000	0.274496
538.000000	0.275524
539.000000	0.276548
540.000000	0.277644
541.000000	0.278731
542.000000	0.279788
543.000000	0.280957
544.000000	0.282133
545.000000	0.283188
546.000000	0.284192
547.000000	0.285246
548.000000	0.286377
549.000000	0.287456
550.000000	0.288535
551.000000	0.289643
552.000000	0.290741
553.000000	0.291780
554.000000	0.292810
555.000000	0.293870
556.000000	0.294899
557.000000	0.295870
558.000000	0.296897
559.000000	0.297908
560.000000	0.298824
561.000000	0.299748
562.000000	0.300704
563.000000	0.301500
564.000000	0.302310
565.000000	0.303204
566.000000	0.304080
567.000000	0.304855
568.000000	0.305511
569.000000	0.306249
570.000000	0.307010
571.000000	0.307753
572.000000	0.308476
573.000000	0.309140
574.000000	0.309751
575.000000	0.310388
576.000000	0.310984
577.000000	0.311556
578.000000	0.312173
579.000000	0.312695
580.000000	0.313207
581.000000	0.313724
582.000000	0.314170
583.000000	0.314524
584.000000	0.314840
585.000000	0.315229
586.000000	0.315601
587.000000	0.315895
588.000000	0.316104
589.000000	0.316445
590.000000	0.316817
591.000000	0.317133
592.000000	0.317399
593.000000	0.317666
594.000000	0.317905
595.000000	0.318001
596.000000	0.318138
597.000000	0.318355
598.000000	0.318522
599.000000	0.318577
600.000000	0.318650
601.000000	0.318768
602.000000	0.318889
603.000000	0.318964
604.000000	0.319000
605.000000	0.319065
606.000000	0.319219
607.000000	0.319433
608.000000	0.319604
609.000000	0.319707
610.000000	0.319773
611.000000	0.319847
612.000000	0.319910
613.000000	0.319981
614.000000	0.320090
615.000000	0.320134
616.000000	0.320209
617.000000	0.320284
618.000000	0.320291
619.000000	0.320365
620.000000	0.320434
621.000000	0.320425
622.000000	0.320453
623.000000	0.320430
624.000000	0.320312
625.000000	0.320353
626.000000	0.320432
627.000000	0.320474
628.000000	0.320452
629.000000	0.320580
630.000000	0.320700
631.000000	0.320759
632.000000	0.320848
633.000000	0.320970
634.000000	0.321097
635.000000	0.321228
636.000000	0.321406
637.000000	0.321610
638.000000	0.321752
639.000000	0.321865
640.000000	0.322033
641.000000	0.322223
642.000000	0.322351
643.000000	0.322439
644.000000	0.322546
645.000000	0.322646
646.000000	0.322775
647.000000	0.322922
648.000000	0.323055
649.000000	0.323240
650.000000	0.323466
651.000000	0.323701
652.000000	0.323858
653.000000	0.324004
654.000000	0.324188
655.000000	0.324460
656.000000	0.324749
657.000000	0.324942
658.000000	0.325170
659.000000	0.325417
660.000000	0.325662
661.000000	0.325961
662.000000	0.326139
663.000000	0.326289
664.000000	0.326551
665.000000	0.326813
666.000000	0.327080
667.000000	0.327345
668.000000	0.327625
669.000000	0.327862
670.000000	0.328071
671.000000	0.328420
672.000000	0.328792
673.000000	0.329124
674.000000	0.329412
675.000000	0.329704
676.000000	0.330030
677.000000	0.330419
678.000000	0.330761
679.000000	0.331091
680.000000	0.331433
681.000000	0.331670
682.000000	0.332013
683.000000	0.332403
684.000000	0.332761
685.000000	0.333091
686.000000	0.333462
687.000000	0.333898
688.000000	0.334316
689.000000	0.334772
690.000000	0.335311
691.000000	0.335732
692.000000	0.336099
693.000000	0.336510
694.000000	0.336915
695.000000	0.337319
696.000000	0.337716
697.000000	0.338104
698.000000	0.338512
699.000000	0.338954
700.000000	0.339429
701.000000	0.339854
702.000000	0.340308
703.000000	0.340754
704.000000	0.341043
705.000000	0.341465
706.000000	0.341944
707.000000	0.342351
708.000000	0.342742
709.000000	0.343149
710.000000	0.343611
711.000000	0.344086
712.000000	0.344574
713.000000	0.345071
714.000000	0.345486
715.000000	0.345976
716.000000	0.346503
717.000000	0.346918
718.000000	0.347385
719.000000	0.347857
720.000000	0.348299
721.000000	0.348783
722.000000	0.349174
723.000000	0.349514
724.000000	0.349892
725.000000	0.350268
726.000000	0.350723
727.000000	0.351185
728.000000	0.351598
729.000000	0.352001
730.000000	0.352378
731.000000	0.352755
732.000000	0.353145
733.000000	0.353583
734.000000	0.353998
735.000000	0.354325
736.000000	0.354697
737.000000	0.355036
738.000000	0.355375
739.000000	0.355764
740.000000	0.356053
741.000000	0.356399
742.000000	0.356734
743.000000	0.356995
744.000000	0.357215
745.000000	0.357406
746.000000	0.357627
747.000000	0.357828
748.000000	0.358040
749.000000	0.358289
750.000000	0.358534
751.000000	0.358709
752.000000	0.358917
753.000000	0.359165
754.000000	0.359346
755.000000	0.359523
756.000000	0.359700
757.000000	0.359813
758.000000	0.359889
759.000000	0.360003
760.000000	0.360104
761.000000	0.360192
762.000000	0.360252
763.000000	0.360317
764.000000	0.360530
765.000000	0.360573
766.000000	0.360568
767.000000	0.360652
768.000000	0.360640
769.000000	0.360641
770.000000	0.360683
771.000000	0.360644
772.000000	0.360696
773.000000	0.360760
774.000000	0.360805
775.000000	0.360788
776.000000	0.360726
777.000000	0.360634
778.000000	0.360566
779.000000	0.360473
780.000000	0.360382
781.000000	0.360359
782.000000	0.360262
783.000000	0.360199
784.000000	0.360111
785.000000	0.360017
786.000000	0.359916
787.000000	0.359785
788.000000	0.359569
789.000000	0.359406
790.000000	0.359285
791.000000	0.359177
792.000000	0.359088
793.000000	0.358951
794.000000	0.358741
795.000000	0.358563
796.000000	0.358357
797.000000	0.358109
798.000000	0.357868
799.000000	0.357657
800.000000	0.357420
801.000000	0.357105
802.000000	0.356856
803.000000	0.356645
804.000000	0.356466
805.000000	0.356233
806.000000	0.355964
807.000000	0.355748
808.000000	0.355537
809.000000	0.355416
810.000000	0.355284
811.000000	0.355049
812.000000	0.354814
813.000000	0.354501
814.000000	0.354157
815.000000	0.353957
816.000000	0.353759
817.000000	0.353486
818.000000	0.353038
819.000000	0.352730
820.000000	0.352510
821.000000	0.352269
822.000000	0.352014
823.000000	0.351788
824.000000	0.351498
825.000000	0.351154
826.000000	0.350808
827.000000	0.350506
828.000000	0.350299
829.000000	0.350077
830.000000	0.349813
831.000000	0.349530
832.000000	0.349108
833.000000	0.348686
834.000000	0.348361
835.000000	0.348169
836.000000	0.347847
837.000000	0.347506
838.000000	0.347202
839.000000	0.346900
840.000000	0.346594
841.000000	0.346304
842.000000	0.346008
843.000000	0.345745
844.000000	0.345492
845.000000	0.345207
846.000000	0.344913
847.000000	0.344609
848.000000	0.344332
849.000000	0.344129
850.000000	0.343806
851.000000	0.343430
852.000000	0.343116
853.000000	0.342920
854.000000	0.342656
855.000000	0.342484
856.000000	0.342402
857.000000	0.342155
858.000000	0.341905
859.000000	0.341653
860.000000	0.341358
861.000000	0.341155
862.000000	0.340965
863.000000	0.340579
864.000000	0.340237
865.000000	0.339934
866.000000	0.339670
867.000000	0.339416
868.000000	0.339176
869.000000	0.338868
870.000000	0.338517
871.000000	0.338120
872.000000	0.337859
873.000000	0.337722
874.000000	0.337531
875.000000	0.337327
876.000000	0.337138
877.000000	0.336916
878.000000	0.336658
879.000000	0.336435
880.000000	0.336154
881.000000	0.335945
882.000000	0.335750
883.000000	0.335522
884.000000	0.335173
885.000000	0.334940
886.000000	0.334675
887.000000	0.334364
888.000000	0.334231
889.000000	0.334040
890.000000	0.333667
891.000000	0.333307
892.000000	0.333044
893.000000	0.332887
894.000000	0.332889
895.000000	0.332750
896.000000	0.332609
897.000000	0.332444
898.000000	0.332208
899.000000	0.331980
900.000000	0.331722
901.000000	0.331416
902.000000	0.331216
903.000000	0.331011
904.000000	0.330882
905.000000	0.330783
906.000000	0.330554
907.000000	0.330314
908.000000	0.330151
909.000000	0.329918
910.000000	0.329725
911.000000	0.329576
912.000000	0.329444
913.000000	0.329171
914.000000	0.329151
915.000000	0.329313
916.000000	0.329066
917.000000	0.328767
918.000000	0.328479
919.000000	0.328217
920.000000	0.328093
921.000000	0.327994
922.000000	0.327905
923.000000	0.327820
924.000000	0.327668
925.000000	0.327492
926.000000	0.327324
927.000000	0.327012
928.000000	0.326934
929.000000	0.326940
930.000000	0.326760
931.000000	0.326520
932.000000	0.326339
933.000000	0.326249
934.000000	0.326079
935.000000	0.325930
936.000000	0.325848
937.000000	0.325735
938.000000	0.325590
939.000000	0.325548
940.000000	0.325472
941.000000	0.325259
942.000000	0.325053
943.000000	0.324978
944.000000	0.324929
945.000000	0.324867
946.000000	0.324579
947.000000	0.324420
948.000000	0.324644
949.000000	0.324461
950.000000	0.324290
951.000000	0.324261
952.000000	0.324297
953.000000	0.324059
954.000000	0.323884
955.000000	0.323889
956.000000	0.323586
957.000000	0.323278
958.000000	0.323146
959.000000	0.323354
960.000000	0.323265
961.000000	0.323092
962.000000	0.322958
963.000000	0.322870
964.000000	0.322825
965.000000	0.322787
966.000000	0.322654
967.000000	0.322718
968.000000	0.322749
969.000000	0.322666
970.000000	0.322576
971.000000	0.322214
972.000000	0.322097
973.000000	0.322243
974.000000	0.322211
975.000000	0.322389
976.000000	0.322484
977.000000	0.322289
978.000000	0.322269
979.000000	0.322345
980.000000	0.322362
981.000000	0.322585
982.000000	0.322535
983.000000	0.322334
984.000000	0.322248
985.000000	0.322438
986.000000	0.322379
987.000000	0.322354
988.000000	0.322419
989.000000	0.322196
990.000000	0.322202
991.000000	0.322217
992.000000	0.322011
993.000000	0.322354
994.000000	0.322432
995.000000	0.322383
996.000000	0.322611
997.000000	0.322973
998.000000	0.322899
999.000000	0.322592
1000.000000	0.323140
1001.000000	0.322994
1002.000000	0.322934
1003.000000	0.322703
1004.000000	0.322712
1005.000000	0.322715
1006.000000	0.322362
1007.000000	0.321782
1008.000000	0.321937
1009.000000	0.322396
1010.000000	0.322459
1011.000000	0.323197
1012.000000	0.324343
1013.000000	0.324295
1014.000000	0.324086
1015.000000	0.324556
1016.000000	0.324949
1017.000000	0.324961
1018.000000	0.324791
1019.000000	0.324707
1020.000000	0.324101
1021.000000	0.323765
1022.000000	0.324203
1023.000000	0.324785
1024.000000	0.325673
1025.000000	0.325557
1026.000000	0.325647
1027.000000	0.325560
1028.000000	0.324632
1029.000000	0.324883
1030.000000	0.326087
1031.000000	0.325847
1032.000000	0.325888
1033.000000	0.326898
1034.000000	0.327359
1035.000000	0.327494
1036.000000	0.327829
1037.000000	0.328445
1038.000000	0.328421
1039.000000	0.328010
1040.000000	0.327990
1041.000000	0.327862
1042.000000	0.328018
1043.000000	0.328566
1044.000000	0.329185
1045.000000	0.329859
1046.000000	0.329896
1047.000000	0.330270
1048.000000	0.330607
1049.000000	0.330984
1050.000000	0.331681
1051.000000	0.332010
1052.000000	0.331837
1053.000000	0.332036
1054.000000	0.332616
1055.000000	0.332849
1056.000000	0.333052
1057.000000	0.333339
1058.000000	0.333596
1059.000000	0.334126
1060.000000	0.334779
1061.000000	0.335504
1062.000000	0.335858
1063.000000	0.336004
1064.000000	0.336482
1065.000000	0.337167
1066.000000	0.337625
1067.000000	0.338155
1068.000000	0.338471
1069.000000	0.338220
1070.000000	0.338476
1071.000000	0.339141
1072.000000	0.339587
1073.000000	0.340041
1074.000000	0.340902
1075.000000	0.341095
1076.000000	0.341281
1077.000000	0.341851
1078.000000	0.342024
1079.000000	0.342368
1080.000000	0.342907
1081.000000	0.343419
1082.000000	0.343938
1083.000000	0.344482
1084.000000	0.345252
1085.000000	0.345836
1086.000000	0.346322
1087.000000	0.346773
1088.000000	0.347066
1089.000000	0.347356
1090.000000	0.347710
1091.000000	0.347562
1092.000000	0.347666
1093.000000	0.348111
1094.000000	0.348523
1095.000000	0.349024
1096.000000	0.349446
1097.000000	0.349897
1098.000000	0.350369
1099.000000	0.350655
1100.000000	0.351205
1101.000000	0.352058
1102.000000	0.352520
1103.000000	0.352644
1104.000000	0.353191
1105.000000	0.353884
1106.000000	0.354347
1107.000000	0.354980
1108.000000	0.355482
1109.000000	0.355753
1110.000000	0.355865
1111.000000	0.356279
1112.000000	0.356876
1113.000000	0.357441
1114.000000	0.358061
1115.000000	0.358723
1116.000000	0.359713
1117.000000	0.360113
1118.000000	0.360109
1119.000000	0.360356
1120.000000	0.360231
1121.000000	0.360488
1122.000000	0.361426
1123.000000	0.362113
1124.000000	0.362341
1125.000000	0.362841
1126.000000	0.363479
1127.000000	0.363784
1128.000000	0.363989
1129.000000	0.364171
1130.000000	0.364572
1131.000000	0.364869
1132.000000	0.365133
1133.000000	0.365681
1134.000000	0.366152
1135.000000	0.366346
1136.000000	0.366641
1137.000000	0.367165
1138.000000	0.367471
1139.000000	0.367668
1140.000000	0.367984
1141.000000	0.368324
1142.000000	0.368588
1143.000000	0.368597
1144.000000	0.368933
1145.000000	0.369178
1146.000000	0.369394
1147.000000	0.369762
1148.000000	0.370245
1149.000000	0.370580
1150.000000	0.370932
1151.000000	0.371263
1152.000000	0.371433
1153.000000	0.371730
1154.000000	0.372162
1155.000000	0.372318
1156.000000	0.372219
1157.000000	0.372439
1158.000000	0.372616
1159.000000	0.372797
1160.000000	0.373259
1161.000000	0.373545
1162.000000	0.373674
1163.000000	0.374019
1164.000000	0.374264
1165.000000	0.374486
1166.000000	0.374818
1167.000000	0.375194
1168.000000	0.375355
1169.000000	0.375529
1170.000000	0.375715
1171.000000	0.375730
1172.000000	0.375967
1173.000000	0.376337
1174.000000	0.376620
1175.000000	0.376982
1176.000000	0.377149
1177.000000	0.377207
1178.000000	0.377414
1179.000000	0.377613
1180.000000	0.377708
1181.000000	0.377888
1182.000000	0.378173
1183.000000	0.378487
1184.000000	0.378778
1185.000000	0.378969
1186.000000	0.379201
1187.000000	0.379386
1188.000000	0.379402
1189.000000	0.379497
1190.000000	0.379762
1191.000000	0.379920
1192.000000	0.380077
1193.000000	0.380390
1194.000000	0.380657
1195.000000	0.380883
1196.000000	0.381082
1197.000000	0.381249
1198.000000	0.381287
1199.000000	0.381499
1200.000000	0.381876
1201.000000	0.382087
1202.000000	0.382264
1203.000000	0.382578
1204.000000	0.382687
1205.000000	0.382865
1206.000000	0.383008
1207.000000	0.383305
1208.000000	0.383466
1209.000000	0.383663
1210.000000	0.383746
1211.000000	0.383716
1212.000000	0.383789
1213.000000	0.383838
1214.000000	0.384018
1215.000000	0.384441
1216.000000	0.384567
1217.000000	0.384530
1218.000000	0.384518
1219.000000	0.384376
1220.000000	0.384292
1221.000000	0.384467
1222.000000	0.384543
1223.000000	0.384512
1224.000000	0.384696
1225.000000	0.384817
1226.000000	0.384919
1227.000000	0.385165
1228.000000	0.385464
1229.000000	0.385617
1230.000000	0.385707
1231.000000	0.385731
1232.000000	0.385752
1233.000000	0.385877
1234.000000	0.385989
1235.000000	0.386106
1236.000000	0.386185
1237.000000	0.386335
1238.000000	0.386493
1239.000000	0.386502
1240.000000	0.386434
1241.000000	0.386379
1242.000000	0.386339
1243.000000	0.386380
1244.000000	0.386556
1245.000000	0.386795
1246.000000	0.386827
1247.000000	0.386926
1248.000000	0.387149
1249.000000	0.387355
1250.000000	0.387544
1251.000000	0.387704
1252.000000	0.387700
1253.000000	0.387485
1254.000000	0.387407
1255.000000	0.387238
1256.000000	0.387261
1257.000000	0.387526
1258.000000	0.387672
1259.000000	0.387679
1260.000000	0.387841
1261.000000	0.387996
1262.000000	0.388114
1263.000000	0.388323
1264.000000	0.388527
1265.000000	0.388683
1266.000000	0.388682
1267.000000	0.388576
1268.000000	0.388600
1269.000000	0.388513
1270.000000	0.388489
1271.000000	0.388618
1272.000000	0.388781
1273.000000	0.389043
1274.000000	0.389175
1275.000000	0.389186
1276.000000	0.389131
1277.000000	0.389171
1278.000000	0.388971
1279.000000	0.388955
1280.000000	0.389072
1281.000000	0.388959
1282.000000	0.388759
1283.000000	0.388790
1284.000000	0.388701
1285.000000	0.388716
1286.000000	0.388907
1287.000000	0.389049
1288.000000	0.389069
1289.000000	0.389133
1290.000000	0.389054
1291.000000	0.388949
1292.000000	0.389035
1293.000000	0.389004
1294.000000	0.388931
1295.000000	0.389023
1296.000000	0.388997
1297.000000	0.388895
1298.000000	0.388882
1299.000000	0.388912
1300.000000	0.388956
1301.000000	0.388990
1302.000000	0.388967
1303.000000	0.389156
1304.000000	0.389134
1305.000000	0.389066
1306.000000	0.388966
1307.000000	0.388855
1308.000000	0.388809
1309.000000	0.388811
1310.000000	0.388760
1311.000000	0.388807
1312.000000	0.388531
1313.000000	0.388422
1314.000000	0.388403
1315.000000	0.388321
1316.000000	0.388529
1317.000000	0.388705
1318.000000	0.388590
1319.000000	0.388425
1320.000000	0.388326
1321.000000	0.388186
1322.000000	0.387944
1323.000000	0.387896
1324.000000	0.387994
1325.000000	0.387766
1326.000000	0.387459
1327.000000	0.387234
1328.000000	0.386927
1329.000000	0.386703
1330.000000	0.386669
1331.000000	0.386641
1332.000000	0.386739
1333.000000	0.386696
1334.000000	0.386740
1335.000000	0.386707
1336.000000	0.386489
1337.000000	0.386359
1338.000000	0.386219
1339.000000	0.386027
1340.000000	0.385819
1341.000000	0.385803
1342.000000	0.385717
1343.000000	0.385580
1344.000000	0.385615
1345.000000	0.385382
1346.000000	0.385277
1347.000000	0.385284
1348.000000	0.385170
1349.000000	0.385005
1350.000000	0.384850
1351.000000	0.384622
1352.000000	0.384544
1353.000000	0.384635
1354.000000	0.384680
1355.000000	0.384747
1356.000000	0.384781
1357.000000	0.384536
1358.000000	0.384369
1359.000000	0.384306
1360.000000	0.384227
1361.000000	0.384267
1362.000000	0.384136
1363.000000	0.383866
1364.000000	0.383731
1365.000000	0.383433
1366.000000	0.383347
1367.000000	0.383521
1368.000000	0.383515
1369.000000	0.383359
1370.000000	0.383088
1371.000000	0.382606
1372.000000	0.382125
1373.000000	0.381677
1374.000000	0.381352
1375.000000	0.381008
1376.000000	0.380706
1377.000000	0.380526
1378.000000	0.380158
1379.000000	0.379634
1380.000000	0.379187
1381.000000	0.378513
1382.000000	0.377832
1383.000000	0.377331
1384.000000	0.376512
1385.000000	0.375665
1386.000000	0.374806
1387.000000	0.373782
1388.000000	0.372817
1389.000000	0.371881
1390.000000	0.371057
1391.000000	0.370158
1392.000000	0.369200
1393.000000	0.368140
1394.000000	0.366983
1395.000000	0.365856
1396.000000	0.364685
1397.000000	0.363508
1398.000000	0.362301
1399.000000	0.361101
1400.000000	0.359896
1401.000000	0.358596
1402.000000	0.357297
1403.000000	0.355959
1404.000000	0.354652
1405.000000	0.353239
1406.000000	0.351840
1407.000000	0.350619
1408.000000	0.349452
1409.000000	0.348462
1410.000000	0.347633
1411.000000	0.346674
1412.000000	0.345590
1413.000000	0.344644
1414.000000	0.343711
1415.000000	0.342942
1416.000000	0.342437
1417.000000	0.342011
1418.000000	0.341664
1419.000000	0.341474
1420.000000	0.341222
1421.000000	0.340973
1422.000000	0.340631
1423.000000	0.340209
1424.000000	0.339686
1425.000000	0.339131
1426.000000	0.338555
1427.000000	0.338117
1428.000000	0.337649
1429.000000	0.337120
1430.000000	0.336653
1431.000000	0.336261
1432.000000	0.335977
1433.000000	0.335811
1434.000000	0.335709
1435.000000	0.335800
1436.000000	0.335970
1437.000000	0.336152
1438.000000	0.336544
1439.000000	0.337126
1440.000000	0.337795
1441.000000	0.338723
1442.000000	0.339672
1443.000000	0.340664
1444.000000	0.341653
1445.000000	0.342635
1446.000000	0.343419
1447.000000	0.344114
1448.000000	0.344804
1449.000000	0.345333
1450.000000	0.345719
1451.000000	0.346181
1452.000000	0.346442
1453.000000	0.346540
1454.000000	0.346613
1455.000000	0.346561
1456.000000	0.346634
1457.000000	0.346833
1458.000000	0.347026
1459.000000	0.347214
1460.000000	0.347315
1461.000000	0.347366
1462.000000	0.347407
1463.000000	0.347401
1464.000000	0.347413
1465.000000	0.347466
1466.000000	0.347525
1467.000000	0.347614
1468.000000	0.347752
1469.000000	0.348011
1470.000000	0.348230
1471.000000	0.348530
1472.000000	0.348797
1473.000000	0.349121
1474.000000	0.349569
1475.000000	0.349886
1476.000000	0.350155
1477.000000	0.350499
1478.000000	0.350688
1479.000000	0.350923
1480.000000	0.351279
1481.000000	0.351531
1482.000000	0.351731
1483.000000	0.352067
1484.000000	0.352440
1485.000000	0.352824
1486.000000	0.353231
1487.000000	0.353650
1488.000000	0.354114
1489.000000	0.354588
1490.000000	0.355055
1491.000000	0.355479
1492.000000	0.355743
1493.000000	0.356126
1494.000000	0.356467
1495.000000	0.356784
1496.000000	0.357175
1497.000000	0.357529
1498.000000	0.357834
1499.000000	0.358175
1500.000000	0.358544
1501.000000	0.358865
1502.000000	0.359154
1503.000000	0.359407
1504.000000	0.359696
1505.000000	0.359997
1506.000000	0.360298
1507.000000	0.360603
1508.000000	0.360829
1509.000000	0.361029
1510.000000	0.361121
1511.000000	0.361172
1512.000000	0.361304
1513.000000	0.361508
1514.000000	0.361797
1515.000000	0.362000
1516.000000	0.362179
1517.000000	0.362268
1518.000000	0.362379
1519.000000	0.362459
1520.000000	0.362574
1521.000000	0.362730
1522.000000	0.362705
1523.000000	0.362825
1524.000000	0.363026
1525.000000	0.363106
1526.000000	0.363279
1527.000000	0.363466
1528.000000	0.363657
1529.000000	0.363800
1530.000000	0.363834
1531.000000	0.364024
1532.000000	0.364139
1533.000000	0.364196
1534.000000	0.364439
1535.000000	0.364639
1536.000000	0.364746
1537.000000	0.365049
1538.000000	0.365240
1539.000000	0.365301
1540.000000	0.365477
1541.000000	0.365540
1542.000000	0.365565
1543.000000	0.365710
1544.000000	0.365763
1545.000000	0.365863
1546.000000	0.366038
1547.000000	0.366119
1548.000000	0.366262
1549.000000	0.366324
1550.000000	0.366394
1551.000000	0.366587
1552.000000	0.366667
1553.000000	0.366702
1554.000000	0.366664
1555.000000	0.366630
1556.000000	0.366668
1557.000000	0.366700
1558.000000	0.366763
1559.000000	0.366779
1560.000000	0.366832
1561.000000	0.366982
1562.000000	0.367036
1563.000000	0.367131
1564.000000	0.367178
1565.000000	0.367132
1566.000000	0.367069
1567.000000	0.367105
1568.000000	0.367164
1569.000000	0.367314
1570.000000	0.367366
1571.000000	0.367429
1572.000000	0.367409
1573.000000	0.367257
1574.000000	0.367197
1575.000000	0.367149
1576.000000	0.367188
1577.000000	0.367299
1578.000000	0.367336
1579.000000	0.367488
1580.000000	0.367510
1581.000000	0.367487
1582.000000	0.367510
1583.000000	0.367500
1584.000000	0.367501
1585.000000	0.367661
1586.000000	0.367721
1587.000000	0.367691
1588.000000	0.367729
1589.000000	0.367772
1590.000000	0.367841
1591.000000	0.368094
1592.000000	0.368088
1593.000000	0.367913
1594.000000	0.367867
1595.000000	0.367796
1596.000000	0.367795
1597.000000	0.367981
1598.000000	0.368041
1599.000000	0.367986
1600.000000	0.368041
1601.000000	0.368329
1602.000000	0.368450
1603.000000	0.368631
1604.000000	0.368642
1605.000000	0.368445
1606.000000	0.368389
1607.000000	0.368410
1608.000000	0.368377
1609.000000	0.368450
1610.000000	0.368410
1611.000000	0.368241
1612.000000	0.368178
1613.000000	0.368331
1614.000000	0.368347
1615.000000	0.368392
1616.000000	0.368455
1617.000000	0.368376
1618.000000	0.368374
1619.000000	0.368428
1620.000000	0.368460
1621.000000	0.368565
1622.000000	0.368639
1623.000000	0.368621
1624.000000	0.368645
1625.000000	0.368448
1626.000000	0.368422
1627.000000	0.368579
1628.000000	0.368671
1629.000000	0.368794
1630.000000	0.368909
1631.000000	0.368892
1632.000000	0.368879
1633.000000	0.368864
1634.000000	0.368963
1635.000000	0.369174
1636.000000	0.369256
1637.000000	0.369401
1638.000000	0.369474
1639.000000	0.369471
1640.000000	0.369525
1641.000000	0.369704
1642.000000	0.369797
1643.000000	0.369869
1644.000000	0.369946
1645.000000	0.370004
1646.000000	0.370073
1647.000000	0.370238
1648.000000	0.370254
1649.000000	0.370263
1650.000000	0.370388
1651.000000	0.370536
1652.000000	0.370684
1653.000000	0.370908
1654.000000	0.371046
1655.000000	0.371049
1656.000000	0.370990
1657.000000	0.370965
1658.000000	0.370925
1659.000000	0.370886
1660.000000	0.370943
1661.000000	0.370947
1662.000000	0.371078
1663.000000	0.371315
1664.000000	0.371405
1665.000000	0.371525
1666.000000	0.371652
1667.000000	0.371543
1668.000000	0.371618
1669.000000	0.371800
1670.000000	0.371808
1671.000000	0.371922
1672.000000	0.371994
1673.000000	0.371919
1674.000000	0.371998
1675.000000	0.372125
1676.000000	0.372220
1677.000000	0.372198
1678.000000	0.371934
1679.000000	0.371807
1680.000000	0.371792
1681.000000	0.371823
1682.000000	0.372049
1683.000000	0.372214
1684.000000	0.372232
1685.000000	0.372148
1686.000000	0.371978
1687.000000	0.371966
1688.000000	0.371863
1689.000000	0.371798
1690.000000	0.371724
1691.000000	0.371560
1692.000000	0.371369
1693.000000	0.371369
1694.000000	0.371622
1695.000000	0.371828
1696.000000	0.372156
1697.000000	0.372250
1698.000000	0.372062
1699.000000	0.372121
1700.000000	0.372206
1701.000000	0.372381
1702.000000	0.372566
1703.000000	0.372703
1704.000000	0.372985
1705.000000	0.373094
1706.000000	0.373173
1707.000000	0.373199
1708.000000	0.373014
1709.000000	0.372834
1710.000000	0.372691
1711.000000	0.372671
1712.000000	0.372711
1713.000000	0.372763
1714.000000	0.373042
1715.000000	0.373190
1716.000000	0.373330
1717.000000	0.373341
1718.000000	0.373175
1719.000000	0.373073
1720.000000	0.372939
1721.000000	0.372876
1722.000000	0.372906
1723.000000	0.372902
1724.000000	0.372925
1725.000000	0.372973
1726.000000	0.372918
1727.000000	0.372937
1728.000000	0.372919
1729.000000	0.372889
1730.000000	0.373096
1731.000000	0.373114
1732.000000	0.373045
1733.000000	0.373122
1734.000000	0.373016
1735.000000	0.372976
1736.000000	0.373039
1737.000000	0.372969
1738.000000	0.372743
1739.000000	0.372794
1740.000000	0.372997
1741.000000	0.372914
1742.000000	0.372827
1743.000000	0.372889
1744.000000	0.372767
1745.000000	0.372792
1746.000000	0.373102
1747.000000	0.372949
1748.000000	0.372813
1749.000000	0.372620
1750.000000	0.372498
1751.000000	0.372681
1752.000000	0.372770
1753.000000	0.372648
1754.000000	0.372603
1755.000000	0.372463
1756.000000	0.372274
1757.000000	0.372078
1758.000000	0.371976
1759.000000	0.371776
1760.000000	0.371685
1761.000000	0.371784
1762.000000	0.371737
1763.000000	0.371651
1764.000000	0.371572
1765.000000	0.371262
1766.000000	0.371294
1767.000000	0.371461
1768.000000	0.371533
1769.000000	0.371940
1770.000000	0.372155
1771.000000	0.372152
1772.000000	0.372178
1773.000000	0.372150
1774.000000	0.372076
1775.000000	0.371954
1776.000000	0.371942
1777.000000	0.371920
1778.000000	0.371844
1779.000000	0.371811
1780.000000	0.371737
1781.000000	0.371527
1782.000000	0.371413
1783.000000	0.371378
1784.000000	0.371382
1785.000000	0.371426
1786.000000	0.371407
1787.000000	0.371487
1788.000000	0.371554
1789.000000	0.371496
1790.000000	0.371683
1791.000000	0.371805
1792.000000	0.372147
1793.000000	0.372317
1794.000000	0.372457
1795.000000	0.372513
1796.000000	0.372265
1797.000000	0.372213
1798.000000	0.372230
1799.000000	0.372241
1800.000000	0.372530
1801.000000	0.372216
1802.000000	0.372306
1803.000000	0.372478
1804.000000	0.372792
1805.000000	0.373122
1806.000000	0.373414
1807.000000	0.374315
1808.000000	0.374451
1809.000000	0.374564
1810.000000	0.373481
1811.000000	0.373028
1812.000000	0.372131
1813.000000	0.371884
1814.000000	0.371927
1815.000000	0.372321
1816.000000	0.373399
1817.000000	0.373694
1818.000000	0.374224
1819.000000	0.374450
1820.000000	0.373868
1821.000000	0.373407
1822.000000	0.373221
1823.000000	0.373053
1824.000000	0.372833
1825.000000	0.372463
1826.000000	0.372609
1827.000000	0.372962
1828.000000	0.373057
1829.000000	0.373579
1830.000000	0.374269
1831.000000	0.373996
1832.000000	0.372861
1833.000000	0.372203
1834.000000	0.370603
1835.000000	0.370368
1836.000000	0.371389
1837.000000	0.371557
1838.000000	0.372080
1839.000000	0.371990
1840.000000	0.370749
1841.000000	0.369944
1842.000000	0.370056
1843.000000	0.371054
1844.000000	0.371456
1845.000000	0.372241
1846.000000	0.372625
1847.000000	0.372397
1848.000000	0.372103
1849.000000	0.371901
1850.000000	0.372421
1851.000000	0.372230
1852.000000	0.371496
1853.000000	0.371110
1854.000000	0.370394
1855.000000	0.369730
1856.000000	0.368921
1857.000000	0.368494
1858.000000	0.368059
1859.000000	0.367334
1860.000000	0.366480
1861.000000	0.365672
1862.000000	0.364691
1863.000000	0.363405
1864.000000	0.362251
1865.000000	0.361050
1866.000000	0.360066
1867.000000	0.358782
1868.000000	0.358297
1869.000000	0.358140
1870.000000	0.357594
1871.000000	0.356792
1872.000000	0.355227
1873.000000	0.353672
1874.000000	0.351478
1875.000000	0.349622
1876.000000	0.347482
1877.000000	0.345360
1878.000000	0.343168
1879.000000	0.340931
1880.000000	0.338959
1881.000000	0.336893
1882.000000	0.334566
1883.000000	0.331977
1884.000000	0.329340
1885.000000	0.326053
1886.000000	0.323025
1887.000000	0.320182
1888.000000	0.317002
1889.000000	0.313107
1890.000000	0.309177
1891.000000	0.305236
1892.000000	0.301271
1893.000000	0.297522
1894.000000	0.294073
1895.000000	0.289971
1896.000000	0.285635
1897.000000	0.280924
1898.000000	0.276427
1899.000000	0.271988
1900.000000	0.268127
1901.000000	0.264629
1902.000000	0.261380
1903.000000	0.258782
1904.000000	0.256522
1905.000000	0.254753
1906.000000	0.252802
1907.000000	0.251244
1908.000000	0.249095
1909.000000	0.246668
1910.000000	0.244901
1911.000000	0.243577
1912.000000	0.243023
1913.000000	0.243718
1914.000000	0.243781
1915.000000	0.243013
1916.000000	0.242742
1917.000000	0.242501
1918.000000	0.242105
1919.000000	0.241970
1920.000000	0.242659
1921.000000	0.242811
1922.000000	0.242504
1923.000000	0.242765
1924.000000	0.243088
1925.000000	0.243597
1926.000000	0.244030
1927.000000	0.244771
1928.000000	0.245380
1929.000000	0.245984
1930.000000	0.246127
1931.000000	0.246541
1932.000000	0.246792
1933.000000	0.246998
1934.000000	0.247500
1935.000000	0.247734
1936.000000	0.247886
1937.000000	0.248585
1938.000000	0.249333
1939.000000	0.249850
1940.000000	0.250630
1941.000000	0.251497
1942.000000	0.251852
1943.000000	0.251889
1944.000000	0.252138
1945.000000	0.252453
1946.000000	0.252637
1947.000000	0.252433
1948.000000	0.252475
1949.000000	0.252940
1950.000000	0.252593
1951.000000	0.252417
1952.000000	0.252469
1953.000000	0.252453
1954.000000	0.251789
1955.000000	0.251964
1956.000000	0.252605
1957.000000	0.252984
1958.000000	0.253494
1959.000000	0.254095
1960.000000	0.253714
1961.000000	0.253401
1962.000000	0.253304
1963.000000	0.253355
1964.000000	0.253165
1965.000000	0.253522
1966.000000	0.253808
1967.000000	0.253960
1968.000000	0.254534
1969.000000	0.255428
1970.000000	0.256203
1971.000000	0.257300
1972.000000	0.258374
1973.000000	0.258690
1974.000000	0.258387
1975.000000	0.258452
1976.000000	0.258164
1977.000000	0.257940
1978.000000	0.258116
1979.000000	0.259116
1980.000000	0.260459
1981.000000	0.261420
1982.000000	0.262936
1983.000000	0.263933
1984.000000	0.264282
1985.000000	0.263834
1986.000000	0.263854
1987.000000	0.263507
1988.000000	0.263608
1989.000000	0.263866
1990.000000	0.264736
1991.000000	0.265543
1992.000000	0.265680
1993.000000	0.266801
1994.000000	0.268223
1995.000000	0.269334
1996.000000	0.270539
1997.000000	0.271311
1998.000000	0.271433
1999.000000	0.271911
2000.000000	0.272260
2001.000000	0.272867
2002.000000	0.273454
2003.000000	0.274208
2004.000000	0.275391
2005.000000	0.276521
2006.000000	0.277855
2007.000000	0.279272
2008.000000	0.280301
2009.000000	0.280861
2010.000000	0.281666
2011.000000	0.281973
2012.000000	0.282656
2013.000000	0.283546
2014.000000	0.284480
2015.000000	0.284915
2016.000000	0.285940
2017.000000	0.286900
2018.000000	0.287986
2019.000000	0.289205
2020.000000	0.290116
2021.000000	0.290815
2022.000000	0.290956
2023.000000	0.291131
2024.000000	0.290916
2025.000000	0.291485
2026.000000	0.292198
2027.000000	0.292961
2028.000000	0.293775
2029.000000	0.295080
2030.000000	0.295458
2031.000000	0.295556
2032.000000	0.296506
2033.000000	0.297098
2034.000000	0.297584
2035.000000	0.298201
2036.000000	0.298651
2037.000000	0.298870
2038.000000	0.299386
2039.000000	0.299954
2040.000000	0.301093
2041.000000	0.302197
2042.000000	0.303315
2043.000000	0.304136
2044.000000	0.304512
2045.000000	0.304947
2046.000000	0.304790
2047.000000	0.305155
2048.000000	0.305880
2049.000000	0.306535
2050.000000	0.306979
2051.000000	0.307503
2052.000000	0.308000
2053.000000	0.308164
2054.000000	0.308547
2055.000000	0.308496
2056.000000	0.308513
2057.000000	0.308770
2058.000000	0.309471
2059.000000	0.310122
2060.000000	0.310545
2061.000000	0.310853
2062.000000	0.311294
2063.000000	0.311783
2064.000000	0.312076
2065.000000	0.312772
2066.000000	0.313089
2067.000000	0.313391
2068.000000	0.313456
2069.000000	0.313632
2070.000000	0.313850
2071.000000	0.314076
2072.000000	0.314291
2073.000000	0.314937
2074.000000	0.315220
2075.000000	0.315451
2076.000000	0.315488
2077.000000	0.315999
2078.000000	0.316518
2079.000000	0.317126
2080.000000	0.318480
2081.000000	0.319023
2082.000000	0.319009
2083.000000	0.319254
2084.000000	0.319573
2085.000000	0.319757
2086.000000	0.320635
2087.000000	0.321740
2088.000000	0.321875
2089.000000	0.322630
2090.000000	0.323110
2091.000000	0.323230
2092.000000	0.323557
2093.000000	0.324049
2094.000000	0.324467
2095.000000	0.325030
2096.000000	0.325463
2097.000000	0.325959
2098.000000	0.325882
2099.000000	0.326526
2100.000000	0.326689
2101.000000	0.326319
2102.000000	0.327004
2103.000000	0.326707
2104.000000	0.326106
2105.000000	0.325963
2106.000000	0.325620
2107.000000	0.326214
2108.000000	0.327827
2109.000000	0.328604
2110.000000	0.329909
2111.000000	0.330356
2112.000000	0.329544
2113.000000	0.328886
2114.000000	0.329052
2115.000000	0.328928
2116.000000	0.329885
2117.000000	0.330334
2118.000000	0.330551
2119.000000	0.331092
2120.000000	0.331358
2121.000000	0.331552
2122.000000	0.331566
2123.000000	0.331206
2124.000000	0.331231
2125.000000	0.331050
2126.000000	0.331072
2127.000000	0.331526
2128.000000	0.331996
2129.000000	0.332256
2130.000000	0.333089
2131.000000	0.333694
2132.000000	0.334234
2133.000000	0.333919
2134.000000	0.333597
2135.000000	0.333644
2136.000000	0.333287
2137.000000	0.333256
2138.000000	0.333752
2139.000000	0.333825
2140.000000	0.333651
2141.000000	0.333847
2142.000000	0.334611
2143.000000	0.334265
2144.000000	0.333011
2145.000000	0.332815
2146.000000	0.332737
2147.000000	0.332836
2148.000000	0.333944
2149.000000	0.335066
2150.000000	0.334316
2151.000000	0.333659
2152.000000	0.332802
2153.000000	0.331703
2154.000000	0.330961
2155.000000	0.330368
2156.000000	0.330061
2157.000000	0.329938
2158.000000	0.330029
2159.000000	0.331068
2160.000000	0.331345
2161.000000	0.331003
2162.000000	0.331313
2163.000000	0.331606
2164.000000	0.331524
2165.000000	0.331524
2166.000000	0.331965
2167.000000	0.331518
2168.000000	0.330937
2169.000000	0.330960
2170.000000	0.330235
2171.000000	0.329959
2172.000000	0.329761
2173.000000	0.329753
2174.000000	0.330002
2175.000000	0.330408
2176.000000	0.331088
2177.000000	0.331412
2178.000000	0.331895
2179.000000	0.332061
2180.000000	0.331518
2181.000000	0.331761
2182.000000	0.331563
2183.000000	0.331860
2184.000000	0.332136
2185.000000	0.331974
2186.000000	0.331633
2187.000000	0.331053
2188.000000	0.330142
2189.000000	0.329473
2190.000000	0.329636
2191.000000	0.329888
2192.000000	0.330039
2193.000000	0.331035
2194.000000	0.331347
2195.000000	0.331273
2196.000000	0.330965
2197.000000	0.330220
2198.000000	0.329325
2199.000000	0.327741
2200.000000	0.326427
2201.000000	0.324921
2202.000000	0.324052
2203.000000	0.322678
2204.000000	0.323364
2205.000000	0.322959
2206.000000	0.322899
2207.000000	0.322852
2208.000000	0.321129
2209.000000	0.319948
2210.000000	0.320820
2211.000000	0.322179
2212.000000	0.322470
2213.000000	0.323489
2214.000000	0.324915
2215.000000	0.326027
2216.000000	0.326797
2217.000000	0.328966
2218.000000	0.333262
2219.000000	0.334912
2220.000000	0.336600
2221.000000	0.336729
2222.000000	0.332924
2223.000000	0.331860
2224.000000	0.331749
2225.000000	0.331710
2226.000000	0.330611
2227.000000	0.330088
2228.000000	0.330016
2229.000000	0.327334
2230.000000	0.326161
2231.000000	0.326254
2232.000000	0.325537
2233.000000	0.326405
2234.000000	0.327094
2235.000000	0.328877
2236.000000	0.329356
2237.000000	0.328607
2238.000000	0.328342
2239.000000	0.327108
2240.000000	0.327599
2241.000000	0.330351
2242.000000	0.330619
2243.000000	0.330719
2244.000000	0.330064
2245.000000	0.326511
2246.000000	0.324677
2247.000000	0.323504
2248.000000	0.323143
2249.000000	0.323194
2250.000000	0.323609
2251.000000	0.327286
2252.000000	0.329502
2253.000000	0.331009
2254.000000	0.332232
2255.000000	0.329751
2256.000000	0.327548
2257.000000	0.326970
2258.000000	0.326032
2259.000000	0.325226
2260.000000	0.325915
2261.000000	0.324948
2262.000000	0.322924
2263.000000	0.321658
2264.000000	0.319473
2265.000000	0.318259
2266.000000	0.318133
2267.000000	0.316910
2268.000000	0.315765
2269.000000	0.314867
2270.000000	0.313679
2271.000000	0.312714
2272.000000	0.312268
2273.000000	0.311155
2274.000000	0.309470
2275.000000	0.306940
2276.000000	0.303435
2277.000000	0.301424
2278.000000	0.296638
2279.000000	0.294359
2280.000000	0.293716
2281.000000	0.291289
2282.000000	0.290817
2283.000000	0.290331
2284.000000	0.289821
2285.000000	0.288024
2286.000000	0.285519
2287.000000	0.284465
2288.000000	0.281664
2289.000000	0.281702
2290.000000	0.283557
2291.000000	0.285020
2292.000000	0.288992
2293.000000	0.289252
2294.000000	0.289844
2295.000000	0.289798
2296.000000	0.290111
2297.000000	0.289379
2298.000000	0.291076
2299.000000	0.294133
2300.000000	0.296037
2301.000000	0.298722
2302.000000	0.300502
2303.000000	0.301510
2304.000000	0.302395
2305.000000	0.303377
2306.000000	0.303276
2307.000000	0.301613
2308.000000	0.301177
2309.000000	0.302136
2310.000000	0.302526
2311.000000	0.304635
2312.000000	0.306142
2313.000000	0.304364
2314.000000	0.305487
2315.000000	0.306576
2316.000000	0.306574
2317.000000	0.307681
2318.000000	0.307254
2319.000000	0.307254
2320.000000	0.306738
2321.000000	0.306622
2322.000000	0.308086
2323.000000	0.306241
2324.000000	0.306009
2325.000000	0.307132
2326.000000	0.304704
2327.000000	0.306411
2328.000000	0.307051
2329.000000	0.304819
2330.000000	0.304433
2331.000000	0.302334
2332.000000	0.301602
2333.000000	0.300235
2334.000000	0.298942
2335.000000	0.299233
2336.000000	0.299596
2337.000000	0.299268
2338.000000	0.300426
2339.000000	0.300390
2340.000000	0.300106
2341.000000	0.298726
2342.000000	0.295923
2343.000000	0.294499
2344.000000	0.291376
2345.000000	0.288918
2346.000000	0.288809
2347.000000	0.287835
2348.000000	0.285078
2349.000000	0.286457
2350.000000	0.287323
2351.000000	0.286833
2352.000000	0.288529
2353.000000	0.286963
2354.000000	0.283503
2355.000000	0.282121
2356.000000	0.279094
2357.000000	0.276208
2358.000000	0.275938
2359.000000	0.276691
2360.000000	0.276518
2361.000000	0.277540
2362.000000	0.279467
2363.000000	0.278840
2364.000000	0.276469
2365.000000	0.276274
2366.000000	0.275638
2367.000000	0.272030
2368.000000	0.273133
2369.000000	0.275266
2370.000000	0.275006
2371.000000	0.277336
2372.000000	0.277043
2373.000000	0.274615
2374.000000	0.268189
2375.000000	0.261880
2376.000000	0.263958
2377.000000	0.260564
2378.000000	0.256177
2379.000000	0.257205
2380.000000	0.251810
2381.000000	0.245779
2382.000000	0.247320
2383.000000	0.250587
2384.000000	0.248517
2385.000000	0.249362
2386.000000	0.249528
2387.000000	0.246579
2388.000000	0.249562
2389.000000	0.247725
2390.000000	0.249849
2391.000000	0.254120
2392.000000	0.249192
2393.000000	0.251194
2394.000000	0.252054
2395.000000	0.247934
2396.000000	0.250982
2397.000000	0.253715
2398.000000	0.254199
2399.000000	0.247819
2400.000000	0.239394
2401.000000	0.233493
2402.000000	0.220085
2403.000000	0.217077
2404.000000	0.223750
2405.000000	0.226878
2406.000000	0.236346
2407.000000	0.245867
2408.000000	0.248079
2409.000000	0.248459
2410.000000	0.245057
2411.000000	0.239730
2412.000000	0.232063
2413.000000	0.224912
2414.000000	0.229539
2415.000000	0.232162
2416.000000	0.238107
2417.000000	0.249459
2418.000000	0.246306
2419.000000	0.242555
2420.000000	0.236732
2421.000000	0.228577
2422.000000	0.229595
2423.000000	0.228595
2424.000000	0.224891
2425.000000	0.219153
2426.000000	0.209656
2427.000000	0.211344
2428.000000	0.222541
2429.000000	0.229075
2430.000000	0.234270
2431.000000	0.234201
2432.000000	0.226492
2433.000000	0.225177
2434.000000	0.230722
2435.000000	0.240066
2436.000000	0.247671
2437.000000	0.252060
2438.000000	0.257064
2439.000000	0.249812
2440.000000	0.241837
2441.000000	0.231260
2442.000000	0.218563
2443.000000	0.220050
2444.000000	0.215999
2445.000000	0.213012
2446.000000	0.212991
2447.000000	0.210082
2448.000000	0.210848
2449.000000	0.214676
2450.000000	0.225879
2451.000000	0.226756
2452.000000	0.218437
2453.000000	0.214968
2454.000000	0.209389
2455.000000	0.213849
2456.000000	0.225299
2457.000000	0.233332
2458.000000	0.240943
2459.000000	0.241680
2460.000000	0.252909
2461.000000	0.272445
2462.000000	0.269642
2463.000000	0.254389
2464.000000	0.231591
2465.000000	0.208566
2466.000000	0.210608
2467.000000	0.208305
2468.000000	0.214489
2469.000000	0.245408
2470.000000	0.239129
2471.000000	0.243287
2472.000000	0.255731
2473.000000	0.232576
2474.000000	0.243226
2475.000000	0.263114
2476.000000	0.264928
2477.000000	0.268485
2478.000000	0.257810
2479.000000	0.240787
2480.000000	0.252597
2481.000000	0.279636
2482.000000	0.268959
2483.000000	0.252413
2484.000000	0.251764
2485.000000	0.185807
2486.000000	0.174904
2487.000000	0.239310
2488.000000	0.206341
2489.000000	0.208646
2490.000000	0.207946
2491.000000	0.165495
2492.000000	0.147023
2493.000000	0.131754
2494.000000	0.137253
2495.000000	0.156977
2496.000000	0.172272
2497.000000	0.214567
2498.000000	0.247076
2499.000000	0.286633
2500.000000	0.291287
