# Wavelength	NAu-2-30_HEX-60_FV7-10_00000.asd.rts.txt
350.000000	0.160412
351.000000	0.168446
352.000000	0.158667
353.000000	0.155630
354.000000	0.166619
355.000000	0.155750
356.000000	0.149072
357.000000	0.151228
358.000000	0.149354
359.000000	0.149898
360.000000	0.154952
361.000000	0.163452
362.000000	0.163762
363.000000	0.161526
364.000000	0.160335
365.000000	0.156332
366.000000	0.152556
367.000000	0.151541
368.000000	0.156295
369.000000	0.161436
370.000000	0.160743
371.000000	0.151346
372.000000	0.157263
373.000000	0.162589
374.000000	0.157794
375.000000	0.159183
376.000000	0.160723
377.000000	0.159411
378.000000	0.154445
379.000000	0.155956
380.000000	0.160301
381.000000	0.160805
382.000000	0.162937
383.000000	0.163280
384.000000	0.160666
385.000000	0.161946
386.000000	0.163011
387.000000	0.162820
388.000000	0.163447
389.000000	0.160771
390.000000	0.158698
391.000000	0.162609
392.000000	0.161590
393.000000	0.160782
394.000000	0.164051
395.000000	0.164000
396.000000	0.164340
397.000000	0.165754
398.000000	0.164688
399.000000	0.164616
400.000000	0.165678
401.000000	0.166567
402.000000	0.166919
403.000000	0.166644
404.000000	0.166227
405.000000	0.167819
406.000000	0.168761
407.000000	0.168072
408.000000	0.167267
409.000000	0.167643
410.000000	0.168743
411.000000	0.168968
412.000000	0.168231
413.000000	0.167781
414.000000	0.168714
415.000000	0.169302
416.000000	0.169374
417.000000	0.169184
418.000000	0.169666
419.000000	0.169716
420.000000	0.169655
421.000000	0.171072
422.000000	0.171808
423.000000	0.171877
424.000000	0.172031
425.000000	0.172336
426.000000	0.172858
427.000000	0.173497
428.000000	0.173718
429.000000	0.174185
430.000000	0.174893
431.000000	0.174931
432.000000	0.174629
433.000000	0.174517
434.000000	0.175287
435.000000	0.175879
436.000000	0.175968
437.000000	0.175649
438.000000	0.176250
439.000000	0.176796
440.000000	0.176844
441.000000	0.176869
442.000000	0.176971
443.000000	0.177254
444.000000	0.177924
445.000000	0.178439
446.000000	0.178941
447.000000	0.179535
448.000000	0.179546
449.000000	0.179741
450.000000	0.180561
451.000000	0.181229
452.000000	0.181576
453.000000	0.181767
454.000000	0.182591
455.000000	0.183149
456.000000	0.183315
457.000000	0.183206
458.000000	0.183811
459.000000	0.184403
460.000000	0.184350
461.000000	0.184484
462.000000	0.184826
463.000000	0.185187
464.000000	0.185395
465.000000	0.185967
466.000000	0.186635
467.000000	0.186714
468.000000	0.186969
469.000000	0.187439
470.000000	0.188032
471.000000	0.188135
472.000000	0.188358
473.000000	0.189017
474.000000	0.189290
475.000000	0.189507
476.000000	0.189913
477.000000	0.190464
478.000000	0.190672
479.000000	0.190915
480.000000	0.191595
481.000000	0.191672
482.000000	0.191702
483.000000	0.192104
484.000000	0.192465
485.000000	0.192759
486.000000	0.193094
487.000000	0.193347
488.000000	0.193536
489.000000	0.193724
490.000000	0.193997
491.000000	0.194038
492.000000	0.194144
493.000000	0.194548
494.000000	0.194546
495.000000	0.194559
496.000000	0.194835
497.000000	0.194952
498.000000	0.195057
499.000000	0.195256
500.000000	0.195490
501.000000	0.195565
502.000000	0.195610
503.000000	0.195834
504.000000	0.196099
505.000000	0.196307
506.000000	0.196432
507.000000	0.196706
508.000000	0.197056
509.000000	0.197385
510.000000	0.197681
511.000000	0.198018
512.000000	0.198411
513.000000	0.198792
514.000000	0.199250
515.000000	0.199692
516.000000	0.199962
517.000000	0.200378
518.000000	0.200852
519.000000	0.201236
520.000000	0.201667
521.000000	0.202171
522.000000	0.202732
523.000000	0.203244
524.000000	0.203892
525.000000	0.204637
526.000000	0.205357
527.000000	0.206186
528.000000	0.207106
529.000000	0.208112
530.000000	0.209190
531.000000	0.210393
532.000000	0.211671
533.000000	0.212992
534.000000	0.214290
535.000000	0.215564
536.000000	0.216916
537.000000	0.218163
538.000000	0.219346
539.000000	0.220585
540.000000	0.221853
541.000000	0.223027
542.000000	0.224063
543.000000	0.225179
544.000000	0.226279
545.000000	0.227262
546.000000	0.228214
547.000000	0.229307
548.000000	0.230548
549.000000	0.231737
550.000000	0.232869
551.000000	0.234131
552.000000	0.235668
553.000000	0.237182
554.000000	0.238713
555.000000	0.240338
556.000000	0.242099
557.000000	0.243851
558.000000	0.245641
559.000000	0.247430
560.000000	0.249234
561.000000	0.251078
562.000000	0.252857
563.000000	0.254588
564.000000	0.256302
565.000000	0.257925
566.000000	0.259491
567.000000	0.261003
568.000000	0.262422
569.000000	0.263682
570.000000	0.264842
571.000000	0.265902
572.000000	0.266835
573.000000	0.267712
574.000000	0.268487
575.000000	0.269136
576.000000	0.269745
577.000000	0.270258
578.000000	0.270683
579.000000	0.271024
580.000000	0.271333
581.000000	0.271604
582.000000	0.271750
583.000000	0.271810
584.000000	0.271821
585.000000	0.271826
586.000000	0.271732
587.000000	0.271581
588.000000	0.271439
589.000000	0.271285
590.000000	0.271071
591.000000	0.270771
592.000000	0.270413
593.000000	0.270074
594.000000	0.269697
595.000000	0.269082
596.000000	0.268582
597.000000	0.268147
598.000000	0.267501
599.000000	0.266919
600.000000	0.266351
601.000000	0.265674
602.000000	0.265079
603.000000	0.264489
604.000000	0.263850
605.000000	0.263099
606.000000	0.262524
607.000000	0.262071
608.000000	0.261458
609.000000	0.260893
610.000000	0.260347
611.000000	0.259744
612.000000	0.259121
613.000000	0.258524
614.000000	0.257997
615.000000	0.257457
616.000000	0.256880
617.000000	0.256299
618.000000	0.255908
619.000000	0.255503
620.000000	0.255016
621.000000	0.254493
622.000000	0.254011
623.000000	0.253582
624.000000	0.253190
625.000000	0.252756
626.000000	0.252359
627.000000	0.252023
628.000000	0.251667
629.000000	0.251430
630.000000	0.251189
631.000000	0.250926
632.000000	0.250721
633.000000	0.250527
634.000000	0.250289
635.000000	0.250113
636.000000	0.249996
637.000000	0.249895
638.000000	0.249737
639.000000	0.249636
640.000000	0.249617
641.000000	0.249498
642.000000	0.249409
643.000000	0.249397
644.000000	0.249468
645.000000	0.249471
646.000000	0.249509
647.000000	0.249647
648.000000	0.249820
649.000000	0.250041
650.000000	0.250278
651.000000	0.250496
652.000000	0.250698
653.000000	0.250957
654.000000	0.251299
655.000000	0.251631
656.000000	0.251994
657.000000	0.252393
658.000000	0.252830
659.000000	0.253281
660.000000	0.253729
661.000000	0.254225
662.000000	0.254696
663.000000	0.255199
664.000000	0.255779
665.000000	0.256432
666.000000	0.257118
667.000000	0.257766
668.000000	0.258431
669.000000	0.259139
670.000000	0.259893
671.000000	0.260619
672.000000	0.261438
673.000000	0.262356
674.000000	0.263307
675.000000	0.264211
676.000000	0.265130
677.000000	0.266168
678.000000	0.267267
679.000000	0.268346
680.000000	0.269376
681.000000	0.270401
682.000000	0.271625
683.000000	0.272956
684.000000	0.274201
685.000000	0.275447
686.000000	0.276720
687.000000	0.277988
688.000000	0.279349
689.000000	0.280717
690.000000	0.282091
691.000000	0.283673
692.000000	0.285247
693.000000	0.286816
694.000000	0.288472
695.000000	0.290111
696.000000	0.291721
697.000000	0.293335
698.000000	0.295079
699.000000	0.296894
700.000000	0.298711
701.000000	0.300490
702.000000	0.302364
703.000000	0.304332
704.000000	0.306261
705.000000	0.308222
706.000000	0.310197
707.000000	0.312226
708.000000	0.314242
709.000000	0.316290
710.000000	0.318415
711.000000	0.320532
712.000000	0.322637
713.000000	0.324743
714.000000	0.326833
715.000000	0.328980
716.000000	0.331143
717.000000	0.333213
718.000000	0.335371
719.000000	0.337583
720.000000	0.339802
721.000000	0.341987
722.000000	0.344166
723.000000	0.346407
724.000000	0.348639
725.000000	0.350824
726.000000	0.353023
727.000000	0.355159
728.000000	0.357319
729.000000	0.359482
730.000000	0.361575
731.000000	0.363752
732.000000	0.365899
733.000000	0.368012
734.000000	0.370082
735.000000	0.372097
736.000000	0.374186
737.000000	0.376216
738.000000	0.378117
739.000000	0.380048
740.000000	0.381923
741.000000	0.383821
742.000000	0.385679
743.000000	0.387459
744.000000	0.389257
745.000000	0.390963
746.000000	0.392656
747.000000	0.394345
748.000000	0.396015
749.000000	0.397617
750.000000	0.399110
751.000000	0.400678
752.000000	0.402168
753.000000	0.403565
754.000000	0.404943
755.000000	0.406309
756.000000	0.407674
757.000000	0.408980
758.000000	0.410232
759.000000	0.411489
760.000000	0.412672
761.000000	0.413779
762.000000	0.414830
763.000000	0.415819
764.000000	0.416827
765.000000	0.417809
766.000000	0.418756
767.000000	0.419653
768.000000	0.420496
769.000000	0.421336
770.000000	0.422175
771.000000	0.422922
772.000000	0.423672
773.000000	0.424355
774.000000	0.425014
775.000000	0.425570
776.000000	0.426098
777.000000	0.426647
778.000000	0.427245
779.000000	0.427776
780.000000	0.428257
781.000000	0.428794
782.000000	0.429189
783.000000	0.429561
784.000000	0.429862
785.000000	0.430218
786.000000	0.430599
787.000000	0.430948
788.000000	0.431190
789.000000	0.431464
790.000000	0.431752
791.000000	0.432023
792.000000	0.432373
793.000000	0.432679
794.000000	0.432866
795.000000	0.433089
796.000000	0.433243
797.000000	0.433300
798.000000	0.433320
799.000000	0.433384
800.000000	0.433496
801.000000	0.433642
802.000000	0.433866
803.000000	0.434073
804.000000	0.434231
805.000000	0.434259
806.000000	0.434191
807.000000	0.434166
808.000000	0.434158
809.000000	0.434169
810.000000	0.434167
811.000000	0.434107
812.000000	0.433984
813.000000	0.433949
814.000000	0.433992
815.000000	0.433990
816.000000	0.433983
817.000000	0.433960
818.000000	0.433802
819.000000	0.433669
820.000000	0.433567
821.000000	0.433437
822.000000	0.433346
823.000000	0.433291
824.000000	0.433169
825.000000	0.433024
826.000000	0.432838
827.000000	0.432653
828.000000	0.432561
829.000000	0.432552
830.000000	0.432407
831.000000	0.432253
832.000000	0.432164
833.000000	0.431973
834.000000	0.431778
835.000000	0.431680
836.000000	0.431470
837.000000	0.431207
838.000000	0.431006
839.000000	0.430961
840.000000	0.430841
841.000000	0.430694
842.000000	0.430527
843.000000	0.430247
844.000000	0.430014
845.000000	0.429836
846.000000	0.429664
847.000000	0.429499
848.000000	0.429285
849.000000	0.429025
850.000000	0.428773
851.000000	0.428482
852.000000	0.428215
853.000000	0.428033
854.000000	0.427823
855.000000	0.427727
856.000000	0.427645
857.000000	0.427294
858.000000	0.427037
859.000000	0.426905
860.000000	0.426653
861.000000	0.426415
862.000000	0.426216
863.000000	0.425933
864.000000	0.425603
865.000000	0.425218
866.000000	0.424861
867.000000	0.424670
868.000000	0.424489
869.000000	0.424182
870.000000	0.423813
871.000000	0.423560
872.000000	0.423295
873.000000	0.422876
874.000000	0.422479
875.000000	0.422161
876.000000	0.421911
877.000000	0.421594
878.000000	0.421287
879.000000	0.421051
880.000000	0.420736
881.000000	0.420479
882.000000	0.420299
883.000000	0.420135
884.000000	0.419809
885.000000	0.419455
886.000000	0.419095
887.000000	0.418778
888.000000	0.418509
889.000000	0.418221
890.000000	0.417791
891.000000	0.417394
892.000000	0.416931
893.000000	0.416625
894.000000	0.416613
895.000000	0.416304
896.000000	0.415993
897.000000	0.415703
898.000000	0.415393
899.000000	0.415144
900.000000	0.414901
901.000000	0.414579
902.000000	0.414249
903.000000	0.413965
904.000000	0.413712
905.000000	0.413356
906.000000	0.413250
907.000000	0.413093
908.000000	0.412817
909.000000	0.412390
910.000000	0.411946
911.000000	0.411710
912.000000	0.411745
913.000000	0.411428
914.000000	0.410935
915.000000	0.410548
916.000000	0.410368
917.000000	0.410003
918.000000	0.409683
919.000000	0.409552
920.000000	0.409380
921.000000	0.409174
922.000000	0.408965
923.000000	0.408754
924.000000	0.408477
925.000000	0.408071
926.000000	0.407649
927.000000	0.407489
928.000000	0.407152
929.000000	0.406675
930.000000	0.406268
931.000000	0.406054
932.000000	0.405828
933.000000	0.405575
934.000000	0.405363
935.000000	0.405057
936.000000	0.404817
937.000000	0.404633
938.000000	0.404362
939.000000	0.404143
940.000000	0.403911
941.000000	0.403686
942.000000	0.403297
943.000000	0.403048
944.000000	0.402910
945.000000	0.402738
946.000000	0.402379
947.000000	0.402049
948.000000	0.401903
949.000000	0.401685
950.000000	0.401457
951.000000	0.401167
952.000000	0.400817
953.000000	0.400528
954.000000	0.400381
955.000000	0.400217
956.000000	0.399648
957.000000	0.399293
958.000000	0.399066
959.000000	0.398792
960.000000	0.398619
961.000000	0.398383
962.000000	0.398075
963.000000	0.397954
964.000000	0.397705
965.000000	0.397476
966.000000	0.397247
967.000000	0.396883
968.000000	0.396753
969.000000	0.396635
970.000000	0.396261
971.000000	0.395943
972.000000	0.395693
973.000000	0.395487
974.000000	0.395532
975.000000	0.395495
976.000000	0.395279
977.000000	0.394944
978.000000	0.394846
979.000000	0.394768
980.000000	0.394494
981.000000	0.394429
982.000000	0.394270
983.000000	0.394091
984.000000	0.394021
985.000000	0.394003
986.000000	0.394124
987.000000	0.394143
988.000000	0.393795
989.000000	0.393422
990.000000	0.393250
991.000000	0.393219
992.000000	0.393238
993.000000	0.393397
994.000000	0.393300
995.000000	0.393237
996.000000	0.393405
997.000000	0.393261
998.000000	0.393249
999.000000	0.393492
1000.000000	0.393156
1001.000000	0.393455
1002.000000	0.393356
1003.000000	0.393086
1004.000000	0.392870
1005.000000	0.392921
1006.000000	0.392773
1007.000000	0.392432
1008.000000	0.392232
1009.000000	0.392223
1010.000000	0.392578
1011.000000	0.393250
1012.000000	0.393710
1013.000000	0.393933
1014.000000	0.393435
1015.000000	0.392588
1016.000000	0.392335
1017.000000	0.392066
1018.000000	0.392628
1019.000000	0.392874
1020.000000	0.393156
1021.000000	0.392885
1022.000000	0.392643
1023.000000	0.392641
1024.000000	0.391928
1025.000000	0.392939
1026.000000	0.393345
1027.000000	0.393252
1028.000000	0.393973
1029.000000	0.393696
1030.000000	0.393511
1031.000000	0.394272
1032.000000	0.394442
1033.000000	0.394328
1034.000000	0.394432
1035.000000	0.394467
1036.000000	0.394736
1037.000000	0.395336
1038.000000	0.395604
1039.000000	0.396062
1040.000000	0.396530
1041.000000	0.396505
1042.000000	0.396350
1043.000000	0.396246
1044.000000	0.396042
1045.000000	0.396258
1046.000000	0.396363
1047.000000	0.396490
1048.000000	0.396953
1049.000000	0.397030
1050.000000	0.396521
1051.000000	0.396740
1052.000000	0.397154
1053.000000	0.397341
1054.000000	0.398084
1055.000000	0.398666
1056.000000	0.398985
1057.000000	0.399785
1058.000000	0.400069
1059.000000	0.399893
1060.000000	0.399823
1061.000000	0.399256
1062.000000	0.399427
1063.000000	0.400258
1064.000000	0.400614
1065.000000	0.400958
1066.000000	0.401398
1067.000000	0.401663
1068.000000	0.401854
1069.000000	0.402158
1070.000000	0.402354
1071.000000	0.402294
1072.000000	0.402461
1073.000000	0.402929
1074.000000	0.403195
1075.000000	0.403540
1076.000000	0.403976
1077.000000	0.403679
1078.000000	0.403666
1079.000000	0.403932
1080.000000	0.404305
1081.000000	0.404459
1082.000000	0.405232
1083.000000	0.405390
1084.000000	0.404776
1085.000000	0.404884
1086.000000	0.405198
1087.000000	0.405455
1088.000000	0.405897
1089.000000	0.406235
1090.000000	0.406583
1091.000000	0.406590
1092.000000	0.406680
1093.000000	0.407117
1094.000000	0.407228
1095.000000	0.406992
1096.000000	0.407177
1097.000000	0.407455
1098.000000	0.407777
1099.000000	0.408208
1100.000000	0.408750
1101.000000	0.409553
1102.000000	0.409782
1103.000000	0.409645
1104.000000	0.409842
1105.000000	0.409823
1106.000000	0.409866
1107.000000	0.410031
1108.000000	0.410332
1109.000000	0.411077
1110.000000	0.411014
1111.000000	0.411196
1112.000000	0.411516
1113.000000	0.411878
1114.000000	0.412093
1115.000000	0.412314
1116.000000	0.412909
1117.000000	0.413008
1118.000000	0.412386
1119.000000	0.412410
1120.000000	0.412604
1121.000000	0.412835
1122.000000	0.413660
1123.000000	0.414312
1124.000000	0.414648
1125.000000	0.414881
1126.000000	0.414819
1127.000000	0.414782
1128.000000	0.414680
1129.000000	0.414391
1130.000000	0.414478
1131.000000	0.414707
1132.000000	0.414936
1133.000000	0.415540
1134.000000	0.415759
1135.000000	0.415793
1136.000000	0.415784
1137.000000	0.415523
1138.000000	0.415393
1139.000000	0.415394
1140.000000	0.415459
1141.000000	0.415474
1142.000000	0.415565
1143.000000	0.415675
1144.000000	0.415878
1145.000000	0.415999
1146.000000	0.415905
1147.000000	0.415946
1148.000000	0.415837
1149.000000	0.415833
1150.000000	0.415938
1151.000000	0.416011
1152.000000	0.416005
1153.000000	0.416027
1154.000000	0.416061
1155.000000	0.415980
1156.000000	0.415757
1157.000000	0.415721
1158.000000	0.415606
1159.000000	0.415600
1160.000000	0.415791
1161.000000	0.415860
1162.000000	0.415846
1163.000000	0.416265
1164.000000	0.416256
1165.000000	0.416134
1166.000000	0.416274
1167.000000	0.416380
1168.000000	0.416427
1169.000000	0.416732
1170.000000	0.416813
1171.000000	0.416616
1172.000000	0.416789
1173.000000	0.417097
1174.000000	0.417283
1175.000000	0.417622
1176.000000	0.417738
1177.000000	0.417709
1178.000000	0.417791
1179.000000	0.417882
1180.000000	0.417849
1181.000000	0.417884
1182.000000	0.417928
1183.000000	0.417959
1184.000000	0.418032
1185.000000	0.418113
1186.000000	0.418274
1187.000000	0.418308
1188.000000	0.418278
1189.000000	0.418292
1190.000000	0.418323
1191.000000	0.418357
1192.000000	0.418579
1193.000000	0.418797
1194.000000	0.418819
1195.000000	0.418933
1196.000000	0.419039
1197.000000	0.419082
1198.000000	0.419090
1199.000000	0.419210
1200.000000	0.419374
1201.000000	0.419461
1202.000000	0.419617
1203.000000	0.419773
1204.000000	0.419752
1205.000000	0.419744
1206.000000	0.419741
1207.000000	0.419861
1208.000000	0.419819
1209.000000	0.419774
1210.000000	0.419860
1211.000000	0.419975
1212.000000	0.420027
1213.000000	0.420137
1214.000000	0.420323
1215.000000	0.420483
1216.000000	0.420625
1217.000000	0.420872
1218.000000	0.421037
1219.000000	0.421177
1220.000000	0.421203
1221.000000	0.421305
1222.000000	0.421437
1223.000000	0.421546
1224.000000	0.421677
1225.000000	0.421850
1226.000000	0.421983
1227.000000	0.421975
1228.000000	0.422146
1229.000000	0.422212
1230.000000	0.422224
1231.000000	0.422179
1232.000000	0.422223
1233.000000	0.422351
1234.000000	0.422488
1235.000000	0.422560
1236.000000	0.422479
1237.000000	0.422597
1238.000000	0.422686
1239.000000	0.422792
1240.000000	0.423070
1241.000000	0.423220
1242.000000	0.423233
1243.000000	0.423311
1244.000000	0.423437
1245.000000	0.423717
1246.000000	0.424019
1247.000000	0.424234
1248.000000	0.424318
1249.000000	0.424424
1250.000000	0.424612
1251.000000	0.424731
1252.000000	0.424768
1253.000000	0.424760
1254.000000	0.424887
1255.000000	0.425008
1256.000000	0.425087
1257.000000	0.425270
1258.000000	0.425507
1259.000000	0.425629
1260.000000	0.425761
1261.000000	0.425918
1262.000000	0.426041
1263.000000	0.426035
1264.000000	0.426099
1265.000000	0.426433
1266.000000	0.426667
1267.000000	0.426818
1268.000000	0.427030
1269.000000	0.427080
1270.000000	0.427178
1271.000000	0.427208
1272.000000	0.427319
1273.000000	0.427679
1274.000000	0.427924
1275.000000	0.428055
1276.000000	0.428270
1277.000000	0.428434
1278.000000	0.428221
1279.000000	0.428250
1280.000000	0.428346
1281.000000	0.428407
1282.000000	0.428590
1283.000000	0.428804
1284.000000	0.428964
1285.000000	0.429104
1286.000000	0.429213
1287.000000	0.429248
1288.000000	0.429354
1289.000000	0.429428
1290.000000	0.429326
1291.000000	0.429287
1292.000000	0.429497
1293.000000	0.429596
1294.000000	0.429656
1295.000000	0.429854
1296.000000	0.429814
1297.000000	0.429735
1298.000000	0.429961
1299.000000	0.430137
1300.000000	0.430170
1301.000000	0.430155
1302.000000	0.430163
1303.000000	0.430276
1304.000000	0.430281
1305.000000	0.430506
1306.000000	0.430554
1307.000000	0.430446
1308.000000	0.430469
1309.000000	0.430534
1310.000000	0.430559
1311.000000	0.430631
1312.000000	0.430621
1313.000000	0.430765
1314.000000	0.430702
1315.000000	0.430481
1316.000000	0.430489
1317.000000	0.430301
1318.000000	0.430089
1319.000000	0.430027
1320.000000	0.429853
1321.000000	0.429593
1322.000000	0.429478
1323.000000	0.429362
1324.000000	0.429105
1325.000000	0.428843
1326.000000	0.428608
1327.000000	0.428368
1328.000000	0.428313
1329.000000	0.428108
1330.000000	0.427841
1331.000000	0.427699
1332.000000	0.427691
1333.000000	0.427558
1334.000000	0.427596
1335.000000	0.427501
1336.000000	0.427237
1337.000000	0.426983
1338.000000	0.426657
1339.000000	0.426236
1340.000000	0.425954
1341.000000	0.425698
1342.000000	0.425373
1343.000000	0.425286
1344.000000	0.425062
1345.000000	0.424568
1346.000000	0.424348
1347.000000	0.424017
1348.000000	0.423675
1349.000000	0.423358
1350.000000	0.423104
1351.000000	0.422891
1352.000000	0.422676
1353.000000	0.422416
1354.000000	0.422032
1355.000000	0.421551
1356.000000	0.421316
1357.000000	0.421180
1358.000000	0.421022
1359.000000	0.420813
1360.000000	0.420555
1361.000000	0.420177
1362.000000	0.419872
1363.000000	0.419595
1364.000000	0.419322
1365.000000	0.419018
1366.000000	0.418677
1367.000000	0.418300
1368.000000	0.417928
1369.000000	0.417604
1370.000000	0.417194
1371.000000	0.416749
1372.000000	0.416109
1373.000000	0.415483
1374.000000	0.415048
1375.000000	0.414448
1376.000000	0.414004
1377.000000	0.413629
1378.000000	0.412957
1379.000000	0.412092
1380.000000	0.411216
1381.000000	0.410271
1382.000000	0.409179
1383.000000	0.408199
1384.000000	0.407157
1385.000000	0.405890
1386.000000	0.404584
1387.000000	0.403251
1388.000000	0.401806
1389.000000	0.400282
1390.000000	0.398757
1391.000000	0.396983
1392.000000	0.395041
1393.000000	0.393077
1394.000000	0.391089
1395.000000	0.389039
1396.000000	0.386990
1397.000000	0.384672
1398.000000	0.382069
1399.000000	0.379608
1400.000000	0.376994
1401.000000	0.374535
1402.000000	0.372314
1403.000000	0.369863
1404.000000	0.367489
1405.000000	0.365208
1406.000000	0.362922
1407.000000	0.360898
1408.000000	0.358798
1409.000000	0.356760
1410.000000	0.354939
1411.000000	0.353087
1412.000000	0.351356
1413.000000	0.349702
1414.000000	0.347957
1415.000000	0.346290
1416.000000	0.344657
1417.000000	0.343135
1418.000000	0.341626
1419.000000	0.340088
1420.000000	0.338644
1421.000000	0.337359
1422.000000	0.336086
1423.000000	0.334965
1424.000000	0.333688
1425.000000	0.332356
1426.000000	0.331035
1427.000000	0.329714
1428.000000	0.328568
1429.000000	0.327376
1430.000000	0.326211
1431.000000	0.325201
1432.000000	0.324150
1433.000000	0.323107
1434.000000	0.322166
1435.000000	0.321360
1436.000000	0.320534
1437.000000	0.319710
1438.000000	0.318915
1439.000000	0.318202
1440.000000	0.317541
1441.000000	0.316933
1442.000000	0.316439
1443.000000	0.315944
1444.000000	0.315485
1445.000000	0.315271
1446.000000	0.315177
1447.000000	0.315098
1448.000000	0.315069
1449.000000	0.315064
1450.000000	0.315070
1451.000000	0.315057
1452.000000	0.315055
1453.000000	0.314980
1454.000000	0.314737
1455.000000	0.314655
1456.000000	0.314722
1457.000000	0.314771
1458.000000	0.314825
1459.000000	0.314763
1460.000000	0.314593
1461.000000	0.314380
1462.000000	0.314261
1463.000000	0.314183
1464.000000	0.314117
1465.000000	0.314153
1466.000000	0.314103
1467.000000	0.314078
1468.000000	0.314183
1469.000000	0.314342
1470.000000	0.314444
1471.000000	0.314646
1472.000000	0.314869
1473.000000	0.315193
1474.000000	0.315608
1475.000000	0.316010
1476.000000	0.316490
1477.000000	0.317031
1478.000000	0.317514
1479.000000	0.318097
1480.000000	0.318777
1481.000000	0.319402
1482.000000	0.320093
1483.000000	0.320826
1484.000000	0.321518
1485.000000	0.322266
1486.000000	0.323088
1487.000000	0.323875
1488.000000	0.324725
1489.000000	0.325494
1490.000000	0.326085
1491.000000	0.326742
1492.000000	0.327337
1493.000000	0.328005
1494.000000	0.328669
1495.000000	0.329284
1496.000000	0.329894
1497.000000	0.330512
1498.000000	0.331079
1499.000000	0.331780
1500.000000	0.332547
1501.000000	0.333092
1502.000000	0.333638
1503.000000	0.334203
1504.000000	0.334751
1505.000000	0.335381
1506.000000	0.335987
1507.000000	0.336516
1508.000000	0.337113
1509.000000	0.337620
1510.000000	0.338094
1511.000000	0.338613
1512.000000	0.338827
1513.000000	0.339036
1514.000000	0.339431
1515.000000	0.339783
1516.000000	0.340249
1517.000000	0.340629
1518.000000	0.340866
1519.000000	0.341089
1520.000000	0.341433
1521.000000	0.341743
1522.000000	0.342028
1523.000000	0.342374
1524.000000	0.342616
1525.000000	0.342928
1526.000000	0.343317
1527.000000	0.343594
1528.000000	0.343844
1529.000000	0.344160
1530.000000	0.344371
1531.000000	0.344690
1532.000000	0.345085
1533.000000	0.345321
1534.000000	0.345605
1535.000000	0.345869
1536.000000	0.345959
1537.000000	0.346157
1538.000000	0.346320
1539.000000	0.346435
1540.000000	0.346639
1541.000000	0.346837
1542.000000	0.347063
1543.000000	0.347229
1544.000000	0.347368
1545.000000	0.347510
1546.000000	0.347555
1547.000000	0.347653
1548.000000	0.347760
1549.000000	0.347802
1550.000000	0.347777
1551.000000	0.347769
1552.000000	0.347841
1553.000000	0.347940
1554.000000	0.348116
1555.000000	0.348328
1556.000000	0.348447
1557.000000	0.348398
1558.000000	0.348401
1559.000000	0.348298
1560.000000	0.348193
1561.000000	0.348091
1562.000000	0.348098
1563.000000	0.348193
1564.000000	0.348233
1565.000000	0.348343
1566.000000	0.348261
1567.000000	0.348116
1568.000000	0.348079
1569.000000	0.348086
1570.000000	0.348169
1571.000000	0.348398
1572.000000	0.348461
1573.000000	0.348472
1574.000000	0.348515
1575.000000	0.348475
1576.000000	0.348522
1577.000000	0.348693
1578.000000	0.348760
1579.000000	0.348828
1580.000000	0.348903
1581.000000	0.349015
1582.000000	0.349102
1583.000000	0.349198
1584.000000	0.349207
1585.000000	0.349220
1586.000000	0.349298
1587.000000	0.349388
1588.000000	0.349498
1589.000000	0.349707
1590.000000	0.349820
1591.000000	0.349886
1592.000000	0.349994
1593.000000	0.350133
1594.000000	0.350212
1595.000000	0.350355
1596.000000	0.350430
1597.000000	0.350407
1598.000000	0.350471
1599.000000	0.350650
1600.000000	0.350715
1601.000000	0.350875
1602.000000	0.350941
1603.000000	0.350903
1604.000000	0.350882
1605.000000	0.350843
1606.000000	0.350881
1607.000000	0.351024
1608.000000	0.351099
1609.000000	0.351281
1610.000000	0.351362
1611.000000	0.351323
1612.000000	0.351427
1613.000000	0.351732
1614.000000	0.351874
1615.000000	0.352047
1616.000000	0.352294
1617.000000	0.352429
1618.000000	0.352596
1619.000000	0.352870
1620.000000	0.353074
1621.000000	0.353213
1622.000000	0.353481
1623.000000	0.353821
1624.000000	0.354052
1625.000000	0.354080
1626.000000	0.354195
1627.000000	0.354235
1628.000000	0.354478
1629.000000	0.354922
1630.000000	0.355261
1631.000000	0.355585
1632.000000	0.355862
1633.000000	0.356073
1634.000000	0.356318
1635.000000	0.356597
1636.000000	0.356852
1637.000000	0.357138
1638.000000	0.357353
1639.000000	0.357626
1640.000000	0.357876
1641.000000	0.358097
1642.000000	0.358363
1643.000000	0.358676
1644.000000	0.358997
1645.000000	0.359377
1646.000000	0.359695
1647.000000	0.360059
1648.000000	0.360325
1649.000000	0.360584
1650.000000	0.360915
1651.000000	0.361292
1652.000000	0.361723
1653.000000	0.362168
1654.000000	0.362626
1655.000000	0.363075
1656.000000	0.363328
1657.000000	0.363597
1658.000000	0.363828
1659.000000	0.364032
1660.000000	0.364387
1661.000000	0.364737
1662.000000	0.364991
1663.000000	0.365188
1664.000000	0.365435
1665.000000	0.365658
1666.000000	0.365983
1667.000000	0.366314
1668.000000	0.366590
1669.000000	0.366754
1670.000000	0.367018
1671.000000	0.367456
1672.000000	0.367891
1673.000000	0.368392
1674.000000	0.368741
1675.000000	0.369067
1676.000000	0.369288
1677.000000	0.369376
1678.000000	0.369465
1679.000000	0.369632
1680.000000	0.369803
1681.000000	0.370037
1682.000000	0.370320
1683.000000	0.370575
1684.000000	0.370863
1685.000000	0.371261
1686.000000	0.371519
1687.000000	0.371713
1688.000000	0.371907
1689.000000	0.372023
1690.000000	0.372071
1691.000000	0.372309
1692.000000	0.372468
1693.000000	0.372504
1694.000000	0.372616
1695.000000	0.372814
1696.000000	0.373071
1697.000000	0.373130
1698.000000	0.373099
1699.000000	0.373237
1700.000000	0.373355
1701.000000	0.373536
1702.000000	0.373650
1703.000000	0.373787
1704.000000	0.373970
1705.000000	0.374162
1706.000000	0.374611
1707.000000	0.374827
1708.000000	0.374748
1709.000000	0.374813
1710.000000	0.374934
1711.000000	0.375133
1712.000000	0.375619
1713.000000	0.375810
1714.000000	0.375860
1715.000000	0.376023
1716.000000	0.376125
1717.000000	0.376257
1718.000000	0.376433
1719.000000	0.376586
1720.000000	0.376745
1721.000000	0.376932
1722.000000	0.377243
1723.000000	0.377420
1724.000000	0.377505
1725.000000	0.377704
1726.000000	0.377783
1727.000000	0.377953
1728.000000	0.378158
1729.000000	0.378299
1730.000000	0.378621
1731.000000	0.378782
1732.000000	0.378919
1733.000000	0.379069
1734.000000	0.378902
1735.000000	0.379020
1736.000000	0.379235
1737.000000	0.379406
1738.000000	0.379731
1739.000000	0.379871
1740.000000	0.379891
1741.000000	0.379921
1742.000000	0.379853
1743.000000	0.380043
1744.000000	0.380319
1745.000000	0.380473
1746.000000	0.380690
1747.000000	0.380893
1748.000000	0.381009
1749.000000	0.381238
1750.000000	0.381370
1751.000000	0.381569
1752.000000	0.381747
1753.000000	0.381617
1754.000000	0.381677
1755.000000	0.381758
1756.000000	0.381753
1757.000000	0.381865
1758.000000	0.381918
1759.000000	0.381638
1760.000000	0.381699
1761.000000	0.381993
1762.000000	0.382161
1763.000000	0.382565
1764.000000	0.382729
1765.000000	0.382537
1766.000000	0.382626
1767.000000	0.382725
1768.000000	0.382717
1769.000000	0.382902
1770.000000	0.383042
1771.000000	0.382958
1772.000000	0.383042
1773.000000	0.383145
1774.000000	0.383364
1775.000000	0.383841
1776.000000	0.384016
1777.000000	0.384143
1778.000000	0.384174
1779.000000	0.383880
1780.000000	0.383905
1781.000000	0.384031
1782.000000	0.384128
1783.000000	0.384333
1784.000000	0.384571
1785.000000	0.384733
1786.000000	0.385019
1787.000000	0.385470
1788.000000	0.385729
1789.000000	0.385738
1790.000000	0.385753
1791.000000	0.385781
1792.000000	0.386077
1793.000000	0.386218
1794.000000	0.386182
1795.000000	0.386288
1796.000000	0.386318
1797.000000	0.386487
1798.000000	0.386923
1799.000000	0.387177
1800.000000	0.387410
1801.000000	0.386987
1802.000000	0.387544
1803.000000	0.386979
1804.000000	0.387277
1805.000000	0.388075
1806.000000	0.388552
1807.000000	0.389345
1808.000000	0.389386
1809.000000	0.388811
1810.000000	0.388399
1811.000000	0.388275
1812.000000	0.387952
1813.000000	0.387940
1814.000000	0.388708
1815.000000	0.388652
1816.000000	0.387807
1817.000000	0.387387
1818.000000	0.386423
1819.000000	0.386951
1820.000000	0.387574
1821.000000	0.388247
1822.000000	0.388712
1823.000000	0.389363
1824.000000	0.389346
1825.000000	0.388605
1826.000000	0.388485
1827.000000	0.388246
1828.000000	0.388054
1829.000000	0.387592
1830.000000	0.386863
1831.000000	0.386862
1832.000000	0.387025
1833.000000	0.386820
1834.000000	0.387450
1835.000000	0.387109
1836.000000	0.385073
1837.000000	0.384295
1838.000000	0.383833
1839.000000	0.383352
1840.000000	0.383386
1841.000000	0.383394
1842.000000	0.383282
1843.000000	0.382987
1844.000000	0.383090
1845.000000	0.383648
1846.000000	0.383450
1847.000000	0.383098
1848.000000	0.381885
1849.000000	0.380870
1850.000000	0.379886
1851.000000	0.379280
1852.000000	0.379394
1853.000000	0.378781
1854.000000	0.377777
1855.000000	0.376829
1856.000000	0.375567
1857.000000	0.374185
1858.000000	0.373240
1859.000000	0.371229
1860.000000	0.368972
1861.000000	0.367198
1862.000000	0.365185
1863.000000	0.363269
1864.000000	0.361022
1865.000000	0.358255
1866.000000	0.356039
1867.000000	0.353942
1868.000000	0.351741
1869.000000	0.349408
1870.000000	0.346909
1871.000000	0.343360
1872.000000	0.340250
1873.000000	0.336972
1874.000000	0.333459
1875.000000	0.330223
1876.000000	0.327291
1877.000000	0.322985
1878.000000	0.318866
1879.000000	0.315143
1880.000000	0.310305
1881.000000	0.305836
1882.000000	0.301506
1883.000000	0.296154
1884.000000	0.290989
1885.000000	0.285477
1886.000000	0.280000
1887.000000	0.274181
1888.000000	0.268555
1889.000000	0.262940
1890.000000	0.257182
1891.000000	0.251669
1892.000000	0.246009
1893.000000	0.240276
1894.000000	0.233984
1895.000000	0.227703
1896.000000	0.221032
1897.000000	0.214822
1898.000000	0.208627
1899.000000	0.203391
1900.000000	0.198462
1901.000000	0.193573
1902.000000	0.189339
1903.000000	0.185177
1904.000000	0.181393
1905.000000	0.178032
1906.000000	0.174860
1907.000000	0.172103
1908.000000	0.169601
1909.000000	0.166703
1910.000000	0.163661
1911.000000	0.161294
1912.000000	0.159050
1913.000000	0.156949
1914.000000	0.155647
1915.000000	0.154304
1916.000000	0.153318
1917.000000	0.152476
1918.000000	0.152330
1919.000000	0.152056
1920.000000	0.151032
1921.000000	0.149614
1922.000000	0.148698
1923.000000	0.147924
1924.000000	0.147500
1925.000000	0.147576
1926.000000	0.148005
1927.000000	0.148362
1928.000000	0.148442
1929.000000	0.148601
1930.000000	0.148978
1931.000000	0.148582
1932.000000	0.148127
1933.000000	0.148316
1934.000000	0.148769
1935.000000	0.149426
1936.000000	0.149554
1937.000000	0.149548
1938.000000	0.149494
1939.000000	0.149124
1940.000000	0.148249
1941.000000	0.147605
1942.000000	0.147657
1943.000000	0.147231
1944.000000	0.146600
1945.000000	0.147451
1946.000000	0.147674
1947.000000	0.147333
1948.000000	0.147910
1949.000000	0.147568
1950.000000	0.147037
1951.000000	0.146576
1952.000000	0.146257
1953.000000	0.145377
1954.000000	0.145313
1955.000000	0.144948
1956.000000	0.144001
1957.000000	0.143716
1958.000000	0.142886
1959.000000	0.141987
1960.000000	0.142166
1961.000000	0.141950
1962.000000	0.141877
1963.000000	0.141843
1964.000000	0.142448
1965.000000	0.142358
1966.000000	0.142213
1967.000000	0.142177
1968.000000	0.141869
1969.000000	0.141831
1970.000000	0.142332
1971.000000	0.142903
1972.000000	0.143335
1973.000000	0.143618
1974.000000	0.143753
1975.000000	0.143909
1976.000000	0.144011
1977.000000	0.144232
1978.000000	0.144053
1979.000000	0.144624
1980.000000	0.145020
1981.000000	0.145241
1982.000000	0.146123
1983.000000	0.146728
1984.000000	0.147163
1985.000000	0.147511
1986.000000	0.148140
1987.000000	0.148739
1988.000000	0.149224
1989.000000	0.150495
1990.000000	0.151219
1991.000000	0.151446
1992.000000	0.152593
1993.000000	0.153379
1994.000000	0.154002
1995.000000	0.154896
1996.000000	0.155678
1997.000000	0.156905
1998.000000	0.158935
1999.000000	0.160203
2000.000000	0.161744
2001.000000	0.162322
2002.000000	0.162294
2003.000000	0.162369
2004.000000	0.162390
2005.000000	0.163414
2006.000000	0.165253
2007.000000	0.167121
2008.000000	0.168745
2009.000000	0.170886
2010.000000	0.172388
2011.000000	0.172976
2012.000000	0.174019
2013.000000	0.175071
2014.000000	0.176246
2015.000000	0.177250
2016.000000	0.178268
2017.000000	0.179326
2018.000000	0.179936
2019.000000	0.181041
2020.000000	0.182633
2021.000000	0.183929
2022.000000	0.185427
2023.000000	0.186682
2024.000000	0.187517
2025.000000	0.188704
2026.000000	0.189984
2027.000000	0.191070
2028.000000	0.192565
2029.000000	0.193704
2030.000000	0.194372
2031.000000	0.195546
2032.000000	0.196324
2033.000000	0.197450
2034.000000	0.198655
2035.000000	0.200192
2036.000000	0.201324
2037.000000	0.202663
2038.000000	0.203745
2039.000000	0.204542
2040.000000	0.205495
2041.000000	0.206654
2042.000000	0.207771
2043.000000	0.208943
2044.000000	0.210057
2045.000000	0.211205
2046.000000	0.212059
2047.000000	0.213112
2048.000000	0.214318
2049.000000	0.215596
2050.000000	0.216879
2051.000000	0.217779
2052.000000	0.218344
2053.000000	0.218882
2054.000000	0.219314
2055.000000	0.219624
2056.000000	0.220280
2057.000000	0.221858
2058.000000	0.222967
2059.000000	0.224253
2060.000000	0.225427
2061.000000	0.226333
2062.000000	0.227205
2063.000000	0.228178
2064.000000	0.229079
2065.000000	0.230205
2066.000000	0.231108
2067.000000	0.232115
2068.000000	0.233107
2069.000000	0.233950
2070.000000	0.234896
2071.000000	0.236050
2072.000000	0.236749
2073.000000	0.237357
2074.000000	0.238191
2075.000000	0.239150
2076.000000	0.240363
2077.000000	0.241424
2078.000000	0.242527
2079.000000	0.243418
2080.000000	0.244152
2081.000000	0.244923
2082.000000	0.245484
2083.000000	0.246605
2084.000000	0.247497
2085.000000	0.248256
2086.000000	0.249390
2087.000000	0.250979
2088.000000	0.252374
2089.000000	0.254104
2090.000000	0.255354
2091.000000	0.256193
2092.000000	0.257121
2093.000000	0.257753
2094.000000	0.258811
2095.000000	0.260402
2096.000000	0.261558
2097.000000	0.262708
2098.000000	0.263583
2099.000000	0.264027
2100.000000	0.264689
2101.000000	0.265830
2102.000000	0.266286
2103.000000	0.267211
2104.000000	0.267987
2105.000000	0.268769
2106.000000	0.269704
2107.000000	0.270661
2108.000000	0.271598
2109.000000	0.272457
2110.000000	0.273049
2111.000000	0.273607
2112.000000	0.274097
2113.000000	0.274190
2114.000000	0.274574
2115.000000	0.274695
2116.000000	0.275033
2117.000000	0.275640
2118.000000	0.276401
2119.000000	0.277794
2120.000000	0.278225
2121.000000	0.277996
2122.000000	0.278485
2123.000000	0.278447
2124.000000	0.279057
2125.000000	0.280945
2126.000000	0.281905
2127.000000	0.282895
2128.000000	0.283272
2129.000000	0.282956
2130.000000	0.282482
2131.000000	0.281659
2132.000000	0.281433
2133.000000	0.282327
2134.000000	0.283619
2135.000000	0.284615
2136.000000	0.285955
2137.000000	0.286356
2138.000000	0.285742
2139.000000	0.285671
2140.000000	0.284839
2141.000000	0.285106
2142.000000	0.286784
2143.000000	0.286941
2144.000000	0.286997
2145.000000	0.287285
2146.000000	0.287113
2147.000000	0.286754
2148.000000	0.286764
2149.000000	0.286713
2150.000000	0.286650
2151.000000	0.286302
2152.000000	0.286933
2153.000000	0.287948
2154.000000	0.288612
2155.000000	0.289465
2156.000000	0.289992
2157.000000	0.290263
2158.000000	0.290514
2159.000000	0.290547
2160.000000	0.290810
2161.000000	0.291023
2162.000000	0.291489
2163.000000	0.291845
2164.000000	0.292407
2165.000000	0.293340
2166.000000	0.294488
2167.000000	0.294410
2168.000000	0.294789
2169.000000	0.294349
2170.000000	0.293545
2171.000000	0.293107
2172.000000	0.293064
2173.000000	0.292298
2174.000000	0.290826
2175.000000	0.290205
2176.000000	0.289538
2177.000000	0.289576
2178.000000	0.291005
2179.000000	0.291461
2180.000000	0.291799
2181.000000	0.291981
2182.000000	0.290839
2183.000000	0.290099
2184.000000	0.290915
2185.000000	0.290972
2186.000000	0.291874
2187.000000	0.293920
2188.000000	0.293977
2189.000000	0.293790
2190.000000	0.292681
2191.000000	0.290535
2192.000000	0.289680
2193.000000	0.288695
2194.000000	0.288449
2195.000000	0.290523
2196.000000	0.290499
2197.000000	0.289196
2198.000000	0.288806
2199.000000	0.287402
2200.000000	0.286928
2201.000000	0.288315
2202.000000	0.288558
2203.000000	0.287745
2204.000000	0.287930
2205.000000	0.288249
2206.000000	0.289149
2207.000000	0.291108
2208.000000	0.292937
2209.000000	0.293949
2210.000000	0.294350
2211.000000	0.295070
2212.000000	0.297435
2213.000000	0.297559
2214.000000	0.297157
2215.000000	0.296047
2216.000000	0.292425
2217.000000	0.290766
2218.000000	0.288933
2219.000000	0.288966
2220.000000	0.290455
2221.000000	0.292264
2222.000000	0.297237
2223.000000	0.298740
2224.000000	0.299465
2225.000000	0.298495
2226.000000	0.294616
2227.000000	0.293035
2228.000000	0.294579
2229.000000	0.295792
2230.000000	0.297918
2231.000000	0.299088
2232.000000	0.296492
2233.000000	0.293902
2234.000000	0.291491
2235.000000	0.290482
2236.000000	0.289243
2237.000000	0.288221
2238.000000	0.288095
2239.000000	0.287814
2240.000000	0.288077
2241.000000	0.290448
2242.000000	0.291105
2243.000000	0.292086
2244.000000	0.292099
2245.000000	0.289669
2246.000000	0.289237
2247.000000	0.289007
2248.000000	0.288601
2249.000000	0.289407
2250.000000	0.290010
2251.000000	0.288905
2252.000000	0.287756
2253.000000	0.285900
2254.000000	0.284946
2255.000000	0.285740
2256.000000	0.287061
2257.000000	0.288792
2258.000000	0.289408
2259.000000	0.289135
2260.000000	0.288185
2261.000000	0.287792
2262.000000	0.288068
2263.000000	0.287372
2264.000000	0.286324
2265.000000	0.285372
2266.000000	0.284046
2267.000000	0.282597
2268.000000	0.280075
2269.000000	0.279241
2270.000000	0.280034
2271.000000	0.278189
2272.000000	0.276515
2273.000000	0.275304
2274.000000	0.271095
2275.000000	0.269349
2276.000000	0.270554
2277.000000	0.269175
2278.000000	0.268413
2279.000000	0.267545
2280.000000	0.264509
2281.000000	0.262978
2282.000000	0.260948
2283.000000	0.257862
2284.000000	0.258124
2285.000000	0.257981
2286.000000	0.254977
2287.000000	0.253946
2288.000000	0.251723
2289.000000	0.248578
2290.000000	0.248368
2291.000000	0.249661
2292.000000	0.248969
2293.000000	0.246727
2294.000000	0.245662
2295.000000	0.243585
2296.000000	0.242530
2297.000000	0.243277
2298.000000	0.243409
2299.000000	0.243503
2300.000000	0.243724
2301.000000	0.244609
2302.000000	0.243940
2303.000000	0.241668
2304.000000	0.240281
2305.000000	0.237328
2306.000000	0.237053
2307.000000	0.237581
2308.000000	0.241389
2309.000000	0.247159
2310.000000	0.249981
2311.000000	0.251528
2312.000000	0.251095
2313.000000	0.248510
2314.000000	0.245499
2315.000000	0.242726
2316.000000	0.241369
2317.000000	0.237547
2318.000000	0.236431
2319.000000	0.238329
2320.000000	0.239203
2321.000000	0.242988
2322.000000	0.244845
2323.000000	0.241942
2324.000000	0.238382
2325.000000	0.235136
2326.000000	0.231133
2327.000000	0.228207
2328.000000	0.228229
2329.000000	0.227377
2330.000000	0.226883
2331.000000	0.227698
2332.000000	0.227299
2333.000000	0.226470
2334.000000	0.224363
2335.000000	0.223684
2336.000000	0.223462
2337.000000	0.222642
2338.000000	0.222216
2339.000000	0.222147
2340.000000	0.222183
2341.000000	0.220050
2342.000000	0.217410
2343.000000	0.215235
2344.000000	0.210082
2345.000000	0.207997
2346.000000	0.208565
2347.000000	0.207641
2348.000000	0.206558
2349.000000	0.207296
2350.000000	0.207111
2351.000000	0.207883
2352.000000	0.208010
2353.000000	0.206951
2354.000000	0.203112
2355.000000	0.200532
2356.000000	0.198198
2357.000000	0.194046
2358.000000	0.192106
2359.000000	0.188292
2360.000000	0.185710
2361.000000	0.185769
2362.000000	0.186363
2363.000000	0.188008
2364.000000	0.187961
2365.000000	0.187364
2366.000000	0.185162
2367.000000	0.183916
2368.000000	0.184329
2369.000000	0.183400
2370.000000	0.182938
2371.000000	0.183053
2372.000000	0.181081
2373.000000	0.176711
2374.000000	0.174430
2375.000000	0.169165
2376.000000	0.166166
2377.000000	0.169793
2378.000000	0.170190
2379.000000	0.173053
2380.000000	0.171443
2381.000000	0.160169
2382.000000	0.152295
2383.000000	0.147905
2384.000000	0.145282
2385.000000	0.147923
2386.000000	0.150575
2387.000000	0.148756
2388.000000	0.147683
2389.000000	0.148438
2390.000000	0.147930
2391.000000	0.145266
2392.000000	0.142680
2393.000000	0.138807
2394.000000	0.135400
2395.000000	0.137840
2396.000000	0.139022
2397.000000	0.138428
2398.000000	0.142899
2399.000000	0.141655
2400.000000	0.135429
2401.000000	0.140223
2402.000000	0.146206
2403.000000	0.147813
2404.000000	0.150514
2405.000000	0.147710
2406.000000	0.135600
2407.000000	0.127812
2408.000000	0.133088
2409.000000	0.137517
2410.000000	0.138279
2411.000000	0.136720
2412.000000	0.134114
2413.000000	0.129231
2414.000000	0.128675
2415.000000	0.136331
2416.000000	0.136148
2417.000000	0.137918
2418.000000	0.137953
2419.000000	0.134886
2420.000000	0.140098
2421.000000	0.138332
2422.000000	0.146555
2423.000000	0.155151
2424.000000	0.144443
2425.000000	0.136920
2426.000000	0.135319
2427.000000	0.139608
2428.000000	0.150748
2429.000000	0.162394
2430.000000	0.165891
2431.000000	0.154116
2432.000000	0.137840
2433.000000	0.130051
2434.000000	0.126182
2435.000000	0.136436
2436.000000	0.147243
2437.000000	0.151009
2438.000000	0.158501
2439.000000	0.148332
2440.000000	0.141899
2441.000000	0.141291
2442.000000	0.125709
2443.000000	0.113083
2444.000000	0.103604
2445.000000	0.099427
2446.000000	0.102192
2447.000000	0.105840
2448.000000	0.112295
2449.000000	0.106266
2450.000000	0.105350
2451.000000	0.116047
2452.000000	0.114991
2453.000000	0.117577
2454.000000	0.122584
2455.000000	0.119114
2456.000000	0.123023
2457.000000	0.131876
2458.000000	0.130504
2459.000000	0.127604
2460.000000	0.121192
2461.000000	0.122776
2462.000000	0.130974
2463.000000	0.124820
2464.000000	0.124396
2465.000000	0.123970
2466.000000	0.122377
2467.000000	0.134035
2468.000000	0.147342
2469.000000	0.144293
2470.000000	0.123542
2471.000000	0.108912
2472.000000	0.082783
2473.000000	0.066821
2474.000000	0.078973
2475.000000	0.069477
2476.000000	0.090291
2477.000000	0.116154
2478.000000	0.091437
2479.000000	0.094223
2480.000000	0.093292
2481.000000	0.072914
2482.000000	0.078062
2483.000000	0.093787
2484.000000	0.078050
2485.000000	0.044677
2486.000000	0.022927
2487.000000	-0.002500
2488.000000	-0.011069
2489.000000	-0.012440
2490.000000	0.017109
2491.000000	0.040394
2492.000000	0.053636
2493.000000	0.088357
2494.000000	0.117457
2495.000000	0.152050
2496.000000	0.166319
2497.000000	0.172265
2498.000000	0.170704
2499.000000	0.102558
2500.000000	0.084234
