# Wavelength	NAu-2-50_HEX-20_FV7-30_00002.asd.rts.txt
350.000000	0.123002
351.000000	0.114296
352.000000	0.113351
353.000000	0.117113
354.000000	0.122216
355.000000	0.126186
356.000000	0.116933
357.000000	0.104838
358.000000	0.116041
359.000000	0.123478
360.000000	0.121397
361.000000	0.111495
362.000000	0.111402
363.000000	0.115415
364.000000	0.116329
365.000000	0.107316
366.000000	0.107891
367.000000	0.115870
368.000000	0.110781
369.000000	0.108587
370.000000	0.110980
371.000000	0.114798
372.000000	0.111509
373.000000	0.111026
374.000000	0.117562
375.000000	0.114918
376.000000	0.112820
377.000000	0.113507
378.000000	0.112464
379.000000	0.112465
380.000000	0.112368
381.000000	0.110817
382.000000	0.111919
383.000000	0.112961
384.000000	0.112074
385.000000	0.110611
386.000000	0.111429
387.000000	0.114334
388.000000	0.115817
389.000000	0.116883
390.000000	0.117500
391.000000	0.117337
392.000000	0.117469
393.000000	0.116550
394.000000	0.114342
395.000000	0.115153
396.000000	0.116629
397.000000	0.117246
398.000000	0.116374
399.000000	0.116075
400.000000	0.116707
401.000000	0.117789
402.000000	0.118802
403.000000	0.119353
404.000000	0.119315
405.000000	0.118833
406.000000	0.118655
407.000000	0.119000
408.000000	0.119221
409.000000	0.119281
410.000000	0.119399
411.000000	0.119938
412.000000	0.119674
413.000000	0.119413
414.000000	0.120089
415.000000	0.120500
416.000000	0.120799
417.000000	0.121149
418.000000	0.121488
419.000000	0.121780
420.000000	0.122089
421.000000	0.122579
422.000000	0.123139
423.000000	0.123437
424.000000	0.123239
425.000000	0.123456
426.000000	0.123870
427.000000	0.124258
428.000000	0.124986
429.000000	0.125497
430.000000	0.125669
431.000000	0.125979
432.000000	0.125635
433.000000	0.125253
434.000000	0.126078
435.000000	0.126744
436.000000	0.126832
437.000000	0.126368
438.000000	0.126431
439.000000	0.126980
440.000000	0.127757
441.000000	0.128016
442.000000	0.128127
443.000000	0.128255
444.000000	0.128556
445.000000	0.128744
446.000000	0.129085
447.000000	0.129777
448.000000	0.130143
449.000000	0.130536
450.000000	0.131167
451.000000	0.131538
452.000000	0.131795
453.000000	0.132027
454.000000	0.132401
455.000000	0.132639
456.000000	0.132881
457.000000	0.133311
458.000000	0.133485
459.000000	0.133792
460.000000	0.134500
461.000000	0.134627
462.000000	0.134903
463.000000	0.135470
464.000000	0.135563
465.000000	0.135928
466.000000	0.136451
467.000000	0.136557
468.000000	0.137054
469.000000	0.137569
470.000000	0.137676
471.000000	0.138106
472.000000	0.138705
473.000000	0.139196
474.000000	0.139055
475.000000	0.139175
476.000000	0.139730
477.000000	0.139947
478.000000	0.139869
479.000000	0.139938
480.000000	0.140539
481.000000	0.141024
482.000000	0.141399
483.000000	0.141691
484.000000	0.142203
485.000000	0.142476
486.000000	0.142513
487.000000	0.142890
488.000000	0.143131
489.000000	0.143225
490.000000	0.143436
491.000000	0.143698
492.000000	0.143910
493.000000	0.143934
494.000000	0.144128
495.000000	0.144239
496.000000	0.144145
497.000000	0.144373
498.000000	0.144644
499.000000	0.144814
500.000000	0.144734
501.000000	0.144955
502.000000	0.145290
503.000000	0.145207
504.000000	0.145411
505.000000	0.145739
506.000000	0.145953
507.000000	0.146324
508.000000	0.146527
509.000000	0.146503
510.000000	0.146872
511.000000	0.147366
512.000000	0.147826
513.000000	0.148098
514.000000	0.148484
515.000000	0.148936
516.000000	0.149274
517.000000	0.149579
518.000000	0.149917
519.000000	0.150291
520.000000	0.150733
521.000000	0.151191
522.000000	0.151661
523.000000	0.152207
524.000000	0.152796
525.000000	0.153426
526.000000	0.154133
527.000000	0.154946
528.000000	0.155857
529.000000	0.156865
530.000000	0.157879
531.000000	0.158991
532.000000	0.160180
533.000000	0.161322
534.000000	0.162527
535.000000	0.163790
536.000000	0.165010
537.000000	0.166199
538.000000	0.167353
539.000000	0.168467
540.000000	0.169610
541.000000	0.170678
542.000000	0.171618
543.000000	0.172565
544.000000	0.173558
545.000000	0.174552
546.000000	0.175498
547.000000	0.176514
548.000000	0.177628
549.000000	0.178745
550.000000	0.179851
551.000000	0.181007
552.000000	0.182255
553.000000	0.183566
554.000000	0.184956
555.000000	0.186443
556.000000	0.188001
557.000000	0.189652
558.000000	0.191414
559.000000	0.193033
560.000000	0.194646
561.000000	0.196319
562.000000	0.197978
563.000000	0.199538
564.000000	0.201058
565.000000	0.202533
566.000000	0.203925
567.000000	0.205304
568.000000	0.206669
569.000000	0.207918
570.000000	0.208986
571.000000	0.209906
572.000000	0.210820
573.000000	0.211641
574.000000	0.212351
575.000000	0.212995
576.000000	0.213562
577.000000	0.214048
578.000000	0.214488
579.000000	0.214835
580.000000	0.215113
581.000000	0.215333
582.000000	0.215476
583.000000	0.215603
584.000000	0.215686
585.000000	0.215647
586.000000	0.215643
587.000000	0.215600
588.000000	0.215422
589.000000	0.215248
590.000000	0.215057
591.000000	0.214824
592.000000	0.214519
593.000000	0.214201
594.000000	0.213867
595.000000	0.213448
596.000000	0.213038
597.000000	0.212617
598.000000	0.212065
599.000000	0.211527
600.000000	0.210990
601.000000	0.210382
602.000000	0.209827
603.000000	0.209271
604.000000	0.208695
605.000000	0.208126
606.000000	0.207619
607.000000	0.207132
608.000000	0.206548
609.000000	0.206000
610.000000	0.205523
611.000000	0.205102
612.000000	0.204600
613.000000	0.204109
614.000000	0.203692
615.000000	0.203179
616.000000	0.202669
617.000000	0.202172
618.000000	0.201676
619.000000	0.201251
620.000000	0.200864
621.000000	0.200483
622.000000	0.200034
623.000000	0.199626
624.000000	0.199328
625.000000	0.198945
626.000000	0.198668
627.000000	0.198509
628.000000	0.198151
629.000000	0.197891
630.000000	0.197663
631.000000	0.197412
632.000000	0.197203
633.000000	0.197013
634.000000	0.196802
635.000000	0.196628
636.000000	0.196502
637.000000	0.196410
638.000000	0.196365
639.000000	0.196272
640.000000	0.196174
641.000000	0.196125
642.000000	0.196066
643.000000	0.196025
644.000000	0.196050
645.000000	0.196083
646.000000	0.196160
647.000000	0.196282
648.000000	0.196387
649.000000	0.196463
650.000000	0.196532
651.000000	0.196706
652.000000	0.196919
653.000000	0.197189
654.000000	0.197503
655.000000	0.197780
656.000000	0.198089
657.000000	0.198462
658.000000	0.198865
659.000000	0.199300
660.000000	0.199769
661.000000	0.200308
662.000000	0.200807
663.000000	0.201302
664.000000	0.201847
665.000000	0.202417
666.000000	0.203003
667.000000	0.203586
668.000000	0.204264
669.000000	0.205000
670.000000	0.205738
671.000000	0.206379
672.000000	0.207117
673.000000	0.207961
674.000000	0.208791
675.000000	0.209627
676.000000	0.210472
677.000000	0.211343
678.000000	0.212217
679.000000	0.213142
680.000000	0.214146
681.000000	0.215152
682.000000	0.216204
683.000000	0.217275
684.000000	0.218429
685.000000	0.219543
686.000000	0.220670
687.000000	0.221874
688.000000	0.223107
689.000000	0.224395
690.000000	0.225769
691.000000	0.227120
692.000000	0.228478
693.000000	0.229903
694.000000	0.231356
695.000000	0.232806
696.000000	0.234286
697.000000	0.235845
698.000000	0.237384
699.000000	0.238931
700.000000	0.240521
701.000000	0.242111
702.000000	0.243747
703.000000	0.245425
704.000000	0.247112
705.000000	0.248855
706.000000	0.250607
707.000000	0.252366
708.000000	0.254208
709.000000	0.256060
710.000000	0.257863
711.000000	0.259629
712.000000	0.261444
713.000000	0.263333
714.000000	0.265186
715.000000	0.267029
716.000000	0.268896
717.000000	0.270806
718.000000	0.272695
719.000000	0.274589
720.000000	0.276524
721.000000	0.278444
722.000000	0.280308
723.000000	0.282174
724.000000	0.284071
725.000000	0.285968
726.000000	0.287894
727.000000	0.289753
728.000000	0.291645
729.000000	0.293538
730.000000	0.295366
731.000000	0.297281
732.000000	0.299111
733.000000	0.300856
734.000000	0.302624
735.000000	0.304412
736.000000	0.306256
737.000000	0.307946
738.000000	0.309581
739.000000	0.311267
740.000000	0.312891
741.000000	0.314505
742.000000	0.316085
743.000000	0.317616
744.000000	0.319185
745.000000	0.320668
746.000000	0.322136
747.000000	0.323603
748.000000	0.324979
749.000000	0.326338
750.000000	0.327681
751.000000	0.328907
752.000000	0.330083
753.000000	0.331234
754.000000	0.332328
755.000000	0.333437
756.000000	0.334585
757.000000	0.335713
758.000000	0.336744
759.000000	0.337739
760.000000	0.338677
761.000000	0.339651
762.000000	0.340542
763.000000	0.341384
764.000000	0.342384
765.000000	0.343262
766.000000	0.344020
767.000000	0.344719
768.000000	0.345441
769.000000	0.346142
770.000000	0.346793
771.000000	0.347359
772.000000	0.347974
773.000000	0.348588
774.000000	0.349219
775.000000	0.349716
776.000000	0.350128
777.000000	0.350526
778.000000	0.351049
779.000000	0.351602
780.000000	0.352092
781.000000	0.352397
782.000000	0.352664
783.000000	0.352982
784.000000	0.353216
785.000000	0.353503
786.000000	0.353806
787.000000	0.354112
788.000000	0.354525
789.000000	0.354808
790.000000	0.354963
791.000000	0.355168
792.000000	0.355401
793.000000	0.355606
794.000000	0.355741
795.000000	0.355781
796.000000	0.355878
797.000000	0.356066
798.000000	0.356274
799.000000	0.356424
800.000000	0.356490
801.000000	0.356485
802.000000	0.356460
803.000000	0.356485
804.000000	0.356585
805.000000	0.356560
806.000000	0.356386
807.000000	0.356267
808.000000	0.356327
809.000000	0.356352
810.000000	0.356299
811.000000	0.356185
812.000000	0.356199
813.000000	0.356185
814.000000	0.356124
815.000000	0.356136
816.000000	0.356109
817.000000	0.356094
818.000000	0.356070
819.000000	0.356131
820.000000	0.356107
821.000000	0.355913
822.000000	0.355758
823.000000	0.355672
824.000000	0.355559
825.000000	0.355426
826.000000	0.355288
827.000000	0.355188
828.000000	0.355150
829.000000	0.354967
830.000000	0.354819
831.000000	0.354748
832.000000	0.354545
833.000000	0.354399
834.000000	0.354333
835.000000	0.354329
836.000000	0.354171
837.000000	0.353980
838.000000	0.353806
839.000000	0.353589
840.000000	0.353302
841.000000	0.353010
842.000000	0.352743
843.000000	0.352570
844.000000	0.352373
845.000000	0.352093
846.000000	0.351830
847.000000	0.351698
848.000000	0.351608
849.000000	0.351480
850.000000	0.351360
851.000000	0.351196
852.000000	0.351000
853.000000	0.350747
854.000000	0.350460
855.000000	0.350271
856.000000	0.350108
857.000000	0.349959
858.000000	0.349789
859.000000	0.349538
860.000000	0.349379
861.000000	0.349237
862.000000	0.349080
863.000000	0.348812
864.000000	0.348512
865.000000	0.348197
866.000000	0.347929
867.000000	0.347778
868.000000	0.347634
869.000000	0.347380
870.000000	0.347061
871.000000	0.346844
872.000000	0.346535
873.000000	0.346036
874.000000	0.345748
875.000000	0.345479
876.000000	0.345222
877.000000	0.344954
878.000000	0.344628
879.000000	0.344322
880.000000	0.343964
881.000000	0.343769
882.000000	0.343469
883.000000	0.343072
884.000000	0.342649
885.000000	0.342398
886.000000	0.342188
887.000000	0.341949
888.000000	0.341685
889.000000	0.341541
890.000000	0.341306
891.000000	0.340939
892.000000	0.340678
893.000000	0.340356
894.000000	0.340012
895.000000	0.339623
896.000000	0.339350
897.000000	0.339106
898.000000	0.338759
899.000000	0.338518
900.000000	0.338205
901.000000	0.337825
902.000000	0.337822
903.000000	0.337563
904.000000	0.337215
905.000000	0.336973
906.000000	0.336697
907.000000	0.336363
908.000000	0.336050
909.000000	0.335743
910.000000	0.335485
911.000000	0.335216
912.000000	0.334893
913.000000	0.334563
914.000000	0.334239
915.000000	0.333932
916.000000	0.333480
917.000000	0.333238
918.000000	0.333074
919.000000	0.332806
920.000000	0.332456
921.000000	0.332007
922.000000	0.331555
923.000000	0.331217
924.000000	0.331064
925.000000	0.330874
926.000000	0.330607
927.000000	0.330480
928.000000	0.330193
929.000000	0.329762
930.000000	0.329349
931.000000	0.329235
932.000000	0.329036
933.000000	0.328678
934.000000	0.328344
935.000000	0.328044
936.000000	0.327778
937.000000	0.327452
938.000000	0.327224
939.000000	0.327025
940.000000	0.326700
941.000000	0.326269
942.000000	0.326074
943.000000	0.325939
944.000000	0.325662
945.000000	0.325613
946.000000	0.325335
947.000000	0.324996
948.000000	0.324783
949.000000	0.324295
950.000000	0.323938
951.000000	0.323720
952.000000	0.323387
953.000000	0.323085
954.000000	0.322702
955.000000	0.322195
956.000000	0.322124
957.000000	0.322032
958.000000	0.321815
959.000000	0.321644
960.000000	0.321460
961.000000	0.321233
962.000000	0.321035
963.000000	0.321097
964.000000	0.320797
965.000000	0.320608
966.000000	0.320735
967.000000	0.320432
968.000000	0.320062
969.000000	0.319679
970.000000	0.319373
971.000000	0.319472
972.000000	0.319391
973.000000	0.318972
974.000000	0.318859
975.000000	0.318729
976.000000	0.318570
977.000000	0.318397
978.000000	0.318135
979.000000	0.318071
980.000000	0.317879
981.000000	0.317572
982.000000	0.317478
983.000000	0.317351
984.000000	0.317217
985.000000	0.317234
986.000000	0.317050
987.000000	0.316893
988.000000	0.316734
989.000000	0.316122
990.000000	0.316035
991.000000	0.316108
992.000000	0.315778
993.000000	0.315783
994.000000	0.315762
995.000000	0.315701
996.000000	0.315496
997.000000	0.315807
998.000000	0.315770
999.000000	0.315399
1000.000000	0.315955
1001.000000	0.316676
1002.000000	0.315531
1003.000000	0.314917
1004.000000	0.315029
1005.000000	0.316203
1006.000000	0.316553
1007.000000	0.317251
1008.000000	0.317752
1009.000000	0.316952
1010.000000	0.316418
1011.000000	0.316137
1012.000000	0.316160
1013.000000	0.316531
1014.000000	0.316647
1015.000000	0.316679
1016.000000	0.315998
1017.000000	0.315423
1018.000000	0.315917
1019.000000	0.315957
1020.000000	0.316271
1021.000000	0.316136
1022.000000	0.315620
1023.000000	0.315675
1024.000000	0.315628
1025.000000	0.316350
1026.000000	0.316966
1027.000000	0.317033
1028.000000	0.316970
1029.000000	0.316664
1030.000000	0.316506
1031.000000	0.316410
1032.000000	0.316339
1033.000000	0.316925
1034.000000	0.316929
1035.000000	0.316394
1036.000000	0.316499
1037.000000	0.316559
1038.000000	0.316839
1039.000000	0.317663
1040.000000	0.318867
1041.000000	0.319273
1042.000000	0.319052
1043.000000	0.318952
1044.000000	0.318689
1045.000000	0.318288
1046.000000	0.318395
1047.000000	0.318362
1048.000000	0.318004
1049.000000	0.317933
1050.000000	0.318075
1051.000000	0.318352
1052.000000	0.318837
1053.000000	0.319092
1054.000000	0.319497
1055.000000	0.319893
1056.000000	0.320180
1057.000000	0.320529
1058.000000	0.320854
1059.000000	0.321239
1060.000000	0.321402
1061.000000	0.321578
1062.000000	0.321659
1063.000000	0.321885
1064.000000	0.322181
1065.000000	0.322541
1066.000000	0.322655
1067.000000	0.322730
1068.000000	0.322805
1069.000000	0.322456
1070.000000	0.322469
1071.000000	0.322986
1072.000000	0.323157
1073.000000	0.323072
1074.000000	0.323419
1075.000000	0.324028
1076.000000	0.324196
1077.000000	0.324561
1078.000000	0.325035
1079.000000	0.325217
1080.000000	0.324885
1081.000000	0.325238
1082.000000	0.326139
1083.000000	0.326472
1084.000000	0.326850
1085.000000	0.327174
1086.000000	0.327127
1087.000000	0.327174
1088.000000	0.327175
1089.000000	0.327368
1090.000000	0.327690
1091.000000	0.327537
1092.000000	0.328101
1093.000000	0.328778
1094.000000	0.328971
1095.000000	0.328811
1096.000000	0.329088
1097.000000	0.329301
1098.000000	0.329472
1099.000000	0.329809
1100.000000	0.330112
1101.000000	0.330205
1102.000000	0.330342
1103.000000	0.330607
1104.000000	0.330841
1105.000000	0.330964
1106.000000	0.331083
1107.000000	0.331023
1108.000000	0.331223
1109.000000	0.331607
1110.000000	0.331990
1111.000000	0.332265
1112.000000	0.332648
1113.000000	0.333115
1114.000000	0.333588
1115.000000	0.333815
1116.000000	0.334155
1117.000000	0.334366
1118.000000	0.334038
1119.000000	0.334150
1120.000000	0.334809
1121.000000	0.334938
1122.000000	0.334861
1123.000000	0.335147
1124.000000	0.335101
1125.000000	0.335169
1126.000000	0.335415
1127.000000	0.335599
1128.000000	0.335739
1129.000000	0.335703
1130.000000	0.336028
1131.000000	0.336733
1132.000000	0.336853
1133.000000	0.336876
1134.000000	0.337003
1135.000000	0.336711
1136.000000	0.336751
1137.000000	0.337119
1138.000000	0.337300
1139.000000	0.337544
1140.000000	0.337784
1141.000000	0.338012
1142.000000	0.338164
1143.000000	0.338050
1144.000000	0.338242
1145.000000	0.338296
1146.000000	0.338482
1147.000000	0.338605
1148.000000	0.338761
1149.000000	0.338830
1150.000000	0.338807
1151.000000	0.338898
1152.000000	0.338969
1153.000000	0.339064
1154.000000	0.339146
1155.000000	0.339234
1156.000000	0.339323
1157.000000	0.339442
1158.000000	0.339592
1159.000000	0.339667
1160.000000	0.339557
1161.000000	0.339663
1162.000000	0.339914
1163.000000	0.340307
1164.000000	0.340595
1165.000000	0.340854
1166.000000	0.340972
1167.000000	0.340764
1168.000000	0.340804
1169.000000	0.340943
1170.000000	0.341064
1171.000000	0.341314
1172.000000	0.341472
1173.000000	0.341546
1174.000000	0.341616
1175.000000	0.341559
1176.000000	0.341612
1177.000000	0.341912
1178.000000	0.341978
1179.000000	0.341923
1180.000000	0.341906
1181.000000	0.341853
1182.000000	0.341742
1183.000000	0.342024
1184.000000	0.342356
1185.000000	0.342494
1186.000000	0.342595
1187.000000	0.342723
1188.000000	0.342706
1189.000000	0.342800
1190.000000	0.343125
1191.000000	0.343240
1192.000000	0.343367
1193.000000	0.343549
1194.000000	0.343490
1195.000000	0.343565
1196.000000	0.343635
1197.000000	0.343746
1198.000000	0.343958
1199.000000	0.344164
1200.000000	0.344385
1201.000000	0.344627
1202.000000	0.344773
1203.000000	0.344834
1204.000000	0.344803
1205.000000	0.344792
1206.000000	0.344746
1207.000000	0.344775
1208.000000	0.344717
1209.000000	0.344602
1210.000000	0.344664
1211.000000	0.344853
1212.000000	0.344908
1213.000000	0.345076
1214.000000	0.345162
1215.000000	0.345059
1216.000000	0.345053
1217.000000	0.345045
1218.000000	0.345108
1219.000000	0.345266
1220.000000	0.345356
1221.000000	0.345625
1222.000000	0.345778
1223.000000	0.345732
1224.000000	0.345802
1225.000000	0.345782
1226.000000	0.345788
1227.000000	0.346064
1228.000000	0.346269
1229.000000	0.346346
1230.000000	0.346375
1231.000000	0.346398
1232.000000	0.346422
1233.000000	0.346583
1234.000000	0.346834
1235.000000	0.346928
1236.000000	0.346826
1237.000000	0.346902
1238.000000	0.346937
1239.000000	0.347024
1240.000000	0.347240
1241.000000	0.347408
1242.000000	0.347437
1243.000000	0.347505
1244.000000	0.347630
1245.000000	0.347798
1246.000000	0.347970
1247.000000	0.348209
1248.000000	0.348352
1249.000000	0.348410
1250.000000	0.348369
1251.000000	0.348317
1252.000000	0.348405
1253.000000	0.348643
1254.000000	0.348728
1255.000000	0.348820
1256.000000	0.348933
1257.000000	0.349014
1258.000000	0.349105
1259.000000	0.349172
1260.000000	0.349314
1261.000000	0.349293
1262.000000	0.349384
1263.000000	0.349596
1264.000000	0.349891
1265.000000	0.350068
1266.000000	0.350213
1267.000000	0.350326
1268.000000	0.350397
1269.000000	0.350430
1270.000000	0.350488
1271.000000	0.350610
1272.000000	0.350716
1273.000000	0.350757
1274.000000	0.350783
1275.000000	0.350820
1276.000000	0.350808
1277.000000	0.350934
1278.000000	0.351080
1279.000000	0.351162
1280.000000	0.351162
1281.000000	0.351198
1282.000000	0.351288
1283.000000	0.351365
1284.000000	0.351369
1285.000000	0.351399
1286.000000	0.351299
1287.000000	0.351446
1288.000000	0.351604
1289.000000	0.351634
1290.000000	0.351648
1291.000000	0.351684
1292.000000	0.351737
1293.000000	0.351893
1294.000000	0.352023
1295.000000	0.352104
1296.000000	0.352298
1297.000000	0.352426
1298.000000	0.352444
1299.000000	0.352487
1300.000000	0.352653
1301.000000	0.352794
1302.000000	0.352794
1303.000000	0.352950
1304.000000	0.352984
1305.000000	0.352907
1306.000000	0.352893
1307.000000	0.353002
1308.000000	0.353061
1309.000000	0.353015
1310.000000	0.353032
1311.000000	0.353121
1312.000000	0.353225
1313.000000	0.353231
1314.000000	0.353251
1315.000000	0.353110
1316.000000	0.353007
1317.000000	0.352943
1318.000000	0.352774
1319.000000	0.352702
1320.000000	0.352738
1321.000000	0.352653
1322.000000	0.352651
1323.000000	0.352741
1324.000000	0.352744
1325.000000	0.352775
1326.000000	0.352809
1327.000000	0.352686
1328.000000	0.352608
1329.000000	0.352496
1330.000000	0.352296
1331.000000	0.352268
1332.000000	0.352463
1333.000000	0.352458
1334.000000	0.352530
1335.000000	0.352607
1336.000000	0.352536
1337.000000	0.352524
1338.000000	0.352550
1339.000000	0.352446
1340.000000	0.352464
1341.000000	0.352524
1342.000000	0.352531
1343.000000	0.352601
1344.000000	0.352523
1345.000000	0.352330
1346.000000	0.352315
1347.000000	0.352434
1348.000000	0.352582
1349.000000	0.352485
1350.000000	0.352329
1351.000000	0.352039
1352.000000	0.351673
1353.000000	0.351526
1354.000000	0.351582
1355.000000	0.351609
1356.000000	0.351643
1357.000000	0.351596
1358.000000	0.351515
1359.000000	0.351537
1360.000000	0.351487
1361.000000	0.351472
1362.000000	0.351367
1363.000000	0.351130
1364.000000	0.351014
1365.000000	0.350983
1366.000000	0.350907
1367.000000	0.350884
1368.000000	0.350644
1369.000000	0.350598
1370.000000	0.350272
1371.000000	0.349963
1372.000000	0.349792
1373.000000	0.349405
1374.000000	0.349100
1375.000000	0.348692
1376.000000	0.348283
1377.000000	0.348083
1378.000000	0.347751
1379.000000	0.347563
1380.000000	0.347378
1381.000000	0.346744
1382.000000	0.346203
1383.000000	0.345724
1384.000000	0.345102
1385.000000	0.344392
1386.000000	0.343659
1387.000000	0.342872
1388.000000	0.341812
1389.000000	0.340961
1390.000000	0.340167
1391.000000	0.339000
1392.000000	0.337898
1393.000000	0.336720
1394.000000	0.335491
1395.000000	0.334179
1396.000000	0.332808
1397.000000	0.331342
1398.000000	0.329667
1399.000000	0.328127
1400.000000	0.326590
1401.000000	0.325127
1402.000000	0.323737
1403.000000	0.322394
1404.000000	0.321262
1405.000000	0.320053
1406.000000	0.318879
1407.000000	0.317838
1408.000000	0.316680
1409.000000	0.315727
1410.000000	0.315052
1411.000000	0.314299
1412.000000	0.313546
1413.000000	0.313031
1414.000000	0.312590
1415.000000	0.312193
1416.000000	0.311966
1417.000000	0.311676
1418.000000	0.311213
1419.000000	0.310961
1420.000000	0.310679
1421.000000	0.310407
1422.000000	0.310326
1423.000000	0.310140
1424.000000	0.309693
1425.000000	0.309415
1426.000000	0.309055
1427.000000	0.308716
1428.000000	0.308677
1429.000000	0.308627
1430.000000	0.308507
1431.000000	0.308346
1432.000000	0.308138
1433.000000	0.307811
1434.000000	0.307610
1435.000000	0.307507
1436.000000	0.307458
1437.000000	0.307462
1438.000000	0.307506
1439.000000	0.307641
1440.000000	0.307794
1441.000000	0.307976
1442.000000	0.308307
1443.000000	0.308631
1444.000000	0.309091
1445.000000	0.309644
1446.000000	0.310139
1447.000000	0.310644
1448.000000	0.311160
1449.000000	0.311774
1450.000000	0.312356
1451.000000	0.312851
1452.000000	0.313304
1453.000000	0.313650
1454.000000	0.313977
1455.000000	0.314318
1456.000000	0.314667
1457.000000	0.315053
1458.000000	0.315422
1459.000000	0.315691
1460.000000	0.315946
1461.000000	0.316231
1462.000000	0.316463
1463.000000	0.316727
1464.000000	0.317010
1465.000000	0.317275
1466.000000	0.317489
1467.000000	0.317702
1468.000000	0.318062
1469.000000	0.318439
1470.000000	0.318717
1471.000000	0.319170
1472.000000	0.319521
1473.000000	0.319818
1474.000000	0.320174
1475.000000	0.320504
1476.000000	0.320899
1477.000000	0.321354
1478.000000	0.321802
1479.000000	0.322245
1480.000000	0.322617
1481.000000	0.322990
1482.000000	0.323442
1483.000000	0.323842
1484.000000	0.324199
1485.000000	0.324555
1486.000000	0.324798
1487.000000	0.325189
1488.000000	0.325701
1489.000000	0.326160
1490.000000	0.326588
1491.000000	0.327003
1492.000000	0.327241
1493.000000	0.327616
1494.000000	0.328126
1495.000000	0.328407
1496.000000	0.328561
1497.000000	0.328831
1498.000000	0.329045
1499.000000	0.329257
1500.000000	0.329642
1501.000000	0.330051
1502.000000	0.330321
1503.000000	0.330539
1504.000000	0.330736
1505.000000	0.330992
1506.000000	0.331318
1507.000000	0.331615
1508.000000	0.332017
1509.000000	0.332335
1510.000000	0.332542
1511.000000	0.332864
1512.000000	0.333115
1513.000000	0.333251
1514.000000	0.333403
1515.000000	0.333464
1516.000000	0.333562
1517.000000	0.333710
1518.000000	0.333797
1519.000000	0.333823
1520.000000	0.333892
1521.000000	0.333908
1522.000000	0.334078
1523.000000	0.334415
1524.000000	0.334639
1525.000000	0.334875
1526.000000	0.335014
1527.000000	0.335104
1528.000000	0.335234
1529.000000	0.335362
1530.000000	0.335484
1531.000000	0.335586
1532.000000	0.335639
1533.000000	0.335682
1534.000000	0.335806
1535.000000	0.335868
1536.000000	0.335811
1537.000000	0.335889
1538.000000	0.335974
1539.000000	0.336074
1540.000000	0.336292
1541.000000	0.336508
1542.000000	0.336604
1543.000000	0.336646
1544.000000	0.336812
1545.000000	0.337069
1546.000000	0.337282
1547.000000	0.337422
1548.000000	0.337403
1549.000000	0.337316
1550.000000	0.337321
1551.000000	0.337354
1552.000000	0.337392
1553.000000	0.337427
1554.000000	0.337396
1555.000000	0.337450
1556.000000	0.337614
1557.000000	0.337685
1558.000000	0.337766
1559.000000	0.337750
1560.000000	0.337837
1561.000000	0.338034
1562.000000	0.338034
1563.000000	0.338040
1564.000000	0.338100
1565.000000	0.338036
1566.000000	0.337993
1567.000000	0.338199
1568.000000	0.338175
1569.000000	0.338009
1570.000000	0.337991
1571.000000	0.337960
1572.000000	0.338009
1573.000000	0.338224
1574.000000	0.338277
1575.000000	0.338279
1576.000000	0.338348
1577.000000	0.338348
1578.000000	0.338356
1579.000000	0.338538
1580.000000	0.338564
1581.000000	0.338558
1582.000000	0.338554
1583.000000	0.338425
1584.000000	0.338389
1585.000000	0.338511
1586.000000	0.338581
1587.000000	0.338705
1588.000000	0.338789
1589.000000	0.338785
1590.000000	0.338850
1591.000000	0.339034
1592.000000	0.339094
1593.000000	0.339132
1594.000000	0.339198
1595.000000	0.339251
1596.000000	0.339336
1597.000000	0.339538
1598.000000	0.339613
1599.000000	0.339660
1600.000000	0.339630
1601.000000	0.339568
1602.000000	0.339616
1603.000000	0.339704
1604.000000	0.339747
1605.000000	0.339887
1606.000000	0.339976
1607.000000	0.340107
1608.000000	0.340109
1609.000000	0.340137
1610.000000	0.340064
1611.000000	0.339759
1612.000000	0.339693
1613.000000	0.339870
1614.000000	0.339884
1615.000000	0.340016
1616.000000	0.340131
1617.000000	0.340093
1618.000000	0.340095
1619.000000	0.340115
1620.000000	0.340117
1621.000000	0.340129
1622.000000	0.340170
1623.000000	0.340194
1624.000000	0.340227
1625.000000	0.340087
1626.000000	0.340035
1627.000000	0.340034
1628.000000	0.340186
1629.000000	0.340416
1630.000000	0.340632
1631.000000	0.340910
1632.000000	0.341016
1633.000000	0.341053
1634.000000	0.341152
1635.000000	0.341232
1636.000000	0.341358
1637.000000	0.341609
1638.000000	0.341635
1639.000000	0.341599
1640.000000	0.341608
1641.000000	0.341525
1642.000000	0.341623
1643.000000	0.341955
1644.000000	0.342087
1645.000000	0.342185
1646.000000	0.342244
1647.000000	0.342220
1648.000000	0.342277
1649.000000	0.342499
1650.000000	0.342636
1651.000000	0.342764
1652.000000	0.342948
1653.000000	0.343141
1654.000000	0.343274
1655.000000	0.343342
1656.000000	0.343309
1657.000000	0.343243
1658.000000	0.343161
1659.000000	0.343138
1660.000000	0.343173
1661.000000	0.343127
1662.000000	0.343078
1663.000000	0.343063
1664.000000	0.343012
1665.000000	0.342830
1666.000000	0.342911
1667.000000	0.343052
1668.000000	0.343112
1669.000000	0.343237
1670.000000	0.343251
1671.000000	0.343256
1672.000000	0.343307
1673.000000	0.343326
1674.000000	0.343437
1675.000000	0.343659
1676.000000	0.343963
1677.000000	0.344133
1678.000000	0.344042
1679.000000	0.343933
1680.000000	0.343870
1681.000000	0.343839
1682.000000	0.344034
1683.000000	0.344227
1684.000000	0.344256
1685.000000	0.344278
1686.000000	0.344182
1687.000000	0.344095
1688.000000	0.344004
1689.000000	0.343987
1690.000000	0.344060
1691.000000	0.344234
1692.000000	0.344306
1693.000000	0.344226
1694.000000	0.344045
1695.000000	0.343926
1696.000000	0.344066
1697.000000	0.344071
1698.000000	0.344236
1699.000000	0.344289
1700.000000	0.344121
1701.000000	0.344167
1702.000000	0.344065
1703.000000	0.343991
1704.000000	0.344190
1705.000000	0.344200
1706.000000	0.344173
1707.000000	0.344132
1708.000000	0.343860
1709.000000	0.343721
1710.000000	0.343867
1711.000000	0.343805
1712.000000	0.343605
1713.000000	0.343625
1714.000000	0.343723
1715.000000	0.343758
1716.000000	0.344025
1717.000000	0.344125
1718.000000	0.343945
1719.000000	0.343895
1720.000000	0.343992
1721.000000	0.344014
1722.000000	0.343997
1723.000000	0.344030
1724.000000	0.344088
1725.000000	0.344180
1726.000000	0.344232
1727.000000	0.344269
1728.000000	0.344252
1729.000000	0.344196
1730.000000	0.344226
1731.000000	0.344276
1732.000000	0.344359
1733.000000	0.344475
1734.000000	0.344453
1735.000000	0.344545
1736.000000	0.344691
1737.000000	0.344717
1738.000000	0.344790
1739.000000	0.344765
1740.000000	0.344563
1741.000000	0.344473
1742.000000	0.344446
1743.000000	0.344378
1744.000000	0.344255
1745.000000	0.344205
1746.000000	0.344165
1747.000000	0.344047
1748.000000	0.343950
1749.000000	0.343772
1750.000000	0.343656
1751.000000	0.343913
1752.000000	0.344029
1753.000000	0.343882
1754.000000	0.343806
1755.000000	0.343619
1756.000000	0.343413
1757.000000	0.343217
1758.000000	0.343080
1759.000000	0.342813
1760.000000	0.342727
1761.000000	0.342794
1762.000000	0.342814
1763.000000	0.342973
1764.000000	0.343014
1765.000000	0.342879
1766.000000	0.342930
1767.000000	0.342942
1768.000000	0.342963
1769.000000	0.343229
1770.000000	0.343390
1771.000000	0.343483
1772.000000	0.343479
1773.000000	0.343324
1774.000000	0.343280
1775.000000	0.343250
1776.000000	0.343225
1777.000000	0.343211
1778.000000	0.343233
1779.000000	0.343291
1780.000000	0.343193
1781.000000	0.343011
1782.000000	0.342964
1783.000000	0.342854
1784.000000	0.342824
1785.000000	0.342978
1786.000000	0.343048
1787.000000	0.343150
1788.000000	0.343197
1789.000000	0.343149
1790.000000	0.342881
1791.000000	0.342751
1792.000000	0.342906
1793.000000	0.342919
1794.000000	0.342933
1795.000000	0.342969
1796.000000	0.342858
1797.000000	0.342913
1798.000000	0.343121
1799.000000	0.343261
1800.000000	0.343559
1801.000000	0.343449
1802.000000	0.343501
1803.000000	0.342992
1804.000000	0.342843
1805.000000	0.342614
1806.000000	0.342421
1807.000000	0.341839
1808.000000	0.341839
1809.000000	0.342143
1810.000000	0.342601
1811.000000	0.342858
1812.000000	0.343624
1813.000000	0.343873
1814.000000	0.343853
1815.000000	0.343702
1816.000000	0.343229
1817.000000	0.342891
1818.000000	0.342137
1819.000000	0.342073
1820.000000	0.342934
1821.000000	0.342911
1822.000000	0.342905
1823.000000	0.343131
1824.000000	0.342510
1825.000000	0.340725
1826.000000	0.340153
1827.000000	0.339688
1828.000000	0.339069
1829.000000	0.339108
1830.000000	0.338656
1831.000000	0.338732
1832.000000	0.338437
1833.000000	0.339063
1834.000000	0.341187
1835.000000	0.341863
1836.000000	0.342361
1837.000000	0.342542
1838.000000	0.341620
1839.000000	0.340878
1840.000000	0.340906
1841.000000	0.340470
1842.000000	0.339971
1843.000000	0.339304
1844.000000	0.338918
1845.000000	0.338139
1846.000000	0.337826
1847.000000	0.337623
1848.000000	0.338042
1849.000000	0.338100
1850.000000	0.337746
1851.000000	0.337393
1852.000000	0.336576
1853.000000	0.336372
1854.000000	0.336130
1855.000000	0.335942
1856.000000	0.336171
1857.000000	0.336091
1858.000000	0.335315
1859.000000	0.334817
1860.000000	0.334152
1861.000000	0.333180
1862.000000	0.332199
1863.000000	0.331078
1864.000000	0.330219
1865.000000	0.329186
1866.000000	0.328330
1867.000000	0.327850
1868.000000	0.327419
1869.000000	0.325775
1870.000000	0.324576
1871.000000	0.322965
1872.000000	0.320858
1873.000000	0.318787
1874.000000	0.316467
1875.000000	0.314621
1876.000000	0.312763
1877.000000	0.310254
1878.000000	0.308393
1879.000000	0.306243
1880.000000	0.303516
1881.000000	0.300985
1882.000000	0.297957
1883.000000	0.294755
1884.000000	0.291857
1885.000000	0.289096
1886.000000	0.285550
1887.000000	0.281806
1888.000000	0.277811
1889.000000	0.273416
1890.000000	0.268846
1891.000000	0.264336
1892.000000	0.259845
1893.000000	0.254458
1894.000000	0.249108
1895.000000	0.244318
1896.000000	0.239819
1897.000000	0.235673
1898.000000	0.232198
1899.000000	0.228987
1900.000000	0.225414
1901.000000	0.222101
1902.000000	0.219316
1903.000000	0.216994
1904.000000	0.215382
1905.000000	0.213432
1906.000000	0.212050
1907.000000	0.210863
1908.000000	0.210377
1909.000000	0.209998
1910.000000	0.210825
1911.000000	0.212068
1912.000000	0.212480
1913.000000	0.213068
1914.000000	0.213643
1915.000000	0.213783
1916.000000	0.214350
1917.000000	0.214959
1918.000000	0.215822
1919.000000	0.216710
1920.000000	0.217818
1921.000000	0.218833
1922.000000	0.219941
1923.000000	0.221001
1924.000000	0.221597
1925.000000	0.222338
1926.000000	0.223020
1927.000000	0.223218
1928.000000	0.223609
1929.000000	0.224132
1930.000000	0.224687
1931.000000	0.225176
1932.000000	0.225989
1933.000000	0.226682
1934.000000	0.227028
1935.000000	0.226935
1936.000000	0.227325
1937.000000	0.227766
1938.000000	0.227594
1939.000000	0.227711
1940.000000	0.228052
1941.000000	0.227945
1942.000000	0.227970
1943.000000	0.228383
1944.000000	0.228597
1945.000000	0.228870
1946.000000	0.228779
1947.000000	0.228931
1948.000000	0.228911
1949.000000	0.228705
1950.000000	0.228990
1951.000000	0.228860
1952.000000	0.228441
1953.000000	0.228234
1954.000000	0.228236
1955.000000	0.228093
1956.000000	0.228536
1957.000000	0.229012
1958.000000	0.229494
1959.000000	0.229851
1960.000000	0.229877
1961.000000	0.230038
1962.000000	0.230187
1963.000000	0.230322
1964.000000	0.230384
1965.000000	0.230945
1966.000000	0.231203
1967.000000	0.230940
1968.000000	0.231429
1969.000000	0.231467
1970.000000	0.231424
1971.000000	0.232100
1972.000000	0.232351
1973.000000	0.232458
1974.000000	0.232496
1975.000000	0.232790
1976.000000	0.232993
1977.000000	0.233398
1978.000000	0.234006
1979.000000	0.234615
1980.000000	0.235529
1981.000000	0.236089
1982.000000	0.236351
1983.000000	0.237217
1984.000000	0.237812
1985.000000	0.238095
1986.000000	0.238580
1987.000000	0.239436
1988.000000	0.239796
1989.000000	0.240147
1990.000000	0.241145
1991.000000	0.242077
1992.000000	0.242680
1993.000000	0.243186
1994.000000	0.243550
1995.000000	0.243736
1996.000000	0.244448
1997.000000	0.245154
1998.000000	0.246142
1999.000000	0.247002
2000.000000	0.248000
2001.000000	0.248695
2002.000000	0.249500
2003.000000	0.250319
2004.000000	0.250814
2005.000000	0.251047
2006.000000	0.251508
2007.000000	0.251697
2008.000000	0.252162
2009.000000	0.253057
2010.000000	0.253755
2011.000000	0.254001
2012.000000	0.254776
2013.000000	0.255796
2014.000000	0.256448
2015.000000	0.257570
2016.000000	0.258925
2017.000000	0.260300
2018.000000	0.260986
2019.000000	0.261510
2020.000000	0.262582
2021.000000	0.263226
2022.000000	0.263461
2023.000000	0.264104
2024.000000	0.264702
2025.000000	0.265344
2026.000000	0.266266
2027.000000	0.266624
2028.000000	0.266644
2029.000000	0.267385
2030.000000	0.267881
2031.000000	0.268768
2032.000000	0.269844
2033.000000	0.270630
2034.000000	0.271313
2035.000000	0.271713
2036.000000	0.272152
2037.000000	0.273021
2038.000000	0.273170
2039.000000	0.272717
2040.000000	0.273096
2041.000000	0.272501
2042.000000	0.272179
2043.000000	0.272907
2044.000000	0.272874
2045.000000	0.273439
2046.000000	0.274818
2047.000000	0.275752
2048.000000	0.276730
2049.000000	0.277737
2050.000000	0.278343
2051.000000	0.278903
2052.000000	0.279419
2053.000000	0.279589
2054.000000	0.279705
2055.000000	0.279839
2056.000000	0.279795
2057.000000	0.280397
2058.000000	0.281110
2059.000000	0.282016
2060.000000	0.282447
2061.000000	0.282542
2062.000000	0.282877
2063.000000	0.282992
2064.000000	0.283171
2065.000000	0.284017
2066.000000	0.284270
2067.000000	0.284280
2068.000000	0.284735
2069.000000	0.284876
2070.000000	0.285733
2071.000000	0.286384
2072.000000	0.286473
2073.000000	0.286664
2074.000000	0.286654
2075.000000	0.287174
2076.000000	0.288155
2077.000000	0.288843
2078.000000	0.289910
2079.000000	0.290274
2080.000000	0.290290
2081.000000	0.290504
2082.000000	0.290455
2083.000000	0.290489
2084.000000	0.290687
2085.000000	0.290307
2086.000000	0.289894
2087.000000	0.290025
2088.000000	0.290612
2089.000000	0.290826
2090.000000	0.291293
2091.000000	0.292184
2092.000000	0.292596
2093.000000	0.292993
2094.000000	0.293408
2095.000000	0.293340
2096.000000	0.293885
2097.000000	0.295056
2098.000000	0.295258
2099.000000	0.295733
2100.000000	0.296425
2101.000000	0.296620
2102.000000	0.296894
2103.000000	0.297699
2104.000000	0.298056
2105.000000	0.298070
2106.000000	0.297644
2107.000000	0.297650
2108.000000	0.297338
2109.000000	0.297367
2110.000000	0.297985
2111.000000	0.297937
2112.000000	0.297179
2113.000000	0.296704
2114.000000	0.296771
2115.000000	0.296796
2116.000000	0.298370
2117.000000	0.299411
2118.000000	0.299872
2119.000000	0.300509
2120.000000	0.300908
2121.000000	0.300780
2122.000000	0.301050
2123.000000	0.301663
2124.000000	0.301708
2125.000000	0.301044
2126.000000	0.301161
2127.000000	0.301607
2128.000000	0.302039
2129.000000	0.303235
2130.000000	0.303553
2131.000000	0.303197
2132.000000	0.302756
2133.000000	0.302087
2134.000000	0.302355
2135.000000	0.303029
2136.000000	0.303375
2137.000000	0.303338
2138.000000	0.303120
2139.000000	0.302803
2140.000000	0.301638
2141.000000	0.301380
2142.000000	0.301488
2143.000000	0.301647
2144.000000	0.302458
2145.000000	0.303272
2146.000000	0.304735
2147.000000	0.305608
2148.000000	0.306045
2149.000000	0.306640
2150.000000	0.306502
2151.000000	0.306097
2152.000000	0.305725
2153.000000	0.305192
2154.000000	0.304791
2155.000000	0.304124
2156.000000	0.304163
2157.000000	0.304640
2158.000000	0.305019
2159.000000	0.305999
2160.000000	0.306748
2161.000000	0.307339
2162.000000	0.308029
2163.000000	0.308880
2164.000000	0.309069
2165.000000	0.308925
2166.000000	0.308783
2167.000000	0.308125
2168.000000	0.307587
2169.000000	0.306590
2170.000000	0.305738
2171.000000	0.305331
2172.000000	0.305027
2173.000000	0.304977
2174.000000	0.305726
2175.000000	0.305722
2176.000000	0.305355
2177.000000	0.305254
2178.000000	0.305113
2179.000000	0.304827
2180.000000	0.304322
2181.000000	0.304422
2182.000000	0.303827
2183.000000	0.304044
2184.000000	0.304029
2185.000000	0.304359
2186.000000	0.304347
2187.000000	0.303960
2188.000000	0.305001
2189.000000	0.305390
2190.000000	0.305519
2191.000000	0.307282
2192.000000	0.307132
2193.000000	0.305732
2194.000000	0.304903
2195.000000	0.302495
2196.000000	0.301726
2197.000000	0.302596
2198.000000	0.302777
2199.000000	0.303592
2200.000000	0.304503
2201.000000	0.305997
2202.000000	0.305739
2203.000000	0.304075
2204.000000	0.303079
2205.000000	0.301207
2206.000000	0.297788
2207.000000	0.296514
2208.000000	0.296186
2209.000000	0.295208
2210.000000	0.295664
2211.000000	0.296432
2212.000000	0.295995
2213.000000	0.296112
2214.000000	0.295617
2215.000000	0.296066
2216.000000	0.297998
2217.000000	0.298200
2218.000000	0.298439
2219.000000	0.297799
2220.000000	0.294531
2221.000000	0.293862
2222.000000	0.294402
2223.000000	0.293986
2224.000000	0.294561
2225.000000	0.294841
2226.000000	0.292307
2227.000000	0.290968
2228.000000	0.289353
2229.000000	0.287193
2230.000000	0.288763
2231.000000	0.289924
2232.000000	0.290744
2233.000000	0.294381
2234.000000	0.296771
2235.000000	0.297041
2236.000000	0.295649
2237.000000	0.292426
2238.000000	0.289754
2239.000000	0.283422
2240.000000	0.281728
2241.000000	0.282944
2242.000000	0.283913
2243.000000	0.286843
2244.000000	0.289334
2245.000000	0.293456
2246.000000	0.294891
2247.000000	0.294967
2248.000000	0.294904
2249.000000	0.293533
2250.000000	0.290434
2251.000000	0.290626
2252.000000	0.289846
2253.000000	0.288733
2254.000000	0.288796
2255.000000	0.286023
2256.000000	0.286657
2257.000000	0.288639
2258.000000	0.287771
2259.000000	0.290216
2260.000000	0.291215
2261.000000	0.291333
2262.000000	0.291629
2263.000000	0.291136
2264.000000	0.288500
2265.000000	0.287927
2266.000000	0.287745
2267.000000	0.287316
2268.000000	0.287747
2269.000000	0.287581
2270.000000	0.287752
2271.000000	0.286881
2272.000000	0.284828
2273.000000	0.284021
2274.000000	0.282837
2275.000000	0.281323
2276.000000	0.280632
2277.000000	0.279318
2278.000000	0.278102
2279.000000	0.276043
2280.000000	0.273776
2281.000000	0.272256
2282.000000	0.269254
2283.000000	0.267860
2284.000000	0.266853
2285.000000	0.266042
2286.000000	0.265016
2287.000000	0.262352
2288.000000	0.259306
2289.000000	0.256380
2290.000000	0.253092
2291.000000	0.251881
2292.000000	0.252097
2293.000000	0.251247
2294.000000	0.251093
2295.000000	0.251553
2296.000000	0.251099
2297.000000	0.250509
2298.000000	0.250319
2299.000000	0.249759
2300.000000	0.250105
2301.000000	0.251218
2302.000000	0.252040
2303.000000	0.251517
2304.000000	0.253374
2305.000000	0.257987
2306.000000	0.260232
2307.000000	0.262509
2308.000000	0.265755
2309.000000	0.265751
2310.000000	0.264616
2311.000000	0.263102
2312.000000	0.262804
2313.000000	0.263736
2314.000000	0.262347
2315.000000	0.261279
2316.000000	0.261163
2317.000000	0.261265
2318.000000	0.262837
2319.000000	0.265868
2320.000000	0.267499
2321.000000	0.267159
2322.000000	0.265955
2323.000000	0.264090
2324.000000	0.264344
2325.000000	0.266979
2326.000000	0.268085
2327.000000	0.268088
2328.000000	0.268060
2329.000000	0.265088
2330.000000	0.262301
2331.000000	0.262134
2332.000000	0.264080
2333.000000	0.266385
2334.000000	0.268788
2335.000000	0.269591
2336.000000	0.267365
2337.000000	0.265312
2338.000000	0.262239
2339.000000	0.260607
2340.000000	0.260175
2341.000000	0.259947
2342.000000	0.260514
2343.000000	0.259522
2344.000000	0.256896
2345.000000	0.255796
2346.000000	0.255535
2347.000000	0.253555
2348.000000	0.251050
2349.000000	0.249554
2350.000000	0.248574
2351.000000	0.249867
2352.000000	0.254089
2353.000000	0.258612
2354.000000	0.260822
2355.000000	0.261752
2356.000000	0.262209
2357.000000	0.261197
2358.000000	0.258319
2359.000000	0.255823
2360.000000	0.253778
2361.000000	0.252134
2362.000000	0.250757
2363.000000	0.249418
2364.000000	0.248446
2365.000000	0.246564
2366.000000	0.242747
2367.000000	0.236866
2368.000000	0.230325
2369.000000	0.225726
2370.000000	0.225592
2371.000000	0.229267
2372.000000	0.230409
2373.000000	0.231457
2374.000000	0.232441
2375.000000	0.229089
2376.000000	0.227787
2377.000000	0.224129
2378.000000	0.217630
2379.000000	0.216016
2380.000000	0.217912
2381.000000	0.220073
2382.000000	0.218947
2383.000000	0.218561
2384.000000	0.216002
2385.000000	0.209991
2386.000000	0.210111
2387.000000	0.207336
2388.000000	0.200869
2389.000000	0.199460
2390.000000	0.192734
2391.000000	0.187837
2392.000000	0.191893
2393.000000	0.193776
2394.000000	0.198799
2395.000000	0.207929
2396.000000	0.209736
2397.000000	0.210505
2398.000000	0.219131
2399.000000	0.221462
2400.000000	0.220431
2401.000000	0.223617
2402.000000	0.218411
2403.000000	0.217244
2404.000000	0.218474
2405.000000	0.211802
2406.000000	0.211681
2407.000000	0.209282
2408.000000	0.205618
2409.000000	0.205886
2410.000000	0.200359
2411.000000	0.196145
2412.000000	0.195600
2413.000000	0.198218
2414.000000	0.206812
2415.000000	0.210104
2416.000000	0.202670
2417.000000	0.199837
2418.000000	0.201249
2419.000000	0.201712
2420.000000	0.212602
2421.000000	0.215114
2422.000000	0.212714
2423.000000	0.218098
2424.000000	0.216261
2425.000000	0.214320
2426.000000	0.209535
2427.000000	0.207371
2428.000000	0.205846
2429.000000	0.203152
2430.000000	0.215436
2431.000000	0.220645
2432.000000	0.218058
2433.000000	0.216834
2434.000000	0.204272
2435.000000	0.187270
2436.000000	0.176309
2437.000000	0.180496
2438.000000	0.190265
2439.000000	0.193947
2440.000000	0.193307
2441.000000	0.181380
2442.000000	0.169059
2443.000000	0.160409
2444.000000	0.162621
2445.000000	0.172262
2446.000000	0.172760
2447.000000	0.178646
2448.000000	0.176533
2449.000000	0.164681
2450.000000	0.161027
2451.000000	0.158874
2452.000000	0.164086
2453.000000	0.177598
2454.000000	0.188713
2455.000000	0.200375
2456.000000	0.204328
2457.000000	0.203867
2458.000000	0.199256
2459.000000	0.182913
2460.000000	0.175416
2461.000000	0.161694
2462.000000	0.157865
2463.000000	0.154566
2464.000000	0.144788
2465.000000	0.151518
2466.000000	0.154014
2467.000000	0.160522
2468.000000	0.164810
2469.000000	0.153692
2470.000000	0.141860
2471.000000	0.143555
2472.000000	0.148601
2473.000000	0.162057
2474.000000	0.168269
2475.000000	0.169396
2476.000000	0.182260
2477.000000	0.173100
2478.000000	0.185197
2479.000000	0.183000
2480.000000	0.147505
2481.000000	0.160546
2482.000000	0.173631
2483.000000	0.203234
2484.000000	0.256290
2485.000000	0.272409
2486.000000	0.282125
2487.000000	0.275622
2488.000000	0.249323
2489.000000	0.202079
2490.000000	0.148579
2491.000000	0.093525
2492.000000	0.072516
2493.000000	0.100398
2494.000000	0.105688
2495.000000	0.124315
2496.000000	0.120920
2497.000000	0.064748
2498.000000	0.042854
2499.000000	0.045085
2500.000000	0.036825
