# Wavelength	Nau-2_00001.asd.rts.txt
350.000000	0.034835
351.000000	0.038272
352.000000	0.038590
353.000000	0.036991
354.000000	0.035490
355.000000	0.034482
356.000000	0.036973
357.000000	0.040492
358.000000	0.038041
359.000000	0.036135
360.000000	0.036100
361.000000	0.037421
362.000000	0.036899
363.000000	0.033913
364.000000	0.030167
365.000000	0.033217
366.000000	0.034061
367.000000	0.031225
368.000000	0.029423
369.000000	0.029209
370.000000	0.030070
371.000000	0.030884
372.000000	0.030190
373.000000	0.029577
374.000000	0.030066
375.000000	0.030210
376.000000	0.030601
377.000000	0.031320
378.000000	0.031999
379.000000	0.032923
380.000000	0.033688
381.000000	0.033905
382.000000	0.034278
383.000000	0.034510
384.000000	0.034218
385.000000	0.032652
386.000000	0.032183
387.000000	0.033292
388.000000	0.034692
389.000000	0.033762
390.000000	0.032539
391.000000	0.034265
392.000000	0.034492
393.000000	0.033886
394.000000	0.033512
395.000000	0.033117
396.000000	0.033404
397.000000	0.034245
398.000000	0.034407
399.000000	0.034586
400.000000	0.034738
401.000000	0.034548
402.000000	0.034166
403.000000	0.034142
404.000000	0.034742
405.000000	0.034865
406.000000	0.034796
407.000000	0.034769
408.000000	0.034778
409.000000	0.035282
410.000000	0.036009
411.000000	0.036251
412.000000	0.036162
413.000000	0.036168
414.000000	0.036606
415.000000	0.036893
416.000000	0.037121
417.000000	0.037356
418.000000	0.037440
419.000000	0.037783
420.000000	0.038301
421.000000	0.038486
422.000000	0.038643
423.000000	0.038917
424.000000	0.039378
425.000000	0.039651
426.000000	0.039921
427.000000	0.040296
428.000000	0.040409
429.000000	0.040585
430.000000	0.040982
431.000000	0.041600
432.000000	0.042013
433.000000	0.042153
434.000000	0.042169
435.000000	0.042538
436.000000	0.042967
437.000000	0.043126
438.000000	0.043338
439.000000	0.043405
440.000000	0.043374
441.000000	0.043781
442.000000	0.044187
443.000000	0.044450
444.000000	0.044631
445.000000	0.044931
446.000000	0.045382
447.000000	0.045903
448.000000	0.046327
449.000000	0.046677
450.000000	0.047020
451.000000	0.047464
452.000000	0.047974
453.000000	0.048485
454.000000	0.048934
455.000000	0.049269
456.000000	0.049599
457.000000	0.050051
458.000000	0.050338
459.000000	0.050625
460.000000	0.051080
461.000000	0.051502
462.000000	0.051881
463.000000	0.052217
464.000000	0.052604
465.000000	0.052969
466.000000	0.053314
467.000000	0.053712
468.000000	0.054108
469.000000	0.054468
470.000000	0.054798
471.000000	0.055113
472.000000	0.055378
473.000000	0.055623
474.000000	0.056073
475.000000	0.056426
476.000000	0.056678
477.000000	0.057078
478.000000	0.057414
479.000000	0.057703
480.000000	0.057977
481.000000	0.058273
482.000000	0.058636
483.000000	0.059028
484.000000	0.059327
485.000000	0.059572
486.000000	0.059814
487.000000	0.059982
488.000000	0.060204
489.000000	0.060452
490.000000	0.060585
491.000000	0.060775
492.000000	0.060945
493.000000	0.060957
494.000000	0.061011
495.000000	0.061061
496.000000	0.061068
497.000000	0.061117
498.000000	0.061188
499.000000	0.061280
500.000000	0.061360
501.000000	0.061478
502.000000	0.061596
503.000000	0.061626
504.000000	0.061723
505.000000	0.061896
506.000000	0.062115
507.000000	0.062312
508.000000	0.062547
509.000000	0.062838
510.000000	0.063154
511.000000	0.063436
512.000000	0.063700
513.000000	0.064008
514.000000	0.064356
515.000000	0.064729
516.000000	0.065089
517.000000	0.065449
518.000000	0.065851
519.000000	0.066294
520.000000	0.066681
521.000000	0.067142
522.000000	0.067709
523.000000	0.068255
524.000000	0.068888
525.000000	0.069636
526.000000	0.070499
527.000000	0.071397
528.000000	0.072407
529.000000	0.073611
530.000000	0.074826
531.000000	0.076142
532.000000	0.077588
533.000000	0.079077
534.000000	0.080589
535.000000	0.082125
536.000000	0.083725
537.000000	0.085321
538.000000	0.086886
539.000000	0.088402
540.000000	0.089833
541.000000	0.091180
542.000000	0.092476
543.000000	0.093787
544.000000	0.095083
545.000000	0.096331
546.000000	0.097567
547.000000	0.098829
548.000000	0.100165
549.000000	0.101598
550.000000	0.103113
551.000000	0.104725
552.000000	0.106439
553.000000	0.108282
554.000000	0.110228
555.000000	0.112268
556.000000	0.114474
557.000000	0.116733
558.000000	0.119051
559.000000	0.121447
560.000000	0.123878
561.000000	0.126335
562.000000	0.128765
563.000000	0.131182
564.000000	0.133548
565.000000	0.135780
566.000000	0.137963
567.000000	0.140065
568.000000	0.142033
569.000000	0.143801
570.000000	0.145428
571.000000	0.146931
572.000000	0.148312
573.000000	0.149529
574.000000	0.150568
575.000000	0.151461
576.000000	0.152237
577.000000	0.152893
578.000000	0.153456
579.000000	0.153930
580.000000	0.154248
581.000000	0.154415
582.000000	0.154570
583.000000	0.154596
584.000000	0.154500
585.000000	0.154361
586.000000	0.154105
587.000000	0.153759
588.000000	0.153358
589.000000	0.152866
590.000000	0.152293
591.000000	0.151653
592.000000	0.150971
593.000000	0.150204
594.000000	0.149367
595.000000	0.148544
596.000000	0.147678
597.000000	0.146784
598.000000	0.145853
599.000000	0.144886
600.000000	0.143912
601.000000	0.142923
602.000000	0.141960
603.000000	0.140971
604.000000	0.139953
605.000000	0.138981
606.000000	0.137991
607.000000	0.136987
608.000000	0.136008
609.000000	0.135050
610.000000	0.134100
611.000000	0.133141
612.000000	0.132176
613.000000	0.131242
614.000000	0.130373
615.000000	0.129534
616.000000	0.128726
617.000000	0.127926
618.000000	0.127129
619.000000	0.126325
620.000000	0.125534
621.000000	0.124813
622.000000	0.124126
623.000000	0.123455
624.000000	0.122794
625.000000	0.122185
626.000000	0.121591
627.000000	0.121010
628.000000	0.120486
629.000000	0.119985
630.000000	0.119461
631.000000	0.118981
632.000000	0.118518
633.000000	0.118089
634.000000	0.117705
635.000000	0.117332
636.000000	0.117031
637.000000	0.116810
638.000000	0.116580
639.000000	0.116371
640.000000	0.116205
641.000000	0.116040
642.000000	0.115942
643.000000	0.115893
644.000000	0.115857
645.000000	0.115863
646.000000	0.115902
647.000000	0.115959
648.000000	0.116072
649.000000	0.116237
650.000000	0.116430
651.000000	0.116613
652.000000	0.116807
653.000000	0.117057
654.000000	0.117382
655.000000	0.117729
656.000000	0.118119
657.000000	0.118554
658.000000	0.119033
659.000000	0.119533
660.000000	0.120053
661.000000	0.120650
662.000000	0.121264
663.000000	0.121918
664.000000	0.122643
665.000000	0.123402
666.000000	0.124182
667.000000	0.124973
668.000000	0.125843
669.000000	0.126773
670.000000	0.127750
671.000000	0.128778
672.000000	0.129855
673.000000	0.130974
674.000000	0.132143
675.000000	0.133332
676.000000	0.134558
677.000000	0.135856
678.000000	0.137208
679.000000	0.138610
680.000000	0.140067
681.000000	0.141583
682.000000	0.143175
683.000000	0.144812
684.000000	0.146512
685.000000	0.148276
686.000000	0.150103
687.000000	0.151971
688.000000	0.153918
689.000000	0.155937
690.000000	0.158027
691.000000	0.160133
692.000000	0.162265
693.000000	0.164483
694.000000	0.166809
695.000000	0.169211
696.000000	0.171691
697.000000	0.174256
698.000000	0.176851
699.000000	0.179512
700.000000	0.182266
701.000000	0.185044
702.000000	0.187898
703.000000	0.190829
704.000000	0.193794
705.000000	0.196841
706.000000	0.199963
707.000000	0.203189
708.000000	0.206488
709.000000	0.209873
710.000000	0.213349
711.000000	0.216829
712.000000	0.220372
713.000000	0.224008
714.000000	0.227689
715.000000	0.231420
716.000000	0.235215
717.000000	0.239082
718.000000	0.242994
719.000000	0.246957
720.000000	0.250998
721.000000	0.255115
722.000000	0.259240
723.000000	0.263408
724.000000	0.267645
725.000000	0.271901
726.000000	0.276230
727.000000	0.280586
728.000000	0.285000
729.000000	0.289452
730.000000	0.293883
731.000000	0.298349
732.000000	0.302857
733.000000	0.307414
734.000000	0.311921
735.000000	0.316390
736.000000	0.320933
737.000000	0.325440
738.000000	0.329963
739.000000	0.334564
740.000000	0.339090
741.000000	0.343592
742.000000	0.348075
743.000000	0.352509
744.000000	0.356937
745.000000	0.361299
746.000000	0.365660
747.000000	0.370010
748.000000	0.374354
749.000000	0.378683
750.000000	0.382934
751.000000	0.387059
752.000000	0.391139
753.000000	0.395200
754.000000	0.399192
755.000000	0.403091
756.000000	0.406919
757.000000	0.410651
758.000000	0.414275
759.000000	0.417865
760.000000	0.421371
761.000000	0.424843
762.000000	0.428213
763.000000	0.431438
764.000000	0.434611
765.000000	0.437728
766.000000	0.440771
767.000000	0.443698
768.000000	0.446492
769.000000	0.449168
770.000000	0.451761
771.000000	0.454324
772.000000	0.456809
773.000000	0.459157
774.000000	0.461484
775.000000	0.463651
776.000000	0.465721
777.000000	0.467717
778.000000	0.469588
779.000000	0.471384
780.000000	0.473113
781.000000	0.474717
782.000000	0.476277
783.000000	0.477871
784.000000	0.479293
785.000000	0.480614
786.000000	0.481825
787.000000	0.482938
788.000000	0.484054
789.000000	0.485083
790.000000	0.485998
791.000000	0.486876
792.000000	0.487684
793.000000	0.488426
794.000000	0.489115
795.000000	0.489743
796.000000	0.490320
797.000000	0.490844
798.000000	0.491314
799.000000	0.491798
800.000000	0.492233
801.000000	0.492539
802.000000	0.492781
803.000000	0.492954
804.000000	0.493117
805.000000	0.493261
806.000000	0.493348
807.000000	0.493466
808.000000	0.493522
809.000000	0.493576
810.000000	0.493541
811.000000	0.493366
812.000000	0.493262
813.000000	0.493104
814.000000	0.492880
815.000000	0.492702
816.000000	0.492479
817.000000	0.492261
818.000000	0.491986
819.000000	0.491745
820.000000	0.491490
821.000000	0.491100
822.000000	0.490593
823.000000	0.490114
824.000000	0.489629
825.000000	0.489228
826.000000	0.488829
827.000000	0.488421
828.000000	0.488038
829.000000	0.487532
830.000000	0.486889
831.000000	0.486228
832.000000	0.485504
833.000000	0.484957
834.000000	0.484493
835.000000	0.484031
836.000000	0.483473
837.000000	0.482819
838.000000	0.482140
839.000000	0.481502
840.000000	0.480904
841.000000	0.480322
842.000000	0.479684
843.000000	0.479097
844.000000	0.478548
845.000000	0.477948
846.000000	0.477249
847.000000	0.476542
848.000000	0.475861
849.000000	0.475252
850.000000	0.474565
851.000000	0.473852
852.000000	0.473202
853.000000	0.472562
854.000000	0.471843
855.000000	0.471204
856.000000	0.470550
857.000000	0.469704
858.000000	0.468908
859.000000	0.468163
860.000000	0.467409
861.000000	0.466650
862.000000	0.466003
863.000000	0.465468
864.000000	0.464859
865.000000	0.464197
866.000000	0.463522
867.000000	0.462735
868.000000	0.462037
869.000000	0.461356
870.000000	0.460674
871.000000	0.459901
872.000000	0.459153
873.000000	0.458413
874.000000	0.457675
875.000000	0.456966
876.000000	0.456268
877.000000	0.455456
878.000000	0.454642
879.000000	0.453944
880.000000	0.453218
881.000000	0.452562
882.000000	0.451837
883.000000	0.451123
884.000000	0.450474
885.000000	0.449839
886.000000	0.449169
887.000000	0.448483
888.000000	0.447794
889.000000	0.447178
890.000000	0.446492
891.000000	0.445843
892.000000	0.445117
893.000000	0.444388
894.000000	0.443821
895.000000	0.443135
896.000000	0.442400
897.000000	0.441670
898.000000	0.440991
899.000000	0.440319
900.000000	0.439726
901.000000	0.439178
902.000000	0.438682
903.000000	0.438150
904.000000	0.437608
905.000000	0.436984
906.000000	0.436517
907.000000	0.436018
908.000000	0.435504
909.000000	0.434975
910.000000	0.434404
911.000000	0.433859
912.000000	0.433408
913.000000	0.432930
914.000000	0.432432
915.000000	0.432002
916.000000	0.431541
917.000000	0.431038
918.000000	0.430594
919.000000	0.430226
920.000000	0.429816
921.000000	0.429399
922.000000	0.429000
923.000000	0.428590
924.000000	0.428041
925.000000	0.427480
926.000000	0.427026
927.000000	0.426556
928.000000	0.426162
929.000000	0.425779
930.000000	0.425337
931.000000	0.424994
932.000000	0.424592
933.000000	0.424144
934.000000	0.423716
935.000000	0.423353
936.000000	0.423048
937.000000	0.422662
938.000000	0.422343
939.000000	0.422098
940.000000	0.421808
941.000000	0.421511
942.000000	0.421166
943.000000	0.420886
944.000000	0.420604
945.000000	0.420505
946.000000	0.420259
947.000000	0.419953
948.000000	0.419671
949.000000	0.419334
950.000000	0.419031
951.000000	0.418749
952.000000	0.418534
953.000000	0.418322
954.000000	0.418090
955.000000	0.417752
956.000000	0.417423
957.000000	0.417128
958.000000	0.416859
959.000000	0.416732
960.000000	0.416507
961.000000	0.416306
962.000000	0.416165
963.000000	0.416068
964.000000	0.415924
965.000000	0.415832
966.000000	0.415732
967.000000	0.415704
968.000000	0.415704
969.000000	0.415594
970.000000	0.415434
971.000000	0.415550
972.000000	0.415632
973.000000	0.415480
974.000000	0.415368
975.000000	0.415295
976.000000	0.415294
977.000000	0.415343
978.000000	0.415310
979.000000	0.415388
980.000000	0.415378
981.000000	0.415552
982.000000	0.415573
983.000000	0.415539
984.000000	0.415589
985.000000	0.415662
986.000000	0.415796
987.000000	0.415984
988.000000	0.416058
989.000000	0.416089
990.000000	0.416298
991.000000	0.416649
992.000000	0.417066
993.000000	0.417488
994.000000	0.417549
995.000000	0.417556
996.000000	0.417734
997.000000	0.418089
998.000000	0.418325
999.000000	0.418479
1000.000000	0.418762
1001.000000	0.418416
1002.000000	0.418549
1003.000000	0.418601
1004.000000	0.418746
1005.000000	0.419125
1006.000000	0.419286
1007.000000	0.419411
1008.000000	0.419544
1009.000000	0.419884
1010.000000	0.419893
1011.000000	0.420165
1012.000000	0.420626
1013.000000	0.420529
1014.000000	0.420697
1015.000000	0.421186
1016.000000	0.421615
1017.000000	0.422179
1018.000000	0.422801
1019.000000	0.423213
1020.000000	0.423693
1021.000000	0.423595
1022.000000	0.423250
1023.000000	0.423542
1024.000000	0.423613
1025.000000	0.424137
1026.000000	0.424804
1027.000000	0.424981
1028.000000	0.425335
1029.000000	0.425693
1030.000000	0.425846
1031.000000	0.426143
1032.000000	0.426423
1033.000000	0.426673
1034.000000	0.426994
1035.000000	0.427472
1036.000000	0.427977
1037.000000	0.428604
1038.000000	0.428875
1039.000000	0.429193
1040.000000	0.429570
1041.000000	0.429739
1042.000000	0.429975
1043.000000	0.430357
1044.000000	0.430820
1045.000000	0.431163
1046.000000	0.431370
1047.000000	0.431764
1048.000000	0.432155
1049.000000	0.432553
1050.000000	0.433147
1051.000000	0.433506
1052.000000	0.433625
1053.000000	0.433846
1054.000000	0.434202
1055.000000	0.434647
1056.000000	0.435187
1057.000000	0.435924
1058.000000	0.436456
1059.000000	0.436675
1060.000000	0.437136
1061.000000	0.437705
1062.000000	0.438354
1063.000000	0.439155
1064.000000	0.439698
1065.000000	0.440058
1066.000000	0.440439
1067.000000	0.440594
1068.000000	0.440839
1069.000000	0.440969
1070.000000	0.441259
1071.000000	0.441715
1072.000000	0.442155
1073.000000	0.442697
1074.000000	0.443447
1075.000000	0.444050
1076.000000	0.444548
1077.000000	0.444738
1078.000000	0.444879
1079.000000	0.445197
1080.000000	0.445417
1081.000000	0.445847
1082.000000	0.446813
1083.000000	0.447316
1084.000000	0.447651
1085.000000	0.448153
1086.000000	0.448566
1087.000000	0.448994
1088.000000	0.449404
1089.000000	0.449787
1090.000000	0.450109
1091.000000	0.450229
1092.000000	0.450577
1093.000000	0.451215
1094.000000	0.451688
1095.000000	0.452080
1096.000000	0.452614
1097.000000	0.453229
1098.000000	0.453725
1099.000000	0.454188
1100.000000	0.454686
1101.000000	0.455035
1102.000000	0.455392
1103.000000	0.455738
1104.000000	0.456138
1105.000000	0.456468
1106.000000	0.456879
1107.000000	0.457284
1108.000000	0.457702
1109.000000	0.458287
1110.000000	0.458764
1111.000000	0.459233
1112.000000	0.459726
1113.000000	0.460215
1114.000000	0.460655
1115.000000	0.461129
1116.000000	0.461667
1117.000000	0.462140
1118.000000	0.462572
1119.000000	0.462911
1120.000000	0.463152
1121.000000	0.463489
1122.000000	0.463949
1123.000000	0.464611
1124.000000	0.465103
1125.000000	0.465623
1126.000000	0.466103
1127.000000	0.466454
1128.000000	0.466736
1129.000000	0.466977
1130.000000	0.467348
1131.000000	0.467762
1132.000000	0.468002
1133.000000	0.468325
1134.000000	0.468642
1135.000000	0.468709
1136.000000	0.468906
1137.000000	0.469287
1138.000000	0.469452
1139.000000	0.469607
1140.000000	0.469868
1141.000000	0.470056
1142.000000	0.470227
1143.000000	0.470295
1144.000000	0.470553
1145.000000	0.470641
1146.000000	0.470572
1147.000000	0.470654
1148.000000	0.470630
1149.000000	0.470776
1150.000000	0.470969
1151.000000	0.471337
1152.000000	0.471782
1153.000000	0.472250
1154.000000	0.472803
1155.000000	0.473271
1156.000000	0.473697
1157.000000	0.474195
1158.000000	0.474642
1159.000000	0.475123
1160.000000	0.475624
1161.000000	0.476134
1162.000000	0.476737
1163.000000	0.477479
1164.000000	0.478101
1165.000000	0.478773
1166.000000	0.479415
1167.000000	0.479977
1168.000000	0.480482
1169.000000	0.480991
1170.000000	0.481548
1171.000000	0.482141
1172.000000	0.482749
1173.000000	0.483389
1174.000000	0.483925
1175.000000	0.484322
1176.000000	0.484740
1177.000000	0.485242
1178.000000	0.485729
1179.000000	0.486215
1180.000000	0.486625
1181.000000	0.487119
1182.000000	0.487583
1183.000000	0.488126
1184.000000	0.488780
1185.000000	0.489368
1186.000000	0.490008
1187.000000	0.490530
1188.000000	0.490984
1189.000000	0.491429
1190.000000	0.491883
1191.000000	0.492376
1192.000000	0.493029
1193.000000	0.493736
1194.000000	0.494298
1195.000000	0.494903
1196.000000	0.495453
1197.000000	0.496011
1198.000000	0.496645
1199.000000	0.497221
1200.000000	0.497720
1201.000000	0.498258
1202.000000	0.498807
1203.000000	0.499355
1204.000000	0.499942
1205.000000	0.500560
1206.000000	0.501066
1207.000000	0.501653
1208.000000	0.502159
1209.000000	0.502660
1210.000000	0.503251
1211.000000	0.503913
1212.000000	0.504471
1213.000000	0.505084
1214.000000	0.505721
1215.000000	0.506259
1216.000000	0.506854
1217.000000	0.507494
1218.000000	0.508072
1219.000000	0.508646
1220.000000	0.509278
1221.000000	0.509920
1222.000000	0.510519
1223.000000	0.511133
1224.000000	0.511754
1225.000000	0.512308
1226.000000	0.512956
1227.000000	0.513549
1228.000000	0.514231
1229.000000	0.514830
1230.000000	0.515344
1231.000000	0.515889
1232.000000	0.516644
1233.000000	0.517428
1234.000000	0.518242
1235.000000	0.518971
1236.000000	0.519530
1237.000000	0.520192
1238.000000	0.520769
1239.000000	0.521377
1240.000000	0.522026
1241.000000	0.522627
1242.000000	0.523281
1243.000000	0.523944
1244.000000	0.524616
1245.000000	0.525436
1246.000000	0.526127
1247.000000	0.526865
1248.000000	0.527677
1249.000000	0.528413
1250.000000	0.529143
1251.000000	0.529870
1252.000000	0.530526
1253.000000	0.531151
1254.000000	0.531784
1255.000000	0.532368
1256.000000	0.532984
1257.000000	0.533643
1258.000000	0.534351
1259.000000	0.534983
1260.000000	0.535698
1261.000000	0.536355
1262.000000	0.537023
1263.000000	0.537761
1264.000000	0.538407
1265.000000	0.539111
1266.000000	0.539803
1267.000000	0.540432
1268.000000	0.541096
1269.000000	0.541674
1270.000000	0.542347
1271.000000	0.542986
1272.000000	0.543672
1273.000000	0.544534
1274.000000	0.545264
1275.000000	0.545940
1276.000000	0.546695
1277.000000	0.547446
1278.000000	0.547926
1279.000000	0.548500
1280.000000	0.548985
1281.000000	0.549467
1282.000000	0.550017
1283.000000	0.550724
1284.000000	0.551424
1285.000000	0.552107
1286.000000	0.552808
1287.000000	0.553453
1288.000000	0.554089
1289.000000	0.554649
1290.000000	0.555131
1291.000000	0.555611
1292.000000	0.556135
1293.000000	0.556671
1294.000000	0.557224
1295.000000	0.557875
1296.000000	0.558455
1297.000000	0.559007
1298.000000	0.559660
1299.000000	0.560205
1300.000000	0.560744
1301.000000	0.561261
1302.000000	0.561651
1303.000000	0.562124
1304.000000	0.562519
1305.000000	0.563003
1306.000000	0.563441
1307.000000	0.563975
1308.000000	0.564435
1309.000000	0.564841
1310.000000	0.565204
1311.000000	0.565570
1312.000000	0.565811
1313.000000	0.566047
1314.000000	0.566265
1315.000000	0.566333
1316.000000	0.566525
1317.000000	0.566801
1318.000000	0.566987
1319.000000	0.567048
1320.000000	0.567176
1321.000000	0.567252
1322.000000	0.567316
1323.000000	0.567590
1324.000000	0.567906
1325.000000	0.568084
1326.000000	0.568274
1327.000000	0.568536
1328.000000	0.568913
1329.000000	0.569125
1330.000000	0.569326
1331.000000	0.569569
1332.000000	0.569824
1333.000000	0.570068
1334.000000	0.570528
1335.000000	0.570896
1336.000000	0.571178
1337.000000	0.571406
1338.000000	0.571509
1339.000000	0.571569
1340.000000	0.571626
1341.000000	0.571744
1342.000000	0.571907
1343.000000	0.572051
1344.000000	0.572203
1345.000000	0.572288
1346.000000	0.572515
1347.000000	0.572596
1348.000000	0.572661
1349.000000	0.572696
1350.000000	0.572780
1351.000000	0.572849
1352.000000	0.572847
1353.000000	0.572910
1354.000000	0.573052
1355.000000	0.573053
1356.000000	0.573174
1357.000000	0.573200
1358.000000	0.573116
1359.000000	0.573076
1360.000000	0.573020
1361.000000	0.573081
1362.000000	0.572947
1363.000000	0.572699
1364.000000	0.572465
1365.000000	0.572074
1366.000000	0.571707
1367.000000	0.571384
1368.000000	0.570903
1369.000000	0.570426
1370.000000	0.569709
1371.000000	0.568783
1372.000000	0.567745
1373.000000	0.566601
1374.000000	0.565377
1375.000000	0.563992
1376.000000	0.562634
1377.000000	0.561013
1378.000000	0.559033
1379.000000	0.556820
1380.000000	0.554299
1381.000000	0.551390
1382.000000	0.548304
1383.000000	0.545013
1384.000000	0.541235
1385.000000	0.537222
1386.000000	0.532948
1387.000000	0.528337
1388.000000	0.523362
1389.000000	0.518043
1390.000000	0.512650
1391.000000	0.506922
1392.000000	0.500905
1393.000000	0.494591
1394.000000	0.487958
1395.000000	0.481292
1396.000000	0.474372
1397.000000	0.467445
1398.000000	0.460270
1399.000000	0.453516
1400.000000	0.446606
1401.000000	0.440199
1402.000000	0.434218
1403.000000	0.428459
1404.000000	0.423171
1405.000000	0.418321
1406.000000	0.413832
1407.000000	0.409975
1408.000000	0.406459
1409.000000	0.403425
1410.000000	0.401013
1411.000000	0.398907
1412.000000	0.397168
1413.000000	0.395907
1414.000000	0.394939
1415.000000	0.394292
1416.000000	0.393885
1417.000000	0.393657
1418.000000	0.393522
1419.000000	0.393543
1420.000000	0.393598
1421.000000	0.393794
1422.000000	0.394079
1423.000000	0.394459
1424.000000	0.394739
1425.000000	0.395031
1426.000000	0.395336
1427.000000	0.395697
1428.000000	0.396141
1429.000000	0.396634
1430.000000	0.397211
1431.000000	0.397773
1432.000000	0.398361
1433.000000	0.399050
1434.000000	0.399738
1435.000000	0.400465
1436.000000	0.401362
1437.000000	0.402240
1438.000000	0.403387
1439.000000	0.404682
1440.000000	0.406328
1441.000000	0.408178
1442.000000	0.410503
1443.000000	0.413100
1444.000000	0.416142
1445.000000	0.419421
1446.000000	0.422867
1447.000000	0.426565
1448.000000	0.430177
1449.000000	0.433807
1450.000000	0.437459
1451.000000	0.440817
1452.000000	0.443957
1453.000000	0.446896
1454.000000	0.449560
1455.000000	0.452052
1456.000000	0.454418
1457.000000	0.456659
1458.000000	0.458759
1459.000000	0.460774
1460.000000	0.462718
1461.000000	0.464554
1462.000000	0.466384
1463.000000	0.468140
1464.000000	0.469864
1465.000000	0.471771
1466.000000	0.473725
1467.000000	0.475722
1468.000000	0.477817
1469.000000	0.479940
1470.000000	0.481986
1471.000000	0.484169
1472.000000	0.486353
1473.000000	0.488648
1474.000000	0.490909
1475.000000	0.493128
1476.000000	0.495374
1477.000000	0.497546
1478.000000	0.499663
1479.000000	0.501732
1480.000000	0.503769
1481.000000	0.505751
1482.000000	0.507776
1483.000000	0.509793
1484.000000	0.511793
1485.000000	0.513704
1486.000000	0.515545
1487.000000	0.517385
1488.000000	0.519204
1489.000000	0.521002
1490.000000	0.522609
1491.000000	0.524284
1492.000000	0.525851
1493.000000	0.527463
1494.000000	0.529036
1495.000000	0.530569
1496.000000	0.532064
1497.000000	0.533573
1498.000000	0.535109
1499.000000	0.536602
1500.000000	0.538080
1501.000000	0.539510
1502.000000	0.540862
1503.000000	0.542261
1504.000000	0.543689
1505.000000	0.545043
1506.000000	0.546419
1507.000000	0.547759
1508.000000	0.549117
1509.000000	0.550499
1510.000000	0.551794
1511.000000	0.553138
1512.000000	0.554424
1513.000000	0.555612
1514.000000	0.556880
1515.000000	0.558030
1516.000000	0.559176
1517.000000	0.560344
1518.000000	0.561437
1519.000000	0.562440
1520.000000	0.563506
1521.000000	0.564443
1522.000000	0.565475
1523.000000	0.566644
1524.000000	0.567621
1525.000000	0.568700
1526.000000	0.569730
1527.000000	0.570684
1528.000000	0.571798
1529.000000	0.572816
1530.000000	0.573648
1531.000000	0.574629
1532.000000	0.575596
1533.000000	0.576462
1534.000000	0.577424
1535.000000	0.578392
1536.000000	0.579220
1537.000000	0.580210
1538.000000	0.581215
1539.000000	0.582031
1540.000000	0.582910
1541.000000	0.583878
1542.000000	0.584810
1543.000000	0.585773
1544.000000	0.586706
1545.000000	0.587621
1546.000000	0.588538
1547.000000	0.589402
1548.000000	0.590246
1549.000000	0.591029
1550.000000	0.591711
1551.000000	0.592434
1552.000000	0.593224
1553.000000	0.593959
1554.000000	0.594710
1555.000000	0.595505
1556.000000	0.596276
1557.000000	0.597009
1558.000000	0.597794
1559.000000	0.598515
1560.000000	0.599190
1561.000000	0.599947
1562.000000	0.600576
1563.000000	0.601169
1564.000000	0.601821
1565.000000	0.602439
1566.000000	0.602939
1567.000000	0.603594
1568.000000	0.604218
1569.000000	0.604919
1570.000000	0.605576
1571.000000	0.606221
1572.000000	0.606832
1573.000000	0.607431
1574.000000	0.607983
1575.000000	0.608557
1576.000000	0.609128
1577.000000	0.609592
1578.000000	0.610079
1579.000000	0.610716
1580.000000	0.611253
1581.000000	0.611890
1582.000000	0.612425
1583.000000	0.612867
1584.000000	0.613300
1585.000000	0.613841
1586.000000	0.614361
1587.000000	0.614858
1588.000000	0.615339
1589.000000	0.615860
1590.000000	0.616309
1591.000000	0.616767
1592.000000	0.617227
1593.000000	0.617673
1594.000000	0.618087
1595.000000	0.618606
1596.000000	0.619081
1597.000000	0.619572
1598.000000	0.620028
1599.000000	0.620554
1600.000000	0.620932
1601.000000	0.621368
1602.000000	0.621752
1603.000000	0.622094
1604.000000	0.622456
1605.000000	0.622868
1606.000000	0.623240
1607.000000	0.623756
1608.000000	0.624087
1609.000000	0.624411
1610.000000	0.624675
1611.000000	0.624824
1612.000000	0.625076
1613.000000	0.625586
1614.000000	0.625903
1615.000000	0.626308
1616.000000	0.626695
1617.000000	0.626891
1618.000000	0.627120
1619.000000	0.627304
1620.000000	0.627542
1621.000000	0.627824
1622.000000	0.628235
1623.000000	0.628709
1624.000000	0.629061
1625.000000	0.629125
1626.000000	0.629241
1627.000000	0.629338
1628.000000	0.629590
1629.000000	0.629904
1630.000000	0.630248
1631.000000	0.630547
1632.000000	0.630772
1633.000000	0.630972
1634.000000	0.631275
1635.000000	0.631703
1636.000000	0.632004
1637.000000	0.632405
1638.000000	0.632619
1639.000000	0.632742
1640.000000	0.632917
1641.000000	0.633183
1642.000000	0.633423
1643.000000	0.633767
1644.000000	0.633985
1645.000000	0.634125
1646.000000	0.634220
1647.000000	0.634309
1648.000000	0.634346
1649.000000	0.634510
1650.000000	0.634706
1651.000000	0.634974
1652.000000	0.635213
1653.000000	0.635379
1654.000000	0.635596
1655.000000	0.635701
1656.000000	0.635661
1657.000000	0.635755
1658.000000	0.635754
1659.000000	0.635804
1660.000000	0.635915
1661.000000	0.635864
1662.000000	0.635906
1663.000000	0.635923
1664.000000	0.635966
1665.000000	0.636056
1666.000000	0.636283
1667.000000	0.636403
1668.000000	0.636518
1669.000000	0.636672
1670.000000	0.636661
1671.000000	0.636731
1672.000000	0.636914
1673.000000	0.637055
1674.000000	0.637188
1675.000000	0.637409
1676.000000	0.637477
1677.000000	0.637388
1678.000000	0.637252
1679.000000	0.637161
1680.000000	0.636990
1681.000000	0.636907
1682.000000	0.636898
1683.000000	0.636866
1684.000000	0.636842
1685.000000	0.636867
1686.000000	0.636845
1687.000000	0.636859
1688.000000	0.636798
1689.000000	0.636735
1690.000000	0.636637
1691.000000	0.636648
1692.000000	0.636607
1693.000000	0.636634
1694.000000	0.636653
1695.000000	0.636724
1696.000000	0.636710
1697.000000	0.636579
1698.000000	0.636474
1699.000000	0.636401
1700.000000	0.636259
1701.000000	0.636332
1702.000000	0.636173
1703.000000	0.635967
1704.000000	0.635991
1705.000000	0.635930
1706.000000	0.635878
1707.000000	0.635818
1708.000000	0.635732
1709.000000	0.635451
1710.000000	0.635211
1711.000000	0.635033
1712.000000	0.634847
1713.000000	0.634625
1714.000000	0.634556
1715.000000	0.634383
1716.000000	0.634154
1717.000000	0.633862
1718.000000	0.633432
1719.000000	0.633029
1720.000000	0.632684
1721.000000	0.632300
1722.000000	0.631936
1723.000000	0.631554
1724.000000	0.631128
1725.000000	0.630842
1726.000000	0.630481
1727.000000	0.630122
1728.000000	0.629720
1729.000000	0.629188
1730.000000	0.628808
1731.000000	0.628429
1732.000000	0.628064
1733.000000	0.627797
1734.000000	0.627319
1735.000000	0.626933
1736.000000	0.626530
1737.000000	0.626121
1738.000000	0.625788
1739.000000	0.625370
1740.000000	0.624859
1741.000000	0.624388
1742.000000	0.623912
1743.000000	0.623557
1744.000000	0.623245
1745.000000	0.622805
1746.000000	0.622333
1747.000000	0.621886
1748.000000	0.621325
1749.000000	0.620770
1750.000000	0.620175
1751.000000	0.619751
1752.000000	0.619443
1753.000000	0.618911
1754.000000	0.618448
1755.000000	0.617940
1756.000000	0.617395
1757.000000	0.616866
1758.000000	0.616370
1759.000000	0.615795
1760.000000	0.615271
1761.000000	0.614739
1762.000000	0.614181
1763.000000	0.613686
1764.000000	0.613132
1765.000000	0.612423
1766.000000	0.611861
1767.000000	0.611150
1768.000000	0.610507
1769.000000	0.610180
1770.000000	0.609801
1771.000000	0.609351
1772.000000	0.608882
1773.000000	0.608277
1774.000000	0.607794
1775.000000	0.607490
1776.000000	0.607047
1777.000000	0.606542
1778.000000	0.606013
1779.000000	0.605314
1780.000000	0.604833
1781.000000	0.604402
1782.000000	0.603923
1783.000000	0.603563
1784.000000	0.603196
1785.000000	0.602776
1786.000000	0.602567
1787.000000	0.602499
1788.000000	0.602368
1789.000000	0.602132
1790.000000	0.601860
1791.000000	0.601483
1792.000000	0.601212
1793.000000	0.600890
1794.000000	0.600512
1795.000000	0.600218
1796.000000	0.599891
1797.000000	0.599610
1798.000000	0.599371
1799.000000	0.599116
1800.000000	0.598997
1801.000000	0.599430
1802.000000	0.599405
1803.000000	0.598648
1804.000000	0.598526
1805.000000	0.598847
1806.000000	0.598965
1807.000000	0.599113
1808.000000	0.599075
1809.000000	0.598869
1810.000000	0.598795
1811.000000	0.598719
1812.000000	0.598491
1813.000000	0.598511
1814.000000	0.599002
1815.000000	0.599015
1816.000000	0.598914
1817.000000	0.598535
1818.000000	0.598017
1819.000000	0.597513
1820.000000	0.597059
1821.000000	0.596433
1822.000000	0.596047
1823.000000	0.595538
1824.000000	0.595132
1825.000000	0.594840
1826.000000	0.594650
1827.000000	0.594242
1828.000000	0.594041
1829.000000	0.594128
1830.000000	0.593782
1831.000000	0.593294
1832.000000	0.592519
1833.000000	0.592099
1834.000000	0.591646
1835.000000	0.591139
1836.000000	0.590690
1837.000000	0.590164
1838.000000	0.589240
1839.000000	0.588513
1840.000000	0.587315
1841.000000	0.586336
1842.000000	0.585355
1843.000000	0.583903
1844.000000	0.582984
1845.000000	0.582503
1846.000000	0.581699
1847.000000	0.580720
1848.000000	0.579515
1849.000000	0.578271
1850.000000	0.576787
1851.000000	0.575252
1852.000000	0.573540
1853.000000	0.571916
1854.000000	0.570011
1855.000000	0.567786
1856.000000	0.565301
1857.000000	0.562716
1858.000000	0.559820
1859.000000	0.556622
1860.000000	0.553478
1861.000000	0.550042
1862.000000	0.546455
1863.000000	0.542830
1864.000000	0.539031
1865.000000	0.535235
1866.000000	0.530957
1867.000000	0.526488
1868.000000	0.521232
1869.000000	0.515684
1870.000000	0.509714
1871.000000	0.503211
1872.000000	0.496633
1873.000000	0.489704
1874.000000	0.482438
1875.000000	0.474934
1876.000000	0.467038
1877.000000	0.458230
1878.000000	0.449388
1879.000000	0.440140
1880.000000	0.430399
1881.000000	0.420713
1882.000000	0.410457
1883.000000	0.399672
1884.000000	0.388871
1885.000000	0.377472
1886.000000	0.365825
1887.000000	0.353798
1888.000000	0.341564
1889.000000	0.328955
1890.000000	0.316833
1891.000000	0.304958
1892.000000	0.293149
1893.000000	0.281809
1894.000000	0.270618
1895.000000	0.259918
1896.000000	0.249604
1897.000000	0.239967
1898.000000	0.230960
1899.000000	0.223215
1900.000000	0.216282
1901.000000	0.210307
1902.000000	0.205503
1903.000000	0.201337
1904.000000	0.198307
1905.000000	0.196234
1906.000000	0.194891
1907.000000	0.194359
1908.000000	0.194784
1909.000000	0.195989
1910.000000	0.197920
1911.000000	0.200428
1912.000000	0.203583
1913.000000	0.207061
1914.000000	0.210703
1915.000000	0.214548
1916.000000	0.218295
1917.000000	0.221854
1918.000000	0.225413
1919.000000	0.228973
1920.000000	0.232266
1921.000000	0.235752
1922.000000	0.239218
1923.000000	0.242435
1924.000000	0.245563
1925.000000	0.248137
1926.000000	0.250704
1927.000000	0.253379
1928.000000	0.255760
1929.000000	0.258021
1930.000000	0.260423
1931.000000	0.262373
1932.000000	0.264056
1933.000000	0.265937
1934.000000	0.267590
1935.000000	0.269187
1936.000000	0.270702
1937.000000	0.272024
1938.000000	0.273381
1939.000000	0.274664
1940.000000	0.275873
1941.000000	0.277177
1942.000000	0.278588
1943.000000	0.279661
1944.000000	0.280850
1945.000000	0.282096
1946.000000	0.283152
1947.000000	0.284277
1948.000000	0.285323
1949.000000	0.286312
1950.000000	0.287257
1951.000000	0.288064
1952.000000	0.288793
1953.000000	0.289466
1954.000000	0.290578
1955.000000	0.291770
1956.000000	0.292962
1957.000000	0.294365
1958.000000	0.295218
1959.000000	0.296041
1960.000000	0.297176
1961.000000	0.298257
1962.000000	0.299342
1963.000000	0.300617
1964.000000	0.301923
1965.000000	0.302997
1966.000000	0.304074
1967.000000	0.305357
1968.000000	0.306542
1969.000000	0.307559
1970.000000	0.308780
1971.000000	0.309983
1972.000000	0.311301
1973.000000	0.312515
1974.000000	0.313978
1975.000000	0.315334
1976.000000	0.316607
1977.000000	0.317917
1978.000000	0.319402
1979.000000	0.321080
1980.000000	0.323010
1981.000000	0.324739
1982.000000	0.326365
1983.000000	0.327924
1984.000000	0.329375
1985.000000	0.330609
1986.000000	0.332187
1987.000000	0.333896
1988.000000	0.335759
1989.000000	0.337765
1990.000000	0.339529
1991.000000	0.341291
1992.000000	0.342977
1993.000000	0.344722
1994.000000	0.346639
1995.000000	0.348412
1996.000000	0.350240
1997.000000	0.352147
1998.000000	0.354223
1999.000000	0.356184
2000.000000	0.358231
2001.000000	0.360176
2002.000000	0.361844
2003.000000	0.363728
2004.000000	0.365528
2005.000000	0.367142
2006.000000	0.369190
2007.000000	0.371161
2008.000000	0.373066
2009.000000	0.374974
2010.000000	0.376951
2011.000000	0.378704
2012.000000	0.380481
2013.000000	0.382216
2014.000000	0.383933
2015.000000	0.385623
2016.000000	0.387214
2017.000000	0.389009
2018.000000	0.390845
2019.000000	0.392599
2020.000000	0.394440
2021.000000	0.396167
2022.000000	0.397742
2023.000000	0.399360
2024.000000	0.400965
2025.000000	0.402607
2026.000000	0.404159
2027.000000	0.405505
2028.000000	0.406790
2029.000000	0.408430
2030.000000	0.410078
2031.000000	0.411674
2032.000000	0.413374
2033.000000	0.415284
2034.000000	0.416914
2035.000000	0.418494
2036.000000	0.419967
2037.000000	0.421549
2038.000000	0.422980
2039.000000	0.424434
2040.000000	0.425933
2041.000000	0.426919
2042.000000	0.428089
2043.000000	0.429022
2044.000000	0.429899
2045.000000	0.431111
2046.000000	0.432022
2047.000000	0.433099
2048.000000	0.434122
2049.000000	0.435487
2050.000000	0.436593
2051.000000	0.437677
2052.000000	0.438761
2053.000000	0.439709
2054.000000	0.440839
2055.000000	0.442016
2056.000000	0.443321
2057.000000	0.444398
2058.000000	0.445406
2059.000000	0.446371
2060.000000	0.447226
2061.000000	0.447976
2062.000000	0.448746
2063.000000	0.449520
2064.000000	0.450106
2065.000000	0.451009
2066.000000	0.451633
2067.000000	0.452402
2068.000000	0.453263
2069.000000	0.454172
2070.000000	0.455157
2071.000000	0.455938
2072.000000	0.456801
2073.000000	0.457590
2074.000000	0.458265
2075.000000	0.459043
2076.000000	0.459888
2077.000000	0.460674
2078.000000	0.461547
2079.000000	0.462142
2080.000000	0.462722
2081.000000	0.463234
2082.000000	0.463561
2083.000000	0.463876
2084.000000	0.464207
2085.000000	0.464579
2086.000000	0.465053
2087.000000	0.465678
2088.000000	0.466324
2089.000000	0.466943
2090.000000	0.467615
2091.000000	0.468378
2092.000000	0.469077
2093.000000	0.469943
2094.000000	0.470607
2095.000000	0.471170
2096.000000	0.471809
2097.000000	0.472307
2098.000000	0.472658
2099.000000	0.473188
2100.000000	0.473701
2101.000000	0.474393
2102.000000	0.474922
2103.000000	0.475592
2104.000000	0.476370
2105.000000	0.477045
2106.000000	0.477704
2107.000000	0.478454
2108.000000	0.479232
2109.000000	0.479921
2110.000000	0.480206
2111.000000	0.480719
2112.000000	0.481249
2113.000000	0.481243
2114.000000	0.481618
2115.000000	0.482322
2116.000000	0.482548
2117.000000	0.482894
2118.000000	0.483686
2119.000000	0.484127
2120.000000	0.484733
2121.000000	0.485635
2122.000000	0.486253
2123.000000	0.486585
2124.000000	0.487150
2125.000000	0.487818
2126.000000	0.488357
2127.000000	0.488984
2128.000000	0.489685
2129.000000	0.490168
2130.000000	0.490781
2131.000000	0.491275
2132.000000	0.491622
2133.000000	0.492248
2134.000000	0.492792
2135.000000	0.493107
2136.000000	0.493648
2137.000000	0.494064
2138.000000	0.494289
2139.000000	0.494794
2140.000000	0.495543
2141.000000	0.495957
2142.000000	0.496215
2143.000000	0.496234
2144.000000	0.496321
2145.000000	0.496620
2146.000000	0.497043
2147.000000	0.498101
2148.000000	0.498595
2149.000000	0.498777
2150.000000	0.498931
2151.000000	0.498708
2152.000000	0.498787
2153.000000	0.499049
2154.000000	0.499289
2155.000000	0.499786
2156.000000	0.500068
2157.000000	0.500322
2158.000000	0.500643
2159.000000	0.501041
2160.000000	0.501461
2161.000000	0.501887
2162.000000	0.502409
2163.000000	0.502841
2164.000000	0.502987
2165.000000	0.503087
2166.000000	0.503163
2167.000000	0.502660
2168.000000	0.502707
2169.000000	0.502827
2170.000000	0.502709
2171.000000	0.502302
2172.000000	0.501662
2173.000000	0.501121
2174.000000	0.500027
2175.000000	0.499688
2176.000000	0.499846
2177.000000	0.499999
2178.000000	0.500967
2179.000000	0.501155
2180.000000	0.500910
2181.000000	0.501067
2182.000000	0.500069
2183.000000	0.499057
2184.000000	0.498957
2185.000000	0.498130
2186.000000	0.496965
2187.000000	0.496583
2188.000000	0.495962
2189.000000	0.495039
2190.000000	0.494940
2191.000000	0.495440
2192.000000	0.495251
2193.000000	0.495114
2194.000000	0.494569
2195.000000	0.493320
2196.000000	0.492562
2197.000000	0.491576
2198.000000	0.490968
2199.000000	0.490900
2200.000000	0.490833
2201.000000	0.491346
2202.000000	0.491296
2203.000000	0.490947
2204.000000	0.490216
2205.000000	0.487854
2206.000000	0.485641
2207.000000	0.484615
2208.000000	0.483729
2209.000000	0.483554
2210.000000	0.484929
2211.000000	0.484610
2212.000000	0.484494
2213.000000	0.483625
2214.000000	0.482092
2215.000000	0.480466
2216.000000	0.478002
2217.000000	0.476518
2218.000000	0.475378
2219.000000	0.474237
2220.000000	0.474205
2221.000000	0.472616
2222.000000	0.469913
2223.000000	0.467915
2224.000000	0.465347
2225.000000	0.463370
2226.000000	0.461107
2227.000000	0.459051
2228.000000	0.457922
2229.000000	0.455546
2230.000000	0.453941
2231.000000	0.453246
2232.000000	0.451050
2233.000000	0.448982
2234.000000	0.446468
2235.000000	0.443474
2236.000000	0.441176
2237.000000	0.438824
2238.000000	0.436777
2239.000000	0.435410
2240.000000	0.433753
2241.000000	0.432035
2242.000000	0.430170
2243.000000	0.427891
2244.000000	0.426658
2245.000000	0.426060
2246.000000	0.424983
2247.000000	0.423826
2248.000000	0.423063
2249.000000	0.422544
2250.000000	0.421489
2251.000000	0.420335
2252.000000	0.420221
2253.000000	0.418968
2254.000000	0.417120
2255.000000	0.416998
2256.000000	0.417317
2257.000000	0.417118
2258.000000	0.417363
2259.000000	0.417584
2260.000000	0.417716
2261.000000	0.417023
2262.000000	0.416517
2263.000000	0.415192
2264.000000	0.412417
2265.000000	0.410210
2266.000000	0.408496
2267.000000	0.405295
2268.000000	0.401355
2269.000000	0.397741
2270.000000	0.393468
2271.000000	0.388909
2272.000000	0.384551
2273.000000	0.379886
2274.000000	0.374020
2275.000000	0.369137
2276.000000	0.365445
2277.000000	0.359855
2278.000000	0.354024
2279.000000	0.348642
2280.000000	0.342187
2281.000000	0.336532
2282.000000	0.331890
2283.000000	0.327222
2284.000000	0.322014
2285.000000	0.316714
2286.000000	0.312312
2287.000000	0.306916
2288.000000	0.301824
2289.000000	0.297982
2290.000000	0.293350
2291.000000	0.289740
2292.000000	0.287701
2293.000000	0.285050
2294.000000	0.282999
2295.000000	0.281420
2296.000000	0.280367
2297.000000	0.279300
2298.000000	0.279478
2299.000000	0.280814
2300.000000	0.282296
2301.000000	0.284167
2302.000000	0.286886
2303.000000	0.290045
2304.000000	0.293543
2305.000000	0.298481
2306.000000	0.302626
2307.000000	0.306212
2308.000000	0.311154
2309.000000	0.315585
2310.000000	0.319737
2311.000000	0.325211
2312.000000	0.330121
2313.000000	0.334818
2314.000000	0.338836
2315.000000	0.341995
2316.000000	0.345460
2317.000000	0.348092
2318.000000	0.351654
2319.000000	0.355470
2320.000000	0.356595
2321.000000	0.358107
2322.000000	0.358787
2323.000000	0.358740
2324.000000	0.361169
2325.000000	0.362955
2326.000000	0.364578
2327.000000	0.365816
2328.000000	0.365663
2329.000000	0.365791
2330.000000	0.365731
2331.000000	0.366377
2332.000000	0.367344
2333.000000	0.367692
2334.000000	0.367573
2335.000000	0.367983
2336.000000	0.367744
2337.000000	0.367156
2338.000000	0.366745
2339.000000	0.366431
2340.000000	0.365016
2341.000000	0.364473
2342.000000	0.365190
2343.000000	0.364459
2344.000000	0.363359
2345.000000	0.362467
2346.000000	0.360765
2347.000000	0.359298
2348.000000	0.358127
2349.000000	0.356758
2350.000000	0.354949
2351.000000	0.353990
2352.000000	0.352655
2353.000000	0.350066
2354.000000	0.346662
2355.000000	0.343666
2356.000000	0.341047
2357.000000	0.340229
2358.000000	0.340076
2359.000000	0.339582
2360.000000	0.339987
2361.000000	0.338781
2362.000000	0.335856
2363.000000	0.333806
2364.000000	0.329422
2365.000000	0.325446
2366.000000	0.323476
2367.000000	0.320723
2368.000000	0.319379
2369.000000	0.317069
2370.000000	0.312617
2371.000000	0.309238
2372.000000	0.306849
2373.000000	0.305371
2374.000000	0.304968
2375.000000	0.304378
2376.000000	0.302513
2377.000000	0.299039
2378.000000	0.295446
2379.000000	0.291972
2380.000000	0.287707
2381.000000	0.284516
2382.000000	0.281189
2383.000000	0.278407
2384.000000	0.278239
2385.000000	0.276565
2386.000000	0.274947
2387.000000	0.273172
2388.000000	0.269470
2389.000000	0.268054
2390.000000	0.266435
2391.000000	0.265369
2392.000000	0.266440
2393.000000	0.265674
2394.000000	0.265315
2395.000000	0.265778
2396.000000	0.262697
2397.000000	0.260534
2398.000000	0.261685
2399.000000	0.259606
2400.000000	0.257992
2401.000000	0.257099
2402.000000	0.254930
2403.000000	0.256072
2404.000000	0.256222
2405.000000	0.257339
2406.000000	0.259715
2407.000000	0.259808
2408.000000	0.260913
2409.000000	0.260793
2410.000000	0.259233
2411.000000	0.256529
2412.000000	0.254431
2413.000000	0.253641
2414.000000	0.255391
2415.000000	0.258620
2416.000000	0.261531
2417.000000	0.268422
2418.000000	0.269741
2419.000000	0.267396
2420.000000	0.267296
2421.000000	0.263284
2422.000000	0.262911
2423.000000	0.266558
2424.000000	0.269371
2425.000000	0.272410
2426.000000	0.273290
2427.000000	0.273667
2428.000000	0.272658
2429.000000	0.272629
2430.000000	0.273682
2431.000000	0.268707
2432.000000	0.267051
2433.000000	0.267624
2434.000000	0.267127
2435.000000	0.271068
2436.000000	0.271545
2437.000000	0.271397
2438.000000	0.270734
2439.000000	0.267508
2440.000000	0.270092
2441.000000	0.269905
2442.000000	0.267322
2443.000000	0.266921
2444.000000	0.259461
2445.000000	0.254444
2446.000000	0.251714
2447.000000	0.249138
2448.000000	0.251548
2449.000000	0.251565
2450.000000	0.252754
2451.000000	0.257674
2452.000000	0.260466
2453.000000	0.258630
2454.000000	0.256935
2455.000000	0.250836
2456.000000	0.244454
2457.000000	0.248374
2458.000000	0.251143
2459.000000	0.246838
2460.000000	0.243547
2461.000000	0.238351
2462.000000	0.228912
2463.000000	0.226969
2464.000000	0.224473
2465.000000	0.224599
2466.000000	0.227629
2467.000000	0.221932
2468.000000	0.220258
2469.000000	0.215278
2470.000000	0.207895
2471.000000	0.211603
2472.000000	0.223259
2473.000000	0.229804
2474.000000	0.232881
2475.000000	0.242277
2476.000000	0.234459
2477.000000	0.229197
2478.000000	0.234453
2479.000000	0.219051
2480.000000	0.217512
2481.000000	0.224044
2482.000000	0.215386
2483.000000	0.212836
2484.000000	0.212512
2485.000000	0.208181
2486.000000	0.210564
2487.000000	0.223325
2488.000000	0.225708
2489.000000	0.221602
2490.000000	0.215427
2491.000000	0.196531
2492.000000	0.195768
2493.000000	0.212603
2494.000000	0.225963
2495.000000	0.260009
2496.000000	0.269394
2497.000000	0.250984
2498.000000	0.236787
2499.000000	0.212119
2500.000000	0.203579
