# Wavelength	NAu-1-30_HEX-20_FV7-50_00002.asd.rts.txt
350.000000	0.161841
351.000000	0.134449
352.000000	0.143548
353.000000	0.149930
354.000000	0.139316
355.000000	0.151937
356.000000	0.159238
357.000000	0.157430
358.000000	0.154982
359.000000	0.152446
360.000000	0.151025
361.000000	0.151385
362.000000	0.155869
363.000000	0.158734
364.000000	0.156605
365.000000	0.154030
366.000000	0.153837
367.000000	0.155912
368.000000	0.158071
369.000000	0.157194
370.000000	0.156750
371.000000	0.160826
372.000000	0.160833
373.000000	0.158065
374.000000	0.155468
375.000000	0.156321
376.000000	0.155206
377.000000	0.152810
378.000000	0.155826
379.000000	0.162621
380.000000	0.167435
381.000000	0.165262
382.000000	0.164132
383.000000	0.162694
384.000000	0.160647
385.000000	0.163424
386.000000	0.167757
387.000000	0.170921
388.000000	0.169769
389.000000	0.168535
390.000000	0.168794
391.000000	0.170674
392.000000	0.170958
393.000000	0.171015
394.000000	0.172131
395.000000	0.173338
396.000000	0.173980
397.000000	0.174161
398.000000	0.174899
399.000000	0.177536
400.000000	0.180192
401.000000	0.179764
402.000000	0.181481
403.000000	0.183455
404.000000	0.183815
405.000000	0.185508
406.000000	0.186802
407.000000	0.187057
408.000000	0.187466
409.000000	0.187849
410.000000	0.188486
411.000000	0.189847
412.000000	0.190862
413.000000	0.191608
414.000000	0.192385
415.000000	0.192891
416.000000	0.193225
417.000000	0.193506
418.000000	0.193833
419.000000	0.194210
420.000000	0.194750
421.000000	0.195707
422.000000	0.195560
423.000000	0.195022
424.000000	0.195470
425.000000	0.196469
426.000000	0.197009
427.000000	0.196673
428.000000	0.197109
429.000000	0.197319
430.000000	0.197058
431.000000	0.197011
432.000000	0.197274
433.000000	0.197629
434.000000	0.197766
435.000000	0.197801
436.000000	0.197926
437.000000	0.198176
438.000000	0.197884
439.000000	0.197633
440.000000	0.197767
441.000000	0.197876
442.000000	0.197619
443.000000	0.197259
444.000000	0.197669
445.000000	0.197561
446.000000	0.197278
447.000000	0.197397
448.000000	0.197748
449.000000	0.198379
450.000000	0.199251
451.000000	0.199977
452.000000	0.201045
453.000000	0.202414
454.000000	0.203597
455.000000	0.205142
456.000000	0.206851
457.000000	0.208127
458.000000	0.209560
459.000000	0.211097
460.000000	0.212595
461.000000	0.213783
462.000000	0.214893
463.000000	0.215873
464.000000	0.216523
465.000000	0.217393
466.000000	0.218366
467.000000	0.219010
468.000000	0.219627
469.000000	0.220124
470.000000	0.220526
471.000000	0.221163
472.000000	0.221749
473.000000	0.222122
474.000000	0.222463
475.000000	0.222845
476.000000	0.223358
477.000000	0.223811
478.000000	0.224264
479.000000	0.224804
480.000000	0.225212
481.000000	0.225304
482.000000	0.225638
483.000000	0.226393
484.000000	0.226808
485.000000	0.226936
486.000000	0.227108
487.000000	0.227622
488.000000	0.228055
489.000000	0.228419
490.000000	0.228986
491.000000	0.229343
492.000000	0.229664
493.000000	0.230103
494.000000	0.230466
495.000000	0.230825
496.000000	0.231247
497.000000	0.231927
498.000000	0.232514
499.000000	0.232968
500.000000	0.233450
501.000000	0.233836
502.000000	0.234276
503.000000	0.234942
504.000000	0.235472
505.000000	0.235873
506.000000	0.236257
507.000000	0.236797
508.000000	0.237327
509.000000	0.237808
510.000000	0.238669
511.000000	0.239290
512.000000	0.239714
513.000000	0.240462
514.000000	0.241144
515.000000	0.241745
516.000000	0.242303
517.000000	0.242844
518.000000	0.243428
519.000000	0.244014
520.000000	0.244630
521.000000	0.245120
522.000000	0.245543
523.000000	0.246297
524.000000	0.247009
525.000000	0.247592
526.000000	0.248139
527.000000	0.248705
528.000000	0.249333
529.000000	0.250078
530.000000	0.250769
531.000000	0.251431
532.000000	0.252026
533.000000	0.252635
534.000000	0.253316
535.000000	0.254039
536.000000	0.254710
537.000000	0.255354
538.000000	0.255981
539.000000	0.256588
540.000000	0.257292
541.000000	0.257989
542.000000	0.258621
543.000000	0.259293
544.000000	0.259974
545.000000	0.260601
546.000000	0.261291
547.000000	0.261986
548.000000	0.262724
549.000000	0.263515
550.000000	0.264211
551.000000	0.264862
552.000000	0.265516
553.000000	0.266094
554.000000	0.266728
555.000000	0.267488
556.000000	0.268171
557.000000	0.268777
558.000000	0.269438
559.000000	0.270099
560.000000	0.270745
561.000000	0.271435
562.000000	0.272115
563.000000	0.272731
564.000000	0.273358
565.000000	0.273975
566.000000	0.274628
567.000000	0.275236
568.000000	0.275748
569.000000	0.276275
570.000000	0.276763
571.000000	0.277222
572.000000	0.277745
573.000000	0.278256
574.000000	0.278743
575.000000	0.279263
576.000000	0.279700
577.000000	0.280042
578.000000	0.280380
579.000000	0.280788
580.000000	0.281231
581.000000	0.281645
582.000000	0.281898
583.000000	0.282243
584.000000	0.282666
585.000000	0.283005
586.000000	0.283305
587.000000	0.283567
588.000000	0.283809
589.000000	0.284187
590.000000	0.284535
591.000000	0.284745
592.000000	0.284899
593.000000	0.285073
594.000000	0.285311
595.000000	0.285639
596.000000	0.285834
597.000000	0.285978
598.000000	0.286166
599.000000	0.286298
600.000000	0.286425
601.000000	0.286546
602.000000	0.286781
603.000000	0.286937
604.000000	0.286978
605.000000	0.287117
606.000000	0.287280
607.000000	0.287420
608.000000	0.287495
609.000000	0.287626
610.000000	0.287814
611.000000	0.288012
612.000000	0.288151
613.000000	0.288203
614.000000	0.288244
615.000000	0.288470
616.000000	0.288645
617.000000	0.288718
618.000000	0.288933
619.000000	0.289015
620.000000	0.289036
621.000000	0.289232
622.000000	0.289274
623.000000	0.289252
624.000000	0.289305
625.000000	0.289511
626.000000	0.289637
627.000000	0.289620
628.000000	0.289659
629.000000	0.289855
630.000000	0.290045
631.000000	0.290184
632.000000	0.290201
633.000000	0.290233
634.000000	0.290396
635.000000	0.290512
636.000000	0.290679
637.000000	0.290910
638.000000	0.291059
639.000000	0.291182
640.000000	0.291346
641.000000	0.291475
642.000000	0.291603
643.000000	0.291749
644.000000	0.291920
645.000000	0.291990
646.000000	0.292086
647.000000	0.292256
648.000000	0.292344
649.000000	0.292438
650.000000	0.292585
651.000000	0.292851
652.000000	0.293039
653.000000	0.293198
654.000000	0.293399
655.000000	0.293561
656.000000	0.293760
657.000000	0.294002
658.000000	0.294220
659.000000	0.294449
660.000000	0.294674
661.000000	0.294827
662.000000	0.294944
663.000000	0.295083
664.000000	0.295219
665.000000	0.295462
666.000000	0.295732
667.000000	0.295910
668.000000	0.296194
669.000000	0.296435
670.000000	0.296578
671.000000	0.296782
672.000000	0.297009
673.000000	0.297252
674.000000	0.297542
675.000000	0.297792
676.000000	0.297992
677.000000	0.298187
678.000000	0.298437
679.000000	0.298687
680.000000	0.298899
681.000000	0.299064
682.000000	0.299331
683.000000	0.299659
684.000000	0.300042
685.000000	0.300325
686.000000	0.300549
687.000000	0.300781
688.000000	0.301089
689.000000	0.301378
690.000000	0.301641
691.000000	0.302072
692.000000	0.302384
693.000000	0.302602
694.000000	0.302948
695.000000	0.303276
696.000000	0.303558
697.000000	0.303817
698.000000	0.304103
699.000000	0.304403
700.000000	0.304711
701.000000	0.305030
702.000000	0.305348
703.000000	0.305626
704.000000	0.305831
705.000000	0.306141
706.000000	0.306469
707.000000	0.306714
708.000000	0.307000
709.000000	0.307303
710.000000	0.307607
711.000000	0.307906
712.000000	0.308239
713.000000	0.308613
714.000000	0.308930
715.000000	0.309268
716.000000	0.309626
717.000000	0.309942
718.000000	0.310191
719.000000	0.310386
720.000000	0.310588
721.000000	0.310936
722.000000	0.311216
723.000000	0.311423
724.000000	0.311646
725.000000	0.311917
726.000000	0.312246
727.000000	0.312460
728.000000	0.312638
729.000000	0.312876
730.000000	0.313173
731.000000	0.313474
732.000000	0.313726
733.000000	0.313965
734.000000	0.314231
735.000000	0.314439
736.000000	0.314692
737.000000	0.314900
738.000000	0.315059
739.000000	0.315273
740.000000	0.315450
741.000000	0.315699
742.000000	0.315902
743.000000	0.316050
744.000000	0.316338
745.000000	0.316527
746.000000	0.316693
747.000000	0.316895
748.000000	0.317095
749.000000	0.317259
750.000000	0.317358
751.000000	0.317502
752.000000	0.317628
753.000000	0.317748
754.000000	0.317910
755.000000	0.318060
756.000000	0.318168
757.000000	0.318190
758.000000	0.318266
759.000000	0.318376
760.000000	0.318432
761.000000	0.318515
762.000000	0.318661
763.000000	0.318797
764.000000	0.318859
765.000000	0.318888
766.000000	0.318916
767.000000	0.318946
768.000000	0.318882
769.000000	0.318885
770.000000	0.318989
771.000000	0.319029
772.000000	0.319050
773.000000	0.319058
774.000000	0.319170
775.000000	0.319228
776.000000	0.319220
777.000000	0.319146
778.000000	0.319062
779.000000	0.318980
780.000000	0.318934
781.000000	0.318954
782.000000	0.318988
783.000000	0.319021
784.000000	0.318890
785.000000	0.318775
786.000000	0.318652
787.000000	0.318526
788.000000	0.318512
789.000000	0.318473
790.000000	0.318459
791.000000	0.318632
792.000000	0.318570
793.000000	0.318413
794.000000	0.318339
795.000000	0.318291
796.000000	0.318205
797.000000	0.318060
798.000000	0.317890
799.000000	0.317764
800.000000	0.317701
801.000000	0.317690
802.000000	0.317660
803.000000	0.317624
804.000000	0.317607
805.000000	0.317505
806.000000	0.317293
807.000000	0.317086
808.000000	0.316915
809.000000	0.316760
810.000000	0.316636
811.000000	0.316543
812.000000	0.316510
813.000000	0.316399
814.000000	0.316253
815.000000	0.316296
816.000000	0.316141
817.000000	0.315930
818.000000	0.315809
819.000000	0.315807
820.000000	0.315778
821.000000	0.315639
822.000000	0.315573
823.000000	0.315479
824.000000	0.315334
825.000000	0.315255
826.000000	0.315161
827.000000	0.314919
828.000000	0.314584
829.000000	0.314455
830.000000	0.314307
831.000000	0.314172
832.000000	0.314040
833.000000	0.313898
834.000000	0.313740
835.000000	0.313600
836.000000	0.313474
837.000000	0.313268
838.000000	0.313015
839.000000	0.312805
840.000000	0.312629
841.000000	0.312471
842.000000	0.312279
843.000000	0.312092
844.000000	0.311926
845.000000	0.311753
846.000000	0.311582
847.000000	0.311448
848.000000	0.311272
849.000000	0.311010
850.000000	0.310724
851.000000	0.310585
852.000000	0.310629
853.000000	0.310594
854.000000	0.310469
855.000000	0.310360
856.000000	0.310216
857.000000	0.310051
858.000000	0.309947
859.000000	0.309843
860.000000	0.309680
861.000000	0.309542
862.000000	0.309404
863.000000	0.309156
864.000000	0.309029
865.000000	0.308904
866.000000	0.308707
867.000000	0.308405
868.000000	0.308250
869.000000	0.308134
870.000000	0.307925
871.000000	0.307619
872.000000	0.307322
873.000000	0.307092
874.000000	0.307120
875.000000	0.306962
876.000000	0.306702
877.000000	0.306553
878.000000	0.306292
879.000000	0.305973
880.000000	0.305588
881.000000	0.305465
882.000000	0.305273
883.000000	0.305053
884.000000	0.304904
885.000000	0.304713
886.000000	0.304431
887.000000	0.304139
888.000000	0.304078
889.000000	0.303923
890.000000	0.303632
891.000000	0.303471
892.000000	0.303208
893.000000	0.303031
894.000000	0.303058
895.000000	0.302848
896.000000	0.302608
897.000000	0.302390
898.000000	0.302196
899.000000	0.302049
900.000000	0.301891
901.000000	0.301689
902.000000	0.301585
903.000000	0.301515
904.000000	0.301381
905.000000	0.301043
906.000000	0.300855
907.000000	0.300641
908.000000	0.300397
909.000000	0.300152
910.000000	0.300049
911.000000	0.299959
912.000000	0.299783
913.000000	0.299702
914.000000	0.299541
915.000000	0.299328
916.000000	0.299097
917.000000	0.298963
918.000000	0.298804
919.000000	0.298496
920.000000	0.298079
921.000000	0.297932
922.000000	0.297967
923.000000	0.297842
924.000000	0.297747
925.000000	0.297599
926.000000	0.297374
927.000000	0.297069
928.000000	0.296752
929.000000	0.296494
930.000000	0.296329
931.000000	0.296099
932.000000	0.295848
933.000000	0.295662
934.000000	0.295547
935.000000	0.295434
936.000000	0.295316
937.000000	0.295106
938.000000	0.294860
939.000000	0.294734
940.000000	0.294579
941.000000	0.294273
942.000000	0.294216
943.000000	0.294145
944.000000	0.293868
945.000000	0.293912
946.000000	0.293732
947.000000	0.293442
948.000000	0.293255
949.000000	0.293115
950.000000	0.292860
951.000000	0.292536
952.000000	0.292505
953.000000	0.292629
954.000000	0.292616
955.000000	0.292269
956.000000	0.291967
957.000000	0.291681
958.000000	0.291495
959.000000	0.291582
960.000000	0.291550
961.000000	0.291297
962.000000	0.290917
963.000000	0.290756
964.000000	0.290730
965.000000	0.290750
966.000000	0.290653
967.000000	0.290605
968.000000	0.290299
969.000000	0.289922
970.000000	0.289917
971.000000	0.289614
972.000000	0.289478
973.000000	0.289569
974.000000	0.289531
975.000000	0.289317
976.000000	0.289043
977.000000	0.288837
978.000000	0.288740
979.000000	0.288805
980.000000	0.288740
981.000000	0.288611
982.000000	0.288392
983.000000	0.288336
984.000000	0.288456
985.000000	0.288347
986.000000	0.287979
987.000000	0.287702
988.000000	0.287583
989.000000	0.287289
990.000000	0.287173
991.000000	0.287142
992.000000	0.287048
993.000000	0.286999
994.000000	0.287236
995.000000	0.287594
996.000000	0.287348
997.000000	0.287584
998.000000	0.287927
999.000000	0.288105
1000.000000	0.288044
1001.000000	0.288296
1002.000000	0.288290
1003.000000	0.287490
1004.000000	0.287138
1005.000000	0.286769
1006.000000	0.286009
1007.000000	0.284768
1008.000000	0.284776
1009.000000	0.285611
1010.000000	0.285822
1011.000000	0.286555
1012.000000	0.287825
1013.000000	0.287343
1014.000000	0.286825
1015.000000	0.287141
1016.000000	0.286856
1017.000000	0.287039
1018.000000	0.288016
1019.000000	0.288292
1020.000000	0.288558
1021.000000	0.288411
1022.000000	0.287749
1023.000000	0.287515
1024.000000	0.287181
1025.000000	0.287124
1026.000000	0.287230
1027.000000	0.287494
1028.000000	0.287292
1029.000000	0.287333
1030.000000	0.287543
1031.000000	0.287105
1032.000000	0.287109
1033.000000	0.287728
1034.000000	0.288113
1035.000000	0.288678
1036.000000	0.288967
1037.000000	0.289191
1038.000000	0.289019
1039.000000	0.288372
1040.000000	0.288290
1041.000000	0.288249
1042.000000	0.288612
1043.000000	0.289658
1044.000000	0.290163
1045.000000	0.290343
1046.000000	0.290884
1047.000000	0.291113
1048.000000	0.290943
1049.000000	0.291079
1050.000000	0.291270
1051.000000	0.291380
1052.000000	0.291360
1053.000000	0.291602
1054.000000	0.292432
1055.000000	0.292676
1056.000000	0.292658
1057.000000	0.292925
1058.000000	0.293013
1059.000000	0.293045
1060.000000	0.293598
1061.000000	0.293875
1062.000000	0.294184
1063.000000	0.294558
1064.000000	0.294943
1065.000000	0.295558
1066.000000	0.295951
1067.000000	0.296294
1068.000000	0.296397
1069.000000	0.296074
1070.000000	0.296158
1071.000000	0.296225
1072.000000	0.296326
1073.000000	0.296641
1074.000000	0.297236
1075.000000	0.297566
1076.000000	0.298021
1077.000000	0.298199
1078.000000	0.298525
1079.000000	0.298939
1080.000000	0.299484
1081.000000	0.299666
1082.000000	0.299917
1083.000000	0.300140
1084.000000	0.299873
1085.000000	0.300146
1086.000000	0.300952
1087.000000	0.301432
1088.000000	0.301849
1089.000000	0.302190
1090.000000	0.302452
1091.000000	0.302487
1092.000000	0.302525
1093.000000	0.302817
1094.000000	0.303179
1095.000000	0.303601
1096.000000	0.303957
1097.000000	0.304618
1098.000000	0.304784
1099.000000	0.304258
1100.000000	0.304601
1101.000000	0.305252
1102.000000	0.305550
1103.000000	0.306165
1104.000000	0.306622
1105.000000	0.306599
1106.000000	0.306775
1107.000000	0.307112
1108.000000	0.307430
1109.000000	0.307647
1110.000000	0.308038
1111.000000	0.308366
1112.000000	0.308762
1113.000000	0.309233
1114.000000	0.309801
1115.000000	0.310139
1116.000000	0.310465
1117.000000	0.310817
1118.000000	0.310919
1119.000000	0.311169
1120.000000	0.311652
1121.000000	0.311981
1122.000000	0.312326
1123.000000	0.312787
1124.000000	0.313106
1125.000000	0.313367
1126.000000	0.313381
1127.000000	0.313541
1128.000000	0.313731
1129.000000	0.313883
1130.000000	0.314248
1131.000000	0.314995
1132.000000	0.315152
1133.000000	0.315112
1134.000000	0.315274
1135.000000	0.315142
1136.000000	0.315204
1137.000000	0.315516
1138.000000	0.315719
1139.000000	0.315969
1140.000000	0.316192
1141.000000	0.316336
1142.000000	0.316585
1143.000000	0.316662
1144.000000	0.317004
1145.000000	0.317551
1146.000000	0.317879
1147.000000	0.318024
1148.000000	0.317862
1149.000000	0.318100
1150.000000	0.318412
1151.000000	0.318549
1152.000000	0.318825
1153.000000	0.318976
1154.000000	0.318703
1155.000000	0.318739
1156.000000	0.318963
1157.000000	0.319199
1158.000000	0.319582
1159.000000	0.319719
1160.000000	0.319783
1161.000000	0.319827
1162.000000	0.319586
1163.000000	0.319748
1164.000000	0.320016
1165.000000	0.320121
1166.000000	0.320255
1167.000000	0.320338
1168.000000	0.320421
1169.000000	0.320542
1170.000000	0.320612
1171.000000	0.320655
1172.000000	0.320849
1173.000000	0.321087
1174.000000	0.321175
1175.000000	0.321252
1176.000000	0.321337
1177.000000	0.321298
1178.000000	0.321403
1179.000000	0.321781
1180.000000	0.321886
1181.000000	0.321948
1182.000000	0.321978
1183.000000	0.322045
1184.000000	0.322088
1185.000000	0.322205
1186.000000	0.322461
1187.000000	0.322580
1188.000000	0.322675
1189.000000	0.322687
1190.000000	0.322646
1191.000000	0.322641
1192.000000	0.322641
1193.000000	0.322811
1194.000000	0.322967
1195.000000	0.323146
1196.000000	0.323415
1197.000000	0.323561
1198.000000	0.323682
1199.000000	0.323760
1200.000000	0.323698
1201.000000	0.323680
1202.000000	0.323795
1203.000000	0.323949
1204.000000	0.324075
1205.000000	0.324250
1206.000000	0.324400
1207.000000	0.324669
1208.000000	0.324657
1209.000000	0.324569
1210.000000	0.324627
1211.000000	0.324584
1212.000000	0.324579
1213.000000	0.324792
1214.000000	0.324865
1215.000000	0.324719
1216.000000	0.324730
1217.000000	0.324887
1218.000000	0.324925
1219.000000	0.324980
1220.000000	0.324914
1221.000000	0.325021
1222.000000	0.325147
1223.000000	0.325339
1224.000000	0.325567
1225.000000	0.325637
1226.000000	0.325669
1227.000000	0.325577
1228.000000	0.325551
1229.000000	0.325581
1230.000000	0.325606
1231.000000	0.325541
1232.000000	0.325721
1233.000000	0.325787
1234.000000	0.325610
1235.000000	0.325605
1236.000000	0.325570
1237.000000	0.325605
1238.000000	0.325749
1239.000000	0.325758
1240.000000	0.325691
1241.000000	0.325673
1242.000000	0.325650
1243.000000	0.325665
1244.000000	0.325738
1245.000000	0.325764
1246.000000	0.325704
1247.000000	0.325666
1248.000000	0.325703
1249.000000	0.325672
1250.000000	0.325642
1251.000000	0.325562
1252.000000	0.325583
1253.000000	0.325789
1254.000000	0.325811
1255.000000	0.325764
1256.000000	0.325776
1257.000000	0.325720
1258.000000	0.325667
1259.000000	0.325642
1260.000000	0.325621
1261.000000	0.325378
1262.000000	0.325330
1263.000000	0.325460
1264.000000	0.325518
1265.000000	0.325533
1266.000000	0.325569
1267.000000	0.325551
1268.000000	0.325729
1269.000000	0.325877
1270.000000	0.325991
1271.000000	0.326202
1272.000000	0.326282
1273.000000	0.326435
1274.000000	0.326656
1275.000000	0.326681
1276.000000	0.326519
1277.000000	0.326573
1278.000000	0.326572
1279.000000	0.326517
1280.000000	0.326414
1281.000000	0.326344
1282.000000	0.326238
1283.000000	0.326261
1284.000000	0.326440
1285.000000	0.326514
1286.000000	0.326490
1287.000000	0.326448
1288.000000	0.326661
1289.000000	0.326582
1290.000000	0.326561
1291.000000	0.326622
1292.000000	0.326490
1293.000000	0.326502
1294.000000	0.326619
1295.000000	0.326722
1296.000000	0.326733
1297.000000	0.326733
1298.000000	0.326819
1299.000000	0.326761
1300.000000	0.326738
1301.000000	0.326760
1302.000000	0.326656
1303.000000	0.326494
1304.000000	0.326431
1305.000000	0.326506
1306.000000	0.326460
1307.000000	0.326409
1308.000000	0.326432
1309.000000	0.326458
1310.000000	0.326464
1311.000000	0.326536
1312.000000	0.326645
1313.000000	0.326483
1314.000000	0.326381
1315.000000	0.326346
1316.000000	0.326182
1317.000000	0.326098
1318.000000	0.326071
1319.000000	0.325978
1320.000000	0.325953
1321.000000	0.325937
1322.000000	0.325741
1323.000000	0.325539
1324.000000	0.325382
1325.000000	0.325217
1326.000000	0.325314
1327.000000	0.325374
1328.000000	0.325273
1329.000000	0.325219
1330.000000	0.325197
1331.000000	0.325116
1332.000000	0.325120
1333.000000	0.325024
1334.000000	0.324799
1335.000000	0.324719
1336.000000	0.324692
1337.000000	0.324644
1338.000000	0.324596
1339.000000	0.324570
1340.000000	0.324550
1341.000000	0.324405
1342.000000	0.324308
1343.000000	0.324272
1344.000000	0.324051
1345.000000	0.323951
1346.000000	0.324069
1347.000000	0.323918
1348.000000	0.323858
1349.000000	0.323829
1350.000000	0.323677
1351.000000	0.323560
1352.000000	0.323478
1353.000000	0.323403
1354.000000	0.323360
1355.000000	0.323310
1356.000000	0.323276
1357.000000	0.323155
1358.000000	0.323074
1359.000000	0.322883
1360.000000	0.322761
1361.000000	0.322767
1362.000000	0.322669
1363.000000	0.322510
1364.000000	0.322443
1365.000000	0.322319
1366.000000	0.322180
1367.000000	0.322059
1368.000000	0.321921
1369.000000	0.321972
1370.000000	0.321871
1371.000000	0.321665
1372.000000	0.321571
1373.000000	0.321236
1374.000000	0.320982
1375.000000	0.320878
1376.000000	0.320752
1377.000000	0.320564
1378.000000	0.320233
1379.000000	0.319875
1380.000000	0.319550
1381.000000	0.319316
1382.000000	0.319300
1383.000000	0.319274
1384.000000	0.318871
1385.000000	0.318355
1386.000000	0.317924
1387.000000	0.317444
1388.000000	0.317024
1389.000000	0.316694
1390.000000	0.316287
1391.000000	0.315751
1392.000000	0.315406
1393.000000	0.314924
1394.000000	0.314347
1395.000000	0.313848
1396.000000	0.313309
1397.000000	0.312811
1398.000000	0.312426
1399.000000	0.311950
1400.000000	0.311408
1401.000000	0.310775
1402.000000	0.310096
1403.000000	0.309408
1404.000000	0.308880
1405.000000	0.308470
1406.000000	0.307830
1407.000000	0.307210
1408.000000	0.306546
1409.000000	0.305797
1410.000000	0.305246
1411.000000	0.304739
1412.000000	0.304126
1413.000000	0.303525
1414.000000	0.303113
1415.000000	0.302786
1416.000000	0.302412
1417.000000	0.302128
1418.000000	0.301769
1419.000000	0.301487
1420.000000	0.301112
1421.000000	0.300782
1422.000000	0.300692
1423.000000	0.300530
1424.000000	0.300290
1425.000000	0.300163
1426.000000	0.299818
1427.000000	0.299465
1428.000000	0.299149
1429.000000	0.298822
1430.000000	0.298632
1431.000000	0.298440
1432.000000	0.298262
1433.000000	0.298144
1434.000000	0.298095
1435.000000	0.298171
1436.000000	0.298234
1437.000000	0.298319
1438.000000	0.298443
1439.000000	0.298553
1440.000000	0.298844
1441.000000	0.299418
1442.000000	0.299822
1443.000000	0.300174
1444.000000	0.300512
1445.000000	0.300827
1446.000000	0.301083
1447.000000	0.301313
1448.000000	0.301562
1449.000000	0.301745
1450.000000	0.301864
1451.000000	0.302127
1452.000000	0.302331
1453.000000	0.302422
1454.000000	0.302457
1455.000000	0.302554
1456.000000	0.302663
1457.000000	0.302599
1458.000000	0.302602
1459.000000	0.302622
1460.000000	0.302609
1461.000000	0.302699
1462.000000	0.302777
1463.000000	0.302813
1464.000000	0.302889
1465.000000	0.302944
1466.000000	0.303017
1467.000000	0.303026
1468.000000	0.302914
1469.000000	0.302970
1470.000000	0.302958
1471.000000	0.302909
1472.000000	0.302944
1473.000000	0.303078
1474.000000	0.303217
1475.000000	0.303403
1476.000000	0.303673
1477.000000	0.303926
1478.000000	0.304079
1479.000000	0.304215
1480.000000	0.304409
1481.000000	0.304547
1482.000000	0.304654
1483.000000	0.304834
1484.000000	0.305032
1485.000000	0.305246
1486.000000	0.305494
1487.000000	0.305651
1488.000000	0.305800
1489.000000	0.306045
1490.000000	0.306147
1491.000000	0.306354
1492.000000	0.306660
1493.000000	0.306853
1494.000000	0.306921
1495.000000	0.307038
1496.000000	0.307159
1497.000000	0.307344
1498.000000	0.307577
1499.000000	0.307778
1500.000000	0.308020
1501.000000	0.308108
1502.000000	0.308155
1503.000000	0.308256
1504.000000	0.308369
1505.000000	0.308607
1506.000000	0.308893
1507.000000	0.309090
1508.000000	0.309322
1509.000000	0.309494
1510.000000	0.309565
1511.000000	0.309777
1512.000000	0.309985
1513.000000	0.310150
1514.000000	0.310357
1515.000000	0.310426
1516.000000	0.310526
1517.000000	0.310567
1518.000000	0.310560
1519.000000	0.310612
1520.000000	0.310666
1521.000000	0.310679
1522.000000	0.310658
1523.000000	0.310653
1524.000000	0.310584
1525.000000	0.310605
1526.000000	0.310746
1527.000000	0.310771
1528.000000	0.310865
1529.000000	0.310976
1530.000000	0.310913
1531.000000	0.310994
1532.000000	0.311133
1533.000000	0.311200
1534.000000	0.311355
1535.000000	0.311556
1536.000000	0.311620
1537.000000	0.311629
1538.000000	0.311653
1539.000000	0.311723
1540.000000	0.311759
1541.000000	0.311888
1542.000000	0.312074
1543.000000	0.312052
1544.000000	0.312001
1545.000000	0.312024
1546.000000	0.312027
1547.000000	0.312071
1548.000000	0.312067
1549.000000	0.312012
1550.000000	0.311970
1551.000000	0.311898
1552.000000	0.311931
1553.000000	0.311913
1554.000000	0.311802
1555.000000	0.311895
1556.000000	0.312080
1557.000000	0.312149
1558.000000	0.312215
1559.000000	0.312218
1560.000000	0.312250
1561.000000	0.312277
1562.000000	0.312352
1563.000000	0.312563
1564.000000	0.312617
1565.000000	0.312553
1566.000000	0.312520
1567.000000	0.312578
1568.000000	0.312643
1569.000000	0.312831
1570.000000	0.312841
1571.000000	0.312742
1572.000000	0.312648
1573.000000	0.312467
1574.000000	0.312356
1575.000000	0.312284
1576.000000	0.312292
1577.000000	0.312338
1578.000000	0.312310
1579.000000	0.312351
1580.000000	0.312407
1581.000000	0.312494
1582.000000	0.312570
1583.000000	0.312731
1584.000000	0.312751
1585.000000	0.312732
1586.000000	0.312754
1587.000000	0.312763
1588.000000	0.312746
1589.000000	0.312716
1590.000000	0.312720
1591.000000	0.312750
1592.000000	0.312776
1593.000000	0.312931
1594.000000	0.312858
1595.000000	0.312627
1596.000000	0.312538
1597.000000	0.312446
1598.000000	0.312373
1599.000000	0.312472
1600.000000	0.312391
1601.000000	0.312217
1602.000000	0.312132
1603.000000	0.312094
1604.000000	0.312043
1605.000000	0.312027
1606.000000	0.312012
1607.000000	0.312047
1608.000000	0.312071
1609.000000	0.312160
1610.000000	0.312233
1611.000000	0.312312
1612.000000	0.312374
1613.000000	0.312596
1614.000000	0.312649
1615.000000	0.312661
1616.000000	0.312706
1617.000000	0.312635
1618.000000	0.312606
1619.000000	0.312549
1620.000000	0.312540
1621.000000	0.312573
1622.000000	0.312703
1623.000000	0.312933
1624.000000	0.313047
1625.000000	0.312997
1626.000000	0.312961
1627.000000	0.312831
1628.000000	0.312947
1629.000000	0.313252
1630.000000	0.313390
1631.000000	0.313499
1632.000000	0.313528
1633.000000	0.313415
1634.000000	0.313417
1635.000000	0.313519
1636.000000	0.313539
1637.000000	0.313523
1638.000000	0.313524
1639.000000	0.313595
1640.000000	0.313655
1641.000000	0.313762
1642.000000	0.313890
1643.000000	0.314096
1644.000000	0.314193
1645.000000	0.314282
1646.000000	0.314313
1647.000000	0.314302
1648.000000	0.314241
1649.000000	0.314223
1650.000000	0.314237
1651.000000	0.314225
1652.000000	0.314271
1653.000000	0.314356
1654.000000	0.314375
1655.000000	0.314321
1656.000000	0.314198
1657.000000	0.314054
1658.000000	0.314016
1659.000000	0.314117
1660.000000	0.314145
1661.000000	0.314123
1662.000000	0.314126
1663.000000	0.314061
1664.000000	0.313989
1665.000000	0.313934
1666.000000	0.313931
1667.000000	0.313796
1668.000000	0.313779
1669.000000	0.313861
1670.000000	0.313831
1671.000000	0.313867
1672.000000	0.313941
1673.000000	0.313956
1674.000000	0.314052
1675.000000	0.314247
1676.000000	0.314319
1677.000000	0.314324
1678.000000	0.314353
1679.000000	0.314336
1680.000000	0.314258
1681.000000	0.314313
1682.000000	0.314329
1683.000000	0.314241
1684.000000	0.314230
1685.000000	0.314315
1686.000000	0.314418
1687.000000	0.314487
1688.000000	0.314468
1689.000000	0.314516
1690.000000	0.314601
1691.000000	0.314775
1692.000000	0.314936
1693.000000	0.315004
1694.000000	0.314922
1695.000000	0.314873
1696.000000	0.314682
1697.000000	0.314635
1698.000000	0.314811
1699.000000	0.314871
1700.000000	0.314979
1701.000000	0.315152
1702.000000	0.315054
1703.000000	0.314971
1704.000000	0.315125
1705.000000	0.315114
1706.000000	0.314911
1707.000000	0.314895
1708.000000	0.314930
1709.000000	0.314847
1710.000000	0.314899
1711.000000	0.314958
1712.000000	0.314972
1713.000000	0.314962
1714.000000	0.315101
1715.000000	0.315100
1716.000000	0.314915
1717.000000	0.314860
1718.000000	0.314759
1719.000000	0.314746
1720.000000	0.314959
1721.000000	0.314987
1722.000000	0.314970
1723.000000	0.314953
1724.000000	0.314828
1725.000000	0.314838
1726.000000	0.314838
1727.000000	0.314891
1728.000000	0.314997
1729.000000	0.314933
1730.000000	0.314884
1731.000000	0.314996
1732.000000	0.315149
1733.000000	0.315291
1734.000000	0.315483
1735.000000	0.315521
1736.000000	0.315337
1737.000000	0.315290
1738.000000	0.315311
1739.000000	0.315277
1740.000000	0.315191
1741.000000	0.315158
1742.000000	0.315137
1743.000000	0.315174
1744.000000	0.315276
1745.000000	0.315233
1746.000000	0.315102
1747.000000	0.315211
1748.000000	0.315164
1749.000000	0.315132
1750.000000	0.315107
1751.000000	0.315110
1752.000000	0.315156
1753.000000	0.315160
1754.000000	0.315153
1755.000000	0.315059
1756.000000	0.314920
1757.000000	0.314665
1758.000000	0.314623
1759.000000	0.314686
1760.000000	0.314648
1761.000000	0.314624
1762.000000	0.314680
1763.000000	0.314676
1764.000000	0.314741
1765.000000	0.314972
1766.000000	0.315132
1767.000000	0.315205
1768.000000	0.315161
1769.000000	0.315185
1770.000000	0.315159
1771.000000	0.314872
1772.000000	0.314797
1773.000000	0.314732
1774.000000	0.314785
1775.000000	0.315053
1776.000000	0.315189
1777.000000	0.315383
1778.000000	0.315374
1779.000000	0.315179
1780.000000	0.315099
1781.000000	0.314899
1782.000000	0.314820
1783.000000	0.314887
1784.000000	0.314900
1785.000000	0.314903
1786.000000	0.314812
1787.000000	0.314773
1788.000000	0.314777
1789.000000	0.314583
1790.000000	0.314486
1791.000000	0.314473
1792.000000	0.314674
1793.000000	0.314792
1794.000000	0.315105
1795.000000	0.315149
1796.000000	0.314798
1797.000000	0.314726
1798.000000	0.314640
1799.000000	0.314640
1800.000000	0.315068
1801.000000	0.315765
1802.000000	0.315263
1803.000000	0.313320
1804.000000	0.313399
1805.000000	0.314882
1806.000000	0.315451
1807.000000	0.316926
1808.000000	0.317405
1809.000000	0.317363
1810.000000	0.316421
1811.000000	0.315853
1812.000000	0.315029
1813.000000	0.314453
1814.000000	0.313474
1815.000000	0.313454
1816.000000	0.314182
1817.000000	0.314340
1818.000000	0.314758
1819.000000	0.315480
1820.000000	0.315720
1821.000000	0.315516
1822.000000	0.315436
1823.000000	0.315357
1824.000000	0.315171
1825.000000	0.314382
1826.000000	0.314345
1827.000000	0.314745
1828.000000	0.314690
1829.000000	0.315272
1830.000000	0.316079
1831.000000	0.316012
1832.000000	0.315407
1833.000000	0.315100
1834.000000	0.314363
1835.000000	0.313852
1836.000000	0.313107
1837.000000	0.313203
1838.000000	0.313935
1839.000000	0.313948
1840.000000	0.314474
1841.000000	0.314587
1842.000000	0.314289
1843.000000	0.312835
1844.000000	0.312365
1845.000000	0.311901
1846.000000	0.311775
1847.000000	0.311911
1848.000000	0.311874
1849.000000	0.312273
1850.000000	0.313095
1851.000000	0.313329
1852.000000	0.313573
1853.000000	0.313423
1854.000000	0.312568
1855.000000	0.311823
1856.000000	0.310594
1857.000000	0.309676
1858.000000	0.309526
1859.000000	0.309479
1860.000000	0.310066
1861.000000	0.311034
1862.000000	0.311134
1863.000000	0.310796
1864.000000	0.310597
1865.000000	0.310230
1866.000000	0.309641
1867.000000	0.309064
1868.000000	0.308106
1869.000000	0.306671
1870.000000	0.305060
1871.000000	0.304199
1872.000000	0.304283
1873.000000	0.303870
1874.000000	0.303874
1875.000000	0.303469
1876.000000	0.302831
1877.000000	0.301071
1878.000000	0.299448
1879.000000	0.297987
1880.000000	0.296179
1881.000000	0.294902
1882.000000	0.294035
1883.000000	0.293072
1884.000000	0.292105
1885.000000	0.291408
1886.000000	0.289746
1887.000000	0.287579
1888.000000	0.285176
1889.000000	0.282352
1890.000000	0.280001
1891.000000	0.278182
1892.000000	0.276117
1893.000000	0.273785
1894.000000	0.271673
1895.000000	0.269292
1896.000000	0.266607
1897.000000	0.264405
1898.000000	0.262565
1899.000000	0.260716
1900.000000	0.259009
1901.000000	0.256866
1902.000000	0.255020
1903.000000	0.252539
1904.000000	0.250532
1905.000000	0.249537
1906.000000	0.248039
1907.000000	0.246367
1908.000000	0.245538
1909.000000	0.244360
1910.000000	0.242792
1911.000000	0.242015
1912.000000	0.240922
1913.000000	0.240583
1914.000000	0.240609
1915.000000	0.240293
1916.000000	0.240698
1917.000000	0.240607
1918.000000	0.240256
1919.000000	0.239824
1920.000000	0.240063
1921.000000	0.239901
1922.000000	0.239798
1923.000000	0.239971
1924.000000	0.239806
1925.000000	0.239407
1926.000000	0.239246
1927.000000	0.239188
1928.000000	0.239183
1929.000000	0.239181
1930.000000	0.239790
1931.000000	0.240003
1932.000000	0.240117
1933.000000	0.240642
1934.000000	0.240647
1935.000000	0.241217
1936.000000	0.241415
1937.000000	0.241211
1938.000000	0.241498
1939.000000	0.241652
1940.000000	0.241558
1941.000000	0.242097
1942.000000	0.242396
1943.000000	0.242245
1944.000000	0.242000
1945.000000	0.241845
1946.000000	0.242593
1947.000000	0.242984
1948.000000	0.243398
1949.000000	0.244362
1950.000000	0.245031
1951.000000	0.245145
1952.000000	0.245138
1953.000000	0.244894
1954.000000	0.244454
1955.000000	0.243554
1956.000000	0.243272
1957.000000	0.243818
1958.000000	0.244029
1959.000000	0.244188
1960.000000	0.244139
1961.000000	0.244128
1962.000000	0.244224
1963.000000	0.244328
1964.000000	0.244610
1965.000000	0.245034
1966.000000	0.244825
1967.000000	0.244993
1968.000000	0.245444
1969.000000	0.245727
1970.000000	0.246378
1971.000000	0.246238
1972.000000	0.245649
1973.000000	0.245284
1974.000000	0.244713
1975.000000	0.244681
1976.000000	0.244890
1977.000000	0.245449
1978.000000	0.246604
1979.000000	0.247465
1980.000000	0.248259
1981.000000	0.248915
1982.000000	0.249110
1983.000000	0.249572
1984.000000	0.249761
1985.000000	0.249830
1986.000000	0.250064
1987.000000	0.250281
1988.000000	0.250418
1989.000000	0.250976
1990.000000	0.251379
1991.000000	0.251911
1992.000000	0.251899
1993.000000	0.251525
1994.000000	0.251706
1995.000000	0.251640
1996.000000	0.251948
1997.000000	0.252512
1998.000000	0.253652
1999.000000	0.254340
2000.000000	0.255221
2001.000000	0.255859
2002.000000	0.255575
2003.000000	0.255848
2004.000000	0.255513
2005.000000	0.255471
2006.000000	0.256811
2007.000000	0.257727
2008.000000	0.258480
2009.000000	0.259474
2010.000000	0.260359
2011.000000	0.260709
2012.000000	0.261212
2013.000000	0.262084
2014.000000	0.262447
2015.000000	0.262208
2016.000000	0.262343
2017.000000	0.262472
2018.000000	0.262623
2019.000000	0.262970
2020.000000	0.263505
2021.000000	0.263854
2022.000000	0.264164
2023.000000	0.264570
2024.000000	0.264798
2025.000000	0.265104
2026.000000	0.265444
2027.000000	0.265704
2028.000000	0.265830
2029.000000	0.267005
2030.000000	0.268077
2031.000000	0.268447
2032.000000	0.269537
2033.000000	0.270137
2034.000000	0.270704
2035.000000	0.271840
2036.000000	0.272219
2037.000000	0.272021
2038.000000	0.272003
2039.000000	0.271921
2040.000000	0.271262
2041.000000	0.271317
2042.000000	0.271573
2043.000000	0.271547
2044.000000	0.271489
2045.000000	0.271585
2046.000000	0.271968
2047.000000	0.272698
2048.000000	0.274291
2049.000000	0.275450
2050.000000	0.276351
2051.000000	0.276879
2052.000000	0.277180
2053.000000	0.277116
2054.000000	0.276584
2055.000000	0.276647
2056.000000	0.276679
2057.000000	0.276391
2058.000000	0.276639
2059.000000	0.277075
2060.000000	0.277465
2061.000000	0.278081
2062.000000	0.278407
2063.000000	0.278788
2064.000000	0.278946
2065.000000	0.278930
2066.000000	0.279104
2067.000000	0.279631
2068.000000	0.279969
2069.000000	0.280290
2070.000000	0.280842
2071.000000	0.281071
2072.000000	0.280611
2073.000000	0.280313
2074.000000	0.280206
2075.000000	0.280483
2076.000000	0.281356
2077.000000	0.281799
2078.000000	0.282506
2079.000000	0.282731
2080.000000	0.282169
2081.000000	0.282337
2082.000000	0.282872
2083.000000	0.283206
2084.000000	0.283836
2085.000000	0.284010
2086.000000	0.283272
2087.000000	0.282980
2088.000000	0.282788
2089.000000	0.283012
2090.000000	0.283251
2091.000000	0.283971
2092.000000	0.284245
2093.000000	0.284279
2094.000000	0.284465
2095.000000	0.284741
2096.000000	0.285201
2097.000000	0.285783
2098.000000	0.286285
2099.000000	0.286823
2100.000000	0.286716
2101.000000	0.286229
2102.000000	0.286012
2103.000000	0.286270
2104.000000	0.286528
2105.000000	0.286872
2106.000000	0.287997
2107.000000	0.288230
2108.000000	0.287740
2109.000000	0.287676
2110.000000	0.287083
2111.000000	0.286943
2112.000000	0.286839
2113.000000	0.287150
2114.000000	0.288097
2115.000000	0.288880
2116.000000	0.289235
2117.000000	0.289713
2118.000000	0.289538
2119.000000	0.288969
2120.000000	0.289056
2121.000000	0.289419
2122.000000	0.289643
2123.000000	0.290492
2124.000000	0.290693
2125.000000	0.290524
2126.000000	0.290481
2127.000000	0.289835
2128.000000	0.289671
2129.000000	0.289708
2130.000000	0.289822
2131.000000	0.289923
2132.000000	0.290626
2133.000000	0.290865
2134.000000	0.291533
2135.000000	0.291998
2136.000000	0.291668
2137.000000	0.291338
2138.000000	0.290338
2139.000000	0.290154
2140.000000	0.290195
2141.000000	0.290322
2142.000000	0.290908
2143.000000	0.291177
2144.000000	0.291397
2145.000000	0.291608
2146.000000	0.292075
2147.000000	0.292831
2148.000000	0.292328
2149.000000	0.292420
2150.000000	0.291823
2151.000000	0.291006
2152.000000	0.290853
2153.000000	0.290439
2154.000000	0.290172
2155.000000	0.290078
2156.000000	0.289972
2157.000000	0.289884
2158.000000	0.289933
2159.000000	0.290507
2160.000000	0.290600
2161.000000	0.290347
2162.000000	0.290332
2163.000000	0.289801
2164.000000	0.289573
2165.000000	0.289965
2166.000000	0.289907
2167.000000	0.289107
2168.000000	0.288905
2169.000000	0.288083
2170.000000	0.287228
2171.000000	0.286935
2172.000000	0.286889
2173.000000	0.287405
2174.000000	0.288678
2175.000000	0.289460
2176.000000	0.290889
2177.000000	0.291424
2178.000000	0.291005
2179.000000	0.291427
2180.000000	0.291891
2181.000000	0.292584
2182.000000	0.293343
2183.000000	0.294037
2184.000000	0.293791
2185.000000	0.292888
2186.000000	0.292425
2187.000000	0.291547
2188.000000	0.290306
2189.000000	0.289740
2190.000000	0.288913
2191.000000	0.288110
2192.000000	0.287855
2193.000000	0.288481
2194.000000	0.288557
2195.000000	0.288928
2196.000000	0.289091
2197.000000	0.288806
2198.000000	0.289015
2199.000000	0.289157
2200.000000	0.289839
2201.000000	0.292540
2202.000000	0.292932
2203.000000	0.292186
2204.000000	0.291048
2205.000000	0.288168
2206.000000	0.284674
2207.000000	0.282373
2208.000000	0.281780
2209.000000	0.282165
2210.000000	0.283255
2211.000000	0.284464
2212.000000	0.286907
2213.000000	0.288683
2214.000000	0.290033
2215.000000	0.291262
2216.000000	0.293181
2217.000000	0.293602
2218.000000	0.292184
2219.000000	0.292911
2220.000000	0.294801
2221.000000	0.294578
2222.000000	0.294745
2223.000000	0.293791
2224.000000	0.289886
2225.000000	0.287772
2226.000000	0.288112
2227.000000	0.289206
2228.000000	0.292311
2229.000000	0.294298
2230.000000	0.293280
2231.000000	0.292099
2232.000000	0.289696
2233.000000	0.288539
2234.000000	0.287979
2235.000000	0.288448
2236.000000	0.288579
2237.000000	0.288091
2238.000000	0.288317
2239.000000	0.289571
2240.000000	0.289801
2241.000000	0.290076
2242.000000	0.290804
2243.000000	0.291856
2244.000000	0.291250
2245.000000	0.289442
2246.000000	0.288404
2247.000000	0.285550
2248.000000	0.285092
2249.000000	0.287284
2250.000000	0.288894
2251.000000	0.288962
2252.000000	0.286701
2253.000000	0.281504
2254.000000	0.278005
2255.000000	0.277606
2256.000000	0.276506
2257.000000	0.277773
2258.000000	0.280759
2259.000000	0.281692
2260.000000	0.283261
2261.000000	0.282804
2262.000000	0.280341
2263.000000	0.279969
2264.000000	0.278593
2265.000000	0.278868
2266.000000	0.282308
2267.000000	0.282146
2268.000000	0.280972
2269.000000	0.279729
2270.000000	0.276346
2271.000000	0.274392
2272.000000	0.272460
2273.000000	0.271275
2274.000000	0.271236
2275.000000	0.270090
2276.000000	0.268198
2277.000000	0.268569
2278.000000	0.266445
2279.000000	0.266866
2280.000000	0.268089
2281.000000	0.267773
2282.000000	0.268217
2283.000000	0.267053
2284.000000	0.266945
2285.000000	0.266075
2286.000000	0.266172
2287.000000	0.267689
2288.000000	0.266881
2289.000000	0.266851
2290.000000	0.266588
2291.000000	0.265696
2292.000000	0.266120
2293.000000	0.266707
2294.000000	0.267264
2295.000000	0.267438
2296.000000	0.268175
2297.000000	0.269987
2298.000000	0.270645
2299.000000	0.270856
2300.000000	0.270531
2301.000000	0.268476
2302.000000	0.268247
2303.000000	0.269113
2304.000000	0.269822
2305.000000	0.272155
2306.000000	0.272735
2307.000000	0.272745
2308.000000	0.270721
2309.000000	0.268365
2310.000000	0.267486
2311.000000	0.267573
2312.000000	0.269420
2313.000000	0.272720
2314.000000	0.274734
2315.000000	0.274925
2316.000000	0.275852
2317.000000	0.276717
2318.000000	0.276866
2319.000000	0.277789
2320.000000	0.275030
2321.000000	0.271800
2322.000000	0.268280
2323.000000	0.264074
2324.000000	0.264094
2325.000000	0.262566
2326.000000	0.264439
2327.000000	0.268157
2328.000000	0.269843
2329.000000	0.273233
2330.000000	0.273056
2331.000000	0.271227
2332.000000	0.268843
2333.000000	0.266885
2334.000000	0.265841
2335.000000	0.265867
2336.000000	0.268125
2337.000000	0.268084
2338.000000	0.267724
2339.000000	0.267372
2340.000000	0.265106
2341.000000	0.263312
2342.000000	0.262035
2343.000000	0.260146
2344.000000	0.258894
2345.000000	0.256838
2346.000000	0.254191
2347.000000	0.251317
2348.000000	0.247185
2349.000000	0.242714
2350.000000	0.242744
2351.000000	0.242948
2352.000000	0.245999
2353.000000	0.250267
2354.000000	0.250767
2355.000000	0.253504
2356.000000	0.255274
2357.000000	0.254684
2358.000000	0.254916
2359.000000	0.253062
2360.000000	0.250572
2361.000000	0.247285
2362.000000	0.241418
2363.000000	0.239062
2364.000000	0.237324
2365.000000	0.233824
2366.000000	0.237336
2367.000000	0.240838
2368.000000	0.238855
2369.000000	0.239924
2370.000000	0.239151
2371.000000	0.237846
2372.000000	0.241579
2373.000000	0.246721
2374.000000	0.247110
2375.000000	0.243384
2376.000000	0.242646
2377.000000	0.240297
2378.000000	0.239579
2379.000000	0.241568
2380.000000	0.240423
2381.000000	0.239011
2382.000000	0.236458
2383.000000	0.233788
2384.000000	0.233564
2385.000000	0.232789
2386.000000	0.228869
2387.000000	0.224370
2388.000000	0.219410
2389.000000	0.215313
2390.000000	0.218309
2391.000000	0.219876
2392.000000	0.219927
2393.000000	0.222227
2394.000000	0.218852
2395.000000	0.222898
2396.000000	0.226915
2397.000000	0.222032
2398.000000	0.225845
2399.000000	0.228330
2400.000000	0.228485
2401.000000	0.235303
2402.000000	0.236910
2403.000000	0.231415
2404.000000	0.229732
2405.000000	0.230291
2406.000000	0.233081
2407.000000	0.238319
2408.000000	0.240462
2409.000000	0.240268
2410.000000	0.230551
2411.000000	0.226552
2412.000000	0.229645
2413.000000	0.223123
2414.000000	0.222718
2415.000000	0.220539
2416.000000	0.215502
2417.000000	0.224130
2418.000000	0.231898
2419.000000	0.230521
2420.000000	0.227196
2421.000000	0.221616
2422.000000	0.213327
2423.000000	0.218870
2424.000000	0.227646
2425.000000	0.229170
2426.000000	0.238444
2427.000000	0.240727
2428.000000	0.239981
2429.000000	0.239989
2430.000000	0.232635
2431.000000	0.226941
2432.000000	0.219462
2433.000000	0.212578
2434.000000	0.213633
2435.000000	0.218755
2436.000000	0.223946
2437.000000	0.225202
2438.000000	0.224852
2439.000000	0.222374
2440.000000	0.216827
2441.000000	0.218156
2442.000000	0.219308
2443.000000	0.221731
2444.000000	0.220271
2445.000000	0.221596
2446.000000	0.229008
2447.000000	0.219825
2448.000000	0.224638
2449.000000	0.232558
2450.000000	0.234347
2451.000000	0.242916
2452.000000	0.246387
2453.000000	0.241194
2454.000000	0.223605
2455.000000	0.209558
2456.000000	0.193479
2457.000000	0.181310
2458.000000	0.170197
2459.000000	0.172880
2460.000000	0.189726
2461.000000	0.201805
2462.000000	0.218867
2463.000000	0.210884
2464.000000	0.208819
2465.000000	0.212759
2466.000000	0.209543
2467.000000	0.222396
2468.000000	0.213892
2469.000000	0.205420
2470.000000	0.209741
2471.000000	0.197721
2472.000000	0.206846
2473.000000	0.214050
2474.000000	0.214363
2475.000000	0.274244
2476.000000	0.310038
2477.000000	0.293755
2478.000000	0.277288
2479.000000	0.207735
2480.000000	0.149404
2481.000000	0.143580
2482.000000	0.163373
2483.000000	0.190375
2484.000000	0.219621
2485.000000	0.247948
2486.000000	0.246140
2487.000000	0.266300
2488.000000	0.267045
2489.000000	0.224850
2490.000000	0.224407
2491.000000	0.168256
2492.000000	0.159553
2493.000000	0.195619
2494.000000	0.198363
2495.000000	0.208564
2496.000000	0.203427
2497.000000	0.136129
2498.000000	0.127271
2499.000000	0.195477
2500.000000	0.186856
