# Wavelength	NAu-1-50_HEX-40_FV7-10_00001.asd.rts.txt
350.000000	0.155999
351.000000	0.123957
352.000000	0.128674
353.000000	0.139618
354.000000	0.139113
355.000000	0.143463
356.000000	0.144368
357.000000	0.141008
358.000000	0.134552
359.000000	0.136513
360.000000	0.139061
361.000000	0.132965
362.000000	0.137558
363.000000	0.140958
364.000000	0.136111
365.000000	0.134171
366.000000	0.129463
367.000000	0.123947
368.000000	0.126678
369.000000	0.125262
370.000000	0.122590
371.000000	0.125297
372.000000	0.130485
373.000000	0.133937
374.000000	0.133832
375.000000	0.133143
376.000000	0.132639
377.000000	0.133147
378.000000	0.135928
379.000000	0.137483
380.000000	0.137165
381.000000	0.136225
382.000000	0.138365
383.000000	0.140515
384.000000	0.140623
385.000000	0.140556
386.000000	0.141947
387.000000	0.144329
388.000000	0.144604
389.000000	0.147163
390.000000	0.150654
391.000000	0.151934
392.000000	0.154498
393.000000	0.155692
394.000000	0.154356
395.000000	0.156545
396.000000	0.159987
397.000000	0.162674
398.000000	0.162597
399.000000	0.163733
400.000000	0.166228
401.000000	0.168485
402.000000	0.169929
403.000000	0.171284
404.000000	0.173210
405.000000	0.174413
406.000000	0.175797
407.000000	0.177783
408.000000	0.179934
409.000000	0.181444
410.000000	0.182446
411.000000	0.183625
412.000000	0.185176
413.000000	0.186615
414.000000	0.187444
415.000000	0.187906
416.000000	0.188624
417.000000	0.189727
418.000000	0.190270
419.000000	0.190615
420.000000	0.191004
421.000000	0.191623
422.000000	0.192298
423.000000	0.192660
424.000000	0.192447
425.000000	0.192209
426.000000	0.192372
427.000000	0.192920
428.000000	0.192622
429.000000	0.192547
430.000000	0.192849
431.000000	0.192449
432.000000	0.191911
433.000000	0.191697
434.000000	0.192271
435.000000	0.192188
436.000000	0.191772
437.000000	0.191534
438.000000	0.191190
439.000000	0.190722
440.000000	0.190205
441.000000	0.189586
442.000000	0.189075
443.000000	0.188675
444.000000	0.188372
445.000000	0.188517
446.000000	0.188793
447.000000	0.188727
448.000000	0.189347
449.000000	0.190667
450.000000	0.192436
451.000000	0.193881
452.000000	0.196015
453.000000	0.198897
454.000000	0.201718
455.000000	0.204826
456.000000	0.208118
457.000000	0.211221
458.000000	0.214403
459.000000	0.217602
460.000000	0.220677
461.000000	0.223147
462.000000	0.225538
463.000000	0.227932
464.000000	0.230098
465.000000	0.231595
466.000000	0.232691
467.000000	0.234276
468.000000	0.235914
469.000000	0.237148
470.000000	0.237849
471.000000	0.238964
472.000000	0.240111
473.000000	0.240989
474.000000	0.241744
475.000000	0.242292
476.000000	0.242820
477.000000	0.243493
478.000000	0.244214
479.000000	0.245048
480.000000	0.245776
481.000000	0.246279
482.000000	0.246862
483.000000	0.247594
484.000000	0.248471
485.000000	0.249281
486.000000	0.250064
487.000000	0.250734
488.000000	0.251476
489.000000	0.252268
490.000000	0.252920
491.000000	0.253647
492.000000	0.254480
493.000000	0.255251
494.000000	0.255939
495.000000	0.256686
496.000000	0.257513
497.000000	0.258210
498.000000	0.259026
499.000000	0.260046
500.000000	0.260965
501.000000	0.261906
502.000000	0.262838
503.000000	0.263601
504.000000	0.264470
505.000000	0.265400
506.000000	0.266324
507.000000	0.267361
508.000000	0.268411
509.000000	0.269414
510.000000	0.270582
511.000000	0.271560
512.000000	0.272448
513.000000	0.273661
514.000000	0.274674
515.000000	0.275649
516.000000	0.276842
517.000000	0.277930
518.000000	0.279010
519.000000	0.280128
520.000000	0.281443
521.000000	0.282642
522.000000	0.283691
523.000000	0.284960
524.000000	0.286281
525.000000	0.287600
526.000000	0.288950
527.000000	0.290371
528.000000	0.291778
529.000000	0.293137
530.000000	0.294487
531.000000	0.295958
532.000000	0.297486
533.000000	0.298908
534.000000	0.300304
535.000000	0.301722
536.000000	0.303248
537.000000	0.304772
538.000000	0.306286
539.000000	0.307804
540.000000	0.309268
541.000000	0.310755
542.000000	0.312357
543.000000	0.313929
544.000000	0.315483
545.000000	0.316977
546.000000	0.318533
547.000000	0.320119
548.000000	0.321700
549.000000	0.323120
550.000000	0.324600
551.000000	0.326164
552.000000	0.327706
553.000000	0.329180
554.000000	0.330645
555.000000	0.332146
556.000000	0.333637
557.000000	0.335051
558.000000	0.336527
559.000000	0.338048
560.000000	0.339400
561.000000	0.340657
562.000000	0.341857
563.000000	0.343176
564.000000	0.344552
565.000000	0.345749
566.000000	0.346824
567.000000	0.347911
568.000000	0.349030
569.000000	0.350044
570.000000	0.351052
571.000000	0.352043
572.000000	0.352944
573.000000	0.353807
574.000000	0.354625
575.000000	0.355448
576.000000	0.356286
577.000000	0.356993
578.000000	0.357580
579.000000	0.358306
580.000000	0.358996
581.000000	0.359563
582.000000	0.360068
583.000000	0.360517
584.000000	0.360970
585.000000	0.361511
586.000000	0.361899
587.000000	0.362183
588.000000	0.362484
589.000000	0.362849
590.000000	0.363204
591.000000	0.363493
592.000000	0.363731
593.000000	0.363977
594.000000	0.364242
595.000000	0.364500
596.000000	0.364627
597.000000	0.364727
598.000000	0.364859
599.000000	0.364911
600.000000	0.365003
601.000000	0.365136
602.000000	0.365221
603.000000	0.365289
604.000000	0.365359
605.000000	0.365373
606.000000	0.365453
607.000000	0.365569
608.000000	0.365582
609.000000	0.365588
610.000000	0.365594
611.000000	0.365597
612.000000	0.365647
613.000000	0.365667
614.000000	0.365663
615.000000	0.365682
616.000000	0.365726
617.000000	0.365745
618.000000	0.365749
619.000000	0.365757
620.000000	0.365780
621.000000	0.365887
622.000000	0.365859
623.000000	0.365793
624.000000	0.365809
625.000000	0.365932
626.000000	0.365997
627.000000	0.365971
628.000000	0.366030
629.000000	0.366158
630.000000	0.366181
631.000000	0.366180
632.000000	0.366234
633.000000	0.366335
634.000000	0.366436
635.000000	0.366543
636.000000	0.366687
637.000000	0.366857
638.000000	0.367036
639.000000	0.367198
640.000000	0.367378
641.000000	0.367459
642.000000	0.367557
643.000000	0.367691
644.000000	0.367848
645.000000	0.367979
646.000000	0.368129
647.000000	0.368303
648.000000	0.368524
649.000000	0.368756
650.000000	0.368959
651.000000	0.369154
652.000000	0.369358
653.000000	0.369602
654.000000	0.369819
655.000000	0.370089
656.000000	0.370389
657.000000	0.370623
658.000000	0.370896
659.000000	0.371176
660.000000	0.371433
661.000000	0.371710
662.000000	0.371982
663.000000	0.372305
664.000000	0.372650
665.000000	0.373060
666.000000	0.373483
667.000000	0.373826
668.000000	0.374173
669.000000	0.374531
670.000000	0.374916
671.000000	0.375367
672.000000	0.375816
673.000000	0.376243
674.000000	0.376687
675.000000	0.377043
676.000000	0.377366
677.000000	0.377773
678.000000	0.378235
679.000000	0.378663
680.000000	0.379035
681.000000	0.379447
682.000000	0.379962
683.000000	0.380493
684.000000	0.381081
685.000000	0.381650
686.000000	0.382226
687.000000	0.382796
688.000000	0.383323
689.000000	0.383863
690.000000	0.384487
691.000000	0.385089
692.000000	0.385665
693.000000	0.386297
694.000000	0.386932
695.000000	0.387578
696.000000	0.388222
697.000000	0.388844
698.000000	0.389407
699.000000	0.389971
700.000000	0.390595
701.000000	0.391242
702.000000	0.391889
703.000000	0.392511
704.000000	0.393145
705.000000	0.393806
706.000000	0.394455
707.000000	0.395150
708.000000	0.395878
709.000000	0.396513
710.000000	0.397034
711.000000	0.397727
712.000000	0.398438
713.000000	0.399126
714.000000	0.399842
715.000000	0.400571
716.000000	0.401319
717.000000	0.402062
718.000000	0.402779
719.000000	0.403468
720.000000	0.404144
721.000000	0.404762
722.000000	0.405307
723.000000	0.405875
724.000000	0.406479
725.000000	0.407083
726.000000	0.407757
727.000000	0.408392
728.000000	0.409058
729.000000	0.409665
730.000000	0.410098
731.000000	0.410580
732.000000	0.411121
733.000000	0.411766
734.000000	0.412460
735.000000	0.413062
736.000000	0.413696
737.000000	0.414252
738.000000	0.414743
739.000000	0.415306
740.000000	0.415796
741.000000	0.416234
742.000000	0.416625
743.000000	0.416973
744.000000	0.417401
745.000000	0.417779
746.000000	0.418159
747.000000	0.418511
748.000000	0.418860
749.000000	0.419241
750.000000	0.419608
751.000000	0.419897
752.000000	0.420152
753.000000	0.420404
754.000000	0.420637
755.000000	0.420926
756.000000	0.421221
757.000000	0.421402
758.000000	0.421626
759.000000	0.421892
760.000000	0.422075
761.000000	0.422199
762.000000	0.422294
763.000000	0.422367
764.000000	0.422511
765.000000	0.422529
766.000000	0.422491
767.000000	0.422486
768.000000	0.422486
769.000000	0.422522
770.000000	0.422590
771.000000	0.422604
772.000000	0.422702
773.000000	0.422721
774.000000	0.422588
775.000000	0.422510
776.000000	0.422464
777.000000	0.422382
778.000000	0.422285
779.000000	0.422079
780.000000	0.421812
781.000000	0.421641
782.000000	0.421415
783.000000	0.421265
784.000000	0.421115
785.000000	0.420951
786.000000	0.420735
787.000000	0.420478
788.000000	0.420341
789.000000	0.420074
790.000000	0.419701
791.000000	0.419443
792.000000	0.419206
793.000000	0.418934
794.000000	0.418604
795.000000	0.418249
796.000000	0.417885
797.000000	0.417519
798.000000	0.417168
799.000000	0.416781
800.000000	0.416362
801.000000	0.415943
802.000000	0.415572
803.000000	0.415139
804.000000	0.414663
805.000000	0.414257
806.000000	0.413817
807.000000	0.413425
808.000000	0.413038
809.000000	0.412675
810.000000	0.412265
811.000000	0.411765
812.000000	0.411321
813.000000	0.410864
814.000000	0.410382
815.000000	0.409941
816.000000	0.409474
817.000000	0.409034
818.000000	0.408586
819.000000	0.408259
820.000000	0.407914
821.000000	0.407458
822.000000	0.407085
823.000000	0.406635
824.000000	0.406093
825.000000	0.405643
826.000000	0.405175
827.000000	0.404706
828.000000	0.404287
829.000000	0.403796
830.000000	0.403267
831.000000	0.402786
832.000000	0.402258
833.000000	0.401785
834.000000	0.401341
835.000000	0.400939
836.000000	0.400592
837.000000	0.400204
838.000000	0.399746
839.000000	0.399198
840.000000	0.398770
841.000000	0.398372
842.000000	0.397846
843.000000	0.397344
844.000000	0.396952
845.000000	0.396628
846.000000	0.396286
847.000000	0.395911
848.000000	0.395494
849.000000	0.395067
850.000000	0.394536
851.000000	0.394030
852.000000	0.393657
853.000000	0.393344
854.000000	0.392891
855.000000	0.392527
856.000000	0.392285
857.000000	0.391719
858.000000	0.391271
859.000000	0.391027
860.000000	0.390721
861.000000	0.390354
862.000000	0.389959
863.000000	0.389497
864.000000	0.389042
865.000000	0.388629
866.000000	0.388299
867.000000	0.388029
868.000000	0.387777
869.000000	0.387478
870.000000	0.387205
871.000000	0.386900
872.000000	0.386591
873.000000	0.386222
874.000000	0.385824
875.000000	0.385412
876.000000	0.385037
877.000000	0.384676
878.000000	0.384373
879.000000	0.384106
880.000000	0.383714
881.000000	0.383401
882.000000	0.383185
883.000000	0.382975
884.000000	0.382589
885.000000	0.382350
886.000000	0.382106
887.000000	0.381812
888.000000	0.381599
889.000000	0.381374
890.000000	0.381032
891.000000	0.380755
892.000000	0.380534
893.000000	0.380287
894.000000	0.380091
895.000000	0.379801
896.000000	0.379454
897.000000	0.379180
898.000000	0.379092
899.000000	0.378976
900.000000	0.378789
901.000000	0.378519
902.000000	0.378345
903.000000	0.378154
904.000000	0.378022
905.000000	0.377907
906.000000	0.377815
907.000000	0.377693
908.000000	0.377584
909.000000	0.377425
910.000000	0.377304
911.000000	0.377274
912.000000	0.377303
913.000000	0.376991
914.000000	0.376782
915.000000	0.376778
916.000000	0.376597
917.000000	0.376326
918.000000	0.376113
919.000000	0.376012
920.000000	0.375903
921.000000	0.375835
922.000000	0.375824
923.000000	0.375825
924.000000	0.375756
925.000000	0.375599
926.000000	0.375431
927.000000	0.375321
928.000000	0.375438
929.000000	0.375472
930.000000	0.375116
931.000000	0.375025
932.000000	0.374908
933.000000	0.374771
934.000000	0.374848
935.000000	0.374923
936.000000	0.374974
937.000000	0.374876
938.000000	0.374599
939.000000	0.374582
940.000000	0.374711
941.000000	0.374738
942.000000	0.374706
943.000000	0.374707
944.000000	0.374672
945.000000	0.374774
946.000000	0.374764
947.000000	0.374748
948.000000	0.374798
949.000000	0.374699
950.000000	0.374631
951.000000	0.374607
952.000000	0.374610
953.000000	0.374561
954.000000	0.374490
955.000000	0.374364
956.000000	0.374274
957.000000	0.374190
958.000000	0.374154
959.000000	0.374342
960.000000	0.374434
961.000000	0.374573
962.000000	0.374755
963.000000	0.374842
964.000000	0.374802
965.000000	0.374858
966.000000	0.374996
967.000000	0.374984
968.000000	0.375130
969.000000	0.375246
970.000000	0.375167
971.000000	0.375482
972.000000	0.375699
973.000000	0.375665
974.000000	0.375972
975.000000	0.375998
976.000000	0.375845
977.000000	0.375758
978.000000	0.375973
979.000000	0.376072
980.000000	0.375923
981.000000	0.376117
982.000000	0.376421
983.000000	0.376709
984.000000	0.376998
985.000000	0.377265
986.000000	0.377642
987.000000	0.377727
988.000000	0.377356
989.000000	0.377650
990.000000	0.377846
991.000000	0.378044
992.000000	0.378526
993.000000	0.378662
994.000000	0.378609
995.000000	0.378725
996.000000	0.378963
997.000000	0.379404
998.000000	0.379859
999.000000	0.380255
1000.000000	0.380425
1001.000000	0.380049
1002.000000	0.380077
1003.000000	0.380413
1004.000000	0.380565
1005.000000	0.380564
1006.000000	0.380723
1007.000000	0.380961
1008.000000	0.381084
1009.000000	0.381211
1010.000000	0.381303
1011.000000	0.381563
1012.000000	0.381962
1013.000000	0.382842
1014.000000	0.383774
1015.000000	0.383712
1016.000000	0.383673
1017.000000	0.383756
1018.000000	0.384262
1019.000000	0.384754
1020.000000	0.386018
1021.000000	0.386226
1022.000000	0.386178
1023.000000	0.386372
1024.000000	0.386109
1025.000000	0.386268
1026.000000	0.386355
1027.000000	0.386815
1028.000000	0.387826
1029.000000	0.389043
1030.000000	0.390190
1031.000000	0.390402
1032.000000	0.390119
1033.000000	0.390044
1034.000000	0.390479
1035.000000	0.391714
1036.000000	0.392084
1037.000000	0.392481
1038.000000	0.392586
1039.000000	0.392052
1040.000000	0.391905
1041.000000	0.392357
1042.000000	0.392990
1043.000000	0.393779
1044.000000	0.394401
1045.000000	0.394985
1046.000000	0.395547
1047.000000	0.396298
1048.000000	0.397277
1049.000000	0.397691
1050.000000	0.397823
1051.000000	0.398362
1052.000000	0.398708
1053.000000	0.399097
1054.000000	0.399941
1055.000000	0.400841
1056.000000	0.401928
1057.000000	0.402532
1058.000000	0.402969
1059.000000	0.403598
1060.000000	0.403859
1061.000000	0.404366
1062.000000	0.405143
1063.000000	0.405725
1064.000000	0.406292
1065.000000	0.406379
1066.000000	0.406909
1067.000000	0.407810
1068.000000	0.408371
1069.000000	0.408889
1070.000000	0.409351
1071.000000	0.409625
1072.000000	0.409971
1073.000000	0.410243
1074.000000	0.410837
1075.000000	0.411518
1076.000000	0.412312
1077.000000	0.413349
1078.000000	0.413871
1079.000000	0.414417
1080.000000	0.414782
1081.000000	0.415300
1082.000000	0.415892
1083.000000	0.416512
1084.000000	0.417224
1085.000000	0.417967
1086.000000	0.418732
1087.000000	0.419462
1088.000000	0.420110
1089.000000	0.420743
1090.000000	0.421347
1091.000000	0.421767
1092.000000	0.422384
1093.000000	0.423279
1094.000000	0.423734
1095.000000	0.423819
1096.000000	0.424458
1097.000000	0.425117
1098.000000	0.425756
1099.000000	0.426731
1100.000000	0.427543
1101.000000	0.427978
1102.000000	0.428656
1103.000000	0.429602
1104.000000	0.430317
1105.000000	0.430872
1106.000000	0.431515
1107.000000	0.431987
1108.000000	0.432549
1109.000000	0.433330
1110.000000	0.434023
1111.000000	0.434687
1112.000000	0.435360
1113.000000	0.436041
1114.000000	0.436636
1115.000000	0.437369
1116.000000	0.438293
1117.000000	0.438941
1118.000000	0.439332
1119.000000	0.440018
1120.000000	0.440938
1121.000000	0.441463
1122.000000	0.441973
1123.000000	0.442869
1124.000000	0.443241
1125.000000	0.443842
1126.000000	0.444940
1127.000000	0.445644
1128.000000	0.446163
1129.000000	0.446511
1130.000000	0.446824
1131.000000	0.446834
1132.000000	0.447233
1133.000000	0.447774
1134.000000	0.448376
1135.000000	0.449201
1136.000000	0.449803
1137.000000	0.450332
1138.000000	0.450757
1139.000000	0.451193
1140.000000	0.451726
1141.000000	0.452113
1142.000000	0.452599
1143.000000	0.453163
1144.000000	0.453736
1145.000000	0.454147
1146.000000	0.454276
1147.000000	0.454648
1148.000000	0.454844
1149.000000	0.455200
1150.000000	0.455809
1151.000000	0.456213
1152.000000	0.456323
1153.000000	0.456801
1154.000000	0.457433
1155.000000	0.457831
1156.000000	0.458352
1157.000000	0.458742
1158.000000	0.458653
1159.000000	0.458968
1160.000000	0.459574
1161.000000	0.460004
1162.000000	0.460539
1163.000000	0.461266
1164.000000	0.461782
1165.000000	0.462110
1166.000000	0.462543
1167.000000	0.462935
1168.000000	0.463289
1169.000000	0.463645
1170.000000	0.464034
1171.000000	0.464493
1172.000000	0.464973
1173.000000	0.465396
1174.000000	0.465855
1175.000000	0.466320
1176.000000	0.466721
1177.000000	0.467252
1178.000000	0.467703
1179.000000	0.468130
1180.000000	0.468414
1181.000000	0.468707
1182.000000	0.468927
1183.000000	0.469310
1184.000000	0.469879
1185.000000	0.470288
1186.000000	0.470844
1187.000000	0.471111
1188.000000	0.471002
1189.000000	0.471282
1190.000000	0.471843
1191.000000	0.472098
1192.000000	0.472527
1193.000000	0.473020
1194.000000	0.473027
1195.000000	0.473362
1196.000000	0.473979
1197.000000	0.474388
1198.000000	0.474855
1199.000000	0.475201
1200.000000	0.475380
1201.000000	0.475559
1202.000000	0.475791
1203.000000	0.476113
1204.000000	0.476460
1205.000000	0.476834
1206.000000	0.477131
1207.000000	0.477551
1208.000000	0.477774
1209.000000	0.477957
1210.000000	0.478249
1211.000000	0.478465
1212.000000	0.478695
1213.000000	0.479164
1214.000000	0.479467
1215.000000	0.479600
1216.000000	0.479812
1217.000000	0.479924
1218.000000	0.480115
1219.000000	0.480401
1220.000000	0.480717
1221.000000	0.481039
1222.000000	0.481291
1223.000000	0.481452
1224.000000	0.481702
1225.000000	0.482013
1226.000000	0.482240
1227.000000	0.482552
1228.000000	0.482855
1229.000000	0.482965
1230.000000	0.482887
1231.000000	0.482926
1232.000000	0.483041
1233.000000	0.483319
1234.000000	0.483774
1235.000000	0.483969
1236.000000	0.483916
1237.000000	0.484084
1238.000000	0.484186
1239.000000	0.484280
1240.000000	0.484500
1241.000000	0.484595
1242.000000	0.484572
1243.000000	0.484713
1244.000000	0.485031
1245.000000	0.485385
1246.000000	0.485631
1247.000000	0.485957
1248.000000	0.486290
1249.000000	0.486559
1250.000000	0.486879
1251.000000	0.487259
1252.000000	0.487504
1253.000000	0.487729
1254.000000	0.487844
1255.000000	0.487806
1256.000000	0.487872
1257.000000	0.487966
1258.000000	0.488114
1259.000000	0.488198
1260.000000	0.488351
1261.000000	0.488393
1262.000000	0.488506
1263.000000	0.488721
1264.000000	0.488956
1265.000000	0.489113
1266.000000	0.489278
1267.000000	0.489428
1268.000000	0.489577
1269.000000	0.489769
1270.000000	0.490010
1271.000000	0.490076
1272.000000	0.490269
1273.000000	0.490604
1274.000000	0.490673
1275.000000	0.490679
1276.000000	0.490677
1277.000000	0.490726
1278.000000	0.490454
1279.000000	0.490434
1280.000000	0.490450
1281.000000	0.490494
1282.000000	0.490713
1283.000000	0.490978
1284.000000	0.491293
1285.000000	0.491477
1286.000000	0.491618
1287.000000	0.491577
1288.000000	0.491549
1289.000000	0.491466
1290.000000	0.491341
1291.000000	0.491355
1292.000000	0.491380
1293.000000	0.491343
1294.000000	0.491268
1295.000000	0.491211
1296.000000	0.491227
1297.000000	0.491239
1298.000000	0.491363
1299.000000	0.491579
1300.000000	0.491720
1301.000000	0.491799
1302.000000	0.491720
1303.000000	0.491633
1304.000000	0.491534
1305.000000	0.491482
1306.000000	0.491386
1307.000000	0.491397
1308.000000	0.491375
1309.000000	0.491311
1310.000000	0.491233
1311.000000	0.491158
1312.000000	0.491113
1313.000000	0.491045
1314.000000	0.490836
1315.000000	0.490669
1316.000000	0.490486
1317.000000	0.490265
1318.000000	0.490132
1319.000000	0.489896
1320.000000	0.489720
1321.000000	0.489575
1322.000000	0.489280
1323.000000	0.489042
1324.000000	0.488960
1325.000000	0.488762
1326.000000	0.488474
1327.000000	0.488219
1328.000000	0.488038
1329.000000	0.487746
1330.000000	0.487354
1331.000000	0.487088
1332.000000	0.487045
1333.000000	0.486767
1334.000000	0.486449
1335.000000	0.486268
1336.000000	0.486021
1337.000000	0.485745
1338.000000	0.485420
1339.000000	0.485229
1340.000000	0.484923
1341.000000	0.484617
1342.000000	0.484450
1343.000000	0.484233
1344.000000	0.483924
1345.000000	0.483552
1346.000000	0.483172
1347.000000	0.482672
1348.000000	0.482367
1349.000000	0.481912
1350.000000	0.481486
1351.000000	0.481162
1352.000000	0.480740
1353.000000	0.480322
1354.000000	0.479928
1355.000000	0.479474
1356.000000	0.479174
1357.000000	0.478959
1358.000000	0.478831
1359.000000	0.478683
1360.000000	0.478313
1361.000000	0.477682
1362.000000	0.477315
1363.000000	0.476833
1364.000000	0.476521
1365.000000	0.476638
1366.000000	0.476330
1367.000000	0.475819
1368.000000	0.475249
1369.000000	0.474768
1370.000000	0.473967
1371.000000	0.473259
1372.000000	0.472638
1373.000000	0.471856
1374.000000	0.471092
1375.000000	0.470376
1376.000000	0.469628
1377.000000	0.468683
1378.000000	0.467675
1379.000000	0.466489
1380.000000	0.465217
1381.000000	0.464016
1382.000000	0.462716
1383.000000	0.461249
1384.000000	0.459524
1385.000000	0.457643
1386.000000	0.455764
1387.000000	0.453877
1388.000000	0.451890
1389.000000	0.449901
1390.000000	0.447821
1391.000000	0.445506
1392.000000	0.443211
1393.000000	0.440874
1394.000000	0.438523
1395.000000	0.436215
1396.000000	0.433979
1397.000000	0.431516
1398.000000	0.428889
1399.000000	0.426339
1400.000000	0.423642
1401.000000	0.421014
1402.000000	0.418541
1403.000000	0.415974
1404.000000	0.413486
1405.000000	0.410904
1406.000000	0.408220
1407.000000	0.405697
1408.000000	0.403112
1409.000000	0.400740
1410.000000	0.398564
1411.000000	0.396332
1412.000000	0.394117
1413.000000	0.392002
1414.000000	0.390204
1415.000000	0.388681
1416.000000	0.387237
1417.000000	0.386041
1418.000000	0.384824
1419.000000	0.383625
1420.000000	0.382516
1421.000000	0.381514
1422.000000	0.380474
1423.000000	0.379515
1424.000000	0.378472
1425.000000	0.377340
1426.000000	0.376123
1427.000000	0.374705
1428.000000	0.373266
1429.000000	0.371957
1430.000000	0.370752
1431.000000	0.369749
1432.000000	0.368886
1433.000000	0.368159
1434.000000	0.367643
1435.000000	0.367399
1436.000000	0.367388
1437.000000	0.367601
1438.000000	0.367970
1439.000000	0.368621
1440.000000	0.369308
1441.000000	0.370208
1442.000000	0.371168
1443.000000	0.372179
1444.000000	0.373184
1445.000000	0.374189
1446.000000	0.375193
1447.000000	0.376078
1448.000000	0.376858
1449.000000	0.377572
1450.000000	0.378038
1451.000000	0.378359
1452.000000	0.378599
1453.000000	0.378630
1454.000000	0.378575
1455.000000	0.378610
1456.000000	0.378732
1457.000000	0.378905
1458.000000	0.379012
1459.000000	0.379015
1460.000000	0.378859
1461.000000	0.378707
1462.000000	0.378772
1463.000000	0.378706
1464.000000	0.378600
1465.000000	0.378654
1466.000000	0.378508
1467.000000	0.378460
1468.000000	0.378646
1469.000000	0.378804
1470.000000	0.378984
1471.000000	0.379375
1472.000000	0.379823
1473.000000	0.380345
1474.000000	0.380967
1475.000000	0.381559
1476.000000	0.382104
1477.000000	0.382850
1478.000000	0.383628
1479.000000	0.384435
1480.000000	0.385269
1481.000000	0.386002
1482.000000	0.386663
1483.000000	0.387471
1484.000000	0.388330
1485.000000	0.389157
1486.000000	0.390038
1487.000000	0.390815
1488.000000	0.391481
1489.000000	0.392258
1490.000000	0.392925
1491.000000	0.393701
1492.000000	0.394546
1493.000000	0.395319
1494.000000	0.395991
1495.000000	0.396662
1496.000000	0.397324
1497.000000	0.397976
1498.000000	0.398606
1499.000000	0.399315
1500.000000	0.400043
1501.000000	0.400667
1502.000000	0.401275
1503.000000	0.401938
1504.000000	0.402553
1505.000000	0.403044
1506.000000	0.403512
1507.000000	0.403911
1508.000000	0.404442
1509.000000	0.405030
1510.000000	0.405600
1511.000000	0.406324
1512.000000	0.406810
1513.000000	0.407096
1514.000000	0.407475
1515.000000	0.407805
1516.000000	0.408252
1517.000000	0.408752
1518.000000	0.409258
1519.000000	0.409639
1520.000000	0.409912
1521.000000	0.410213
1522.000000	0.410601
1523.000000	0.410966
1524.000000	0.411305
1525.000000	0.411776
1526.000000	0.412197
1527.000000	0.412547
1528.000000	0.412889
1529.000000	0.413122
1530.000000	0.413213
1531.000000	0.413492
1532.000000	0.413844
1533.000000	0.414091
1534.000000	0.414365
1535.000000	0.414687
1536.000000	0.414909
1537.000000	0.415092
1538.000000	0.415238
1539.000000	0.415219
1540.000000	0.415335
1541.000000	0.415626
1542.000000	0.415859
1543.000000	0.416147
1544.000000	0.416310
1545.000000	0.416444
1546.000000	0.416682
1547.000000	0.416849
1548.000000	0.417081
1549.000000	0.417271
1550.000000	0.417315
1551.000000	0.417461
1552.000000	0.417599
1553.000000	0.417705
1554.000000	0.417835
1555.000000	0.417843
1556.000000	0.417891
1557.000000	0.417961
1558.000000	0.418095
1559.000000	0.418311
1560.000000	0.418375
1561.000000	0.418381
1562.000000	0.418458
1563.000000	0.418572
1564.000000	0.418667
1565.000000	0.418836
1566.000000	0.418859
1567.000000	0.418862
1568.000000	0.418888
1569.000000	0.419008
1570.000000	0.419100
1571.000000	0.419201
1572.000000	0.419212
1573.000000	0.419182
1574.000000	0.419174
1575.000000	0.419066
1576.000000	0.419146
1577.000000	0.419333
1578.000000	0.419504
1579.000000	0.419860
1580.000000	0.420064
1581.000000	0.420355
1582.000000	0.420453
1583.000000	0.420359
1584.000000	0.420356
1585.000000	0.420397
1586.000000	0.420446
1587.000000	0.420543
1588.000000	0.420614
1589.000000	0.420679
1590.000000	0.420734
1591.000000	0.420814
1592.000000	0.420913
1593.000000	0.421053
1594.000000	0.421127
1595.000000	0.421244
1596.000000	0.421398
1597.000000	0.421625
1598.000000	0.421684
1599.000000	0.421757
1600.000000	0.421777
1601.000000	0.421666
1602.000000	0.421695
1603.000000	0.421941
1604.000000	0.421971
1605.000000	0.421914
1606.000000	0.421958
1607.000000	0.422037
1608.000000	0.422110
1609.000000	0.422363
1610.000000	0.422493
1611.000000	0.422540
1612.000000	0.422610
1613.000000	0.422834
1614.000000	0.422863
1615.000000	0.422845
1616.000000	0.422991
1617.000000	0.423061
1618.000000	0.423161
1619.000000	0.423335
1620.000000	0.423474
1621.000000	0.423571
1622.000000	0.423828
1623.000000	0.424233
1624.000000	0.424459
1625.000000	0.424417
1626.000000	0.424505
1627.000000	0.424544
1628.000000	0.424759
1629.000000	0.425194
1630.000000	0.425437
1631.000000	0.425526
1632.000000	0.425675
1633.000000	0.425752
1634.000000	0.425951
1635.000000	0.426344
1636.000000	0.426610
1637.000000	0.426895
1638.000000	0.427077
1639.000000	0.427232
1640.000000	0.427400
1641.000000	0.427598
1642.000000	0.427815
1643.000000	0.428107
1644.000000	0.428400
1645.000000	0.428713
1646.000000	0.428947
1647.000000	0.429239
1648.000000	0.429407
1649.000000	0.429576
1650.000000	0.429770
1651.000000	0.429972
1652.000000	0.430233
1653.000000	0.430489
1654.000000	0.430771
1655.000000	0.430952
1656.000000	0.431117
1657.000000	0.431431
1658.000000	0.431603
1659.000000	0.431818
1660.000000	0.432171
1661.000000	0.432395
1662.000000	0.432713
1663.000000	0.433179
1664.000000	0.433498
1665.000000	0.433709
1666.000000	0.434107
1667.000000	0.434440
1668.000000	0.434794
1669.000000	0.435225
1670.000000	0.435448
1671.000000	0.435719
1672.000000	0.436019
1673.000000	0.436198
1674.000000	0.436366
1675.000000	0.436676
1676.000000	0.436892
1677.000000	0.437139
1678.000000	0.437351
1679.000000	0.437382
1680.000000	0.437290
1681.000000	0.437425
1682.000000	0.437753
1683.000000	0.437921
1684.000000	0.438118
1685.000000	0.438232
1686.000000	0.438126
1687.000000	0.438273
1688.000000	0.438440
1689.000000	0.438613
1690.000000	0.438753
1691.000000	0.439008
1692.000000	0.439176
1693.000000	0.439173
1694.000000	0.439228
1695.000000	0.439264
1696.000000	0.439337
1697.000000	0.439365
1698.000000	0.439433
1699.000000	0.439623
1700.000000	0.439923
1701.000000	0.440210
1702.000000	0.440390
1703.000000	0.440422
1704.000000	0.440314
1705.000000	0.440357
1706.000000	0.440462
1707.000000	0.440625
1708.000000	0.440946
1709.000000	0.441043
1710.000000	0.441171
1711.000000	0.441305
1712.000000	0.441422
1713.000000	0.441446
1714.000000	0.441405
1715.000000	0.441523
1716.000000	0.441641
1717.000000	0.441804
1718.000000	0.442200
1719.000000	0.442320
1720.000000	0.442336
1721.000000	0.442351
1722.000000	0.442226
1723.000000	0.442215
1724.000000	0.442234
1725.000000	0.442384
1726.000000	0.442521
1727.000000	0.442677
1728.000000	0.442913
1729.000000	0.442902
1730.000000	0.442945
1731.000000	0.442959
1732.000000	0.442829
1733.000000	0.442946
1734.000000	0.442982
1735.000000	0.443082
1736.000000	0.443278
1737.000000	0.443351
1738.000000	0.443386
1739.000000	0.443503
1740.000000	0.443600
1741.000000	0.443658
1742.000000	0.443781
1743.000000	0.443907
1744.000000	0.443956
1745.000000	0.443978
1746.000000	0.444006
1747.000000	0.444095
1748.000000	0.444028
1749.000000	0.443936
1750.000000	0.443825
1751.000000	0.443746
1752.000000	0.443801
1753.000000	0.443693
1754.000000	0.443739
1755.000000	0.443895
1756.000000	0.443916
1757.000000	0.444031
1758.000000	0.444048
1759.000000	0.443758
1760.000000	0.443687
1761.000000	0.443658
1762.000000	0.443643
1763.000000	0.443801
1764.000000	0.443864
1765.000000	0.443835
1766.000000	0.443840
1767.000000	0.443682
1768.000000	0.443619
1769.000000	0.443725
1770.000000	0.443876
1771.000000	0.444101
1772.000000	0.444187
1773.000000	0.444131
1774.000000	0.444188
1775.000000	0.444306
1776.000000	0.444392
1777.000000	0.444571
1778.000000	0.444521
1779.000000	0.444248
1780.000000	0.444149
1781.000000	0.443937
1782.000000	0.443871
1783.000000	0.444004
1784.000000	0.444177
1785.000000	0.444152
1786.000000	0.444193
1787.000000	0.444429
1788.000000	0.444643
1789.000000	0.444799
1790.000000	0.444999
1791.000000	0.445092
1792.000000	0.445230
1793.000000	0.445334
1794.000000	0.445461
1795.000000	0.445545
1796.000000	0.445523
1797.000000	0.445555
1798.000000	0.445460
1799.000000	0.445530
1800.000000	0.445871
1801.000000	0.445158
1802.000000	0.445296
1803.000000	0.446406
1804.000000	0.446736
1805.000000	0.445804
1806.000000	0.445952
1807.000000	0.446935
1808.000000	0.447373
1809.000000	0.447792
1810.000000	0.447980
1811.000000	0.448472
1812.000000	0.449187
1813.000000	0.449489
1814.000000	0.449827
1815.000000	0.450191
1816.000000	0.450228
1817.000000	0.450069
1818.000000	0.449745
1819.000000	0.450227
1820.000000	0.450250
1821.000000	0.450234
1822.000000	0.450194
1823.000000	0.450592
1824.000000	0.449846
1825.000000	0.447599
1826.000000	0.447084
1827.000000	0.446795
1828.000000	0.446486
1829.000000	0.446668
1830.000000	0.447109
1831.000000	0.446696
1832.000000	0.444930
1833.000000	0.444370
1834.000000	0.443990
1835.000000	0.443808
1836.000000	0.444052
1837.000000	0.444214
1838.000000	0.444473
1839.000000	0.444865
1840.000000	0.444374
1841.000000	0.443545
1842.000000	0.442820
1843.000000	0.441045
1844.000000	0.440669
1845.000000	0.441238
1846.000000	0.441271
1847.000000	0.441374
1848.000000	0.441540
1849.000000	0.441559
1850.000000	0.440679
1851.000000	0.440060
1852.000000	0.439522
1853.000000	0.438766
1854.000000	0.437440
1855.000000	0.436295
1856.000000	0.435257
1857.000000	0.433725
1858.000000	0.431862
1859.000000	0.430224
1860.000000	0.428484
1861.000000	0.426828
1862.000000	0.425454
1863.000000	0.424940
1864.000000	0.423262
1865.000000	0.421307
1866.000000	0.419247
1867.000000	0.416511
1868.000000	0.413642
1869.000000	0.411445
1870.000000	0.408747
1871.000000	0.405072
1872.000000	0.401520
1873.000000	0.398220
1874.000000	0.394730
1875.000000	0.391166
1876.000000	0.387770
1877.000000	0.383859
1878.000000	0.378994
1879.000000	0.374119
1880.000000	0.369505
1881.000000	0.364878
1882.000000	0.360376
1883.000000	0.355751
1884.000000	0.350780
1885.000000	0.345437
1886.000000	0.339477
1887.000000	0.332841
1888.000000	0.326298
1889.000000	0.319243
1890.000000	0.312601
1891.000000	0.306621
1892.000000	0.300014
1893.000000	0.293272
1894.000000	0.286630
1895.000000	0.279830
1896.000000	0.272798
1897.000000	0.266105
1898.000000	0.260031
1899.000000	0.253954
1900.000000	0.247698
1901.000000	0.242153
1902.000000	0.236824
1903.000000	0.232188
1904.000000	0.228915
1905.000000	0.225415
1906.000000	0.222049
1907.000000	0.218876
1908.000000	0.216003
1909.000000	0.212838
1910.000000	0.210710
1911.000000	0.208920
1912.000000	0.207145
1913.000000	0.205980
1914.000000	0.204788
1915.000000	0.203375
1916.000000	0.201723
1917.000000	0.200669
1918.000000	0.200043
1919.000000	0.199476
1920.000000	0.198746
1921.000000	0.199046
1922.000000	0.199298
1923.000000	0.199223
1924.000000	0.199477
1925.000000	0.199664
1926.000000	0.199261
1927.000000	0.199397
1928.000000	0.199715
1929.000000	0.200490
1930.000000	0.200896
1931.000000	0.201585
1932.000000	0.201997
1933.000000	0.202153
1934.000000	0.202644
1935.000000	0.202894
1936.000000	0.203371
1937.000000	0.203940
1938.000000	0.203893
1939.000000	0.204011
1940.000000	0.204169
1941.000000	0.204301
1942.000000	0.204399
1943.000000	0.204997
1944.000000	0.205382
1945.000000	0.205539
1946.000000	0.205457
1947.000000	0.204764
1948.000000	0.204233
1949.000000	0.203636
1950.000000	0.202974
1951.000000	0.202747
1952.000000	0.202941
1953.000000	0.203309
1954.000000	0.204134
1955.000000	0.204816
1956.000000	0.204887
1957.000000	0.205270
1958.000000	0.205016
1959.000000	0.204842
1960.000000	0.205329
1961.000000	0.204698
1962.000000	0.204477
1963.000000	0.204238
1964.000000	0.204544
1965.000000	0.204529
1966.000000	0.205045
1967.000000	0.205734
1968.000000	0.206079
1969.000000	0.206324
1970.000000	0.206853
1971.000000	0.206866
1972.000000	0.206568
1973.000000	0.206700
1974.000000	0.206926
1975.000000	0.207208
1976.000000	0.207669
1977.000000	0.208759
1978.000000	0.209613
1979.000000	0.210623
1980.000000	0.212013
1981.000000	0.213317
1982.000000	0.214090
1983.000000	0.214744
1984.000000	0.215218
1985.000000	0.215238
1986.000000	0.215372
1987.000000	0.215253
1988.000000	0.215806
1989.000000	0.216599
1990.000000	0.218053
1991.000000	0.219716
1992.000000	0.220870
1993.000000	0.221929
1994.000000	0.223009
1995.000000	0.223689
1996.000000	0.224647
1997.000000	0.225616
1998.000000	0.226136
1999.000000	0.227403
2000.000000	0.229268
2001.000000	0.230999
2002.000000	0.232731
2003.000000	0.234900
2004.000000	0.236267
2005.000000	0.236941
2006.000000	0.237580
2007.000000	0.237761
2008.000000	0.238568
2009.000000	0.239485
2010.000000	0.240793
2011.000000	0.242753
2012.000000	0.244243
2013.000000	0.245799
2014.000000	0.246679
2015.000000	0.247644
2016.000000	0.248674
2017.000000	0.249036
2018.000000	0.249738
2019.000000	0.250818
2020.000000	0.251625
2021.000000	0.252976
2022.000000	0.255228
2023.000000	0.256703
2024.000000	0.258230
2025.000000	0.259596
2026.000000	0.260451
2027.000000	0.261162
2028.000000	0.262679
2029.000000	0.263927
2030.000000	0.265480
2031.000000	0.267156
2032.000000	0.268456
2033.000000	0.269973
2034.000000	0.271293
2035.000000	0.272738
2036.000000	0.273897
2037.000000	0.274792
2038.000000	0.275771
2039.000000	0.276870
2040.000000	0.277733
2041.000000	0.278346
2042.000000	0.279769
2043.000000	0.280596
2044.000000	0.281172
2045.000000	0.281351
2046.000000	0.281520
2047.000000	0.282405
2048.000000	0.283447
2049.000000	0.284787
2050.000000	0.286932
2051.000000	0.288131
2052.000000	0.288555
2053.000000	0.289334
2054.000000	0.290175
2055.000000	0.291168
2056.000000	0.292498
2057.000000	0.293912
2058.000000	0.294691
2059.000000	0.295381
2060.000000	0.296341
2061.000000	0.297119
2062.000000	0.298282
2063.000000	0.300146
2064.000000	0.301337
2065.000000	0.302604
2066.000000	0.303571
2067.000000	0.304779
2068.000000	0.305337
2069.000000	0.305372
2070.000000	0.305631
2071.000000	0.305422
2072.000000	0.305890
2073.000000	0.307003
2074.000000	0.307940
2075.000000	0.309110
2076.000000	0.310277
2077.000000	0.311694
2078.000000	0.313862
2079.000000	0.315198
2080.000000	0.316482
2081.000000	0.317764
2082.000000	0.318759
2083.000000	0.319009
2084.000000	0.320639
2085.000000	0.321848
2086.000000	0.322466
2087.000000	0.323583
2088.000000	0.323996
2089.000000	0.324307
2090.000000	0.324911
2091.000000	0.325742
2092.000000	0.326531
2093.000000	0.327363
2094.000000	0.328353
2095.000000	0.329960
2096.000000	0.330940
2097.000000	0.331551
2098.000000	0.332173
2099.000000	0.332906
2100.000000	0.332995
2101.000000	0.333456
2102.000000	0.333959
2103.000000	0.334952
2104.000000	0.335796
2105.000000	0.336775
2106.000000	0.338727
2107.000000	0.339684
2108.000000	0.339787
2109.000000	0.340448
2110.000000	0.340761
2111.000000	0.341180
2112.000000	0.341719
2113.000000	0.342102
2114.000000	0.342415
2115.000000	0.342204
2116.000000	0.342302
2117.000000	0.342500
2118.000000	0.342941
2119.000000	0.344010
2120.000000	0.344368
2121.000000	0.344447
2122.000000	0.344783
2123.000000	0.344538
2124.000000	0.345028
2125.000000	0.346389
2126.000000	0.347100
2127.000000	0.348018
2128.000000	0.348609
2129.000000	0.348673
2130.000000	0.348741
2131.000000	0.348814
2132.000000	0.348481
2133.000000	0.348416
2134.000000	0.348923
2135.000000	0.349436
2136.000000	0.350265
2137.000000	0.350527
2138.000000	0.350729
2139.000000	0.350403
2140.000000	0.348921
2141.000000	0.348741
2142.000000	0.349150
2143.000000	0.349099
2144.000000	0.349682
2145.000000	0.350192
2146.000000	0.350309
2147.000000	0.350988
2148.000000	0.352358
2149.000000	0.353628
2150.000000	0.353802
2151.000000	0.353200
2152.000000	0.352604
2153.000000	0.351256
2154.000000	0.350626
2155.000000	0.350684
2156.000000	0.350404
2157.000000	0.349960
2158.000000	0.350141
2159.000000	0.350599
2160.000000	0.351189
2161.000000	0.352344
2162.000000	0.353070
2163.000000	0.353915
2164.000000	0.354192
2165.000000	0.354112
2166.000000	0.353771
2167.000000	0.353097
2168.000000	0.352146
2169.000000	0.351581
2170.000000	0.351576
2171.000000	0.351311
2172.000000	0.351027
2173.000000	0.351258
2174.000000	0.351909
2175.000000	0.351927
2176.000000	0.352445
2177.000000	0.352424
2178.000000	0.351334
2179.000000	0.350945
2180.000000	0.350566
2181.000000	0.350615
2182.000000	0.350254
2183.000000	0.350175
2184.000000	0.350965
2185.000000	0.351449
2186.000000	0.352165
2187.000000	0.353204
2188.000000	0.352584
2189.000000	0.351537
2190.000000	0.349822
2191.000000	0.348640
2192.000000	0.347917
2193.000000	0.348299
2194.000000	0.347335
2195.000000	0.345939
2196.000000	0.345107
2197.000000	0.343108
2198.000000	0.342646
2199.000000	0.345044
2200.000000	0.345070
2201.000000	0.343624
2202.000000	0.343339
2203.000000	0.342827
2204.000000	0.341205
2205.000000	0.340199
2206.000000	0.340934
2207.000000	0.339043
2208.000000	0.337431
2209.000000	0.337784
2210.000000	0.337558
2211.000000	0.340503
2212.000000	0.343819
2213.000000	0.344912
2214.000000	0.345616
2215.000000	0.345529
2216.000000	0.342321
2217.000000	0.342835
2218.000000	0.344907
2219.000000	0.347182
2220.000000	0.352113
2221.000000	0.352988
2222.000000	0.351937
2223.000000	0.351689
2224.000000	0.348912
2225.000000	0.348965
2226.000000	0.350552
2227.000000	0.350883
2228.000000	0.350280
2229.000000	0.348743
2230.000000	0.347122
2231.000000	0.344837
2232.000000	0.343670
2233.000000	0.344281
2234.000000	0.345866
2235.000000	0.347762
2236.000000	0.348141
2237.000000	0.347895
2238.000000	0.347707
2239.000000	0.346072
2240.000000	0.345969
2241.000000	0.347121
2242.000000	0.347247
2243.000000	0.346942
2244.000000	0.346783
2245.000000	0.345976
2246.000000	0.346340
2247.000000	0.348163
2248.000000	0.348935
2249.000000	0.349839
2250.000000	0.349945
2251.000000	0.350542
2252.000000	0.349156
2253.000000	0.348278
2254.000000	0.348610
2255.000000	0.346909
2256.000000	0.346092
2257.000000	0.345048
2258.000000	0.343310
2259.000000	0.340804
2260.000000	0.337157
2261.000000	0.336090
2262.000000	0.335985
2263.000000	0.335597
2264.000000	0.338361
2265.000000	0.337606
2266.000000	0.334840
2267.000000	0.331998
2268.000000	0.326323
2269.000000	0.323396
2270.000000	0.322461
2271.000000	0.319497
2272.000000	0.316881
2273.000000	0.314060
2274.000000	0.309698
2275.000000	0.305111
2276.000000	0.299853
2277.000000	0.296732
2278.000000	0.291886
2279.000000	0.288825
2280.000000	0.287817
2281.000000	0.286603
2282.000000	0.286294
2283.000000	0.284507
2284.000000	0.284087
2285.000000	0.284914
2286.000000	0.285219
2287.000000	0.286822
2288.000000	0.287385
2289.000000	0.287454
2290.000000	0.286444
2291.000000	0.287338
2292.000000	0.289566
2293.000000	0.290176
2294.000000	0.291683
2295.000000	0.294477
2296.000000	0.294848
2297.000000	0.293872
2298.000000	0.294427
2299.000000	0.294109
2300.000000	0.295157
2301.000000	0.298295
2302.000000	0.299424
2303.000000	0.300083
2304.000000	0.301129
2305.000000	0.301468
2306.000000	0.302294
2307.000000	0.303984
2308.000000	0.303977
2309.000000	0.303205
2310.000000	0.303433
2311.000000	0.304773
2312.000000	0.306238
2313.000000	0.308939
2314.000000	0.308953
2315.000000	0.305925
2316.000000	0.303205
2317.000000	0.300072
2318.000000	0.297924
2319.000000	0.297647
2320.000000	0.297293
2321.000000	0.297596
2322.000000	0.297847
2323.000000	0.297110
2324.000000	0.296761
2325.000000	0.294584
2326.000000	0.290843
2327.000000	0.288128
2328.000000	0.286366
2329.000000	0.285731
2330.000000	0.286818
2331.000000	0.287733
2332.000000	0.289154
2333.000000	0.289261
2334.000000	0.286950
2335.000000	0.285756
2336.000000	0.283146
2337.000000	0.280973
2338.000000	0.279012
2339.000000	0.279507
2340.000000	0.282111
2341.000000	0.281799
2342.000000	0.282478
2343.000000	0.280192
2344.000000	0.273598
2345.000000	0.269485
2346.000000	0.264963
2347.000000	0.261654
2348.000000	0.259139
2349.000000	0.257212
2350.000000	0.256091
2351.000000	0.257822
2352.000000	0.257027
2353.000000	0.257827
2354.000000	0.258124
2355.000000	0.253154
2356.000000	0.251528
2357.000000	0.249506
2358.000000	0.246758
2359.000000	0.248514
2360.000000	0.247776
2361.000000	0.245957
2362.000000	0.243950
2363.000000	0.240536
2364.000000	0.238317
2365.000000	0.235337
2366.000000	0.233662
2367.000000	0.234423
2368.000000	0.235216
2369.000000	0.235173
2370.000000	0.231563
2371.000000	0.226220
2372.000000	0.221730
2373.000000	0.217511
2374.000000	0.216528
2375.000000	0.218766
2376.000000	0.222261
2377.000000	0.220965
2378.000000	0.215207
2379.000000	0.211172
2380.000000	0.205259
2381.000000	0.203946
2382.000000	0.206265
2383.000000	0.205694
2384.000000	0.205136
2385.000000	0.201877
2386.000000	0.201952
2387.000000	0.206366
2388.000000	0.205627
2389.000000	0.207878
2390.000000	0.212320
2391.000000	0.208753
2392.000000	0.209782
2393.000000	0.212498
2394.000000	0.206317
2395.000000	0.200401
2396.000000	0.194789
2397.000000	0.186518
2398.000000	0.183740
2399.000000	0.179884
2400.000000	0.178226
2401.000000	0.186640
2402.000000	0.191688
2403.000000	0.201300
2404.000000	0.210463
2405.000000	0.203723
2406.000000	0.195557
2407.000000	0.192082
2408.000000	0.190729
2409.000000	0.194214
2410.000000	0.198211
2411.000000	0.196490
2412.000000	0.194120
2413.000000	0.191820
2414.000000	0.190309
2415.000000	0.195322
2416.000000	0.199967
2417.000000	0.197651
2418.000000	0.196587
2419.000000	0.196143
2420.000000	0.190079
2421.000000	0.186615
2422.000000	0.184125
2423.000000	0.180507
2424.000000	0.174783
2425.000000	0.172420
2426.000000	0.176104
2427.000000	0.175614
2428.000000	0.186341
2429.000000	0.197057
2430.000000	0.196311
2431.000000	0.197990
2432.000000	0.192791
2433.000000	0.187368
2434.000000	0.184398
2435.000000	0.180888
2436.000000	0.180739
2437.000000	0.177843
2438.000000	0.175190
2439.000000	0.171268
2440.000000	0.164682
2441.000000	0.160033
2442.000000	0.161015
2443.000000	0.173225
2444.000000	0.177958
2445.000000	0.179759
2446.000000	0.185110
2447.000000	0.173213
2448.000000	0.163655
2449.000000	0.162418
2450.000000	0.157355
2451.000000	0.150066
2452.000000	0.155741
2453.000000	0.163525
2454.000000	0.152954
2455.000000	0.152284
2456.000000	0.154878
2457.000000	0.151986
2458.000000	0.151802
2459.000000	0.144670
2460.000000	0.129431
2461.000000	0.115051
2462.000000	0.114917
2463.000000	0.125210
2464.000000	0.142179
2465.000000	0.155286
2466.000000	0.161162
2467.000000	0.153583
2468.000000	0.142561
2469.000000	0.149805
2470.000000	0.163315
2471.000000	0.182746
2472.000000	0.192297
2473.000000	0.165224
2474.000000	0.118434
2475.000000	0.088274
2476.000000	0.083512
2477.000000	0.094800
2478.000000	0.123828
2479.000000	0.142480
2480.000000	0.143984
2481.000000	0.146077
2482.000000	0.136025
2483.000000	0.119789
2484.000000	0.100625
2485.000000	0.101954
2486.000000	0.106207
2487.000000	0.108642
2488.000000	0.131476
2489.000000	0.109976
2490.000000	0.090093
2491.000000	0.084119
2492.000000	0.091427
2493.000000	0.142163
2494.000000	0.163598
2495.000000	0.190482
2496.000000	0.172413
2497.000000	0.087911
2498.000000	0.079950
2499.000000	0.087424
2500.000000	0.093179
