# Wavelength	Nau-2_80_FV7_20_00000.asd.rts.txt
350.000000	0.071900
351.000000	0.021738
352.000000	0.047007
353.000000	0.074356
354.000000	0.068137
355.000000	0.071294
356.000000	0.068707
357.000000	0.063687
358.000000	0.071639
359.000000	0.069501
360.000000	0.065714
361.000000	0.072713
362.000000	0.075915
363.000000	0.077010
364.000000	0.077579
365.000000	0.076456
366.000000	0.072128
367.000000	0.065505
368.000000	0.059501
369.000000	0.061675
370.000000	0.066899
371.000000	0.067144
372.000000	0.067968
373.000000	0.065975
374.000000	0.060803
375.000000	0.061479
376.000000	0.066359
377.000000	0.071691
378.000000	0.071129
379.000000	0.072434
380.000000	0.073133
381.000000	0.069181
382.000000	0.069526
383.000000	0.070606
384.000000	0.069534
385.000000	0.068891
386.000000	0.068599
387.000000	0.069127
388.000000	0.071891
389.000000	0.070799
390.000000	0.068531
391.000000	0.070248
392.000000	0.070959
393.000000	0.072173
394.000000	0.074504
395.000000	0.072437
396.000000	0.071580
397.000000	0.073361
398.000000	0.073871
399.000000	0.073928
400.000000	0.073982
401.000000	0.074389
402.000000	0.074028
403.000000	0.073847
404.000000	0.074538
405.000000	0.074107
406.000000	0.073301
407.000000	0.072886
408.000000	0.073645
409.000000	0.074310
410.000000	0.074782
411.000000	0.075581
412.000000	0.075303
413.000000	0.074916
414.000000	0.075610
415.000000	0.076629
416.000000	0.077169
417.000000	0.077018
418.000000	0.077087
419.000000	0.077614
420.000000	0.078235
421.000000	0.077986
422.000000	0.077894
423.000000	0.078223
424.000000	0.078935
425.000000	0.079299
426.000000	0.079438
427.000000	0.079561
428.000000	0.079728
429.000000	0.080335
430.000000	0.081137
431.000000	0.080919
432.000000	0.081002
433.000000	0.081403
434.000000	0.081640
435.000000	0.082271
436.000000	0.082807
437.000000	0.082803
438.000000	0.082901
439.000000	0.083303
440.000000	0.083878
441.000000	0.083694
442.000000	0.083831
443.000000	0.084299
444.000000	0.084434
445.000000	0.084927
446.000000	0.085620
447.000000	0.086079
448.000000	0.086242
449.000000	0.086373
450.000000	0.086718
451.000000	0.087412
452.000000	0.088096
453.000000	0.088535
454.000000	0.088646
455.000000	0.089210
456.000000	0.089904
457.000000	0.089953
458.000000	0.090564
459.000000	0.091236
460.000000	0.091440
461.000000	0.091701
462.000000	0.092002
463.000000	0.092263
464.000000	0.092504
465.000000	0.092812
466.000000	0.093173
467.000000	0.093560
468.000000	0.094098
469.000000	0.094538
470.000000	0.094678
471.000000	0.094817
472.000000	0.095137
473.000000	0.095642
474.000000	0.095848
475.000000	0.096338
476.000000	0.097088
477.000000	0.097280
478.000000	0.097111
479.000000	0.097163
480.000000	0.097987
481.000000	0.098450
482.000000	0.098771
483.000000	0.099197
484.000000	0.099521
485.000000	0.099619
486.000000	0.099653
487.000000	0.100120
488.000000	0.100550
489.000000	0.100709
490.000000	0.100470
491.000000	0.100642
492.000000	0.100929
493.000000	0.100805
494.000000	0.101043
495.000000	0.101299
496.000000	0.101298
497.000000	0.101333
498.000000	0.101304
499.000000	0.101300
500.000000	0.101600
501.000000	0.101790
502.000000	0.101824
503.000000	0.101789
504.000000	0.101865
505.000000	0.102052
506.000000	0.102322
507.000000	0.102740
508.000000	0.103125
509.000000	0.103399
510.000000	0.103758
511.000000	0.104050
512.000000	0.104326
513.000000	0.104788
514.000000	0.105163
515.000000	0.105508
516.000000	0.105937
517.000000	0.106289
518.000000	0.106677
519.000000	0.107142
520.000000	0.107519
521.000000	0.107962
522.000000	0.108520
523.000000	0.109066
524.000000	0.109801
525.000000	0.110651
526.000000	0.111419
527.000000	0.112387
528.000000	0.113462
529.000000	0.114534
530.000000	0.115759
531.000000	0.117188
532.000000	0.118725
533.000000	0.120056
534.000000	0.121471
535.000000	0.123040
536.000000	0.124655
537.000000	0.126113
538.000000	0.127464
539.000000	0.128855
540.000000	0.130168
541.000000	0.131429
542.000000	0.132686
543.000000	0.133880
544.000000	0.134991
545.000000	0.136059
546.000000	0.137381
547.000000	0.138624
548.000000	0.139798
549.000000	0.141096
550.000000	0.142608
551.000000	0.144261
552.000000	0.145912
553.000000	0.147649
554.000000	0.149429
555.000000	0.151253
556.000000	0.153296
557.000000	0.155372
558.000000	0.157477
559.000000	0.159652
560.000000	0.161793
561.000000	0.163953
562.000000	0.166163
563.000000	0.168251
564.000000	0.170256
565.000000	0.172190
566.000000	0.174082
567.000000	0.175817
568.000000	0.177342
569.000000	0.178798
570.000000	0.180125
571.000000	0.181328
572.000000	0.182487
573.000000	0.183457
574.000000	0.184289
575.000000	0.185123
576.000000	0.185791
577.000000	0.186325
578.000000	0.186814
579.000000	0.187238
580.000000	0.187601
581.000000	0.187866
582.000000	0.187915
583.000000	0.187904
584.000000	0.187881
585.000000	0.187836
586.000000	0.187573
587.000000	0.187196
588.000000	0.186863
589.000000	0.186530
590.000000	0.186079
591.000000	0.185483
592.000000	0.184924
593.000000	0.184398
594.000000	0.183864
595.000000	0.183229
596.000000	0.182562
597.000000	0.181875
598.000000	0.181101
599.000000	0.180271
600.000000	0.179402
601.000000	0.178485
602.000000	0.177699
603.000000	0.176886
604.000000	0.175993
605.000000	0.175144
606.000000	0.174328
607.000000	0.173538
608.000000	0.172754
609.000000	0.171988
610.000000	0.171215
611.000000	0.170415
612.000000	0.169693
613.000000	0.169009
614.000000	0.168331
615.000000	0.167605
616.000000	0.166902
617.000000	0.166218
618.000000	0.165530
619.000000	0.164889
620.000000	0.164271
621.000000	0.163660
622.000000	0.163041
623.000000	0.162428
624.000000	0.161843
625.000000	0.161329
626.000000	0.160855
627.000000	0.160383
628.000000	0.159845
629.000000	0.159381
630.000000	0.158968
631.000000	0.158652
632.000000	0.158393
633.000000	0.158125
634.000000	0.157803
635.000000	0.157585
636.000000	0.157375
637.000000	0.157120
638.000000	0.156911
639.000000	0.156748
640.000000	0.156646
641.000000	0.156544
642.000000	0.156497
643.000000	0.156481
644.000000	0.156454
645.000000	0.156448
646.000000	0.156507
647.000000	0.156622
648.000000	0.156679
649.000000	0.156812
650.000000	0.157036
651.000000	0.157249
652.000000	0.157431
653.000000	0.157649
654.000000	0.157970
655.000000	0.158324
656.000000	0.158705
657.000000	0.159092
658.000000	0.159535
659.000000	0.160011
660.000000	0.160489
661.000000	0.160916
662.000000	0.161457
663.000000	0.162120
664.000000	0.162763
665.000000	0.163432
666.000000	0.164146
667.000000	0.164902
668.000000	0.165699
669.000000	0.166565
670.000000	0.167496
671.000000	0.168408
672.000000	0.169379
673.000000	0.170406
674.000000	0.171440
675.000000	0.172472
676.000000	0.173554
677.000000	0.174745
678.000000	0.175905
679.000000	0.177135
680.000000	0.178485
681.000000	0.179809
682.000000	0.181153
683.000000	0.182527
684.000000	0.184060
685.000000	0.185560
686.000000	0.187062
687.000000	0.188641
688.000000	0.190244
689.000000	0.191916
690.000000	0.193701
691.000000	0.195515
692.000000	0.197341
693.000000	0.199221
694.000000	0.201146
695.000000	0.203129
696.000000	0.205157
697.000000	0.207204
698.000000	0.209313
699.000000	0.211455
700.000000	0.213614
701.000000	0.215831
702.000000	0.218136
703.000000	0.220498
704.000000	0.222846
705.000000	0.225233
706.000000	0.227631
707.000000	0.230060
708.000000	0.232516
709.000000	0.235025
710.000000	0.237613
711.000000	0.240238
712.000000	0.242901
713.000000	0.245630
714.000000	0.248461
715.000000	0.251257
716.000000	0.254057
717.000000	0.256952
718.000000	0.259828
719.000000	0.262692
720.000000	0.265580
721.000000	0.268506
722.000000	0.271400
723.000000	0.274294
724.000000	0.277205
725.000000	0.280075
726.000000	0.282998
727.000000	0.285971
728.000000	0.288901
729.000000	0.291816
730.000000	0.294706
731.000000	0.297597
732.000000	0.300429
733.000000	0.303254
734.000000	0.306176
735.000000	0.308995
736.000000	0.311789
737.000000	0.314494
738.000000	0.317104
739.000000	0.319763
740.000000	0.322399
741.000000	0.325065
742.000000	0.327723
743.000000	0.330313
744.000000	0.332855
745.000000	0.335290
746.000000	0.337685
747.000000	0.340041
748.000000	0.342365
749.000000	0.344686
750.000000	0.346967
751.000000	0.349141
752.000000	0.351253
753.000000	0.353322
754.000000	0.355326
755.000000	0.357327
756.000000	0.359281
757.000000	0.361092
758.000000	0.362916
759.000000	0.364695
760.000000	0.366330
761.000000	0.367972
762.000000	0.369594
763.000000	0.371150
764.000000	0.372674
765.000000	0.374154
766.000000	0.375560
767.000000	0.376864
768.000000	0.378125
769.000000	0.379323
770.000000	0.380455
771.000000	0.381530
772.000000	0.382675
773.000000	0.383800
774.000000	0.384881
775.000000	0.385800
776.000000	0.386666
777.000000	0.387531
778.000000	0.388277
779.000000	0.388972
780.000000	0.389652
781.000000	0.390295
782.000000	0.390964
783.000000	0.391719
784.000000	0.392371
785.000000	0.392901
786.000000	0.393360
787.000000	0.393771
788.000000	0.394102
789.000000	0.394456
790.000000	0.394835
791.000000	0.395247
792.000000	0.395659
793.000000	0.396078
794.000000	0.396488
795.000000	0.396737
796.000000	0.396917
797.000000	0.397076
798.000000	0.397234
799.000000	0.397362
800.000000	0.397488
801.000000	0.397640
802.000000	0.397696
803.000000	0.397702
804.000000	0.397759
805.000000	0.397897
806.000000	0.397930
807.000000	0.397944
808.000000	0.397954
809.000000	0.397978
810.000000	0.398038
811.000000	0.398103
812.000000	0.398057
813.000000	0.397944
814.000000	0.397769
815.000000	0.397544
816.000000	0.397361
817.000000	0.397243
818.000000	0.397082
819.000000	0.396959
820.000000	0.396811
821.000000	0.396572
822.000000	0.396376
823.000000	0.396245
824.000000	0.396068
825.000000	0.395854
826.000000	0.395673
827.000000	0.395463
828.000000	0.395231
829.000000	0.394961
830.000000	0.394667
831.000000	0.394437
832.000000	0.394184
833.000000	0.393928
834.000000	0.393633
835.000000	0.393318
836.000000	0.392996
837.000000	0.392650
838.000000	0.392343
839.000000	0.392136
840.000000	0.391872
841.000000	0.391569
842.000000	0.391242
843.000000	0.391006
844.000000	0.390789
845.000000	0.390512
846.000000	0.390192
847.000000	0.389854
848.000000	0.389507
849.000000	0.389181
850.000000	0.388759
851.000000	0.388325
852.000000	0.387980
853.000000	0.387694
854.000000	0.387355
855.000000	0.387034
856.000000	0.386631
857.000000	0.386215
858.000000	0.385971
859.000000	0.385789
860.000000	0.385375
861.000000	0.384894
862.000000	0.384471
863.000000	0.384108
864.000000	0.383791
865.000000	0.383415
866.000000	0.382962
867.000000	0.382461
868.000000	0.382055
869.000000	0.381670
870.000000	0.381296
871.000000	0.381002
872.000000	0.380633
873.000000	0.380101
874.000000	0.379761
875.000000	0.379372
876.000000	0.378939
877.000000	0.378481
878.000000	0.378046
879.000000	0.377609
880.000000	0.377033
881.000000	0.376614
882.000000	0.376189
883.000000	0.375789
884.000000	0.375425
885.000000	0.375132
886.000000	0.374773
887.000000	0.374329
888.000000	0.373908
889.000000	0.373591
890.000000	0.373215
891.000000	0.372803
892.000000	0.372303
893.000000	0.371849
894.000000	0.371601
895.000000	0.371250
896.000000	0.370799
897.000000	0.370381
898.000000	0.370122
899.000000	0.369764
900.000000	0.369304
901.000000	0.368798
902.000000	0.368518
903.000000	0.368188
904.000000	0.367828
905.000000	0.367410
906.000000	0.367026
907.000000	0.366669
908.000000	0.366401
909.000000	0.366141
910.000000	0.365744
911.000000	0.365332
912.000000	0.365013
913.000000	0.364504
914.000000	0.363941
915.000000	0.363513
916.000000	0.363222
917.000000	0.362905
918.000000	0.362679
919.000000	0.362536
920.000000	0.362121
921.000000	0.361637
922.000000	0.361265
923.000000	0.361077
924.000000	0.360623
925.000000	0.360244
926.000000	0.360101
927.000000	0.359749
928.000000	0.359390
929.000000	0.359034
930.000000	0.358647
931.000000	0.358250
932.000000	0.357832
933.000000	0.357506
934.000000	0.357383
935.000000	0.357172
936.000000	0.356852
937.000000	0.356393
938.000000	0.356055
939.000000	0.355752
940.000000	0.355380
941.000000	0.355023
942.000000	0.354642
943.000000	0.354391
944.000000	0.354209
945.000000	0.354128
946.000000	0.353942
947.000000	0.353758
948.000000	0.353647
949.000000	0.353438
950.000000	0.353146
951.000000	0.352769
952.000000	0.352425
953.000000	0.352068
954.000000	0.351635
955.000000	0.351109
956.000000	0.350932
957.000000	0.350916
958.000000	0.350697
959.000000	0.350132
960.000000	0.349955
961.000000	0.349744
962.000000	0.349365
963.000000	0.349184
964.000000	0.348957
965.000000	0.348746
966.000000	0.348514
967.000000	0.348357
968.000000	0.348168
969.000000	0.347884
970.000000	0.347651
971.000000	0.347706
972.000000	0.347558
973.000000	0.347193
974.000000	0.347440
975.000000	0.347367
976.000000	0.347266
977.000000	0.347372
978.000000	0.346982
979.000000	0.346602
980.000000	0.346251
981.000000	0.346245
982.000000	0.346234
983.000000	0.346121
984.000000	0.345929
985.000000	0.345642
986.000000	0.345642
987.000000	0.345758
988.000000	0.345645
989.000000	0.345275
990.000000	0.345535
991.000000	0.345624
992.000000	0.344747
993.000000	0.344847
994.000000	0.345023
995.000000	0.345118
996.000000	0.345124
997.000000	0.345010
998.000000	0.344925
999.000000	0.345067
1000.000000	0.345362
1001.000000	0.344773
1002.000000	0.345068
1003.000000	0.345513
1004.000000	0.345760
1005.000000	0.345762
1006.000000	0.345796
1007.000000	0.346039
1008.000000	0.346001
1009.000000	0.345347
1010.000000	0.344815
1011.000000	0.344404
1012.000000	0.344400
1013.000000	0.344889
1014.000000	0.344924
1015.000000	0.345103
1016.000000	0.345348
1017.000000	0.345038
1018.000000	0.345562
1019.000000	0.345640
1020.000000	0.345316
1021.000000	0.345198
1022.000000	0.345573
1023.000000	0.345628
1024.000000	0.345550
1025.000000	0.345580
1026.000000	0.345278
1027.000000	0.345531
1028.000000	0.345930
1029.000000	0.346696
1030.000000	0.347391
1031.000000	0.346997
1032.000000	0.346454
1033.000000	0.346362
1034.000000	0.346584
1035.000000	0.347169
1036.000000	0.347490
1037.000000	0.348436
1038.000000	0.348589
1039.000000	0.348153
1040.000000	0.347959
1041.000000	0.348222
1042.000000	0.347763
1043.000000	0.347876
1044.000000	0.348565
1045.000000	0.348926
1046.000000	0.349470
1047.000000	0.349573
1048.000000	0.349126
1049.000000	0.349308
1050.000000	0.349575
1051.000000	0.349752
1052.000000	0.350389
1053.000000	0.350562
1054.000000	0.350302
1055.000000	0.350464
1056.000000	0.350787
1057.000000	0.351209
1058.000000	0.351570
1059.000000	0.352021
1060.000000	0.352410
1061.000000	0.352891
1062.000000	0.353366
1063.000000	0.353415
1064.000000	0.353699
1065.000000	0.353903
1066.000000	0.354160
1067.000000	0.354427
1068.000000	0.354726
1069.000000	0.355141
1070.000000	0.355169
1071.000000	0.354853
1072.000000	0.354997
1073.000000	0.355069
1074.000000	0.355451
1075.000000	0.356184
1076.000000	0.356930
1077.000000	0.357101
1078.000000	0.357014
1079.000000	0.357114
1080.000000	0.356956
1081.000000	0.357246
1082.000000	0.358057
1083.000000	0.358494
1084.000000	0.359128
1085.000000	0.359475
1086.000000	0.359416
1087.000000	0.359565
1088.000000	0.359491
1089.000000	0.359623
1090.000000	0.359796
1091.000000	0.360111
1092.000000	0.360724
1093.000000	0.361321
1094.000000	0.361645
1095.000000	0.361840
1096.000000	0.362120
1097.000000	0.362072
1098.000000	0.362527
1099.000000	0.363491
1100.000000	0.363834
1101.000000	0.363960
1102.000000	0.364146
1103.000000	0.363857
1104.000000	0.363975
1105.000000	0.364492
1106.000000	0.364782
1107.000000	0.364944
1108.000000	0.365152
1109.000000	0.365461
1110.000000	0.365551
1111.000000	0.365931
1112.000000	0.366508
1113.000000	0.366876
1114.000000	0.367345
1115.000000	0.367608
1116.000000	0.367667
1117.000000	0.367779
1118.000000	0.367709
1119.000000	0.367847
1120.000000	0.368082
1121.000000	0.368294
1122.000000	0.368886
1123.000000	0.369326
1124.000000	0.369232
1125.000000	0.369423
1126.000000	0.369575
1127.000000	0.369685
1128.000000	0.369825
1129.000000	0.370099
1130.000000	0.370433
1131.000000	0.370790
1132.000000	0.371072
1133.000000	0.371561
1134.000000	0.371878
1135.000000	0.372033
1136.000000	0.372096
1137.000000	0.372121
1138.000000	0.372043
1139.000000	0.371767
1140.000000	0.371786
1141.000000	0.371774
1142.000000	0.371920
1143.000000	0.372229
1144.000000	0.372604
1145.000000	0.372980
1146.000000	0.373183
1147.000000	0.373262
1148.000000	0.373062
1149.000000	0.373131
1150.000000	0.373105
1151.000000	0.373335
1152.000000	0.373801
1153.000000	0.374108
1154.000000	0.374409
1155.000000	0.374645
1156.000000	0.374737
1157.000000	0.374980
1158.000000	0.375299
1159.000000	0.375508
1160.000000	0.375676
1161.000000	0.375903
1162.000000	0.376263
1163.000000	0.376521
1164.000000	0.376631
1165.000000	0.376814
1166.000000	0.377073
1167.000000	0.377170
1168.000000	0.377365
1169.000000	0.377859
1170.000000	0.378072
1171.000000	0.378125
1172.000000	0.378358
1173.000000	0.378575
1174.000000	0.378751
1175.000000	0.378952
1176.000000	0.379052
1177.000000	0.379093
1178.000000	0.379244
1179.000000	0.379444
1180.000000	0.379583
1181.000000	0.379903
1182.000000	0.380089
1183.000000	0.380165
1184.000000	0.380384
1185.000000	0.380640
1186.000000	0.380952
1187.000000	0.381131
1188.000000	0.381346
1189.000000	0.381464
1190.000000	0.381472
1191.000000	0.381585
1192.000000	0.381894
1193.000000	0.382173
1194.000000	0.382322
1195.000000	0.382452
1196.000000	0.382383
1197.000000	0.382527
1198.000000	0.382780
1199.000000	0.383025
1200.000000	0.383407
1201.000000	0.383735
1202.000000	0.383932
1203.000000	0.384105
1204.000000	0.384306
1205.000000	0.384628
1206.000000	0.384785
1207.000000	0.385053
1208.000000	0.385169
1209.000000	0.385147
1210.000000	0.385285
1211.000000	0.385511
1212.000000	0.385653
1213.000000	0.385861
1214.000000	0.386078
1215.000000	0.386204
1216.000000	0.386389
1217.000000	0.386583
1218.000000	0.386786
1219.000000	0.387072
1220.000000	0.387318
1221.000000	0.387497
1222.000000	0.387708
1223.000000	0.387848
1224.000000	0.388020
1225.000000	0.388234
1226.000000	0.388451
1227.000000	0.388554
1228.000000	0.388776
1229.000000	0.388934
1230.000000	0.389035
1231.000000	0.389094
1232.000000	0.389254
1233.000000	0.389540
1234.000000	0.389850
1235.000000	0.390129
1236.000000	0.390403
1237.000000	0.390662
1238.000000	0.390839
1239.000000	0.390979
1240.000000	0.391049
1241.000000	0.391212
1242.000000	0.391500
1243.000000	0.391550
1244.000000	0.391639
1245.000000	0.391950
1246.000000	0.392088
1247.000000	0.392405
1248.000000	0.392802
1249.000000	0.392992
1250.000000	0.393204
1251.000000	0.393390
1252.000000	0.393556
1253.000000	0.393815
1254.000000	0.394008
1255.000000	0.394070
1256.000000	0.394266
1257.000000	0.394615
1258.000000	0.394834
1259.000000	0.394912
1260.000000	0.395136
1261.000000	0.395233
1262.000000	0.395408
1263.000000	0.395721
1264.000000	0.396034
1265.000000	0.396337
1266.000000	0.396672
1267.000000	0.396946
1268.000000	0.397134
1269.000000	0.397260
1270.000000	0.397396
1271.000000	0.397439
1272.000000	0.397581
1273.000000	0.397775
1274.000000	0.397909
1275.000000	0.398102
1276.000000	0.398453
1277.000000	0.398744
1278.000000	0.398890
1279.000000	0.399044
1280.000000	0.399180
1281.000000	0.399250
1282.000000	0.399258
1283.000000	0.399451
1284.000000	0.399648
1285.000000	0.399733
1286.000000	0.399755
1287.000000	0.399894
1288.000000	0.400006
1289.000000	0.400075
1290.000000	0.400279
1291.000000	0.400535
1292.000000	0.400642
1293.000000	0.400775
1294.000000	0.400894
1295.000000	0.401011
1296.000000	0.401229
1297.000000	0.401378
1298.000000	0.401550
1299.000000	0.401752
1300.000000	0.401996
1301.000000	0.402211
1302.000000	0.402337
1303.000000	0.402624
1304.000000	0.402730
1305.000000	0.402794
1306.000000	0.402882
1307.000000	0.402988
1308.000000	0.403106
1309.000000	0.403245
1310.000000	0.403326
1311.000000	0.403489
1312.000000	0.403380
1313.000000	0.403207
1314.000000	0.403235
1315.000000	0.403134
1316.000000	0.403207
1317.000000	0.403508
1318.000000	0.403584
1319.000000	0.403530
1320.000000	0.403678
1321.000000	0.403542
1322.000000	0.403252
1323.000000	0.403372
1324.000000	0.403477
1325.000000	0.403455
1326.000000	0.403602
1327.000000	0.403556
1328.000000	0.403394
1329.000000	0.403328
1330.000000	0.403392
1331.000000	0.403428
1332.000000	0.403575
1333.000000	0.403608
1334.000000	0.403630
1335.000000	0.403754
1336.000000	0.403871
1337.000000	0.403935
1338.000000	0.403985
1339.000000	0.404028
1340.000000	0.403952
1341.000000	0.404149
1342.000000	0.404375
1343.000000	0.404443
1344.000000	0.404571
1345.000000	0.404524
1346.000000	0.404655
1347.000000	0.404817
1348.000000	0.404953
1349.000000	0.404991
1350.000000	0.404758
1351.000000	0.404579
1352.000000	0.404506
1353.000000	0.404358
1354.000000	0.404435
1355.000000	0.404443
1356.000000	0.404318
1357.000000	0.404269
1358.000000	0.404319
1359.000000	0.404291
1360.000000	0.404222
1361.000000	0.404225
1362.000000	0.404115
1363.000000	0.403779
1364.000000	0.403725
1365.000000	0.403803
1366.000000	0.403740
1367.000000	0.403770
1368.000000	0.403580
1369.000000	0.403306
1370.000000	0.403006
1371.000000	0.402766
1372.000000	0.402447
1373.000000	0.402082
1374.000000	0.401752
1375.000000	0.401176
1376.000000	0.400817
1377.000000	0.400575
1378.000000	0.400084
1379.000000	0.399437
1380.000000	0.398796
1381.000000	0.398030
1382.000000	0.396983
1383.000000	0.396105
1384.000000	0.395111
1385.000000	0.393731
1386.000000	0.392411
1387.000000	0.391013
1388.000000	0.389265
1389.000000	0.387440
1390.000000	0.385626
1391.000000	0.383572
1392.000000	0.381480
1393.000000	0.379275
1394.000000	0.377086
1395.000000	0.374720
1396.000000	0.372100
1397.000000	0.369578
1398.000000	0.367005
1399.000000	0.364465
1400.000000	0.361847
1401.000000	0.359382
1402.000000	0.357024
1403.000000	0.354616
1404.000000	0.352499
1405.000000	0.350671
1406.000000	0.348875
1407.000000	0.347182
1408.000000	0.345551
1409.000000	0.344222
1410.000000	0.343258
1411.000000	0.342450
1412.000000	0.341792
1413.000000	0.341242
1414.000000	0.340661
1415.000000	0.340333
1416.000000	0.340325
1417.000000	0.340415
1418.000000	0.340439
1419.000000	0.340477
1420.000000	0.340454
1421.000000	0.340548
1422.000000	0.340805
1423.000000	0.341125
1424.000000	0.341229
1425.000000	0.341264
1426.000000	0.341296
1427.000000	0.341474
1428.000000	0.341794
1429.000000	0.342108
1430.000000	0.342330
1431.000000	0.342468
1432.000000	0.342650
1433.000000	0.342772
1434.000000	0.343016
1435.000000	0.343506
1436.000000	0.343895
1437.000000	0.344200
1438.000000	0.344675
1439.000000	0.345167
1440.000000	0.345832
1441.000000	0.346662
1442.000000	0.347705
1443.000000	0.348843
1444.000000	0.350136
1445.000000	0.351587
1446.000000	0.353038
1447.000000	0.354502
1448.000000	0.356046
1449.000000	0.357574
1450.000000	0.359036
1451.000000	0.360415
1452.000000	0.361607
1453.000000	0.362716
1454.000000	0.363729
1455.000000	0.364712
1456.000000	0.365723
1457.000000	0.366643
1458.000000	0.367476
1459.000000	0.368194
1460.000000	0.368902
1461.000000	0.369577
1462.000000	0.370270
1463.000000	0.370945
1464.000000	0.371492
1465.000000	0.372225
1466.000000	0.372989
1467.000000	0.373703
1468.000000	0.374485
1469.000000	0.375209
1470.000000	0.375822
1471.000000	0.376579
1472.000000	0.377437
1473.000000	0.378308
1474.000000	0.379093
1475.000000	0.379896
1476.000000	0.380614
1477.000000	0.381235
1478.000000	0.381969
1479.000000	0.382731
1480.000000	0.383400
1481.000000	0.384051
1482.000000	0.384831
1483.000000	0.385491
1484.000000	0.386023
1485.000000	0.386584
1486.000000	0.387045
1487.000000	0.387644
1488.000000	0.388356
1489.000000	0.389003
1490.000000	0.389603
1491.000000	0.390134
1492.000000	0.390446
1493.000000	0.390886
1494.000000	0.391380
1495.000000	0.391806
1496.000000	0.392186
1497.000000	0.392551
1498.000000	0.392944
1499.000000	0.393164
1500.000000	0.393387
1501.000000	0.393726
1502.000000	0.394006
1503.000000	0.394350
1504.000000	0.394705
1505.000000	0.395015
1506.000000	0.395411
1507.000000	0.395725
1508.000000	0.396084
1509.000000	0.396445
1510.000000	0.396704
1511.000000	0.397070
1512.000000	0.397385
1513.000000	0.397721
1514.000000	0.398097
1515.000000	0.398268
1516.000000	0.398512
1517.000000	0.398760
1518.000000	0.399015
1519.000000	0.399271
1520.000000	0.399491
1521.000000	0.399681
1522.000000	0.399972
1523.000000	0.400339
1524.000000	0.400608
1525.000000	0.400943
1526.000000	0.401281
1527.000000	0.401590
1528.000000	0.401868
1529.000000	0.402116
1530.000000	0.402266
1531.000000	0.402408
1532.000000	0.402625
1533.000000	0.402857
1534.000000	0.403144
1535.000000	0.403406
1536.000000	0.403624
1537.000000	0.404023
1538.000000	0.404394
1539.000000	0.404612
1540.000000	0.404878
1541.000000	0.405143
1542.000000	0.405235
1543.000000	0.405377
1544.000000	0.405619
1545.000000	0.405883
1546.000000	0.406227
1547.000000	0.406540
1548.000000	0.406707
1549.000000	0.406781
1550.000000	0.406870
1551.000000	0.407002
1552.000000	0.407187
1553.000000	0.407413
1554.000000	0.407581
1555.000000	0.407704
1556.000000	0.407859
1557.000000	0.407961
1558.000000	0.408149
1559.000000	0.408359
1560.000000	0.408495
1561.000000	0.408695
1562.000000	0.408810
1563.000000	0.408808
1564.000000	0.408919
1565.000000	0.409098
1566.000000	0.409186
1567.000000	0.409434
1568.000000	0.409617
1569.000000	0.409830
1570.000000	0.409949
1571.000000	0.409950
1572.000000	0.410067
1573.000000	0.410245
1574.000000	0.410351
1575.000000	0.410522
1576.000000	0.410665
1577.000000	0.410696
1578.000000	0.410761
1579.000000	0.410972
1580.000000	0.411040
1581.000000	0.411057
1582.000000	0.411167
1583.000000	0.411266
1584.000000	0.411321
1585.000000	0.411600
1586.000000	0.411701
1587.000000	0.411656
1588.000000	0.411679
1589.000000	0.411589
1590.000000	0.411694
1591.000000	0.411980
1592.000000	0.412173
1593.000000	0.412577
1594.000000	0.412677
1595.000000	0.412618
1596.000000	0.412612
1597.000000	0.412483
1598.000000	0.412470
1599.000000	0.412556
1600.000000	0.412578
1601.000000	0.412738
1602.000000	0.412830
1603.000000	0.412958
1604.000000	0.412988
1605.000000	0.412985
1606.000000	0.413012
1607.000000	0.413031
1608.000000	0.413048
1609.000000	0.413142
1610.000000	0.413191
1611.000000	0.413287
1612.000000	0.413345
1613.000000	0.413509
1614.000000	0.413621
1615.000000	0.413758
1616.000000	0.413867
1617.000000	0.413966
1618.000000	0.413956
1619.000000	0.413772
1620.000000	0.413741
1621.000000	0.413702
1622.000000	0.413840
1623.000000	0.414155
1624.000000	0.414264
1625.000000	0.414188
1626.000000	0.414127
1627.000000	0.413960
1628.000000	0.413946
1629.000000	0.414040
1630.000000	0.414063
1631.000000	0.414005
1632.000000	0.413914
1633.000000	0.413715
1634.000000	0.413719
1635.000000	0.413885
1636.000000	0.413952
1637.000000	0.414125
1638.000000	0.414191
1639.000000	0.414237
1640.000000	0.414227
1641.000000	0.414301
1642.000000	0.414347
1643.000000	0.414304
1644.000000	0.414362
1645.000000	0.414501
1646.000000	0.414512
1647.000000	0.414529
1648.000000	0.414546
1649.000000	0.414696
1650.000000	0.414699
1651.000000	0.414645
1652.000000	0.414770
1653.000000	0.414798
1654.000000	0.414887
1655.000000	0.415160
1656.000000	0.415068
1657.000000	0.414814
1658.000000	0.414690
1659.000000	0.414632
1660.000000	0.414627
1661.000000	0.414550
1662.000000	0.414546
1663.000000	0.414537
1664.000000	0.414563
1665.000000	0.414733
1666.000000	0.414811
1667.000000	0.414693
1668.000000	0.414684
1669.000000	0.414621
1670.000000	0.414552
1671.000000	0.414685
1672.000000	0.414798
1673.000000	0.414859
1674.000000	0.414882
1675.000000	0.414958
1676.000000	0.414926
1677.000000	0.414838
1678.000000	0.414789
1679.000000	0.414789
1680.000000	0.414693
1681.000000	0.414514
1682.000000	0.414532
1683.000000	0.414602
1684.000000	0.414585
1685.000000	0.414680
1686.000000	0.414507
1687.000000	0.414243
1688.000000	0.414192
1689.000000	0.414182
1690.000000	0.414224
1691.000000	0.414354
1692.000000	0.414193
1693.000000	0.414089
1694.000000	0.413969
1695.000000	0.413896
1696.000000	0.414115
1697.000000	0.413975
1698.000000	0.413665
1699.000000	0.413511
1700.000000	0.413106
1701.000000	0.413053
1702.000000	0.413169
1703.000000	0.413128
1704.000000	0.413254
1705.000000	0.413296
1706.000000	0.413271
1707.000000	0.413290
1708.000000	0.413258
1709.000000	0.413196
1710.000000	0.413278
1711.000000	0.413363
1712.000000	0.413626
1713.000000	0.413544
1714.000000	0.413191
1715.000000	0.413092
1716.000000	0.412886
1717.000000	0.412834
1718.000000	0.413143
1719.000000	0.413141
1720.000000	0.413013
1721.000000	0.412938
1722.000000	0.412782
1723.000000	0.412691
1724.000000	0.412663
1725.000000	0.412673
1726.000000	0.412657
1727.000000	0.412558
1728.000000	0.412383
1729.000000	0.412118
1730.000000	0.411850
1731.000000	0.411701
1732.000000	0.411624
1733.000000	0.411590
1734.000000	0.411426
1735.000000	0.411390
1736.000000	0.411412
1737.000000	0.411304
1738.000000	0.411209
1739.000000	0.411169
1740.000000	0.411019
1741.000000	0.410955
1742.000000	0.411050
1743.000000	0.411089
1744.000000	0.411078
1745.000000	0.410946
1746.000000	0.410776
1747.000000	0.410564
1748.000000	0.410366
1749.000000	0.410398
1750.000000	0.410232
1751.000000	0.409965
1752.000000	0.409999
1753.000000	0.409994
1754.000000	0.409932
1755.000000	0.409986
1756.000000	0.409930
1757.000000	0.409723
1758.000000	0.409529
1759.000000	0.409208
1760.000000	0.409077
1761.000000	0.409001
1762.000000	0.408848
1763.000000	0.408858
1764.000000	0.408764
1765.000000	0.408403
1766.000000	0.408261
1767.000000	0.408188
1768.000000	0.408002
1769.000000	0.408017
1770.000000	0.407860
1771.000000	0.407468
1772.000000	0.407173
1773.000000	0.406677
1774.000000	0.406491
1775.000000	0.406572
1776.000000	0.406562
1777.000000	0.406716
1778.000000	0.406564
1779.000000	0.406183
1780.000000	0.406012
1781.000000	0.405716
1782.000000	0.405563
1783.000000	0.405660
1784.000000	0.405465
1785.000000	0.405330
1786.000000	0.405163
1787.000000	0.405072
1788.000000	0.405162
1789.000000	0.405264
1790.000000	0.405312
1791.000000	0.405279
1792.000000	0.405166
1793.000000	0.405136
1794.000000	0.405227
1795.000000	0.405295
1796.000000	0.405451
1797.000000	0.405406
1798.000000	0.405095
1799.000000	0.405028
1800.000000	0.405029
1801.000000	0.404845
1802.000000	0.404993
1803.000000	0.405313
1804.000000	0.405503
1805.000000	0.405288
1806.000000	0.405462
1807.000000	0.406561
1808.000000	0.406541
1809.000000	0.406443
1810.000000	0.405143
1811.000000	0.404454
1812.000000	0.402647
1813.000000	0.402442
1814.000000	0.403789
1815.000000	0.403861
1816.000000	0.403727
1817.000000	0.403882
1818.000000	0.404033
1819.000000	0.403561
1820.000000	0.404430
1821.000000	0.404616
1822.000000	0.404543
1823.000000	0.403867
1824.000000	0.403330
1825.000000	0.402483
1826.000000	0.401931
1827.000000	0.401148
1828.000000	0.400536
1829.000000	0.399983
1830.000000	0.399583
1831.000000	0.399680
1832.000000	0.400185
1833.000000	0.400399
1834.000000	0.401184
1835.000000	0.401331
1836.000000	0.401061
1837.000000	0.400671
1838.000000	0.399533
1839.000000	0.398889
1840.000000	0.398529
1841.000000	0.398220
1842.000000	0.398320
1843.000000	0.399429
1844.000000	0.399509
1845.000000	0.399063
1846.000000	0.398949
1847.000000	0.398381
1848.000000	0.398094
1849.000000	0.398004
1850.000000	0.397256
1851.000000	0.396738
1852.000000	0.396050
1853.000000	0.395427
1854.000000	0.394721
1855.000000	0.393900
1856.000000	0.392869
1857.000000	0.391513
1858.000000	0.390894
1859.000000	0.390503
1860.000000	0.389765
1861.000000	0.388452
1862.000000	0.387450
1863.000000	0.386071
1864.000000	0.385015
1865.000000	0.384911
1866.000000	0.383988
1867.000000	0.382812
1868.000000	0.380866
1869.000000	0.378776
1870.000000	0.376169
1871.000000	0.373794
1872.000000	0.371641
1873.000000	0.369287
1874.000000	0.367140
1875.000000	0.364720
1876.000000	0.361947
1877.000000	0.358464
1878.000000	0.355168
1879.000000	0.351539
1880.000000	0.347539
1881.000000	0.343255
1882.000000	0.338507
1883.000000	0.333176
1884.000000	0.327915
1885.000000	0.321893
1886.000000	0.316289
1887.000000	0.310944
1888.000000	0.305203
1889.000000	0.298822
1890.000000	0.292122
1891.000000	0.285368
1892.000000	0.278200
1893.000000	0.271100
1894.000000	0.264805
1895.000000	0.258297
1896.000000	0.251590
1897.000000	0.245606
1898.000000	0.240429
1899.000000	0.235289
1900.000000	0.231289
1901.000000	0.227507
1902.000000	0.223755
1903.000000	0.221100
1904.000000	0.219149
1905.000000	0.218246
1906.000000	0.217697
1907.000000	0.218134
1908.000000	0.218664
1909.000000	0.219393
1910.000000	0.219951
1911.000000	0.221061
1912.000000	0.223183
1913.000000	0.225115
1914.000000	0.227659
1915.000000	0.231035
1916.000000	0.234233
1917.000000	0.237204
1918.000000	0.240830
1919.000000	0.243621
1920.000000	0.245393
1921.000000	0.247224
1922.000000	0.248990
1923.000000	0.251419
1924.000000	0.253434
1925.000000	0.255236
1926.000000	0.257367
1927.000000	0.258925
1928.000000	0.260263
1929.000000	0.261660
1930.000000	0.263099
1931.000000	0.263765
1932.000000	0.264172
1933.000000	0.264847
1934.000000	0.265633
1935.000000	0.266596
1936.000000	0.267734
1937.000000	0.269319
1938.000000	0.269886
1939.000000	0.270366
1940.000000	0.270356
1941.000000	0.270907
1942.000000	0.271067
1943.000000	0.271989
1944.000000	0.273517
1945.000000	0.275029
1946.000000	0.276311
1947.000000	0.277378
1948.000000	0.278189
1949.000000	0.278296
1950.000000	0.278307
1951.000000	0.278528
1952.000000	0.278765
1953.000000	0.279262
1954.000000	0.280294
1955.000000	0.281595
1956.000000	0.282451
1957.000000	0.282685
1958.000000	0.282883
1959.000000	0.282932
1960.000000	0.282862
1961.000000	0.283425
1962.000000	0.284177
1963.000000	0.285163
1964.000000	0.286118
1965.000000	0.287431
1966.000000	0.288376
1967.000000	0.288717
1968.000000	0.289105
1969.000000	0.289685
1970.000000	0.290413
1971.000000	0.290963
1972.000000	0.291450
1973.000000	0.291983
1974.000000	0.292372
1975.000000	0.293057
1976.000000	0.294205
1977.000000	0.295219
1978.000000	0.295317
1979.000000	0.295727
1980.000000	0.296077
1981.000000	0.296857
1982.000000	0.298071
1983.000000	0.298863
1984.000000	0.299549
1985.000000	0.299730
1986.000000	0.300208
1987.000000	0.300638
1988.000000	0.301838
1989.000000	0.302754
1990.000000	0.303752
1991.000000	0.304844
1992.000000	0.305813
1993.000000	0.307220
1994.000000	0.308896
1995.000000	0.310028
1996.000000	0.311023
1997.000000	0.311848
1998.000000	0.312050
1999.000000	0.312775
2000.000000	0.313682
2001.000000	0.314729
2002.000000	0.315647
2003.000000	0.316211
2004.000000	0.316864
2005.000000	0.317010
2006.000000	0.317119
2007.000000	0.318238
2008.000000	0.319294
2009.000000	0.320438
2010.000000	0.321845
2011.000000	0.323715
2012.000000	0.324801
2013.000000	0.325589
2014.000000	0.326343
2015.000000	0.326560
2016.000000	0.327330
2017.000000	0.328393
2018.000000	0.329291
2019.000000	0.330550
2020.000000	0.331499
2021.000000	0.332298
2022.000000	0.332951
2023.000000	0.333493
2024.000000	0.333947
2025.000000	0.334288
2026.000000	0.334154
2027.000000	0.334265
2028.000000	0.334641
2029.000000	0.335237
2030.000000	0.336513
2031.000000	0.337318
2032.000000	0.338151
2033.000000	0.339345
2034.000000	0.340124
2035.000000	0.341014
2036.000000	0.341678
2037.000000	0.341817
2038.000000	0.342500
2039.000000	0.343718
2040.000000	0.344364
2041.000000	0.345171
2042.000000	0.345933
2043.000000	0.345410
2044.000000	0.345483
2045.000000	0.345458
2046.000000	0.345514
2047.000000	0.346069
2048.000000	0.347182
2049.000000	0.347907
2050.000000	0.348596
2051.000000	0.348947
2052.000000	0.348521
2053.000000	0.348575
2054.000000	0.348977
2055.000000	0.349376
2056.000000	0.350285
2057.000000	0.351359
2058.000000	0.352300
2059.000000	0.353503
2060.000000	0.354203
2061.000000	0.354563
2062.000000	0.355206
2063.000000	0.355856
2064.000000	0.356018
2065.000000	0.356583
2066.000000	0.356468
2067.000000	0.355635
2068.000000	0.355710
2069.000000	0.355924
2070.000000	0.356238
2071.000000	0.356986
2072.000000	0.356945
2073.000000	0.356651
2074.000000	0.356565
2075.000000	0.356708
2076.000000	0.357083
2077.000000	0.357513
2078.000000	0.358484
2079.000000	0.358651
2080.000000	0.358404
2081.000000	0.358319
2082.000000	0.357975
2083.000000	0.357443
2084.000000	0.357384
2085.000000	0.357707
2086.000000	0.358242
2087.000000	0.358942
2088.000000	0.359644
2089.000000	0.360214
2090.000000	0.360625
2091.000000	0.360866
2092.000000	0.361183
2093.000000	0.361397
2094.000000	0.361693
2095.000000	0.362031
2096.000000	0.362229
2097.000000	0.362315
2098.000000	0.362418
2099.000000	0.362421
2100.000000	0.362933
2101.000000	0.363108
2102.000000	0.362897
2103.000000	0.362564
2104.000000	0.362124
2105.000000	0.362057
2106.000000	0.362170
2107.000000	0.362442
2108.000000	0.363163
2109.000000	0.363428
2110.000000	0.363339
2111.000000	0.363556
2112.000000	0.363665
2113.000000	0.363452
2114.000000	0.363829
2115.000000	0.363775
2116.000000	0.363533
2117.000000	0.363601
2118.000000	0.364156
2119.000000	0.364736
2120.000000	0.365097
2121.000000	0.365899
2122.000000	0.365947
2123.000000	0.364940
2124.000000	0.364934
2125.000000	0.365011
2126.000000	0.364967
2127.000000	0.365609
2128.000000	0.366192
2129.000000	0.366226
2130.000000	0.366941
2131.000000	0.368106
2132.000000	0.367915
2133.000000	0.367421
2134.000000	0.367388
2135.000000	0.366897
2136.000000	0.366373
2137.000000	0.366330
2138.000000	0.366668
2139.000000	0.366942
2140.000000	0.367711
2141.000000	0.368054
2142.000000	0.368389
2143.000000	0.368019
2144.000000	0.367188
2145.000000	0.366768
2146.000000	0.366256
2147.000000	0.366065
2148.000000	0.365725
2149.000000	0.365586
2150.000000	0.365577
2151.000000	0.365538
2152.000000	0.366681
2153.000000	0.367790
2154.000000	0.368015
2155.000000	0.367784
2156.000000	0.368081
2157.000000	0.367697
2158.000000	0.368088
2159.000000	0.369757
2160.000000	0.370161
2161.000000	0.369926
2162.000000	0.370139
2163.000000	0.370021
2164.000000	0.369921
2165.000000	0.370158
2166.000000	0.370042
2167.000000	0.369897
2168.000000	0.369205
2169.000000	0.368341
2170.000000	0.367805
2171.000000	0.367219
2172.000000	0.366204
2173.000000	0.365810
2174.000000	0.365810
2175.000000	0.365757
2176.000000	0.366043
2177.000000	0.366430
2178.000000	0.367322
2179.000000	0.367644
2180.000000	0.367656
2181.000000	0.367897
2182.000000	0.367130
2183.000000	0.366585
2184.000000	0.366752
2185.000000	0.365789
2186.000000	0.364630
2187.000000	0.364428
2188.000000	0.363616
2189.000000	0.362833
2190.000000	0.363001
2191.000000	0.363787
2192.000000	0.364146
2193.000000	0.365128
2194.000000	0.365390
2195.000000	0.365275
2196.000000	0.364936
2197.000000	0.364384
2198.000000	0.363442
2199.000000	0.361129
2200.000000	0.359830
2201.000000	0.358444
2202.000000	0.358105
2203.000000	0.358702
2204.000000	0.360133
2205.000000	0.361122
2206.000000	0.361189
2207.000000	0.359345
2208.000000	0.356905
2209.000000	0.356513
2210.000000	0.356815
2211.000000	0.357985
2212.000000	0.361167
2213.000000	0.360734
2214.000000	0.356929
2215.000000	0.355975
2216.000000	0.354136
2217.000000	0.353446
2218.000000	0.355000
2219.000000	0.355619
2220.000000	0.355929
2221.000000	0.356323
2222.000000	0.357292
2223.000000	0.357918
2224.000000	0.358202
2225.000000	0.358434
2226.000000	0.357544
2227.000000	0.355602
2228.000000	0.355631
2229.000000	0.354930
2230.000000	0.354231
2231.000000	0.353544
2232.000000	0.350582
2233.000000	0.347507
2234.000000	0.345430
2235.000000	0.345232
2236.000000	0.343454
2237.000000	0.340417
2238.000000	0.339438
2239.000000	0.338057
2240.000000	0.338125
2241.000000	0.342901
2242.000000	0.342814
2243.000000	0.340035
2244.000000	0.338336
2245.000000	0.333544
2246.000000	0.331621
2247.000000	0.331830
2248.000000	0.332117
2249.000000	0.334386
2250.000000	0.334217
2251.000000	0.334561
2252.000000	0.335910
2253.000000	0.335865
2254.000000	0.337478
2255.000000	0.339114
2256.000000	0.339812
2257.000000	0.341530
2258.000000	0.341248
2259.000000	0.339230
2260.000000	0.338426
2261.000000	0.337021
2262.000000	0.335030
2263.000000	0.333108
2264.000000	0.330934
2265.000000	0.329254
2266.000000	0.326987
2267.000000	0.325514
2268.000000	0.325582
2269.000000	0.324821
2270.000000	0.323765
2271.000000	0.322494
2272.000000	0.321568
2273.000000	0.319621
2274.000000	0.316951
2275.000000	0.314828
2276.000000	0.313805
2277.000000	0.308107
2278.000000	0.304451
2279.000000	0.301245
2280.000000	0.297079
2281.000000	0.296463
2282.000000	0.295961
2283.000000	0.292480
2284.000000	0.288423
2285.000000	0.283360
2286.000000	0.278895
2287.000000	0.276867
2288.000000	0.275331
2289.000000	0.273389
2290.000000	0.272556
2291.000000	0.271151
2292.000000	0.268687
2293.000000	0.266817
2294.000000	0.265217
2295.000000	0.262520
2296.000000	0.262249
2297.000000	0.264200
2298.000000	0.264866
2299.000000	0.266056
2300.000000	0.267174
2301.000000	0.267001
2302.000000	0.268018
2303.000000	0.270797
2304.000000	0.271466
2305.000000	0.270633
2306.000000	0.272214
2307.000000	0.273100
2308.000000	0.276774
2309.000000	0.283098
2310.000000	0.287201
2311.000000	0.293123
2312.000000	0.297164
2313.000000	0.297570
2314.000000	0.300776
2315.000000	0.301929
2316.000000	0.300321
2317.000000	0.300745
2318.000000	0.300586
2319.000000	0.300778
2320.000000	0.302592
2321.000000	0.305927
2322.000000	0.310081
2323.000000	0.311450
2324.000000	0.312158
2325.000000	0.312468
2326.000000	0.310019
2327.000000	0.307609
2328.000000	0.307350
2329.000000	0.306978
2330.000000	0.306456
2331.000000	0.308184
2332.000000	0.309940
2333.000000	0.310475
2334.000000	0.311711
2335.000000	0.312133
2336.000000	0.311526
2337.000000	0.310462
2338.000000	0.307783
2339.000000	0.306079
2340.000000	0.304015
2341.000000	0.302698
2342.000000	0.301722
2343.000000	0.301956
2344.000000	0.304827
2345.000000	0.304780
2346.000000	0.304510
2347.000000	0.304145
2348.000000	0.302072
2349.000000	0.298853
2350.000000	0.298365
2351.000000	0.300177
2352.000000	0.300262
2353.000000	0.300304
2354.000000	0.300622
2355.000000	0.296723
2356.000000	0.293284
2357.000000	0.291425
2358.000000	0.289164
2359.000000	0.289526
2360.000000	0.291688
2361.000000	0.293421
2362.000000	0.292347
2363.000000	0.287408
2364.000000	0.281746
2365.000000	0.279052
2366.000000	0.280975
2367.000000	0.286063
2368.000000	0.290733
2369.000000	0.290648
2370.000000	0.288288
2371.000000	0.286692
2372.000000	0.282835
2373.000000	0.281975
2374.000000	0.283035
2375.000000	0.281461
2376.000000	0.283793
2377.000000	0.282084
2378.000000	0.276516
2379.000000	0.276565
2380.000000	0.274180
2381.000000	0.273595
2382.000000	0.274357
2383.000000	0.269968
2384.000000	0.266637
2385.000000	0.265361
2386.000000	0.263148
2387.000000	0.262346
2388.000000	0.263559
2389.000000	0.264653
2390.000000	0.272821
2391.000000	0.274192
2392.000000	0.270454
2393.000000	0.269288
2394.000000	0.257147
2395.000000	0.256133
2396.000000	0.258503
2397.000000	0.252994
2398.000000	0.253591
2399.000000	0.245811
2400.000000	0.239544
2401.000000	0.239082
2402.000000	0.240398
2403.000000	0.247952
2404.000000	0.248235
2405.000000	0.244545
2406.000000	0.239168
2407.000000	0.233348
2408.000000	0.229137
2409.000000	0.227462
2410.000000	0.233616
2411.000000	0.235578
2412.000000	0.242462
2413.000000	0.250656
2414.000000	0.248677
2415.000000	0.253505
2416.000000	0.253645
2417.000000	0.249569
2418.000000	0.247078
2419.000000	0.232878
2420.000000	0.222654
2421.000000	0.219429
2422.000000	0.215292
2423.000000	0.222008
2424.000000	0.240569
2425.000000	0.255414
2426.000000	0.269526
2427.000000	0.284880
2428.000000	0.279889
2429.000000	0.269977
2430.000000	0.267249
2431.000000	0.255910
2432.000000	0.249415
2433.000000	0.256817
2434.000000	0.259477
2435.000000	0.257443
2436.000000	0.259660
2437.000000	0.258480
2438.000000	0.248968
2439.000000	0.241157
2440.000000	0.246609
2441.000000	0.235311
2442.000000	0.229137
2443.000000	0.246758
2444.000000	0.234843
2445.000000	0.229480
2446.000000	0.225754
2447.000000	0.206247
2448.000000	0.211002
2449.000000	0.217312
2450.000000	0.231607
2451.000000	0.251854
2452.000000	0.251278
2453.000000	0.234994
2454.000000	0.221151
2455.000000	0.205341
2456.000000	0.177248
2457.000000	0.172683
2458.000000	0.178747
2459.000000	0.170400
2460.000000	0.178542
2461.000000	0.183454
2462.000000	0.191777
2463.000000	0.216446
2464.000000	0.221370
2465.000000	0.232882
2466.000000	0.226262
2467.000000	0.196136
2468.000000	0.191149
2469.000000	0.189398
2470.000000	0.190283
2471.000000	0.183679
2472.000000	0.175764
2473.000000	0.164650
2474.000000	0.137522
2475.000000	0.137532
2476.000000	0.139417
2477.000000	0.150531
2478.000000	0.184027
2479.000000	0.179033
2480.000000	0.181554
2481.000000	0.186906
2482.000000	0.175226
2483.000000	0.204075
2484.000000	0.221073
2485.000000	0.205325
2486.000000	0.212577
2487.000000	0.222821
2488.000000	0.242552
2489.000000	0.273297
2490.000000	0.285647
2491.000000	0.268381
2492.000000	0.232465
2493.000000	0.159379
2494.000000	0.128398
2495.000000	0.097905
2496.000000	0.090712
2497.000000	0.145112
2498.000000	0.148955
2499.000000	0.146395
2500.000000	0.143474
