# Wavelength	NAu-2-30_HEX-30_FV7-40_00002.asd.rts.txt
350.000000	0.178245
351.000000	0.181778
352.000000	0.158914
353.000000	0.145763
354.000000	0.155812
355.000000	0.153466
356.000000	0.148725
357.000000	0.144350
358.000000	0.136255
359.000000	0.138155
360.000000	0.146503
361.000000	0.152827
362.000000	0.147582
363.000000	0.141156
364.000000	0.141463
365.000000	0.150719
366.000000	0.148924
367.000000	0.138541
368.000000	0.141553
369.000000	0.148257
370.000000	0.153574
371.000000	0.154276
372.000000	0.153109
373.000000	0.146551
374.000000	0.137542
375.000000	0.148901
376.000000	0.155587
377.000000	0.152041
378.000000	0.150381
379.000000	0.147669
380.000000	0.145987
381.000000	0.148444
382.000000	0.151338
383.000000	0.153681
384.000000	0.154622
385.000000	0.150562
386.000000	0.151066
387.000000	0.155926
388.000000	0.154351
389.000000	0.152467
390.000000	0.152328
391.000000	0.154243
392.000000	0.154852
393.000000	0.154921
394.000000	0.155116
395.000000	0.153083
396.000000	0.153992
397.000000	0.157792
398.000000	0.157599
399.000000	0.157000
400.000000	0.156590
401.000000	0.155964
402.000000	0.156935
403.000000	0.158387
404.000000	0.159089
405.000000	0.158932
406.000000	0.158508
407.000000	0.158185
408.000000	0.157914
409.000000	0.157438
410.000000	0.157381
411.000000	0.158843
412.000000	0.159027
413.000000	0.159152
414.000000	0.160634
415.000000	0.160170
416.000000	0.159692
417.000000	0.160469
418.000000	0.161820
419.000000	0.162274
420.000000	0.161959
421.000000	0.162401
422.000000	0.162501
423.000000	0.162520
424.000000	0.163069
425.000000	0.163521
426.000000	0.163824
427.000000	0.164064
428.000000	0.164612
429.000000	0.164775
430.000000	0.164649
431.000000	0.165430
432.000000	0.166163
433.000000	0.166543
434.000000	0.166617
435.000000	0.166835
436.000000	0.167111
437.000000	0.167233
438.000000	0.167015
439.000000	0.166915
440.000000	0.167238
441.000000	0.167838
442.000000	0.168125
443.000000	0.168096
444.000000	0.168296
445.000000	0.168500
446.000000	0.168769
447.000000	0.169072
448.000000	0.169191
449.000000	0.169513
450.000000	0.170240
451.000000	0.170960
452.000000	0.171323
453.000000	0.171335
454.000000	0.171545
455.000000	0.172137
456.000000	0.172851
457.000000	0.173126
458.000000	0.173519
459.000000	0.173965
460.000000	0.174331
461.000000	0.174430
462.000000	0.174574
463.000000	0.174835
464.000000	0.175228
465.000000	0.175608
466.000000	0.175868
467.000000	0.176025
468.000000	0.176472
469.000000	0.176949
470.000000	0.177189
471.000000	0.177256
472.000000	0.177470
473.000000	0.177951
474.000000	0.178181
475.000000	0.178440
476.000000	0.178782
477.000000	0.178739
478.000000	0.178957
479.000000	0.179426
480.000000	0.179663
481.000000	0.180137
482.000000	0.180586
483.000000	0.180643
484.000000	0.180854
485.000000	0.181094
486.000000	0.181397
487.000000	0.181736
488.000000	0.181962
489.000000	0.182145
490.000000	0.182497
491.000000	0.182588
492.000000	0.182654
493.000000	0.182928
494.000000	0.183001
495.000000	0.183146
496.000000	0.183467
497.000000	0.183541
498.000000	0.183620
499.000000	0.183820
500.000000	0.183948
501.000000	0.184263
502.000000	0.184615
503.000000	0.184634
504.000000	0.184748
505.000000	0.184933
506.000000	0.185109
507.000000	0.185329
508.000000	0.185634
509.000000	0.186009
510.000000	0.186439
511.000000	0.186808
512.000000	0.187114
513.000000	0.187411
514.000000	0.187668
515.000000	0.187982
516.000000	0.188413
517.000000	0.188766
518.000000	0.189110
519.000000	0.189466
520.000000	0.189866
521.000000	0.190336
522.000000	0.190831
523.000000	0.191150
524.000000	0.191588
525.000000	0.192174
526.000000	0.192830
527.000000	0.193511
528.000000	0.194242
529.000000	0.195082
530.000000	0.195888
531.000000	0.196797
532.000000	0.197781
533.000000	0.198599
534.000000	0.199506
535.000000	0.200552
536.000000	0.201630
537.000000	0.202592
538.000000	0.203465
539.000000	0.204336
540.000000	0.205181
541.000000	0.206007
542.000000	0.206836
543.000000	0.207597
544.000000	0.208350
545.000000	0.209092
546.000000	0.209880
547.000000	0.210700
548.000000	0.211575
549.000000	0.212479
550.000000	0.213333
551.000000	0.214219
552.000000	0.215217
553.000000	0.216346
554.000000	0.217471
555.000000	0.218538
556.000000	0.219778
557.000000	0.221040
558.000000	0.222353
559.000000	0.223679
560.000000	0.224974
561.000000	0.226255
562.000000	0.227447
563.000000	0.228618
564.000000	0.229797
565.000000	0.230911
566.000000	0.232009
567.000000	0.233045
568.000000	0.233992
569.000000	0.234942
570.000000	0.235845
571.000000	0.236673
572.000000	0.237440
573.000000	0.238077
574.000000	0.238628
575.000000	0.239214
576.000000	0.239710
577.000000	0.240103
578.000000	0.240477
579.000000	0.240956
580.000000	0.241274
581.000000	0.241391
582.000000	0.241658
583.000000	0.241891
584.000000	0.242043
585.000000	0.242128
586.000000	0.242207
587.000000	0.242235
588.000000	0.242156
589.000000	0.242004
590.000000	0.241883
591.000000	0.241825
592.000000	0.241669
593.000000	0.241477
594.000000	0.241284
595.000000	0.241118
596.000000	0.240903
597.000000	0.240661
598.000000	0.240372
599.000000	0.240092
600.000000	0.239819
601.000000	0.239480
602.000000	0.239115
603.000000	0.238750
604.000000	0.238410
605.000000	0.238121
606.000000	0.237799
607.000000	0.237460
608.000000	0.237178
609.000000	0.236821
610.000000	0.236484
611.000000	0.236277
612.000000	0.236025
613.000000	0.235726
614.000000	0.235425
615.000000	0.235119
616.000000	0.234879
617.000000	0.234667
618.000000	0.234405
619.000000	0.234124
620.000000	0.233832
621.000000	0.233574
622.000000	0.233275
623.000000	0.233012
624.000000	0.232826
625.000000	0.232531
626.000000	0.232274
627.000000	0.232121
628.000000	0.232008
629.000000	0.231947
630.000000	0.231854
631.000000	0.231815
632.000000	0.231683
633.000000	0.231523
634.000000	0.231416
635.000000	0.231383
636.000000	0.231313
637.000000	0.231167
638.000000	0.231122
639.000000	0.231135
640.000000	0.231191
641.000000	0.231158
642.000000	0.231239
643.000000	0.231349
644.000000	0.231342
645.000000	0.231393
646.000000	0.231504
647.000000	0.231626
648.000000	0.231727
649.000000	0.231865
650.000000	0.232042
651.000000	0.232240
652.000000	0.232457
653.000000	0.232719
654.000000	0.232994
655.000000	0.233257
656.000000	0.233543
657.000000	0.233841
658.000000	0.234163
659.000000	0.234489
660.000000	0.234811
661.000000	0.235177
662.000000	0.235548
663.000000	0.235959
664.000000	0.236402
665.000000	0.236902
666.000000	0.237390
667.000000	0.237794
668.000000	0.238281
669.000000	0.238858
670.000000	0.239482
671.000000	0.240011
672.000000	0.240564
673.000000	0.241180
674.000000	0.241863
675.000000	0.242505
676.000000	0.243149
677.000000	0.243880
678.000000	0.244583
679.000000	0.245297
680.000000	0.246068
681.000000	0.246895
682.000000	0.247773
683.000000	0.248617
684.000000	0.249435
685.000000	0.250303
686.000000	0.251238
687.000000	0.252186
688.000000	0.253094
689.000000	0.254034
690.000000	0.255076
691.000000	0.256100
692.000000	0.257103
693.000000	0.258141
694.000000	0.259189
695.000000	0.260254
696.000000	0.261324
697.000000	0.262388
698.000000	0.263515
699.000000	0.264663
700.000000	0.265801
701.000000	0.266970
702.000000	0.268177
703.000000	0.269396
704.000000	0.270602
705.000000	0.271844
706.000000	0.273077
707.000000	0.274310
708.000000	0.275630
709.000000	0.276968
710.000000	0.278270
711.000000	0.279566
712.000000	0.280882
713.000000	0.282229
714.000000	0.283533
715.000000	0.284844
716.000000	0.286168
717.000000	0.287468
718.000000	0.288788
719.000000	0.290107
720.000000	0.291415
721.000000	0.292725
722.000000	0.294023
723.000000	0.295354
724.000000	0.296687
725.000000	0.297958
726.000000	0.299247
727.000000	0.300534
728.000000	0.301788
729.000000	0.303028
730.000000	0.304233
731.000000	0.305508
732.000000	0.306764
733.000000	0.307990
734.000000	0.309150
735.000000	0.310315
736.000000	0.311557
737.000000	0.312692
738.000000	0.313785
739.000000	0.314913
740.000000	0.315962
741.000000	0.317042
742.000000	0.318084
743.000000	0.319048
744.000000	0.320008
745.000000	0.320948
746.000000	0.321921
747.000000	0.322884
748.000000	0.323748
749.000000	0.324641
750.000000	0.325587
751.000000	0.326425
752.000000	0.327241
753.000000	0.328046
754.000000	0.328763
755.000000	0.329428
756.000000	0.330101
757.000000	0.330788
758.000000	0.331494
759.000000	0.332228
760.000000	0.332896
761.000000	0.333498
762.000000	0.334001
763.000000	0.334448
764.000000	0.335009
765.000000	0.335568
766.000000	0.336108
767.000000	0.336620
768.000000	0.337080
769.000000	0.337504
770.000000	0.337911
771.000000	0.338305
772.000000	0.338733
773.000000	0.339144
774.000000	0.339594
775.000000	0.340025
776.000000	0.340429
777.000000	0.340773
778.000000	0.341015
779.000000	0.341253
780.000000	0.341502
781.000000	0.341671
782.000000	0.341812
783.000000	0.342006
784.000000	0.342138
785.000000	0.342274
786.000000	0.342455
787.000000	0.342667
788.000000	0.342833
789.000000	0.342926
790.000000	0.342949
791.000000	0.342987
792.000000	0.343047
793.000000	0.343181
794.000000	0.343389
795.000000	0.343478
796.000000	0.343566
797.000000	0.343681
798.000000	0.343766
799.000000	0.343856
800.000000	0.343940
801.000000	0.344001
802.000000	0.344074
803.000000	0.344182
804.000000	0.344346
805.000000	0.344447
806.000000	0.344451
807.000000	0.344465
808.000000	0.344490
809.000000	0.344441
810.000000	0.344410
811.000000	0.344451
812.000000	0.344479
813.000000	0.344465
814.000000	0.344404
815.000000	0.344341
816.000000	0.344318
817.000000	0.344294
818.000000	0.344145
819.000000	0.344082
820.000000	0.343987
821.000000	0.343787
822.000000	0.343663
823.000000	0.343544
824.000000	0.343426
825.000000	0.343441
826.000000	0.343376
827.000000	0.343268
828.000000	0.343208
829.000000	0.343176
830.000000	0.343162
831.000000	0.343167
832.000000	0.343022
833.000000	0.342906
834.000000	0.342824
835.000000	0.342769
836.000000	0.342631
837.000000	0.342496
838.000000	0.342406
839.000000	0.342320
840.000000	0.342270
841.000000	0.342231
842.000000	0.342128
843.000000	0.341990
844.000000	0.341838
845.000000	0.341656
846.000000	0.341471
847.000000	0.341251
848.000000	0.341092
849.000000	0.341096
850.000000	0.341015
851.000000	0.340841
852.000000	0.340643
853.000000	0.340456
854.000000	0.340218
855.000000	0.340072
856.000000	0.339980
857.000000	0.339802
858.000000	0.339683
859.000000	0.339580
860.000000	0.339380
861.000000	0.339120
862.000000	0.338919
863.000000	0.338805
864.000000	0.338617
865.000000	0.338449
866.000000	0.338356
867.000000	0.338174
868.000000	0.338072
869.000000	0.337894
870.000000	0.337539
871.000000	0.337367
872.000000	0.337245
873.000000	0.337001
874.000000	0.336705
875.000000	0.336422
876.000000	0.336167
877.000000	0.335856
878.000000	0.335517
879.000000	0.335257
880.000000	0.334992
881.000000	0.334830
882.000000	0.334623
883.000000	0.334413
884.000000	0.334242
885.000000	0.334142
886.000000	0.333956
887.000000	0.333670
888.000000	0.333455
889.000000	0.333308
890.000000	0.333078
891.000000	0.332808
892.000000	0.332429
893.000000	0.332043
894.000000	0.331855
895.000000	0.331806
896.000000	0.331639
897.000000	0.331411
898.000000	0.331246
899.000000	0.330905
900.000000	0.330566
901.000000	0.330303
902.000000	0.330165
903.000000	0.329868
904.000000	0.329516
905.000000	0.329175
906.000000	0.328834
907.000000	0.328551
908.000000	0.328369
909.000000	0.328122
910.000000	0.327993
911.000000	0.327893
912.000000	0.327735
913.000000	0.327600
914.000000	0.327386
915.000000	0.327136
916.000000	0.326829
917.000000	0.326539
918.000000	0.326319
919.000000	0.326145
920.000000	0.325909
921.000000	0.325617
922.000000	0.325320
923.000000	0.325046
924.000000	0.324682
925.000000	0.324361
926.000000	0.324158
927.000000	0.323869
928.000000	0.323572
929.000000	0.323255
930.000000	0.322924
931.000000	0.322825
932.000000	0.322595
933.000000	0.322203
934.000000	0.321887
935.000000	0.321527
936.000000	0.321288
937.000000	0.321138
938.000000	0.320717
939.000000	0.320480
940.000000	0.320369
941.000000	0.320190
942.000000	0.319907
943.000000	0.319715
944.000000	0.319585
945.000000	0.319495
946.000000	0.319243
947.000000	0.318995
948.000000	0.318879
949.000000	0.318592
950.000000	0.318354
951.000000	0.318158
952.000000	0.317895
953.000000	0.317586
954.000000	0.317316
955.000000	0.317052
956.000000	0.316724
957.000000	0.316525
958.000000	0.316331
959.000000	0.316053
960.000000	0.315793
961.000000	0.315557
962.000000	0.315313
963.000000	0.315055
964.000000	0.314939
965.000000	0.314840
966.000000	0.314513
967.000000	0.314072
968.000000	0.313852
969.000000	0.313651
970.000000	0.313231
971.000000	0.313161
972.000000	0.313195
973.000000	0.313113
974.000000	0.313023
975.000000	0.312792
976.000000	0.312523
977.000000	0.312312
978.000000	0.312117
979.000000	0.311994
980.000000	0.311722
981.000000	0.311508
982.000000	0.311495
983.000000	0.311170
984.000000	0.310738
985.000000	0.310969
986.000000	0.310885
987.000000	0.310782
988.000000	0.310671
989.000000	0.309753
990.000000	0.309466
991.000000	0.309640
992.000000	0.309659
993.000000	0.309599
994.000000	0.309575
995.000000	0.309689
996.000000	0.309608
997.000000	0.309248
998.000000	0.309094
999.000000	0.309299
1000.000000	0.309166
1001.000000	0.309599
1002.000000	0.309232
1003.000000	0.308728
1004.000000	0.308356
1005.000000	0.307932
1006.000000	0.307747
1007.000000	0.307736
1008.000000	0.307665
1009.000000	0.307827
1010.000000	0.308243
1011.000000	0.307967
1012.000000	0.307777
1013.000000	0.307605
1014.000000	0.306924
1015.000000	0.306965
1016.000000	0.307420
1017.000000	0.307582
1018.000000	0.307946
1019.000000	0.307860
1020.000000	0.307260
1021.000000	0.306702
1022.000000	0.305776
1023.000000	0.305787
1024.000000	0.306128
1025.000000	0.306820
1026.000000	0.307037
1027.000000	0.307611
1028.000000	0.308017
1029.000000	0.307794
1030.000000	0.307770
1031.000000	0.307785
1032.000000	0.307860
1033.000000	0.307796
1034.000000	0.307684
1035.000000	0.307662
1036.000000	0.307925
1037.000000	0.308125
1038.000000	0.308228
1039.000000	0.309007
1040.000000	0.309080
1041.000000	0.308287
1042.000000	0.308359
1043.000000	0.308587
1044.000000	0.308813
1045.000000	0.309230
1046.000000	0.309033
1047.000000	0.309333
1048.000000	0.309621
1049.000000	0.309764
1050.000000	0.310396
1051.000000	0.310535
1052.000000	0.309950
1053.000000	0.309709
1054.000000	0.309536
1055.000000	0.309659
1056.000000	0.309982
1057.000000	0.310420
1058.000000	0.310985
1059.000000	0.311326
1060.000000	0.311458
1061.000000	0.311849
1062.000000	0.312283
1063.000000	0.312497
1064.000000	0.312663
1065.000000	0.312556
1066.000000	0.312744
1067.000000	0.313045
1068.000000	0.313160
1069.000000	0.313239
1070.000000	0.313422
1071.000000	0.313389
1072.000000	0.313583
1073.000000	0.314025
1074.000000	0.314759
1075.000000	0.314987
1076.000000	0.315506
1077.000000	0.315845
1078.000000	0.315572
1079.000000	0.315496
1080.000000	0.315310
1081.000000	0.315281
1082.000000	0.315100
1083.000000	0.315442
1084.000000	0.316446
1085.000000	0.316842
1086.000000	0.317352
1087.000000	0.317644
1088.000000	0.317021
1089.000000	0.317080
1090.000000	0.317616
1091.000000	0.317892
1092.000000	0.318109
1093.000000	0.318426
1094.000000	0.318530
1095.000000	0.318108
1096.000000	0.318257
1097.000000	0.318713
1098.000000	0.318984
1099.000000	0.319300
1100.000000	0.319567
1101.000000	0.319633
1102.000000	0.319871
1103.000000	0.320229
1104.000000	0.320503
1105.000000	0.320801
1106.000000	0.321073
1107.000000	0.321293
1108.000000	0.321398
1109.000000	0.321448
1110.000000	0.321421
1111.000000	0.321829
1112.000000	0.322477
1113.000000	0.322764
1114.000000	0.323275
1115.000000	0.323540
1116.000000	0.323365
1117.000000	0.323412
1118.000000	0.323612
1119.000000	0.323686
1120.000000	0.323643
1121.000000	0.323626
1122.000000	0.323836
1123.000000	0.323982
1124.000000	0.323591
1125.000000	0.323600
1126.000000	0.323629
1127.000000	0.323709
1128.000000	0.323903
1129.000000	0.324418
1130.000000	0.324741
1131.000000	0.325069
1132.000000	0.325272
1133.000000	0.325518
1134.000000	0.325693
1135.000000	0.325653
1136.000000	0.325729
1137.000000	0.325841
1138.000000	0.325883
1139.000000	0.326058
1140.000000	0.326169
1141.000000	0.326062
1142.000000	0.326135
1143.000000	0.326209
1144.000000	0.326373
1145.000000	0.326503
1146.000000	0.326601
1147.000000	0.326607
1148.000000	0.326326
1149.000000	0.326426
1150.000000	0.326705
1151.000000	0.326851
1152.000000	0.327097
1153.000000	0.327200
1154.000000	0.327075
1155.000000	0.327050
1156.000000	0.327026
1157.000000	0.327066
1158.000000	0.327133
1159.000000	0.327108
1160.000000	0.327093
1161.000000	0.327044
1162.000000	0.326949
1163.000000	0.326969
1164.000000	0.326901
1165.000000	0.326875
1166.000000	0.326912
1167.000000	0.326883
1168.000000	0.326925
1169.000000	0.327131
1170.000000	0.327255
1171.000000	0.327439
1172.000000	0.327579
1173.000000	0.327627
1174.000000	0.327691
1175.000000	0.327697
1176.000000	0.327726
1177.000000	0.327879
1178.000000	0.327963
1179.000000	0.327965
1180.000000	0.328010
1181.000000	0.328262
1182.000000	0.328258
1183.000000	0.328321
1184.000000	0.328514
1185.000000	0.328614
1186.000000	0.328650
1187.000000	0.328684
1188.000000	0.328744
1189.000000	0.328712
1190.000000	0.328601
1191.000000	0.328606
1192.000000	0.328793
1193.000000	0.328918
1194.000000	0.328911
1195.000000	0.328948
1196.000000	0.328788
1197.000000	0.328821
1198.000000	0.329089
1199.000000	0.329256
1200.000000	0.329410
1201.000000	0.329647
1202.000000	0.329823
1203.000000	0.329805
1204.000000	0.329882
1205.000000	0.329924
1206.000000	0.329885
1207.000000	0.329890
1208.000000	0.329817
1209.000000	0.329668
1210.000000	0.329663
1211.000000	0.329745
1212.000000	0.329704
1213.000000	0.329675
1214.000000	0.329710
1215.000000	0.329653
1216.000000	0.329661
1217.000000	0.329855
1218.000000	0.329888
1219.000000	0.329836
1220.000000	0.329793
1221.000000	0.329782
1222.000000	0.329756
1223.000000	0.329986
1224.000000	0.330071
1225.000000	0.330052
1226.000000	0.330202
1227.000000	0.330184
1228.000000	0.330253
1229.000000	0.330258
1230.000000	0.330234
1231.000000	0.330151
1232.000000	0.330116
1233.000000	0.330247
1234.000000	0.330410
1235.000000	0.330553
1236.000000	0.330724
1237.000000	0.330858
1238.000000	0.330898
1239.000000	0.330990
1240.000000	0.331158
1241.000000	0.331161
1242.000000	0.331162
1243.000000	0.331146
1244.000000	0.331147
1245.000000	0.331237
1246.000000	0.331157
1247.000000	0.331322
1248.000000	0.331624
1249.000000	0.331747
1250.000000	0.331840
1251.000000	0.331942
1252.000000	0.331966
1253.000000	0.331761
1254.000000	0.331761
1255.000000	0.331933
1256.000000	0.331973
1257.000000	0.331956
1258.000000	0.332083
1259.000000	0.332230
1260.000000	0.332293
1261.000000	0.332318
1262.000000	0.332360
1263.000000	0.332359
1264.000000	0.332280
1265.000000	0.332384
1266.000000	0.332514
1267.000000	0.332560
1268.000000	0.332567
1269.000000	0.332468
1270.000000	0.332495
1271.000000	0.332591
1272.000000	0.332703
1273.000000	0.332917
1274.000000	0.333106
1275.000000	0.333220
1276.000000	0.333285
1277.000000	0.333381
1278.000000	0.333412
1279.000000	0.333426
1280.000000	0.333362
1281.000000	0.333265
1282.000000	0.333067
1283.000000	0.333079
1284.000000	0.333095
1285.000000	0.333152
1286.000000	0.333335
1287.000000	0.333476
1288.000000	0.333565
1289.000000	0.333706
1290.000000	0.333763
1291.000000	0.333595
1292.000000	0.333442
1293.000000	0.333422
1294.000000	0.333336
1295.000000	0.333424
1296.000000	0.333577
1297.000000	0.333448
1298.000000	0.333424
1299.000000	0.333605
1300.000000	0.333751
1301.000000	0.333810
1302.000000	0.333721
1303.000000	0.333617
1304.000000	0.333468
1305.000000	0.333225
1306.000000	0.333117
1307.000000	0.333083
1308.000000	0.333128
1309.000000	0.333360
1310.000000	0.333407
1311.000000	0.333449
1312.000000	0.333444
1313.000000	0.333403
1314.000000	0.333429
1315.000000	0.333484
1316.000000	0.333621
1317.000000	0.333631
1318.000000	0.333583
1319.000000	0.333519
1320.000000	0.333329
1321.000000	0.333266
1322.000000	0.333252
1323.000000	0.333224
1324.000000	0.333328
1325.000000	0.333170
1326.000000	0.332887
1327.000000	0.332768
1328.000000	0.332774
1329.000000	0.332705
1330.000000	0.332769
1331.000000	0.332742
1332.000000	0.332672
1333.000000	0.332600
1334.000000	0.332647
1335.000000	0.332662
1336.000000	0.332567
1337.000000	0.332503
1338.000000	0.332401
1339.000000	0.332316
1340.000000	0.332278
1341.000000	0.332275
1342.000000	0.332189
1343.000000	0.332051
1344.000000	0.331922
1345.000000	0.331835
1346.000000	0.331952
1347.000000	0.331960
1348.000000	0.331856
1349.000000	0.331712
1350.000000	0.331634
1351.000000	0.331542
1352.000000	0.331359
1353.000000	0.331227
1354.000000	0.331166
1355.000000	0.330895
1356.000000	0.330769
1357.000000	0.330744
1358.000000	0.330591
1359.000000	0.330501
1360.000000	0.330449
1361.000000	0.330582
1362.000000	0.330474
1363.000000	0.330241
1364.000000	0.330107
1365.000000	0.329787
1366.000000	0.329657
1367.000000	0.329686
1368.000000	0.329592
1369.000000	0.329700
1370.000000	0.329744
1371.000000	0.329477
1372.000000	0.329317
1373.000000	0.329075
1374.000000	0.328701
1375.000000	0.328444
1376.000000	0.328280
1377.000000	0.328066
1378.000000	0.327844
1379.000000	0.327571
1380.000000	0.327189
1381.000000	0.326796
1382.000000	0.326427
1383.000000	0.325979
1384.000000	0.325473
1385.000000	0.324976
1386.000000	0.324422
1387.000000	0.323906
1388.000000	0.323424
1389.000000	0.322830
1390.000000	0.322206
1391.000000	0.321549
1392.000000	0.320839
1393.000000	0.320031
1394.000000	0.319206
1395.000000	0.318347
1396.000000	0.317364
1397.000000	0.316331
1398.000000	0.315249
1399.000000	0.314211
1400.000000	0.313156
1401.000000	0.312064
1402.000000	0.311072
1403.000000	0.309786
1404.000000	0.308759
1405.000000	0.307731
1406.000000	0.306748
1407.000000	0.306032
1408.000000	0.305182
1409.000000	0.304409
1410.000000	0.303797
1411.000000	0.303177
1412.000000	0.302484
1413.000000	0.301756
1414.000000	0.301050
1415.000000	0.300473
1416.000000	0.300037
1417.000000	0.299702
1418.000000	0.299403
1419.000000	0.299082
1420.000000	0.298596
1421.000000	0.298158
1422.000000	0.297704
1423.000000	0.297268
1424.000000	0.296848
1425.000000	0.296534
1426.000000	0.296294
1427.000000	0.295992
1428.000000	0.295649
1429.000000	0.295240
1430.000000	0.294849
1431.000000	0.294603
1432.000000	0.294232
1433.000000	0.293838
1434.000000	0.293528
1435.000000	0.293186
1436.000000	0.292989
1437.000000	0.293047
1438.000000	0.292900
1439.000000	0.292705
1440.000000	0.292623
1441.000000	0.292482
1442.000000	0.292470
1443.000000	0.292556
1444.000000	0.292630
1445.000000	0.292648
1446.000000	0.292809
1447.000000	0.293004
1448.000000	0.293185
1449.000000	0.293531
1450.000000	0.293856
1451.000000	0.294022
1452.000000	0.294215
1453.000000	0.294359
1454.000000	0.294371
1455.000000	0.294559
1456.000000	0.294839
1457.000000	0.294991
1458.000000	0.295108
1459.000000	0.295196
1460.000000	0.295215
1461.000000	0.295219
1462.000000	0.295258
1463.000000	0.295246
1464.000000	0.295264
1465.000000	0.295358
1466.000000	0.295472
1467.000000	0.295604
1468.000000	0.295688
1469.000000	0.295833
1470.000000	0.295880
1471.000000	0.295953
1472.000000	0.296160
1473.000000	0.296389
1474.000000	0.296563
1475.000000	0.296822
1476.000000	0.297139
1477.000000	0.297365
1478.000000	0.297639
1479.000000	0.297930
1480.000000	0.298085
1481.000000	0.298338
1482.000000	0.298735
1483.000000	0.299050
1484.000000	0.299399
1485.000000	0.299674
1486.000000	0.299821
1487.000000	0.300085
1488.000000	0.300408
1489.000000	0.300750
1490.000000	0.301043
1491.000000	0.301344
1492.000000	0.301581
1493.000000	0.301804
1494.000000	0.301972
1495.000000	0.302179
1496.000000	0.302390
1497.000000	0.302649
1498.000000	0.302988
1499.000000	0.303242
1500.000000	0.303494
1501.000000	0.303627
1502.000000	0.303708
1503.000000	0.303968
1504.000000	0.304291
1505.000000	0.304627
1506.000000	0.304896
1507.000000	0.305094
1508.000000	0.305357
1509.000000	0.305526
1510.000000	0.305719
1511.000000	0.306018
1512.000000	0.306103
1513.000000	0.306163
1514.000000	0.306372
1515.000000	0.306437
1516.000000	0.306524
1517.000000	0.306692
1518.000000	0.306868
1519.000000	0.307033
1520.000000	0.307278
1521.000000	0.307488
1522.000000	0.307658
1523.000000	0.307847
1524.000000	0.307864
1525.000000	0.307851
1526.000000	0.307854
1527.000000	0.307811
1528.000000	0.307887
1529.000000	0.307993
1530.000000	0.307984
1531.000000	0.308072
1532.000000	0.308214
1533.000000	0.308342
1534.000000	0.308510
1535.000000	0.308609
1536.000000	0.308527
1537.000000	0.308565
1538.000000	0.308809
1539.000000	0.309000
1540.000000	0.309153
1541.000000	0.309358
1542.000000	0.309424
1543.000000	0.309382
1544.000000	0.309400
1545.000000	0.309492
1546.000000	0.309632
1547.000000	0.309751
1548.000000	0.309885
1549.000000	0.309967
1550.000000	0.309818
1551.000000	0.309668
1552.000000	0.309654
1553.000000	0.309676
1554.000000	0.309787
1555.000000	0.309918
1556.000000	0.309965
1557.000000	0.309930
1558.000000	0.309914
1559.000000	0.309773
1560.000000	0.309736
1561.000000	0.309756
1562.000000	0.309806
1563.000000	0.309960
1564.000000	0.310065
1565.000000	0.310232
1566.000000	0.310234
1567.000000	0.310246
1568.000000	0.310215
1569.000000	0.310134
1570.000000	0.310061
1571.000000	0.309959
1572.000000	0.309852
1573.000000	0.309728
1574.000000	0.309680
1575.000000	0.309660
1576.000000	0.309721
1577.000000	0.309886
1578.000000	0.309945
1579.000000	0.310066
1580.000000	0.310080
1581.000000	0.310076
1582.000000	0.310038
1583.000000	0.309856
1584.000000	0.309846
1585.000000	0.309991
1586.000000	0.310115
1587.000000	0.310415
1588.000000	0.310479
1589.000000	0.310428
1590.000000	0.310401
1591.000000	0.310230
1592.000000	0.310245
1593.000000	0.310410
1594.000000	0.310448
1595.000000	0.310542
1596.000000	0.310660
1597.000000	0.310814
1598.000000	0.310839
1599.000000	0.310883
1600.000000	0.310859
1601.000000	0.310707
1602.000000	0.310707
1603.000000	0.310854
1604.000000	0.310891
1605.000000	0.310965
1606.000000	0.310991
1607.000000	0.310982
1608.000000	0.310995
1609.000000	0.311071
1610.000000	0.311083
1611.000000	0.311068
1612.000000	0.311108
1613.000000	0.311265
1614.000000	0.311363
1615.000000	0.311561
1616.000000	0.311677
1617.000000	0.311613
1618.000000	0.311673
1619.000000	0.311766
1620.000000	0.311804
1621.000000	0.311938
1622.000000	0.312057
1623.000000	0.312091
1624.000000	0.312106
1625.000000	0.311952
1626.000000	0.311862
1627.000000	0.311734
1628.000000	0.311747
1629.000000	0.311867
1630.000000	0.312008
1631.000000	0.312199
1632.000000	0.312256
1633.000000	0.312283
1634.000000	0.312332
1635.000000	0.312302
1636.000000	0.312337
1637.000000	0.312523
1638.000000	0.312553
1639.000000	0.312532
1640.000000	0.312578
1641.000000	0.312653
1642.000000	0.312727
1643.000000	0.312918
1644.000000	0.312985
1645.000000	0.313003
1646.000000	0.312955
1647.000000	0.312838
1648.000000	0.312764
1649.000000	0.312723
1650.000000	0.312754
1651.000000	0.312874
1652.000000	0.313011
1653.000000	0.313150
1654.000000	0.313278
1655.000000	0.313366
1656.000000	0.313454
1657.000000	0.313596
1658.000000	0.313729
1659.000000	0.314033
1660.000000	0.314190
1661.000000	0.314183
1662.000000	0.314249
1663.000000	0.314213
1664.000000	0.314234
1665.000000	0.314302
1666.000000	0.314515
1667.000000	0.314740
1668.000000	0.314869
1669.000000	0.315011
1670.000000	0.315070
1671.000000	0.315081
1672.000000	0.315292
1673.000000	0.315609
1674.000000	0.315900
1675.000000	0.316078
1676.000000	0.316041
1677.000000	0.316038
1678.000000	0.316096
1679.000000	0.316168
1680.000000	0.316258
1681.000000	0.316347
1682.000000	0.316262
1683.000000	0.316096
1684.000000	0.316102
1685.000000	0.316199
1686.000000	0.316289
1687.000000	0.316523
1688.000000	0.316630
1689.000000	0.316606
1690.000000	0.316745
1691.000000	0.316960
1692.000000	0.317056
1693.000000	0.317201
1694.000000	0.317131
1695.000000	0.316934
1696.000000	0.316699
1697.000000	0.316553
1698.000000	0.316571
1699.000000	0.316575
1700.000000	0.316659
1701.000000	0.316767
1702.000000	0.316645
1703.000000	0.316600
1704.000000	0.316678
1705.000000	0.316741
1706.000000	0.316931
1707.000000	0.317047
1708.000000	0.317111
1709.000000	0.317112
1710.000000	0.317070
1711.000000	0.317144
1712.000000	0.317343
1713.000000	0.317385
1714.000000	0.317520
1715.000000	0.317522
1716.000000	0.317259
1717.000000	0.317231
1718.000000	0.317257
1719.000000	0.317262
1720.000000	0.317519
1721.000000	0.317501
1722.000000	0.317239
1723.000000	0.317184
1724.000000	0.317092
1725.000000	0.317135
1726.000000	0.317343
1727.000000	0.317379
1728.000000	0.317316
1729.000000	0.317210
1730.000000	0.317097
1731.000000	0.317096
1732.000000	0.317136
1733.000000	0.317258
1734.000000	0.317350
1735.000000	0.317469
1736.000000	0.317581
1737.000000	0.317740
1738.000000	0.318022
1739.000000	0.318082
1740.000000	0.318037
1741.000000	0.318066
1742.000000	0.318004
1743.000000	0.318038
1744.000000	0.318200
1745.000000	0.318147
1746.000000	0.317897
1747.000000	0.318123
1748.000000	0.318157
1749.000000	0.318352
1750.000000	0.318384
1751.000000	0.318277
1752.000000	0.318258
1753.000000	0.318077
1754.000000	0.317958
1755.000000	0.317764
1756.000000	0.317631
1757.000000	0.317473
1758.000000	0.317524
1759.000000	0.317816
1760.000000	0.317926
1761.000000	0.318014
1762.000000	0.318143
1763.000000	0.318210
1764.000000	0.318258
1765.000000	0.318350
1766.000000	0.318434
1767.000000	0.318387
1768.000000	0.318268
1769.000000	0.318203
1770.000000	0.318246
1771.000000	0.318200
1772.000000	0.318162
1773.000000	0.318241
1774.000000	0.318186
1775.000000	0.317974
1776.000000	0.317986
1777.000000	0.318072
1778.000000	0.318098
1779.000000	0.318203
1780.000000	0.318233
1781.000000	0.318162
1782.000000	0.318105
1783.000000	0.318076
1784.000000	0.318083
1785.000000	0.318039
1786.000000	0.318102
1787.000000	0.318179
1788.000000	0.318085
1789.000000	0.318007
1790.000000	0.317977
1791.000000	0.317907
1792.000000	0.317942
1793.000000	0.318010
1794.000000	0.318134
1795.000000	0.318226
1796.000000	0.318353
1797.000000	0.318449
1798.000000	0.318478
1799.000000	0.318482
1800.000000	0.318536
1801.000000	0.318973
1802.000000	0.318845
1803.000000	0.317679
1804.000000	0.317706
1805.000000	0.318846
1806.000000	0.318763
1807.000000	0.318329
1808.000000	0.318145
1809.000000	0.317384
1810.000000	0.316331
1811.000000	0.316664
1812.000000	0.318138
1813.000000	0.318892
1814.000000	0.320542
1815.000000	0.321057
1816.000000	0.320678
1817.000000	0.320520
1818.000000	0.319930
1819.000000	0.319847
1820.000000	0.319272
1821.000000	0.319301
1822.000000	0.319103
1823.000000	0.318497
1824.000000	0.318216
1825.000000	0.318224
1826.000000	0.318101
1827.000000	0.318091
1828.000000	0.317732
1829.000000	0.316812
1830.000000	0.316514
1831.000000	0.316155
1832.000000	0.315332
1833.000000	0.315457
1834.000000	0.316713
1835.000000	0.316857
1836.000000	0.316673
1837.000000	0.316783
1838.000000	0.316667
1839.000000	0.315865
1840.000000	0.315941
1841.000000	0.316324
1842.000000	0.316732
1843.000000	0.317381
1844.000000	0.317798
1845.000000	0.318424
1846.000000	0.318623
1847.000000	0.318180
1848.000000	0.317868
1849.000000	0.317983
1850.000000	0.317448
1851.000000	0.316987
1852.000000	0.316639
1853.000000	0.316140
1854.000000	0.314995
1855.000000	0.314260
1856.000000	0.313834
1857.000000	0.312650
1858.000000	0.312099
1859.000000	0.311858
1860.000000	0.311133
1861.000000	0.311058
1862.000000	0.310487
1863.000000	0.309349
1864.000000	0.308889
1865.000000	0.309142
1866.000000	0.308328
1867.000000	0.307253
1868.000000	0.306176
1869.000000	0.304180
1870.000000	0.302178
1871.000000	0.301284
1872.000000	0.300437
1873.000000	0.299123
1874.000000	0.298100
1875.000000	0.296592
1876.000000	0.294221
1877.000000	0.291612
1878.000000	0.290013
1879.000000	0.287348
1880.000000	0.284915
1881.000000	0.283069
1882.000000	0.281051
1883.000000	0.279203
1884.000000	0.277074
1885.000000	0.275147
1886.000000	0.272456
1887.000000	0.269080
1888.000000	0.265545
1889.000000	0.261811
1890.000000	0.258036
1891.000000	0.255338
1892.000000	0.252365
1893.000000	0.249210
1894.000000	0.246142
1895.000000	0.242642
1896.000000	0.238591
1897.000000	0.234575
1898.000000	0.231005
1899.000000	0.227860
1900.000000	0.224370
1901.000000	0.221354
1902.000000	0.218442
1903.000000	0.215674
1904.000000	0.214091
1905.000000	0.212776
1906.000000	0.211254
1907.000000	0.210056
1908.000000	0.208807
1909.000000	0.207247
1910.000000	0.205797
1911.000000	0.204844
1912.000000	0.204404
1913.000000	0.203962
1914.000000	0.203923
1915.000000	0.204671
1916.000000	0.205450
1917.000000	0.205539
1918.000000	0.205878
1919.000000	0.205359
1920.000000	0.203951
1921.000000	0.202602
1922.000000	0.201830
1923.000000	0.202299
1924.000000	0.203023
1925.000000	0.204061
1926.000000	0.205166
1927.000000	0.205753
1928.000000	0.206190
1929.000000	0.206559
1930.000000	0.206354
1931.000000	0.206483
1932.000000	0.206576
1933.000000	0.206171
1934.000000	0.206601
1935.000000	0.206572
1936.000000	0.206481
1937.000000	0.206668
1938.000000	0.205992
1939.000000	0.205792
1940.000000	0.205675
1941.000000	0.205563
1942.000000	0.205419
1943.000000	0.205760
1944.000000	0.205535
1945.000000	0.205466
1946.000000	0.206083
1947.000000	0.206709
1948.000000	0.207286
1949.000000	0.207584
1950.000000	0.207266
1951.000000	0.206966
1952.000000	0.206373
1953.000000	0.205908
1954.000000	0.205812
1955.000000	0.205724
1956.000000	0.205684
1957.000000	0.205544
1958.000000	0.205040
1959.000000	0.205262
1960.000000	0.205058
1961.000000	0.205035
1962.000000	0.205138
1963.000000	0.205655
1964.000000	0.205244
1965.000000	0.205052
1966.000000	0.204885
1967.000000	0.204699
1968.000000	0.204812
1969.000000	0.204957
1970.000000	0.205223
1971.000000	0.205261
1972.000000	0.205491
1973.000000	0.205686
1974.000000	0.206219
1975.000000	0.206575
1976.000000	0.207062
1977.000000	0.206935
1978.000000	0.206792
1979.000000	0.206916
1980.000000	0.207207
1981.000000	0.207834
1982.000000	0.208335
1983.000000	0.208936
1984.000000	0.209423
1985.000000	0.209578
1986.000000	0.210012
1987.000000	0.210820
1988.000000	0.211254
1989.000000	0.211730
1990.000000	0.212167
1991.000000	0.212167
1992.000000	0.212895
1993.000000	0.213438
1994.000000	0.213873
1995.000000	0.215053
1996.000000	0.215481
1997.000000	0.215994
1998.000000	0.216349
1999.000000	0.217241
2000.000000	0.218179
2001.000000	0.219384
2002.000000	0.220935
2003.000000	0.222255
2004.000000	0.222761
2005.000000	0.222590
2006.000000	0.222582
2007.000000	0.222866
2008.000000	0.223188
2009.000000	0.223784
2010.000000	0.224544
2011.000000	0.225175
2012.000000	0.225794
2013.000000	0.226666
2014.000000	0.227039
2015.000000	0.227713
2016.000000	0.228577
2017.000000	0.229127
2018.000000	0.230086
2019.000000	0.231001
2020.000000	0.231875
2021.000000	0.232593
2022.000000	0.233334
2023.000000	0.233877
2024.000000	0.234137
2025.000000	0.234555
2026.000000	0.234789
2027.000000	0.235165
2028.000000	0.235907
2029.000000	0.236576
2030.000000	0.237511
2031.000000	0.239247
2032.000000	0.240983
2033.000000	0.242480
2034.000000	0.243559
2035.000000	0.244578
2036.000000	0.244905
2037.000000	0.244484
2038.000000	0.244572
2039.000000	0.244546
2040.000000	0.244848
2041.000000	0.244859
2042.000000	0.244700
2043.000000	0.244546
2044.000000	0.244488
2045.000000	0.244997
2046.000000	0.245796
2047.000000	0.246566
2048.000000	0.247489
2049.000000	0.248563
2050.000000	0.249647
2051.000000	0.250383
2052.000000	0.251095
2053.000000	0.251360
2054.000000	0.251327
2055.000000	0.251355
2056.000000	0.251346
2057.000000	0.251394
2058.000000	0.252077
2059.000000	0.253156
2060.000000	0.253692
2061.000000	0.254357
2062.000000	0.254680
2063.000000	0.254417
2064.000000	0.254532
2065.000000	0.255130
2066.000000	0.255405
2067.000000	0.256050
2068.000000	0.255923
2069.000000	0.256207
2070.000000	0.256693
2071.000000	0.256876
2072.000000	0.257600
2073.000000	0.258218
2074.000000	0.258522
2075.000000	0.259060
2076.000000	0.259948
2077.000000	0.260503
2078.000000	0.260818
2079.000000	0.261200
2080.000000	0.261697
2081.000000	0.261891
2082.000000	0.261609
2083.000000	0.262054
2084.000000	0.262608
2085.000000	0.263099
2086.000000	0.264314
2087.000000	0.265430
2088.000000	0.265922
2089.000000	0.266786
2090.000000	0.267408
2091.000000	0.267918
2092.000000	0.268312
2093.000000	0.268708
2094.000000	0.268939
2095.000000	0.268823
2096.000000	0.268957
2097.000000	0.269244
2098.000000	0.269030
2099.000000	0.269044
2100.000000	0.269902
2101.000000	0.270406
2102.000000	0.271006
2103.000000	0.271627
2104.000000	0.271816
2105.000000	0.272174
2106.000000	0.272447
2107.000000	0.272856
2108.000000	0.273497
2109.000000	0.273831
2110.000000	0.274056
2111.000000	0.274000
2112.000000	0.273491
2113.000000	0.272647
2114.000000	0.272489
2115.000000	0.273322
2116.000000	0.273716
2117.000000	0.274265
2118.000000	0.275011
2119.000000	0.274760
2120.000000	0.275304
2121.000000	0.276842
2122.000000	0.277173
2123.000000	0.276965
2124.000000	0.277112
2125.000000	0.276888
2126.000000	0.276718
2127.000000	0.276796
2128.000000	0.276803
2129.000000	0.276458
2130.000000	0.276083
2131.000000	0.276150
2132.000000	0.276306
2133.000000	0.277338
2134.000000	0.278792
2135.000000	0.280141
2136.000000	0.281073
2137.000000	0.281158
2138.000000	0.279892
2139.000000	0.279630
2140.000000	0.279071
2141.000000	0.278972
2142.000000	0.279506
2143.000000	0.279457
2144.000000	0.279483
2145.000000	0.279580
2146.000000	0.279587
2147.000000	0.280005
2148.000000	0.280507
2149.000000	0.280579
2150.000000	0.280804
2151.000000	0.281237
2152.000000	0.281489
2153.000000	0.280838
2154.000000	0.280110
2155.000000	0.278423
2156.000000	0.278073
2157.000000	0.278034
2158.000000	0.278395
2159.000000	0.280051
2160.000000	0.281025
2161.000000	0.281774
2162.000000	0.282504
2163.000000	0.283464
2164.000000	0.283666
2165.000000	0.283410
2166.000000	0.282799
2167.000000	0.282128
2168.000000	0.281206
2169.000000	0.281365
2170.000000	0.281812
2171.000000	0.282051
2172.000000	0.282941
2173.000000	0.282693
2174.000000	0.281637
2175.000000	0.281284
2176.000000	0.280469
2177.000000	0.280254
2178.000000	0.280971
2179.000000	0.281122
2180.000000	0.280994
2181.000000	0.281229
2182.000000	0.281495
2183.000000	0.280686
2184.000000	0.280162
2185.000000	0.279298
2186.000000	0.277395
2187.000000	0.277042
2188.000000	0.278115
2189.000000	0.279609
2190.000000	0.280943
2191.000000	0.281926
2192.000000	0.282139
2193.000000	0.280529
2194.000000	0.279675
2195.000000	0.278698
2196.000000	0.278268
2197.000000	0.277400
2198.000000	0.277294
2199.000000	0.279035
2200.000000	0.279566
2201.000000	0.280236
2202.000000	0.280233
2203.000000	0.279136
2204.000000	0.277296
2205.000000	0.276534
2206.000000	0.274402
2207.000000	0.274041
2208.000000	0.276227
2209.000000	0.276287
2210.000000	0.277093
2211.000000	0.278475
2212.000000	0.277554
2213.000000	0.277397
2214.000000	0.277791
2215.000000	0.278112
2216.000000	0.277735
2217.000000	0.278073
2218.000000	0.279324
2219.000000	0.279740
2220.000000	0.279705
2221.000000	0.279849
2222.000000	0.279748
2223.000000	0.279284
2224.000000	0.278002
2225.000000	0.279063
2226.000000	0.277644
2227.000000	0.278354
2228.000000	0.279056
2229.000000	0.276382
2230.000000	0.276503
2231.000000	0.276819
2232.000000	0.277497
2233.000000	0.280391
2234.000000	0.280984
2235.000000	0.281804
2236.000000	0.282765
2237.000000	0.283481
2238.000000	0.283694
2239.000000	0.283924
2240.000000	0.284336
2241.000000	0.285008
2242.000000	0.284177
2243.000000	0.281755
2244.000000	0.281394
2245.000000	0.281213
2246.000000	0.280595
2247.000000	0.281914
2248.000000	0.282174
2249.000000	0.281002
2250.000000	0.279200
2251.000000	0.279327
2252.000000	0.277659
2253.000000	0.276016
2254.000000	0.273280
2255.000000	0.270813
2256.000000	0.271947
2257.000000	0.273078
2258.000000	0.273893
2259.000000	0.274946
2260.000000	0.275131
2261.000000	0.274860
2262.000000	0.273999
2263.000000	0.273573
2264.000000	0.272724
2265.000000	0.271892
2266.000000	0.270728
2267.000000	0.270431
2268.000000	0.270988
2269.000000	0.270784
2270.000000	0.270531
2271.000000	0.270789
2272.000000	0.270967
2273.000000	0.270620
2274.000000	0.271633
2275.000000	0.270402
2276.000000	0.267493
2277.000000	0.263328
2278.000000	0.260995
2279.000000	0.259959
2280.000000	0.259169
2281.000000	0.261142
2282.000000	0.261370
2283.000000	0.260025
2284.000000	0.258771
2285.000000	0.255629
2286.000000	0.254165
2287.000000	0.253961
2288.000000	0.256639
2289.000000	0.259148
2290.000000	0.259037
2291.000000	0.259925
2292.000000	0.258540
2293.000000	0.256175
2294.000000	0.253862
2295.000000	0.250895
2296.000000	0.248536
2297.000000	0.245165
2298.000000	0.244662
2299.000000	0.246375
2300.000000	0.247301
2301.000000	0.249295
2302.000000	0.250603
2303.000000	0.252468
2304.000000	0.252690
2305.000000	0.251207
2306.000000	0.250958
2307.000000	0.250441
2308.000000	0.249283
2309.000000	0.249273
2310.000000	0.250697
2311.000000	0.250581
2312.000000	0.251611
2313.000000	0.251239
2314.000000	0.250710
2315.000000	0.251211
2316.000000	0.248866
2317.000000	0.247355
2318.000000	0.248639
2319.000000	0.249746
2320.000000	0.250488
2321.000000	0.252271
2322.000000	0.252466
2323.000000	0.251707
2324.000000	0.251731
2325.000000	0.251472
2326.000000	0.251056
2327.000000	0.250892
2328.000000	0.251391
2329.000000	0.251610
2330.000000	0.253254
2331.000000	0.255475
2332.000000	0.254016
2333.000000	0.251906
2334.000000	0.249201
2335.000000	0.246607
2336.000000	0.240951
2337.000000	0.239641
2338.000000	0.241151
2339.000000	0.242307
2340.000000	0.245926
2341.000000	0.247100
2342.000000	0.246670
2343.000000	0.246706
2344.000000	0.246199
2345.000000	0.245336
2346.000000	0.244786
2347.000000	0.244773
2348.000000	0.244302
2349.000000	0.243564
2350.000000	0.245476
2351.000000	0.243530
2352.000000	0.238653
2353.000000	0.236308
2354.000000	0.229641
2355.000000	0.227077
2356.000000	0.228778
2357.000000	0.226760
2358.000000	0.229696
2359.000000	0.231362
2360.000000	0.230721
2361.000000	0.231657
2362.000000	0.230090
2363.000000	0.230090
2364.000000	0.225695
2365.000000	0.224495
2366.000000	0.225259
2367.000000	0.221189
2368.000000	0.224941
2369.000000	0.227793
2370.000000	0.226448
2371.000000	0.226614
2372.000000	0.223467
2373.000000	0.218343
2374.000000	0.215335
2375.000000	0.216330
2376.000000	0.218898
2377.000000	0.222420
2378.000000	0.225089
2379.000000	0.222581
2380.000000	0.220088
2381.000000	0.220135
2382.000000	0.217607
2383.000000	0.217951
2384.000000	0.216893
2385.000000	0.209204
2386.000000	0.207328
2387.000000	0.203791
2388.000000	0.200671
2389.000000	0.204144
2390.000000	0.199730
2391.000000	0.197641
2392.000000	0.199562
2393.000000	0.197774
2394.000000	0.200920
2395.000000	0.204029
2396.000000	0.207150
2397.000000	0.211357
2398.000000	0.213900
2399.000000	0.213693
2400.000000	0.210193
2401.000000	0.205640
2402.000000	0.197698
2403.000000	0.198491
2404.000000	0.201872
2405.000000	0.203661
2406.000000	0.215527
2407.000000	0.222019
2408.000000	0.223684
2409.000000	0.222138
2410.000000	0.213855
2411.000000	0.208376
2412.000000	0.202512
2413.000000	0.204312
2414.000000	0.213409
2415.000000	0.207910
2416.000000	0.200826
2417.000000	0.197056
2418.000000	0.184588
2419.000000	0.183463
2420.000000	0.184291
2421.000000	0.178813
2422.000000	0.183214
2423.000000	0.193008
2424.000000	0.208571
2425.000000	0.220302
2426.000000	0.226268
2427.000000	0.222127
2428.000000	0.210331
2429.000000	0.205207
2430.000000	0.196743
2431.000000	0.200770
2432.000000	0.209333
2433.000000	0.214043
2434.000000	0.225682
2435.000000	0.227460
2436.000000	0.219674
2437.000000	0.204383
2438.000000	0.191302
2439.000000	0.185858
2440.000000	0.180854
2441.000000	0.187830
2442.000000	0.200177
2443.000000	0.192059
2444.000000	0.191546
2445.000000	0.198968
2446.000000	0.188635
2447.000000	0.186403
2448.000000	0.176643
2449.000000	0.160936
2450.000000	0.166168
2451.000000	0.169060
2452.000000	0.180135
2453.000000	0.196762
2454.000000	0.194705
2455.000000	0.183589
2456.000000	0.172636
2457.000000	0.173350
2458.000000	0.171371
2459.000000	0.175194
2460.000000	0.195233
2461.000000	0.195607
2462.000000	0.193230
2463.000000	0.194086
2464.000000	0.189970
2465.000000	0.190266
2466.000000	0.187950
2467.000000	0.188228
2468.000000	0.183754
2469.000000	0.173477
2470.000000	0.172285
2471.000000	0.174620
2472.000000	0.177428
2473.000000	0.205051
2474.000000	0.233876
2475.000000	0.240957
2476.000000	0.251130
2477.000000	0.242103
2478.000000	0.212940
2479.000000	0.200730
2480.000000	0.205130
2481.000000	0.192834
2482.000000	0.188102
2483.000000	0.196340
2484.000000	0.189390
2485.000000	0.194370
2486.000000	0.201639
2487.000000	0.193503
2488.000000	0.197302
2489.000000	0.186335
2490.000000	0.168147
2491.000000	0.203453
2492.000000	0.212476
2493.000000	0.268240
2494.000000	0.289182
2495.000000	0.222262
2496.000000	0.220685
2497.000000	0.237173
2498.000000	0.236410
2499.000000	0.298832
2500.000000	0.304707
