# Wavelength	NAu-1-30_HEX-30_FV7-40_00000.asd.rts.txt
350.000000	0.212679
351.000000	0.191795
352.000000	0.169599
353.000000	0.159902
354.000000	0.166179
355.000000	0.176199
356.000000	0.173373
357.000000	0.163784
358.000000	0.167495
359.000000	0.168799
360.000000	0.167701
361.000000	0.167149
362.000000	0.164437
363.000000	0.163996
364.000000	0.166819
365.000000	0.166333
366.000000	0.162809
367.000000	0.160186
368.000000	0.166796
369.000000	0.166514
370.000000	0.163430
371.000000	0.166307
372.000000	0.168613
373.000000	0.169274
374.000000	0.169110
375.000000	0.171187
376.000000	0.171652
377.000000	0.170343
378.000000	0.170692
379.000000	0.172780
380.000000	0.174283
381.000000	0.173375
382.000000	0.174287
383.000000	0.175213
384.000000	0.174936
385.000000	0.175398
386.000000	0.173168
387.000000	0.170223
388.000000	0.174664
389.000000	0.178418
390.000000	0.180134
391.000000	0.180580
392.000000	0.180773
393.000000	0.182342
394.000000	0.185322
395.000000	0.184587
396.000000	0.184468
397.000000	0.186343
398.000000	0.188015
399.000000	0.188812
400.000000	0.189386
401.000000	0.190819
402.000000	0.190720
403.000000	0.191163
404.000000	0.193582
405.000000	0.192819
406.000000	0.193649
407.000000	0.197100
408.000000	0.197394
409.000000	0.197831
410.000000	0.199050
411.000000	0.200342
412.000000	0.200293
413.000000	0.200337
414.000000	0.201958
415.000000	0.202902
416.000000	0.203320
417.000000	0.203525
418.000000	0.203696
419.000000	0.203961
420.000000	0.204487
421.000000	0.205511
422.000000	0.206014
423.000000	0.205935
424.000000	0.205712
425.000000	0.206348
426.000000	0.206842
427.000000	0.206548
428.000000	0.206756
429.000000	0.206895
430.000000	0.206819
431.000000	0.206936
432.000000	0.207079
433.000000	0.207202
434.000000	0.207396
435.000000	0.207753
436.000000	0.208036
437.000000	0.207980
438.000000	0.207525
439.000000	0.207287
440.000000	0.207453
441.000000	0.207028
442.000000	0.206785
443.000000	0.206773
444.000000	0.206705
445.000000	0.206870
446.000000	0.207060
447.000000	0.206937
448.000000	0.207522
449.000000	0.208523
450.000000	0.209565
451.000000	0.210348
452.000000	0.211394
453.000000	0.212823
454.000000	0.214546
455.000000	0.216098
456.000000	0.217625
457.000000	0.219385
458.000000	0.221307
459.000000	0.222967
460.000000	0.224137
461.000000	0.225363
462.000000	0.226571
463.000000	0.227585
464.000000	0.228547
465.000000	0.229509
466.000000	0.230298
467.000000	0.230701
468.000000	0.231508
469.000000	0.232284
470.000000	0.232585
471.000000	0.233083
472.000000	0.233681
473.000000	0.234301
474.000000	0.235068
475.000000	0.235511
476.000000	0.235763
477.000000	0.236305
478.000000	0.236727
479.000000	0.237168
480.000000	0.237634
481.000000	0.238034
482.000000	0.238447
483.000000	0.238789
484.000000	0.239337
485.000000	0.239858
486.000000	0.240366
487.000000	0.240787
488.000000	0.241169
489.000000	0.241554
490.000000	0.241961
491.000000	0.242382
492.000000	0.242867
493.000000	0.243343
494.000000	0.243847
495.000000	0.244334
496.000000	0.244778
497.000000	0.245421
498.000000	0.245986
499.000000	0.246469
500.000000	0.247007
501.000000	0.247479
502.000000	0.247986
503.000000	0.248633
504.000000	0.249313
505.000000	0.249924
506.000000	0.250393
507.000000	0.250702
508.000000	0.251134
509.000000	0.251772
510.000000	0.252452
511.000000	0.253142
512.000000	0.253817
513.000000	0.254402
514.000000	0.254941
515.000000	0.255563
516.000000	0.256315
517.000000	0.256822
518.000000	0.257372
519.000000	0.258090
520.000000	0.258674
521.000000	0.259306
522.000000	0.260024
523.000000	0.260604
524.000000	0.261238
525.000000	0.261957
526.000000	0.262755
527.000000	0.263538
528.000000	0.264244
529.000000	0.264900
530.000000	0.265629
531.000000	0.266393
532.000000	0.267091
533.000000	0.267848
534.000000	0.268627
535.000000	0.269391
536.000000	0.270131
537.000000	0.270919
538.000000	0.271723
539.000000	0.272460
540.000000	0.273144
541.000000	0.273822
542.000000	0.274574
543.000000	0.275420
544.000000	0.276272
545.000000	0.277023
546.000000	0.277764
547.000000	0.278523
548.000000	0.279313
549.000000	0.280038
550.000000	0.280826
551.000000	0.281611
552.000000	0.282259
553.000000	0.283068
554.000000	0.283859
555.000000	0.284526
556.000000	0.285350
557.000000	0.286102
558.000000	0.286819
559.000000	0.287504
560.000000	0.288164
561.000000	0.288883
562.000000	0.289615
563.000000	0.290225
564.000000	0.290887
565.000000	0.291622
566.000000	0.292054
567.000000	0.292511
568.000000	0.293156
569.000000	0.293815
570.000000	0.294350
571.000000	0.294787
572.000000	0.295347
573.000000	0.295896
574.000000	0.296352
575.000000	0.296731
576.000000	0.297280
577.000000	0.297830
578.000000	0.298274
579.000000	0.298610
580.000000	0.298995
581.000000	0.299451
582.000000	0.299785
583.000000	0.300154
584.000000	0.300553
585.000000	0.300896
586.000000	0.301227
587.000000	0.301537
588.000000	0.301807
589.000000	0.302026
590.000000	0.302225
591.000000	0.302436
592.000000	0.302697
593.000000	0.302936
594.000000	0.303143
595.000000	0.303379
596.000000	0.303596
597.000000	0.303807
598.000000	0.303950
599.000000	0.304094
600.000000	0.304303
601.000000	0.304525
602.000000	0.304707
603.000000	0.304832
604.000000	0.304936
605.000000	0.305105
606.000000	0.305286
607.000000	0.305448
608.000000	0.305564
609.000000	0.305690
610.000000	0.305851
611.000000	0.306044
612.000000	0.306150
613.000000	0.306265
614.000000	0.306451
615.000000	0.306462
616.000000	0.306493
617.000000	0.306579
618.000000	0.306709
619.000000	0.306770
620.000000	0.306783
621.000000	0.306877
622.000000	0.306924
623.000000	0.306980
624.000000	0.307083
625.000000	0.307087
626.000000	0.307142
627.000000	0.307296
628.000000	0.307426
629.000000	0.307608
630.000000	0.307724
631.000000	0.307848
632.000000	0.308004
633.000000	0.308129
634.000000	0.308170
635.000000	0.308314
636.000000	0.308551
637.000000	0.308796
638.000000	0.308897
639.000000	0.309048
640.000000	0.309275
641.000000	0.309295
642.000000	0.309433
643.000000	0.309671
644.000000	0.309879
645.000000	0.309966
646.000000	0.310050
647.000000	0.310200
648.000000	0.310368
649.000000	0.310575
650.000000	0.310793
651.000000	0.310991
652.000000	0.311103
653.000000	0.311214
654.000000	0.311390
655.000000	0.311577
656.000000	0.311791
657.000000	0.311980
658.000000	0.312100
659.000000	0.312275
660.000000	0.312527
661.000000	0.312750
662.000000	0.312950
663.000000	0.313184
664.000000	0.313433
665.000000	0.313650
666.000000	0.313843
667.000000	0.314006
668.000000	0.314166
669.000000	0.314367
670.000000	0.314619
671.000000	0.314831
672.000000	0.315073
673.000000	0.315339
674.000000	0.315585
675.000000	0.315813
676.000000	0.316036
677.000000	0.316292
678.000000	0.316626
679.000000	0.316912
680.000000	0.317101
681.000000	0.317341
682.000000	0.317645
683.000000	0.317926
684.000000	0.318230
685.000000	0.318478
686.000000	0.318738
687.000000	0.319053
688.000000	0.319318
689.000000	0.319560
690.000000	0.319849
691.000000	0.320185
692.000000	0.320467
693.000000	0.320759
694.000000	0.321141
695.000000	0.321490
696.000000	0.321818
697.000000	0.322186
698.000000	0.322519
699.000000	0.322846
700.000000	0.323189
701.000000	0.323463
702.000000	0.323762
703.000000	0.324080
704.000000	0.324330
705.000000	0.324587
706.000000	0.324871
707.000000	0.325263
708.000000	0.325605
709.000000	0.325931
710.000000	0.326310
711.000000	0.326710
712.000000	0.327075
713.000000	0.327415
714.000000	0.327774
715.000000	0.328075
716.000000	0.328362
717.000000	0.328703
718.000000	0.329031
719.000000	0.329370
720.000000	0.329739
721.000000	0.329985
722.000000	0.330200
723.000000	0.330479
724.000000	0.330716
725.000000	0.330946
726.000000	0.331250
727.000000	0.331552
728.000000	0.331845
729.000000	0.332106
730.000000	0.332285
731.000000	0.332554
732.000000	0.332841
733.000000	0.333139
734.000000	0.333400
735.000000	0.333612
736.000000	0.333915
737.000000	0.334219
738.000000	0.334445
739.000000	0.334749
740.000000	0.335038
741.000000	0.335232
742.000000	0.335410
743.000000	0.335590
744.000000	0.335826
745.000000	0.336016
746.000000	0.336214
747.000000	0.336409
748.000000	0.336573
749.000000	0.336746
750.000000	0.336915
751.000000	0.337070
752.000000	0.337183
753.000000	0.337295
754.000000	0.337485
755.000000	0.337636
756.000000	0.337745
757.000000	0.337800
758.000000	0.337894
759.000000	0.338012
760.000000	0.338082
761.000000	0.338256
762.000000	0.338336
763.000000	0.338326
764.000000	0.338430
765.000000	0.338487
766.000000	0.338533
767.000000	0.338611
768.000000	0.338667
769.000000	0.338712
770.000000	0.338748
771.000000	0.338738
772.000000	0.338789
773.000000	0.338772
774.000000	0.338634
775.000000	0.338605
776.000000	0.338609
777.000000	0.338556
778.000000	0.338529
779.000000	0.338531
780.000000	0.338528
781.000000	0.338429
782.000000	0.338379
783.000000	0.338418
784.000000	0.338359
785.000000	0.338286
786.000000	0.338227
787.000000	0.338208
788.000000	0.338300
789.000000	0.338316
790.000000	0.338230
791.000000	0.338156
792.000000	0.338043
793.000000	0.337884
794.000000	0.337700
795.000000	0.337567
796.000000	0.337418
797.000000	0.337259
798.000000	0.337179
799.000000	0.337085
800.000000	0.337020
801.000000	0.337032
802.000000	0.336881
803.000000	0.336709
804.000000	0.336624
805.000000	0.336480
806.000000	0.336312
807.000000	0.336221
808.000000	0.336168
809.000000	0.336111
810.000000	0.336049
811.000000	0.335964
812.000000	0.335828
813.000000	0.335647
814.000000	0.335455
815.000000	0.335332
816.000000	0.335182
817.000000	0.335056
818.000000	0.334922
819.000000	0.334762
820.000000	0.334595
821.000000	0.334368
822.000000	0.334076
823.000000	0.333949
824.000000	0.333840
825.000000	0.333634
826.000000	0.333565
827.000000	0.333434
828.000000	0.333200
829.000000	0.333081
830.000000	0.332869
831.000000	0.332658
832.000000	0.332504
833.000000	0.332337
834.000000	0.332087
835.000000	0.331798
836.000000	0.331676
837.000000	0.331548
838.000000	0.331403
839.000000	0.331302
840.000000	0.331061
841.000000	0.330839
842.000000	0.330739
843.000000	0.330585
844.000000	0.330458
845.000000	0.330353
846.000000	0.330244
847.000000	0.330031
848.000000	0.329781
849.000000	0.329612
850.000000	0.329350
851.000000	0.329184
852.000000	0.329179
853.000000	0.329104
854.000000	0.328881
855.000000	0.328649
856.000000	0.328400
857.000000	0.328088
858.000000	0.327874
859.000000	0.327725
860.000000	0.327543
861.000000	0.327313
862.000000	0.327117
863.000000	0.326966
864.000000	0.326713
865.000000	0.326478
866.000000	0.326353
867.000000	0.326271
868.000000	0.326115
869.000000	0.325838
870.000000	0.325571
871.000000	0.325422
872.000000	0.325314
873.000000	0.325135
874.000000	0.324981
875.000000	0.324754
876.000000	0.324540
877.000000	0.324392
878.000000	0.324072
879.000000	0.323822
880.000000	0.323648
881.000000	0.323558
882.000000	0.323411
883.000000	0.323254
884.000000	0.323119
885.000000	0.322798
886.000000	0.322523
887.000000	0.322403
888.000000	0.322137
889.000000	0.321974
890.000000	0.321796
891.000000	0.321608
892.000000	0.321479
893.000000	0.321326
894.000000	0.321184
895.000000	0.320880
896.000000	0.320602
897.000000	0.320386
898.000000	0.320212
899.000000	0.320078
900.000000	0.319894
901.000000	0.319637
902.000000	0.319514
903.000000	0.319424
904.000000	0.319290
905.000000	0.318993
906.000000	0.318892
907.000000	0.318745
908.000000	0.318544
909.000000	0.318359
910.000000	0.318149
911.000000	0.317933
912.000000	0.317755
913.000000	0.317634
914.000000	0.317452
915.000000	0.317265
916.000000	0.317086
917.000000	0.316939
918.000000	0.316769
919.000000	0.316523
920.000000	0.316272
921.000000	0.316107
922.000000	0.316033
923.000000	0.315956
924.000000	0.315687
925.000000	0.315552
926.000000	0.315656
927.000000	0.315510
928.000000	0.315303
929.000000	0.315087
930.000000	0.314875
931.000000	0.314647
932.000000	0.314424
933.000000	0.314234
934.000000	0.313994
935.000000	0.313815
936.000000	0.313808
937.000000	0.313837
938.000000	0.313475
939.000000	0.313279
940.000000	0.313159
941.000000	0.312832
942.000000	0.312556
943.000000	0.312472
944.000000	0.312417
945.000000	0.312147
946.000000	0.312098
947.000000	0.312180
948.000000	0.312065
949.000000	0.311645
950.000000	0.311361
951.000000	0.311222
952.000000	0.310943
953.000000	0.310931
954.000000	0.310906
955.000000	0.310600
956.000000	0.310402
957.000000	0.310195
958.000000	0.309999
959.000000	0.309953
960.000000	0.309701
961.000000	0.309453
962.000000	0.309317
963.000000	0.309285
964.000000	0.309355
965.000000	0.309319
966.000000	0.308974
967.000000	0.308795
968.000000	0.308601
969.000000	0.308363
970.000000	0.308246
971.000000	0.308235
972.000000	0.308221
973.000000	0.308192
974.000000	0.308446
975.000000	0.308335
976.000000	0.308029
977.000000	0.307815
978.000000	0.307751
979.000000	0.307818
980.000000	0.307684
981.000000	0.307439
982.000000	0.307195
983.000000	0.306965
984.000000	0.306875
985.000000	0.306992
986.000000	0.306980
987.000000	0.306879
988.000000	0.306683
989.000000	0.306511
990.000000	0.306584
991.000000	0.306764
992.000000	0.306873
993.000000	0.307023
994.000000	0.307059
995.000000	0.307036
996.000000	0.306815
997.000000	0.306984
998.000000	0.307037
999.000000	0.306871
1000.000000	0.306911
1001.000000	0.307061
1002.000000	0.307153
1003.000000	0.306606
1004.000000	0.306473
1005.000000	0.306621
1006.000000	0.306403
1007.000000	0.305972
1008.000000	0.306073
1009.000000	0.306231
1010.000000	0.306252
1011.000000	0.306706
1012.000000	0.307024
1013.000000	0.306687
1014.000000	0.306713
1015.000000	0.306658
1016.000000	0.306242
1017.000000	0.305925
1018.000000	0.306141
1019.000000	0.306281
1020.000000	0.306712
1021.000000	0.306563
1022.000000	0.306331
1023.000000	0.306349
1024.000000	0.305744
1025.000000	0.306349
1026.000000	0.306949
1027.000000	0.307124
1028.000000	0.307626
1029.000000	0.307735
1030.000000	0.307244
1031.000000	0.306668
1032.000000	0.306817
1033.000000	0.307609
1034.000000	0.307731
1035.000000	0.308315
1036.000000	0.308419
1037.000000	0.307241
1038.000000	0.306986
1039.000000	0.307160
1040.000000	0.307875
1041.000000	0.308557
1042.000000	0.309205
1043.000000	0.309551
1044.000000	0.310315
1045.000000	0.310925
1046.000000	0.311019
1047.000000	0.311001
1048.000000	0.310347
1049.000000	0.310319
1050.000000	0.310388
1051.000000	0.310611
1052.000000	0.311337
1053.000000	0.311660
1054.000000	0.311855
1055.000000	0.312192
1056.000000	0.312587
1057.000000	0.312931
1058.000000	0.313303
1059.000000	0.313650
1060.000000	0.313741
1061.000000	0.313683
1062.000000	0.313611
1063.000000	0.313722
1064.000000	0.313780
1065.000000	0.313730
1066.000000	0.313997
1067.000000	0.314195
1068.000000	0.314668
1069.000000	0.315711
1070.000000	0.316245
1071.000000	0.316680
1072.000000	0.317184
1073.000000	0.317511
1074.000000	0.318065
1075.000000	0.318194
1076.000000	0.318385
1077.000000	0.318891
1078.000000	0.318731
1079.000000	0.318917
1080.000000	0.319497
1081.000000	0.319917
1082.000000	0.320154
1083.000000	0.320628
1084.000000	0.321557
1085.000000	0.322074
1086.000000	0.322573
1087.000000	0.322732
1088.000000	0.322124
1089.000000	0.322109
1090.000000	0.322260
1091.000000	0.322179
1092.000000	0.322686
1093.000000	0.323001
1094.000000	0.323128
1095.000000	0.322786
1096.000000	0.323098
1097.000000	0.323578
1098.000000	0.324100
1099.000000	0.324834
1100.000000	0.325567
1101.000000	0.326609
1102.000000	0.326989
1103.000000	0.326890
1104.000000	0.327196
1105.000000	0.327242
1106.000000	0.327379
1107.000000	0.327767
1108.000000	0.328188
1109.000000	0.328613
1110.000000	0.328950
1111.000000	0.329292
1112.000000	0.329918
1113.000000	0.330196
1114.000000	0.330008
1115.000000	0.330372
1116.000000	0.331062
1117.000000	0.331429
1118.000000	0.331865
1119.000000	0.332183
1120.000000	0.332275
1121.000000	0.332392
1122.000000	0.332730
1123.000000	0.333043
1124.000000	0.332752
1125.000000	0.332908
1126.000000	0.333206
1127.000000	0.333471
1128.000000	0.333817
1129.000000	0.334538
1130.000000	0.334788
1131.000000	0.334781
1132.000000	0.334971
1133.000000	0.335175
1134.000000	0.335335
1135.000000	0.335561
1136.000000	0.335662
1137.000000	0.335463
1138.000000	0.335541
1139.000000	0.335953
1140.000000	0.336185
1141.000000	0.336249
1142.000000	0.336529
1143.000000	0.336780
1144.000000	0.337101
1145.000000	0.337346
1146.000000	0.337747
1147.000000	0.337989
1148.000000	0.337989
1149.000000	0.338120
1150.000000	0.338307
1151.000000	0.338511
1152.000000	0.338606
1153.000000	0.338828
1154.000000	0.339203
1155.000000	0.339354
1156.000000	0.339338
1157.000000	0.339525
1158.000000	0.339664
1159.000000	0.339812
1160.000000	0.340166
1161.000000	0.340356
1162.000000	0.340495
1163.000000	0.340629
1164.000000	0.340852
1165.000000	0.340973
1166.000000	0.341091
1167.000000	0.341208
1168.000000	0.341207
1169.000000	0.341021
1170.000000	0.341128
1171.000000	0.341392
1172.000000	0.341568
1173.000000	0.341857
1174.000000	0.342021
1175.000000	0.342022
1176.000000	0.342029
1177.000000	0.342034
1178.000000	0.342153
1179.000000	0.342299
1180.000000	0.342406
1181.000000	0.342646
1182.000000	0.342980
1183.000000	0.343244
1184.000000	0.343313
1185.000000	0.343412
1186.000000	0.343470
1187.000000	0.343493
1188.000000	0.343403
1189.000000	0.343484
1190.000000	0.343710
1191.000000	0.343773
1192.000000	0.343976
1193.000000	0.344218
1194.000000	0.344210
1195.000000	0.344295
1196.000000	0.344406
1197.000000	0.344499
1198.000000	0.344640
1199.000000	0.344720
1200.000000	0.344721
1201.000000	0.344870
1202.000000	0.344867
1203.000000	0.344932
1204.000000	0.345106
1205.000000	0.345078
1206.000000	0.345087
1207.000000	0.345158
1208.000000	0.345150
1209.000000	0.345187
1210.000000	0.345224
1211.000000	0.345198
1212.000000	0.345230
1213.000000	0.345311
1214.000000	0.345438
1215.000000	0.345636
1216.000000	0.345771
1217.000000	0.345885
1218.000000	0.345972
1219.000000	0.346107
1220.000000	0.346100
1221.000000	0.346103
1222.000000	0.346232
1223.000000	0.346294
1224.000000	0.346438
1225.000000	0.346530
1226.000000	0.346514
1227.000000	0.346489
1228.000000	0.346511
1229.000000	0.346566
1230.000000	0.346724
1231.000000	0.346677
1232.000000	0.346648
1233.000000	0.346812
1234.000000	0.346973
1235.000000	0.347025
1236.000000	0.347067
1237.000000	0.347155
1238.000000	0.347018
1239.000000	0.347019
1240.000000	0.347211
1241.000000	0.347331
1242.000000	0.347275
1243.000000	0.347333
1244.000000	0.347330
1245.000000	0.347288
1246.000000	0.347329
1247.000000	0.347435
1248.000000	0.347526
1249.000000	0.347673
1250.000000	0.347809
1251.000000	0.347735
1252.000000	0.347682
1253.000000	0.347604
1254.000000	0.347589
1255.000000	0.347570
1256.000000	0.347555
1257.000000	0.347636
1258.000000	0.347660
1259.000000	0.347463
1260.000000	0.347484
1261.000000	0.347549
1262.000000	0.347608
1263.000000	0.347712
1264.000000	0.347961
1265.000000	0.348157
1266.000000	0.348102
1267.000000	0.348189
1268.000000	0.348246
1269.000000	0.348098
1270.000000	0.348230
1271.000000	0.348203
1272.000000	0.348046
1273.000000	0.348201
1274.000000	0.348227
1275.000000	0.348207
1276.000000	0.348302
1277.000000	0.348359
1278.000000	0.348207
1279.000000	0.348078
1280.000000	0.347824
1281.000000	0.347630
1282.000000	0.347447
1283.000000	0.347434
1284.000000	0.347524
1285.000000	0.347565
1286.000000	0.347617
1287.000000	0.347640
1288.000000	0.347603
1289.000000	0.347548
1290.000000	0.347396
1291.000000	0.347309
1292.000000	0.347419
1293.000000	0.347510
1294.000000	0.347632
1295.000000	0.347752
1296.000000	0.347727
1297.000000	0.347632
1298.000000	0.347578
1299.000000	0.347515
1300.000000	0.347627
1301.000000	0.347849
1302.000000	0.347854
1303.000000	0.348028
1304.000000	0.348009
1305.000000	0.347726
1306.000000	0.347646
1307.000000	0.347782
1308.000000	0.347795
1309.000000	0.347796
1310.000000	0.347793
1311.000000	0.347790
1312.000000	0.347655
1313.000000	0.347650
1314.000000	0.347640
1315.000000	0.347542
1316.000000	0.347643
1317.000000	0.347740
1318.000000	0.347784
1319.000000	0.347807
1320.000000	0.347663
1321.000000	0.347332
1322.000000	0.347121
1323.000000	0.347068
1324.000000	0.347067
1325.000000	0.347067
1326.000000	0.346988
1327.000000	0.346890
1328.000000	0.346897
1329.000000	0.346798
1330.000000	0.346714
1331.000000	0.346625
1332.000000	0.346517
1333.000000	0.346329
1334.000000	0.346202
1335.000000	0.346238
1336.000000	0.346284
1337.000000	0.346289
1338.000000	0.346428
1339.000000	0.346263
1340.000000	0.345971
1341.000000	0.345753
1342.000000	0.345582
1343.000000	0.345366
1344.000000	0.345239
1345.000000	0.345285
1346.000000	0.345314
1347.000000	0.345223
1348.000000	0.345039
1349.000000	0.344592
1350.000000	0.344395
1351.000000	0.344337
1352.000000	0.344256
1353.000000	0.344296
1354.000000	0.344260
1355.000000	0.344141
1356.000000	0.344089
1357.000000	0.343942
1358.000000	0.343736
1359.000000	0.343537
1360.000000	0.343372
1361.000000	0.343206
1362.000000	0.343146
1363.000000	0.343221
1364.000000	0.343144
1365.000000	0.343013
1366.000000	0.342944
1367.000000	0.342802
1368.000000	0.342702
1369.000000	0.342788
1370.000000	0.342588
1371.000000	0.342267
1372.000000	0.341847
1373.000000	0.341423
1374.000000	0.341217
1375.000000	0.341020
1376.000000	0.340953
1377.000000	0.340915
1378.000000	0.340744
1379.000000	0.340469
1380.000000	0.340075
1381.000000	0.339576
1382.000000	0.339047
1383.000000	0.338581
1384.000000	0.338088
1385.000000	0.337609
1386.000000	0.337140
1387.000000	0.336572
1388.000000	0.335939
1389.000000	0.335239
1390.000000	0.334694
1391.000000	0.334235
1392.000000	0.333794
1393.000000	0.333291
1394.000000	0.332817
1395.000000	0.332280
1396.000000	0.331760
1397.000000	0.331062
1398.000000	0.330175
1399.000000	0.329460
1400.000000	0.328661
1401.000000	0.327893
1402.000000	0.327327
1403.000000	0.326604
1404.000000	0.325744
1405.000000	0.324811
1406.000000	0.323824
1407.000000	0.322952
1408.000000	0.322098
1409.000000	0.321318
1410.000000	0.320677
1411.000000	0.320022
1412.000000	0.319347
1413.000000	0.318711
1414.000000	0.318067
1415.000000	0.317458
1416.000000	0.316926
1417.000000	0.316437
1418.000000	0.315911
1419.000000	0.315475
1420.000000	0.315026
1421.000000	0.314726
1422.000000	0.314447
1423.000000	0.314075
1424.000000	0.313555
1425.000000	0.313011
1426.000000	0.312400
1427.000000	0.311844
1428.000000	0.311391
1429.000000	0.310865
1430.000000	0.310418
1431.000000	0.310053
1432.000000	0.309690
1433.000000	0.309413
1434.000000	0.309146
1435.000000	0.308918
1436.000000	0.308795
1437.000000	0.308727
1438.000000	0.308735
1439.000000	0.308876
1440.000000	0.309063
1441.000000	0.309341
1442.000000	0.309619
1443.000000	0.309873
1444.000000	0.310233
1445.000000	0.310584
1446.000000	0.310881
1447.000000	0.311113
1448.000000	0.311359
1449.000000	0.311527
1450.000000	0.311741
1451.000000	0.311918
1452.000000	0.311834
1453.000000	0.311804
1454.000000	0.311718
1455.000000	0.311701
1456.000000	0.311946
1457.000000	0.312024
1458.000000	0.311977
1459.000000	0.311887
1460.000000	0.311750
1461.000000	0.311757
1462.000000	0.311878
1463.000000	0.311881
1464.000000	0.311836
1465.000000	0.311930
1466.000000	0.311935
1467.000000	0.311952
1468.000000	0.312074
1469.000000	0.312141
1470.000000	0.312142
1471.000000	0.312256
1472.000000	0.312377
1473.000000	0.312500
1474.000000	0.312579
1475.000000	0.312665
1476.000000	0.312797
1477.000000	0.312999
1478.000000	0.313214
1479.000000	0.313385
1480.000000	0.313655
1481.000000	0.313885
1482.000000	0.314126
1483.000000	0.314372
1484.000000	0.314656
1485.000000	0.314890
1486.000000	0.315035
1487.000000	0.315281
1488.000000	0.315615
1489.000000	0.315871
1490.000000	0.316031
1491.000000	0.316240
1492.000000	0.316366
1493.000000	0.316549
1494.000000	0.316685
1495.000000	0.316885
1496.000000	0.317125
1497.000000	0.317347
1498.000000	0.317608
1499.000000	0.317914
1500.000000	0.318255
1501.000000	0.318538
1502.000000	0.318756
1503.000000	0.319008
1504.000000	0.319200
1505.000000	0.319413
1506.000000	0.319665
1507.000000	0.319822
1508.000000	0.319966
1509.000000	0.320072
1510.000000	0.320217
1511.000000	0.320497
1512.000000	0.320646
1513.000000	0.320757
1514.000000	0.320915
1515.000000	0.320966
1516.000000	0.321173
1517.000000	0.321329
1518.000000	0.321395
1519.000000	0.321418
1520.000000	0.321451
1521.000000	0.321509
1522.000000	0.321527
1523.000000	0.321765
1524.000000	0.322017
1525.000000	0.322202
1526.000000	0.322431
1527.000000	0.322499
1528.000000	0.322472
1529.000000	0.322494
1530.000000	0.322464
1531.000000	0.322545
1532.000000	0.322722
1533.000000	0.322732
1534.000000	0.322707
1535.000000	0.322677
1536.000000	0.322569
1537.000000	0.322718
1538.000000	0.322972
1539.000000	0.323137
1540.000000	0.323274
1541.000000	0.323316
1542.000000	0.323269
1543.000000	0.323262
1544.000000	0.323334
1545.000000	0.323473
1546.000000	0.323648
1547.000000	0.323796
1548.000000	0.323799
1549.000000	0.323694
1550.000000	0.323634
1551.000000	0.323581
1552.000000	0.323698
1553.000000	0.323868
1554.000000	0.323924
1555.000000	0.324097
1556.000000	0.324226
1557.000000	0.324265
1558.000000	0.324310
1559.000000	0.324294
1560.000000	0.324209
1561.000000	0.324055
1562.000000	0.323995
1563.000000	0.323999
1564.000000	0.324000
1565.000000	0.324047
1566.000000	0.324006
1567.000000	0.323982
1568.000000	0.323968
1569.000000	0.324051
1570.000000	0.324101
1571.000000	0.324153
1572.000000	0.324172
1573.000000	0.324162
1574.000000	0.324144
1575.000000	0.324132
1576.000000	0.324090
1577.000000	0.323952
1578.000000	0.323949
1579.000000	0.324096
1580.000000	0.324141
1581.000000	0.324282
1582.000000	0.324396
1583.000000	0.324433
1584.000000	0.324413
1585.000000	0.324491
1586.000000	0.324563
1587.000000	0.324559
1588.000000	0.324572
1589.000000	0.324663
1590.000000	0.324714
1591.000000	0.324736
1592.000000	0.324722
1593.000000	0.324723
1594.000000	0.324745
1595.000000	0.324766
1596.000000	0.324833
1597.000000	0.325052
1598.000000	0.325049
1599.000000	0.324947
1600.000000	0.324911
1601.000000	0.324861
1602.000000	0.324835
1603.000000	0.324966
1604.000000	0.324894
1605.000000	0.324706
1606.000000	0.324642
1607.000000	0.324544
1608.000000	0.324558
1609.000000	0.324807
1610.000000	0.324843
1611.000000	0.324853
1612.000000	0.324858
1613.000000	0.324900
1614.000000	0.324881
1615.000000	0.324873
1616.000000	0.324912
1617.000000	0.324900
1618.000000	0.324837
1619.000000	0.324724
1620.000000	0.324755
1621.000000	0.324821
1622.000000	0.324923
1623.000000	0.325157
1624.000000	0.325268
1625.000000	0.325101
1626.000000	0.325154
1627.000000	0.325312
1628.000000	0.325497
1629.000000	0.325846
1630.000000	0.326007
1631.000000	0.326013
1632.000000	0.326034
1633.000000	0.325974
1634.000000	0.325944
1635.000000	0.325954
1636.000000	0.325941
1637.000000	0.325893
1638.000000	0.325923
1639.000000	0.326125
1640.000000	0.326143
1641.000000	0.326207
1642.000000	0.326201
1643.000000	0.326019
1644.000000	0.326004
1645.000000	0.326106
1646.000000	0.326074
1647.000000	0.326069
1648.000000	0.326044
1649.000000	0.326011
1650.000000	0.326081
1651.000000	0.326294
1652.000000	0.326384
1653.000000	0.326388
1654.000000	0.326479
1655.000000	0.326489
1656.000000	0.326474
1657.000000	0.326564
1658.000000	0.326644
1659.000000	0.326832
1660.000000	0.326914
1661.000000	0.326880
1662.000000	0.326967
1663.000000	0.326955
1664.000000	0.327047
1665.000000	0.327296
1666.000000	0.327522
1667.000000	0.327663
1668.000000	0.327746
1669.000000	0.327798
1670.000000	0.327888
1671.000000	0.328032
1672.000000	0.328210
1673.000000	0.328468
1674.000000	0.328593
1675.000000	0.328677
1676.000000	0.328798
1677.000000	0.328853
1678.000000	0.328827
1679.000000	0.328813
1680.000000	0.328858
1681.000000	0.328988
1682.000000	0.329052
1683.000000	0.329205
1684.000000	0.329210
1685.000000	0.329051
1686.000000	0.329100
1687.000000	0.329126
1688.000000	0.329094
1689.000000	0.329311
1690.000000	0.329483
1691.000000	0.329573
1692.000000	0.329480
1693.000000	0.329315
1694.000000	0.329118
1695.000000	0.328998
1696.000000	0.329212
1697.000000	0.329268
1698.000000	0.329290
1699.000000	0.329462
1700.000000	0.329777
1701.000000	0.329981
1702.000000	0.330025
1703.000000	0.330065
1704.000000	0.330025
1705.000000	0.330012
1706.000000	0.330165
1707.000000	0.330200
1708.000000	0.330047
1709.000000	0.329952
1710.000000	0.329958
1711.000000	0.329970
1712.000000	0.330021
1713.000000	0.330074
1714.000000	0.330200
1715.000000	0.330269
1716.000000	0.330446
1717.000000	0.330384
1718.000000	0.329924
1719.000000	0.329909
1720.000000	0.330170
1721.000000	0.330171
1722.000000	0.330371
1723.000000	0.330374
1724.000000	0.329905
1725.000000	0.329916
1726.000000	0.330168
1727.000000	0.330286
1728.000000	0.330438
1729.000000	0.330492
1730.000000	0.330572
1731.000000	0.330689
1732.000000	0.330906
1733.000000	0.331009
1734.000000	0.330885
1735.000000	0.330899
1736.000000	0.330841
1737.000000	0.330858
1738.000000	0.331038
1739.000000	0.331035
1740.000000	0.330922
1741.000000	0.330856
1742.000000	0.330703
1743.000000	0.330819
1744.000000	0.331114
1745.000000	0.331072
1746.000000	0.330992
1747.000000	0.330865
1748.000000	0.330768
1749.000000	0.330917
1750.000000	0.330996
1751.000000	0.331107
1752.000000	0.331323
1753.000000	0.331590
1754.000000	0.331687
1755.000000	0.331554
1756.000000	0.331549
1757.000000	0.331614
1758.000000	0.331510
1759.000000	0.331254
1760.000000	0.331205
1761.000000	0.331093
1762.000000	0.330969
1763.000000	0.331068
1764.000000	0.331099
1765.000000	0.330910
1766.000000	0.330878
1767.000000	0.330981
1768.000000	0.330915
1769.000000	0.330824
1770.000000	0.330844
1771.000000	0.330813
1772.000000	0.330826
1773.000000	0.330902
1774.000000	0.330908
1775.000000	0.330909
1776.000000	0.330945
1777.000000	0.330924
1778.000000	0.330996
1779.000000	0.331114
1780.000000	0.331284
1781.000000	0.331566
1782.000000	0.331508
1783.000000	0.331388
1784.000000	0.331068
1785.000000	0.330812
1786.000000	0.331021
1787.000000	0.331291
1788.000000	0.331609
1789.000000	0.331852
1790.000000	0.331842
1791.000000	0.331810
1792.000000	0.331710
1793.000000	0.331742
1794.000000	0.331987
1795.000000	0.332018
1796.000000	0.331939
1797.000000	0.331947
1798.000000	0.331797
1799.000000	0.331745
1800.000000	0.331902
1801.000000	0.332057
1802.000000	0.331945
1803.000000	0.331442
1804.000000	0.330885
1805.000000	0.330442
1806.000000	0.330348
1807.000000	0.329815
1808.000000	0.329655
1809.000000	0.330486
1810.000000	0.330698
1811.000000	0.330879
1812.000000	0.330762
1813.000000	0.330854
1814.000000	0.331091
1815.000000	0.331224
1816.000000	0.331430
1817.000000	0.331350
1818.000000	0.331101
1819.000000	0.330911
1820.000000	0.331361
1821.000000	0.331155
1822.000000	0.330903
1823.000000	0.330327
1824.000000	0.330377
1825.000000	0.330472
1826.000000	0.330394
1827.000000	0.330537
1828.000000	0.330877
1829.000000	0.329943
1830.000000	0.329492
1831.000000	0.329467
1832.000000	0.329546
1833.000000	0.329934
1834.000000	0.331191
1835.000000	0.331553
1836.000000	0.331941
1837.000000	0.332038
1838.000000	0.331252
1839.000000	0.330597
1840.000000	0.330994
1841.000000	0.330783
1842.000000	0.330461
1843.000000	0.330361
1844.000000	0.330072
1845.000000	0.328807
1846.000000	0.328391
1847.000000	0.328450
1848.000000	0.328175
1849.000000	0.327797
1850.000000	0.328050
1851.000000	0.327928
1852.000000	0.327297
1853.000000	0.327302
1854.000000	0.327394
1855.000000	0.327392
1856.000000	0.327352
1857.000000	0.328028
1858.000000	0.327875
1859.000000	0.326834
1860.000000	0.325917
1861.000000	0.324578
1862.000000	0.323589
1863.000000	0.322843
1864.000000	0.322260
1865.000000	0.321772
1866.000000	0.321304
1867.000000	0.320975
1868.000000	0.320739
1869.000000	0.319917
1870.000000	0.318943
1871.000000	0.317952
1872.000000	0.316327
1873.000000	0.314970
1874.000000	0.313730
1875.000000	0.312429
1876.000000	0.310823
1877.000000	0.308995
1878.000000	0.307443
1879.000000	0.305968
1880.000000	0.304692
1881.000000	0.303490
1882.000000	0.302162
1883.000000	0.300372
1884.000000	0.298364
1885.000000	0.295743
1886.000000	0.293203
1887.000000	0.290362
1888.000000	0.287400
1889.000000	0.284711
1890.000000	0.282415
1891.000000	0.280062
1892.000000	0.277520
1893.000000	0.274790
1894.000000	0.271489
1895.000000	0.268328
1896.000000	0.265285
1897.000000	0.262093
1898.000000	0.258284
1899.000000	0.255489
1900.000000	0.252222
1901.000000	0.248865
1902.000000	0.246767
1903.000000	0.244354
1904.000000	0.242234
1905.000000	0.240832
1906.000000	0.238954
1907.000000	0.236915
1908.000000	0.235081
1909.000000	0.233496
1910.000000	0.231391
1911.000000	0.229794
1912.000000	0.228942
1913.000000	0.228124
1914.000000	0.227688
1915.000000	0.227250
1916.000000	0.226308
1917.000000	0.225427
1918.000000	0.224402
1919.000000	0.223432
1920.000000	0.222721
1921.000000	0.222355
1922.000000	0.221867
1923.000000	0.222008
1924.000000	0.222572
1925.000000	0.222938
1926.000000	0.223799
1927.000000	0.224032
1928.000000	0.224031
1929.000000	0.223453
1930.000000	0.223890
1931.000000	0.223852
1932.000000	0.224187
1933.000000	0.225246
1934.000000	0.225216
1935.000000	0.225451
1936.000000	0.225685
1937.000000	0.225450
1938.000000	0.225256
1939.000000	0.225200
1940.000000	0.225093
1941.000000	0.224970
1942.000000	0.225053
1943.000000	0.225726
1944.000000	0.225708
1945.000000	0.225983
1946.000000	0.226328
1947.000000	0.225482
1948.000000	0.225240
1949.000000	0.225275
1950.000000	0.225078
1951.000000	0.224906
1952.000000	0.225199
1953.000000	0.225263
1954.000000	0.224724
1955.000000	0.223874
1956.000000	0.223329
1957.000000	0.222925
1958.000000	0.222527
1959.000000	0.222838
1960.000000	0.223460
1961.000000	0.224011
1962.000000	0.224441
1963.000000	0.225146
1964.000000	0.225443
1965.000000	0.225132
1966.000000	0.224606
1967.000000	0.224134
1968.000000	0.223885
1969.000000	0.223968
1970.000000	0.224282
1971.000000	0.224622
1972.000000	0.224918
1973.000000	0.224929
1974.000000	0.224704
1975.000000	0.224892
1976.000000	0.225055
1977.000000	0.225343
1978.000000	0.226134
1979.000000	0.226900
1980.000000	0.227035
1981.000000	0.227062
1982.000000	0.227330
1983.000000	0.227543
1984.000000	0.227983
1985.000000	0.228982
1986.000000	0.229668
1987.000000	0.230346
1988.000000	0.231049
1989.000000	0.231562
1990.000000	0.232027
1991.000000	0.232383
1992.000000	0.232932
1993.000000	0.233240
1994.000000	0.233525
1995.000000	0.234445
1996.000000	0.234410
1997.000000	0.234622
1998.000000	0.235151
1999.000000	0.235796
2000.000000	0.236019
2001.000000	0.237031
2002.000000	0.238503
2003.000000	0.239036
2004.000000	0.240103
2005.000000	0.240600
2006.000000	0.240604
2007.000000	0.241819
2008.000000	0.242557
2009.000000	0.242865
2010.000000	0.243621
2011.000000	0.244510
2012.000000	0.245084
2013.000000	0.245548
2014.000000	0.246112
2015.000000	0.246537
2016.000000	0.247587
2017.000000	0.248446
2018.000000	0.249758
2019.000000	0.251022
2020.000000	0.251387
2021.000000	0.252007
2022.000000	0.252339
2023.000000	0.252841
2024.000000	0.253622
2025.000000	0.254224
2026.000000	0.254588
2027.000000	0.254894
2028.000000	0.255631
2029.000000	0.256335
2030.000000	0.257015
2031.000000	0.257683
2032.000000	0.257968
2033.000000	0.258213
2034.000000	0.258391
2035.000000	0.258688
2036.000000	0.258756
2037.000000	0.258374
2038.000000	0.258678
2039.000000	0.259170
2040.000000	0.260169
2041.000000	0.261374
2042.000000	0.262917
2043.000000	0.264072
2044.000000	0.264213
2045.000000	0.264089
2046.000000	0.263521
2047.000000	0.263599
2048.000000	0.263593
2049.000000	0.264191
2050.000000	0.265395
2051.000000	0.266144
2052.000000	0.266611
2053.000000	0.267160
2054.000000	0.268016
2055.000000	0.268518
2056.000000	0.269081
2057.000000	0.270515
2058.000000	0.271295
2059.000000	0.272040
2060.000000	0.272648
2061.000000	0.273151
2062.000000	0.273200
2063.000000	0.273003
2064.000000	0.272758
2065.000000	0.271954
2066.000000	0.271832
2067.000000	0.272214
2068.000000	0.272805
2069.000000	0.273908
2070.000000	0.275250
2071.000000	0.276030
2072.000000	0.276351
2073.000000	0.276358
2074.000000	0.276236
2075.000000	0.276402
2076.000000	0.276681
2077.000000	0.277043
2078.000000	0.277621
2079.000000	0.278063
2080.000000	0.278790
2081.000000	0.279233
2082.000000	0.279694
2083.000000	0.279472
2084.000000	0.279637
2085.000000	0.279801
2086.000000	0.280143
2087.000000	0.281067
2088.000000	0.281340
2089.000000	0.281307
2090.000000	0.281766
2091.000000	0.282310
2092.000000	0.282773
2093.000000	0.283972
2094.000000	0.284458
2095.000000	0.284040
2096.000000	0.284330
2097.000000	0.284896
2098.000000	0.284995
2099.000000	0.285093
2100.000000	0.286171
2101.000000	0.286984
2102.000000	0.287206
2103.000000	0.287952
2104.000000	0.288524
2105.000000	0.288853
2106.000000	0.288872
2107.000000	0.289079
2108.000000	0.289105
2109.000000	0.289234
2110.000000	0.289251
2111.000000	0.289495
2112.000000	0.289957
2113.000000	0.289802
2114.000000	0.290015
2115.000000	0.289909
2116.000000	0.289384
2117.000000	0.289945
2118.000000	0.290354
2119.000000	0.290045
2120.000000	0.290238
2121.000000	0.290391
2122.000000	0.290626
2123.000000	0.291147
2124.000000	0.291660
2125.000000	0.292045
2126.000000	0.292766
2127.000000	0.294165
2128.000000	0.294776
2129.000000	0.294980
2130.000000	0.295443
2131.000000	0.295309
2132.000000	0.295117
2133.000000	0.295413
2134.000000	0.295180
2135.000000	0.293757
2136.000000	0.293352
2137.000000	0.292737
2138.000000	0.291718
2139.000000	0.291296
2140.000000	0.291248
2141.000000	0.291258
2142.000000	0.291850
2143.000000	0.292202
2144.000000	0.292479
2145.000000	0.293257
2146.000000	0.294990
2147.000000	0.295627
2148.000000	0.296042
2149.000000	0.296680
2150.000000	0.296064
2151.000000	0.295517
2152.000000	0.294793
2153.000000	0.294600
2154.000000	0.294342
2155.000000	0.293894
2156.000000	0.293687
2157.000000	0.294033
2158.000000	0.293997
2159.000000	0.293785
2160.000000	0.293881
2161.000000	0.294000
2162.000000	0.293942
2163.000000	0.294170
2164.000000	0.294079
2165.000000	0.293332
2166.000000	0.293300
2167.000000	0.293272
2168.000000	0.292376
2169.000000	0.292899
2170.000000	0.293483
2171.000000	0.293922
2172.000000	0.295015
2173.000000	0.295332
2174.000000	0.295147
2175.000000	0.295047
2176.000000	0.294413
2177.000000	0.294016
2178.000000	0.293693
2179.000000	0.293729
2180.000000	0.294067
2181.000000	0.294629
2182.000000	0.295538
2183.000000	0.294952
2184.000000	0.295301
2185.000000	0.294721
2186.000000	0.293491
2187.000000	0.293470
2188.000000	0.292662
2189.000000	0.291968
2190.000000	0.292553
2191.000000	0.292796
2192.000000	0.292987
2193.000000	0.293778
2194.000000	0.293389
2195.000000	0.291890
2196.000000	0.291368
2197.000000	0.290173
2198.000000	0.289505
2199.000000	0.290319
2200.000000	0.290244
2201.000000	0.289020
2202.000000	0.289112
2203.000000	0.289598
2204.000000	0.290510
2205.000000	0.291836
2206.000000	0.292501
2207.000000	0.291973
2208.000000	0.290030
2209.000000	0.287290
2210.000000	0.285746
2211.000000	0.286186
2212.000000	0.286062
2213.000000	0.285720
2214.000000	0.286172
2215.000000	0.286591
2216.000000	0.285856
2217.000000	0.286728
2218.000000	0.289598
2219.000000	0.289956
2220.000000	0.289541
2221.000000	0.289621
2222.000000	0.288979
2223.000000	0.288352
2224.000000	0.288290
2225.000000	0.287194
2226.000000	0.285422
2227.000000	0.285286
2228.000000	0.288181
2229.000000	0.289159
2230.000000	0.291120
2231.000000	0.292584
2232.000000	0.292313
2233.000000	0.294324
2234.000000	0.295324
2235.000000	0.296857
2236.000000	0.296862
2237.000000	0.295571
2238.000000	0.294753
2239.000000	0.292339
2240.000000	0.291685
2241.000000	0.292413
2242.000000	0.291959
2243.000000	0.292620
2244.000000	0.292160
2245.000000	0.288433
2246.000000	0.287903
2247.000000	0.289336
2248.000000	0.289533
2249.000000	0.289518
2250.000000	0.293300
2251.000000	0.294102
2252.000000	0.292784
2253.000000	0.293739
2254.000000	0.292418
2255.000000	0.290593
2256.000000	0.290778
2257.000000	0.290204
2258.000000	0.289052
2259.000000	0.288905
2260.000000	0.288720
2261.000000	0.287517
2262.000000	0.285882
2263.000000	0.284866
2264.000000	0.282398
2265.000000	0.281915
2266.000000	0.283879
2267.000000	0.283416
2268.000000	0.281884
2269.000000	0.281820
2270.000000	0.281017
2271.000000	0.281051
2272.000000	0.284853
2273.000000	0.285237
2274.000000	0.282222
2275.000000	0.280784
2276.000000	0.280003
2277.000000	0.275898
2278.000000	0.273355
2279.000000	0.273819
2280.000000	0.271577
2281.000000	0.270046
2282.000000	0.268734
2283.000000	0.266528
2284.000000	0.264970
2285.000000	0.263372
2286.000000	0.263335
2287.000000	0.263821
2288.000000	0.263983
2289.000000	0.265699
2290.000000	0.266948
2291.000000	0.268732
2292.000000	0.272131
2293.000000	0.270981
2294.000000	0.270978
2295.000000	0.270051
2296.000000	0.270299
2297.000000	0.271668
2298.000000	0.272976
2299.000000	0.274096
2300.000000	0.275390
2301.000000	0.276254
2302.000000	0.276554
2303.000000	0.278330
2304.000000	0.278033
2305.000000	0.276100
2306.000000	0.274637
2307.000000	0.271477
2308.000000	0.269610
2309.000000	0.271415
2310.000000	0.272910
2311.000000	0.276379
2312.000000	0.278743
2313.000000	0.278282
2314.000000	0.277112
2315.000000	0.275607
2316.000000	0.274712
2317.000000	0.272645
2318.000000	0.271395
2319.000000	0.271935
2320.000000	0.271691
2321.000000	0.273153
2322.000000	0.275290
2323.000000	0.275337
2324.000000	0.275970
2325.000000	0.275819
2326.000000	0.273190
2327.000000	0.271081
2328.000000	0.267498
2329.000000	0.266176
2330.000000	0.268863
2331.000000	0.266831
2332.000000	0.267133
2333.000000	0.268106
2334.000000	0.263682
2335.000000	0.263267
2336.000000	0.266698
2337.000000	0.266728
2338.000000	0.266898
2339.000000	0.266116
2340.000000	0.262576
2341.000000	0.260972
2342.000000	0.259664
2343.000000	0.258099
2344.000000	0.256651
2345.000000	0.255885
2346.000000	0.256033
2347.000000	0.255155
2348.000000	0.253703
2349.000000	0.254906
2350.000000	0.252320
2351.000000	0.249416
2352.000000	0.250241
2353.000000	0.250055
2354.000000	0.253409
2355.000000	0.256651
2356.000000	0.253625
2357.000000	0.251789
2358.000000	0.249345
2359.000000	0.245695
2360.000000	0.250142
2361.000000	0.253070
2362.000000	0.252914
2363.000000	0.252359
2364.000000	0.245078
2365.000000	0.242028
2366.000000	0.241251
2367.000000	0.241033
2368.000000	0.243593
2369.000000	0.242593
2370.000000	0.240366
2371.000000	0.240582
2372.000000	0.240930
2373.000000	0.241421
2374.000000	0.243571
2375.000000	0.239652
2376.000000	0.233029
2377.000000	0.230560
2378.000000	0.226821
2379.000000	0.224504
2380.000000	0.225580
2381.000000	0.223964
2382.000000	0.221809
2383.000000	0.221718
2384.000000	0.222270
2385.000000	0.224470
2386.000000	0.223659
2387.000000	0.218782
2388.000000	0.218793
2389.000000	0.219802
2390.000000	0.220191
2391.000000	0.225883
2392.000000	0.228183
2393.000000	0.225291
2394.000000	0.221605
2395.000000	0.214768
2396.000000	0.207644
2397.000000	0.198396
2398.000000	0.193552
2399.000000	0.195999
2400.000000	0.195615
2401.000000	0.202586
2402.000000	0.207676
2403.000000	0.203997
2404.000000	0.206078
2405.000000	0.207137
2406.000000	0.209977
2407.000000	0.215291
2408.000000	0.217467
2409.000000	0.218401
2410.000000	0.215276
2411.000000	0.213659
2412.000000	0.210213
2413.000000	0.203262
2414.000000	0.198895
2415.000000	0.195746
2416.000000	0.199053
2417.000000	0.203779
2418.000000	0.206080
2419.000000	0.213084
2420.000000	0.216820
2421.000000	0.214384
2422.000000	0.210616
2423.000000	0.200730
2424.000000	0.187302
2425.000000	0.182479
2426.000000	0.186448
2427.000000	0.189823
2428.000000	0.189180
2429.000000	0.191921
2430.000000	0.190686
2431.000000	0.189936
2432.000000	0.207035
2433.000000	0.213760
2434.000000	0.217213
2435.000000	0.224514
2436.000000	0.210411
2437.000000	0.198488
2438.000000	0.195981
2439.000000	0.182896
2440.000000	0.175713
2441.000000	0.184854
2442.000000	0.182784
2443.000000	0.177951
2444.000000	0.187604
2445.000000	0.191460
2446.000000	0.187521
2447.000000	0.191297
2448.000000	0.196904
2449.000000	0.197178
2450.000000	0.203416
2451.000000	0.206759
2452.000000	0.196007
2453.000000	0.193956
2454.000000	0.207467
2455.000000	0.217865
2456.000000	0.229956
2457.000000	0.236487
2458.000000	0.218540
2459.000000	0.203827
2460.000000	0.192112
2461.000000	0.168632
2462.000000	0.145520
2463.000000	0.118208
2464.000000	0.109887
2465.000000	0.123622
2466.000000	0.142344
2467.000000	0.182007
2468.000000	0.202122
2469.000000	0.201517
2470.000000	0.202321
2471.000000	0.176721
2472.000000	0.151677
2473.000000	0.129059
2474.000000	0.114381
2475.000000	0.159250
2476.000000	0.208961
2477.000000	0.212061
2478.000000	0.209317
2479.000000	0.167140
2480.000000	0.106848
2481.000000	0.110705
2482.000000	0.152393
2483.000000	0.157402
2484.000000	0.160835
2485.000000	0.157815
2486.000000	0.128148
2487.000000	0.116806
2488.000000	0.120259
2489.000000	0.124926
2490.000000	0.126119
2491.000000	0.161779
2492.000000	0.166161
2493.000000	0.159186
2494.000000	0.156426
2495.000000	0.110795
2496.000000	0.114083
2497.000000	0.167914
2498.000000	0.190460
2499.000000	0.254915
2500.000000	0.262381
