# Wavelength	Nau-2_70_FV7_30_00001.asd.rts.txt
350.000000	0.097945
351.000000	0.080443
352.000000	0.092931
353.000000	0.100565
354.000000	0.090409
355.000000	0.093472
356.000000	0.087463
357.000000	0.077234
358.000000	0.085955
359.000000	0.084452
360.000000	0.081948
361.000000	0.091846
362.000000	0.090627
363.000000	0.086083
364.000000	0.085437
365.000000	0.089527
366.000000	0.093362
367.000000	0.092455
368.000000	0.081970
369.000000	0.078131
370.000000	0.079839
371.000000	0.081025
372.000000	0.084801
373.000000	0.083922
374.000000	0.077246
375.000000	0.081868
376.000000	0.085362
377.000000	0.085599
378.000000	0.090163
379.000000	0.087404
380.000000	0.082996
381.000000	0.086626
382.000000	0.089706
383.000000	0.088681
384.000000	0.084265
385.000000	0.086431
386.000000	0.087270
387.000000	0.085299
388.000000	0.085703
389.000000	0.085041
390.000000	0.084376
391.000000	0.085848
392.000000	0.086935
393.000000	0.089553
394.000000	0.093548
395.000000	0.089600
396.000000	0.087299
397.000000	0.089333
398.000000	0.089578
399.000000	0.089380
400.000000	0.089118
401.000000	0.088976
402.000000	0.089409
403.000000	0.089636
404.000000	0.089126
405.000000	0.088877
406.000000	0.088666
407.000000	0.088607
408.000000	0.089621
409.000000	0.089837
410.000000	0.089696
411.000000	0.090930
412.000000	0.091267
413.000000	0.091396
414.000000	0.092350
415.000000	0.093186
416.000000	0.093366
417.000000	0.092924
418.000000	0.092989
419.000000	0.093024
420.000000	0.093014
421.000000	0.093370
422.000000	0.093483
423.000000	0.093488
424.000000	0.093774
425.000000	0.094417
426.000000	0.094805
427.000000	0.094692
428.000000	0.095186
429.000000	0.095967
430.000000	0.096589
431.000000	0.096265
432.000000	0.096479
433.000000	0.097103
434.000000	0.097323
435.000000	0.097124
436.000000	0.097152
437.000000	0.097842
438.000000	0.098138
439.000000	0.098221
440.000000	0.098390
441.000000	0.099016
442.000000	0.099351
443.000000	0.099334
444.000000	0.099442
445.000000	0.099809
446.000000	0.100353
447.000000	0.100853
448.000000	0.101350
449.000000	0.101828
450.000000	0.102258
451.000000	0.102539
452.000000	0.102929
453.000000	0.103357
454.000000	0.103442
455.000000	0.103683
456.000000	0.104117
457.000000	0.104522
458.000000	0.105009
459.000000	0.105428
460.000000	0.105726
461.000000	0.106299
462.000000	0.106888
463.000000	0.107248
464.000000	0.107335
465.000000	0.107563
466.000000	0.107973
467.000000	0.108414
468.000000	0.108791
469.000000	0.109168
470.000000	0.109652
471.000000	0.109638
472.000000	0.109714
473.000000	0.110209
474.000000	0.110447
475.000000	0.110860
476.000000	0.111447
477.000000	0.111567
478.000000	0.111624
479.000000	0.111930
480.000000	0.112572
481.000000	0.112887
482.000000	0.113099
483.000000	0.113387
484.000000	0.113573
485.000000	0.113714
486.000000	0.113940
487.000000	0.114251
488.000000	0.114673
489.000000	0.115029
490.000000	0.114973
491.000000	0.115126
492.000000	0.115378
493.000000	0.115407
494.000000	0.115482
495.000000	0.115613
496.000000	0.115747
497.000000	0.115787
498.000000	0.115894
499.000000	0.116095
500.000000	0.116166
501.000000	0.116246
502.000000	0.116338
503.000000	0.116366
504.000000	0.116515
505.000000	0.116715
506.000000	0.116892
507.000000	0.117196
508.000000	0.117581
509.000000	0.117947
510.000000	0.118139
511.000000	0.118329
512.000000	0.118643
513.000000	0.119174
514.000000	0.119601
515.000000	0.119931
516.000000	0.120246
517.000000	0.120557
518.000000	0.120911
519.000000	0.121302
520.000000	0.121734
521.000000	0.122190
522.000000	0.122688
523.000000	0.123288
524.000000	0.123955
525.000000	0.124653
526.000000	0.125368
527.000000	0.126266
528.000000	0.127280
529.000000	0.128326
530.000000	0.129365
531.000000	0.130521
532.000000	0.131805
533.000000	0.133107
534.000000	0.134454
535.000000	0.135820
536.000000	0.137144
537.000000	0.138434
538.000000	0.139704
539.000000	0.140967
540.000000	0.142160
541.000000	0.143286
542.000000	0.144376
543.000000	0.145397
544.000000	0.146413
545.000000	0.147431
546.000000	0.148483
547.000000	0.149545
548.000000	0.150653
549.000000	0.151831
550.000000	0.153076
551.000000	0.154408
552.000000	0.155816
553.000000	0.157288
554.000000	0.158797
555.000000	0.160361
556.000000	0.162147
557.000000	0.163989
558.000000	0.165864
559.000000	0.167719
560.000000	0.169556
561.000000	0.171414
562.000000	0.173246
563.000000	0.174951
564.000000	0.176614
565.000000	0.178267
566.000000	0.179834
567.000000	0.181311
568.000000	0.182690
569.000000	0.183990
570.000000	0.185161
571.000000	0.186206
572.000000	0.187197
573.000000	0.188046
574.000000	0.188782
575.000000	0.189503
576.000000	0.190140
577.000000	0.190645
578.000000	0.191032
579.000000	0.191307
580.000000	0.191576
581.000000	0.191850
582.000000	0.191994
583.000000	0.192074
584.000000	0.192096
585.000000	0.192041
586.000000	0.191881
587.000000	0.191651
588.000000	0.191405
589.000000	0.191209
590.000000	0.190920
591.000000	0.190482
592.000000	0.190082
593.000000	0.189681
594.000000	0.189240
595.000000	0.188713
596.000000	0.188244
597.000000	0.187748
598.000000	0.187015
599.000000	0.186357
600.000000	0.185749
601.000000	0.185088
602.000000	0.184470
603.000000	0.183837
604.000000	0.183177
605.000000	0.182550
606.000000	0.181899
607.000000	0.181221
608.000000	0.180541
609.000000	0.179989
610.000000	0.179432
611.000000	0.178729
612.000000	0.178158
613.000000	0.177614
614.000000	0.177030
615.000000	0.176437
616.000000	0.175872
617.000000	0.175336
618.000000	0.174847
619.000000	0.174402
620.000000	0.173915
621.000000	0.173334
622.000000	0.172904
623.000000	0.172515
624.000000	0.172050
625.000000	0.171602
626.000000	0.171211
627.000000	0.170882
628.000000	0.170565
629.000000	0.170280
630.000000	0.169969
631.000000	0.169691
632.000000	0.169457
633.000000	0.169197
634.000000	0.168859
635.000000	0.168602
636.000000	0.168393
637.000000	0.168196
638.000000	0.168044
639.000000	0.167956
640.000000	0.167927
641.000000	0.167832
642.000000	0.167774
643.000000	0.167775
644.000000	0.167830
645.000000	0.167904
646.000000	0.168004
647.000000	0.168112
648.000000	0.168183
649.000000	0.168299
650.000000	0.168481
651.000000	0.168712
652.000000	0.168906
653.000000	0.169133
654.000000	0.169474
655.000000	0.169764
656.000000	0.170053
657.000000	0.170384
658.000000	0.170747
659.000000	0.171200
660.000000	0.171714
661.000000	0.172115
662.000000	0.172566
663.000000	0.173128
664.000000	0.173749
665.000000	0.174361
666.000000	0.174956
667.000000	0.175542
668.000000	0.176257
669.000000	0.177039
670.000000	0.177842
671.000000	0.178673
672.000000	0.179492
673.000000	0.180331
674.000000	0.181304
675.000000	0.182180
676.000000	0.183073
677.000000	0.184156
678.000000	0.185138
679.000000	0.186116
680.000000	0.187194
681.000000	0.188383
682.000000	0.189557
683.000000	0.190691
684.000000	0.192004
685.000000	0.193274
686.000000	0.194539
687.000000	0.195882
688.000000	0.197254
689.000000	0.198667
690.000000	0.200152
691.000000	0.201694
692.000000	0.203248
693.000000	0.204832
694.000000	0.206406
695.000000	0.208029
696.000000	0.209696
697.000000	0.211370
698.000000	0.213021
699.000000	0.214721
700.000000	0.216537
701.000000	0.218450
702.000000	0.220363
703.000000	0.222246
704.000000	0.224198
705.000000	0.226175
706.000000	0.228154
707.000000	0.230197
708.000000	0.232249
709.000000	0.234266
710.000000	0.236260
711.000000	0.238371
712.000000	0.240443
713.000000	0.242476
714.000000	0.244665
715.000000	0.246868
716.000000	0.249071
717.000000	0.251291
718.000000	0.253543
719.000000	0.255788
720.000000	0.258004
721.000000	0.260186
722.000000	0.262356
723.000000	0.264551
724.000000	0.266660
725.000000	0.268798
726.000000	0.271051
727.000000	0.273337
728.000000	0.275582
729.000000	0.277806
730.000000	0.279994
731.000000	0.282172
732.000000	0.284254
733.000000	0.286305
734.000000	0.288482
735.000000	0.290554
736.000000	0.292611
737.000000	0.294624
738.000000	0.296501
739.000000	0.298415
740.000000	0.300321
741.000000	0.302196
742.000000	0.304083
743.000000	0.305945
744.000000	0.307750
745.000000	0.309461
746.000000	0.311171
747.000000	0.312907
748.000000	0.314650
749.000000	0.316342
750.000000	0.317930
751.000000	0.319494
752.000000	0.321032
753.000000	0.322555
754.000000	0.324062
755.000000	0.325379
756.000000	0.326631
757.000000	0.327945
758.000000	0.329224
759.000000	0.330470
760.000000	0.331627
761.000000	0.332786
762.000000	0.333970
763.000000	0.335048
764.000000	0.335884
765.000000	0.336781
766.000000	0.337731
767.000000	0.338649
768.000000	0.339479
769.000000	0.340297
770.000000	0.341117
771.000000	0.341824
772.000000	0.342627
773.000000	0.343406
774.000000	0.344068
775.000000	0.344695
776.000000	0.345310
777.000000	0.345882
778.000000	0.346316
779.000000	0.346859
780.000000	0.347485
781.000000	0.347898
782.000000	0.348307
783.000000	0.348807
784.000000	0.349240
785.000000	0.349588
786.000000	0.349977
787.000000	0.350450
788.000000	0.350935
789.000000	0.351237
790.000000	0.351372
791.000000	0.351527
792.000000	0.351632
793.000000	0.351767
794.000000	0.351980
795.000000	0.352124
796.000000	0.352251
797.000000	0.352391
798.000000	0.352573
799.000000	0.352661
800.000000	0.352728
801.000000	0.352883
802.000000	0.352978
803.000000	0.352984
804.000000	0.352941
805.000000	0.352818
806.000000	0.352902
807.000000	0.353087
808.000000	0.352924
809.000000	0.352978
810.000000	0.353187
811.000000	0.353355
812.000000	0.353232
813.000000	0.353113
814.000000	0.353060
815.000000	0.352955
816.000000	0.352771
817.000000	0.352606
818.000000	0.352466
819.000000	0.352366
820.000000	0.352281
821.000000	0.352134
822.000000	0.351945
823.000000	0.351774
824.000000	0.351658
825.000000	0.351723
826.000000	0.351632
827.000000	0.351526
828.000000	0.351500
829.000000	0.351246
830.000000	0.350958
831.000000	0.350710
832.000000	0.350347
833.000000	0.350154
834.000000	0.350001
835.000000	0.349807
836.000000	0.349675
837.000000	0.349503
838.000000	0.349286
839.000000	0.349051
840.000000	0.348861
841.000000	0.348685
842.000000	0.348453
843.000000	0.348300
844.000000	0.348093
845.000000	0.347813
846.000000	0.347667
847.000000	0.347505
848.000000	0.347281
849.000000	0.347021
850.000000	0.346716
851.000000	0.346407
852.000000	0.346134
853.000000	0.345802
854.000000	0.345511
855.000000	0.345350
856.000000	0.345165
857.000000	0.344879
858.000000	0.344677
859.000000	0.344542
860.000000	0.344386
861.000000	0.344047
862.000000	0.343717
863.000000	0.343578
864.000000	0.343329
865.000000	0.342972
866.000000	0.342600
867.000000	0.342329
868.000000	0.342149
869.000000	0.341936
870.000000	0.341653
871.000000	0.341264
872.000000	0.340900
873.000000	0.340598
874.000000	0.340454
875.000000	0.340070
876.000000	0.339539
877.000000	0.339077
878.000000	0.338634
879.000000	0.338232
880.000000	0.337782
881.000000	0.337557
882.000000	0.337261
883.000000	0.336946
884.000000	0.336708
885.000000	0.336438
886.000000	0.336046
887.000000	0.335579
888.000000	0.335235
889.000000	0.335002
890.000000	0.334695
891.000000	0.334350
892.000000	0.334170
893.000000	0.333970
894.000000	0.333780
895.000000	0.333600
896.000000	0.333242
897.000000	0.332740
898.000000	0.332239
899.000000	0.331939
900.000000	0.331746
901.000000	0.331506
902.000000	0.331157
903.000000	0.330915
904.000000	0.330673
905.000000	0.330196
906.000000	0.329831
907.000000	0.329515
908.000000	0.329255
909.000000	0.328954
910.000000	0.328683
911.000000	0.328423
912.000000	0.328153
913.000000	0.327845
914.000000	0.327495
915.000000	0.327163
916.000000	0.326787
917.000000	0.326498
918.000000	0.326195
919.000000	0.325817
920.000000	0.325635
921.000000	0.325326
922.000000	0.324963
923.000000	0.324750
924.000000	0.324437
925.000000	0.324147
926.000000	0.323962
927.000000	0.323703
928.000000	0.323430
929.000000	0.323073
930.000000	0.322596
931.000000	0.322302
932.000000	0.322042
933.000000	0.321825
934.000000	0.321737
935.000000	0.321356
936.000000	0.320928
937.000000	0.320610
938.000000	0.320252
939.000000	0.319910
940.000000	0.319591
941.000000	0.319436
942.000000	0.319329
943.000000	0.319184
944.000000	0.318859
945.000000	0.318558
946.000000	0.318059
947.000000	0.317710
948.000000	0.317752
949.000000	0.317381
950.000000	0.317002
951.000000	0.316740
952.000000	0.316534
953.000000	0.316321
954.000000	0.316056
955.000000	0.315712
956.000000	0.315599
957.000000	0.315493
958.000000	0.315283
959.000000	0.315061
960.000000	0.314934
961.000000	0.314523
962.000000	0.313918
963.000000	0.313822
964.000000	0.313581
965.000000	0.313330
966.000000	0.313117
967.000000	0.312733
968.000000	0.312530
969.000000	0.312486
970.000000	0.312494
971.000000	0.312294
972.000000	0.311956
973.000000	0.311618
974.000000	0.311632
975.000000	0.311545
976.000000	0.311464
977.000000	0.311467
978.000000	0.311212
979.000000	0.310956
980.000000	0.310610
981.000000	0.310446
982.000000	0.310418
983.000000	0.310331
984.000000	0.310166
985.000000	0.309960
986.000000	0.309878
987.000000	0.310149
988.000000	0.310523
989.000000	0.310105
990.000000	0.309922
991.000000	0.309796
992.000000	0.309375
993.000000	0.309289
994.000000	0.309244
995.000000	0.309365
996.000000	0.309620
997.000000	0.309479
998.000000	0.309197
999.000000	0.309034
1000.000000	0.308830
1001.000000	0.308529
1002.000000	0.309014
1003.000000	0.309520
1004.000000	0.309493
1005.000000	0.309329
1006.000000	0.309506
1007.000000	0.309514
1008.000000	0.309346
1009.000000	0.310040
1010.000000	0.309957
1011.000000	0.308988
1012.000000	0.308951
1013.000000	0.308420
1014.000000	0.308449
1015.000000	0.309154
1016.000000	0.308788
1017.000000	0.308917
1018.000000	0.308599
1019.000000	0.308539
1020.000000	0.309047
1021.000000	0.308936
1022.000000	0.308766
1023.000000	0.308882
1024.000000	0.308873
1025.000000	0.308166
1026.000000	0.308476
1027.000000	0.308632
1028.000000	0.308940
1029.000000	0.309666
1030.000000	0.309765
1031.000000	0.309752
1032.000000	0.309806
1033.000000	0.309619
1034.000000	0.309592
1035.000000	0.309576
1036.000000	0.309844
1037.000000	0.310452
1038.000000	0.310624
1039.000000	0.310868
1040.000000	0.311091
1041.000000	0.311239
1042.000000	0.311038
1043.000000	0.311196
1044.000000	0.311373
1045.000000	0.311161
1046.000000	0.311228
1047.000000	0.311296
1048.000000	0.311300
1049.000000	0.311490
1050.000000	0.311762
1051.000000	0.312040
1052.000000	0.312766
1053.000000	0.312747
1054.000000	0.312266
1055.000000	0.312376
1056.000000	0.312514
1057.000000	0.312411
1058.000000	0.313127
1059.000000	0.313570
1060.000000	0.313718
1061.000000	0.314333
1062.000000	0.314621
1063.000000	0.314931
1064.000000	0.315254
1065.000000	0.315422
1066.000000	0.315700
1067.000000	0.316151
1068.000000	0.316323
1069.000000	0.316326
1070.000000	0.316319
1071.000000	0.315911
1072.000000	0.316070
1073.000000	0.316563
1074.000000	0.317249
1075.000000	0.317874
1076.000000	0.318340
1077.000000	0.318184
1078.000000	0.317867
1079.000000	0.317964
1080.000000	0.318201
1081.000000	0.318402
1082.000000	0.318995
1083.000000	0.319303
1084.000000	0.319369
1085.000000	0.319662
1086.000000	0.320032
1087.000000	0.320383
1088.000000	0.320804
1089.000000	0.321088
1090.000000	0.321126
1091.000000	0.321334
1092.000000	0.321801
1093.000000	0.322077
1094.000000	0.322408
1095.000000	0.322903
1096.000000	0.323076
1097.000000	0.322959
1098.000000	0.323135
1099.000000	0.323222
1100.000000	0.323475
1101.000000	0.324002
1102.000000	0.324155
1103.000000	0.324059
1104.000000	0.324202
1105.000000	0.323980
1106.000000	0.324306
1107.000000	0.325383
1108.000000	0.325839
1109.000000	0.326031
1110.000000	0.326671
1111.000000	0.327034
1112.000000	0.327025
1113.000000	0.327256
1114.000000	0.327752
1115.000000	0.328005
1116.000000	0.327997
1117.000000	0.328249
1118.000000	0.328811
1119.000000	0.328854
1120.000000	0.328588
1121.000000	0.328583
1122.000000	0.328395
1123.000000	0.328606
1124.000000	0.328949
1125.000000	0.329366
1126.000000	0.330054
1127.000000	0.330318
1128.000000	0.330432
1129.000000	0.330477
1130.000000	0.330660
1131.000000	0.330618
1132.000000	0.330690
1133.000000	0.331079
1134.000000	0.331279
1135.000000	0.331233
1136.000000	0.331284
1137.000000	0.331390
1138.000000	0.331470
1139.000000	0.331653
1140.000000	0.331777
1141.000000	0.331784
1142.000000	0.331899
1143.000000	0.331872
1144.000000	0.332065
1145.000000	0.332367
1146.000000	0.332457
1147.000000	0.332587
1148.000000	0.332608
1149.000000	0.332677
1150.000000	0.332690
1151.000000	0.332881
1152.000000	0.333025
1153.000000	0.333341
1154.000000	0.333923
1155.000000	0.334182
1156.000000	0.334371
1157.000000	0.334579
1158.000000	0.334624
1159.000000	0.334640
1160.000000	0.334619
1161.000000	0.334652
1162.000000	0.334690
1163.000000	0.334794
1164.000000	0.334947
1165.000000	0.335201
1166.000000	0.335390
1167.000000	0.335496
1168.000000	0.335647
1169.000000	0.335848
1170.000000	0.336048
1171.000000	0.336356
1172.000000	0.336535
1173.000000	0.336642
1174.000000	0.336699
1175.000000	0.336520
1176.000000	0.336540
1177.000000	0.336686
1178.000000	0.336870
1179.000000	0.337330
1180.000000	0.337491
1181.000000	0.337627
1182.000000	0.337662
1183.000000	0.337721
1184.000000	0.337622
1185.000000	0.337755
1186.000000	0.338019
1187.000000	0.338221
1188.000000	0.338504
1189.000000	0.338704
1190.000000	0.338949
1191.000000	0.339111
1192.000000	0.339362
1193.000000	0.339581
1194.000000	0.339546
1195.000000	0.339637
1196.000000	0.339699
1197.000000	0.339737
1198.000000	0.339787
1199.000000	0.339917
1200.000000	0.340024
1201.000000	0.340221
1202.000000	0.340474
1203.000000	0.340601
1204.000000	0.340657
1205.000000	0.340823
1206.000000	0.340907
1207.000000	0.341080
1208.000000	0.341135
1209.000000	0.341158
1210.000000	0.341294
1211.000000	0.341480
1212.000000	0.341617
1213.000000	0.341866
1214.000000	0.341997
1215.000000	0.341955
1216.000000	0.342043
1217.000000	0.342143
1218.000000	0.342227
1219.000000	0.342359
1220.000000	0.342571
1221.000000	0.342638
1222.000000	0.342671
1223.000000	0.342732
1224.000000	0.342724
1225.000000	0.342874
1226.000000	0.343114
1227.000000	0.343140
1228.000000	0.343308
1229.000000	0.343391
1230.000000	0.343285
1231.000000	0.343309
1232.000000	0.343547
1233.000000	0.343801
1234.000000	0.344100
1235.000000	0.344309
1236.000000	0.344446
1237.000000	0.344634
1238.000000	0.344722
1239.000000	0.344814
1240.000000	0.344945
1241.000000	0.345051
1242.000000	0.345070
1243.000000	0.345105
1244.000000	0.345146
1245.000000	0.345335
1246.000000	0.345634
1247.000000	0.345952
1248.000000	0.346171
1249.000000	0.346313
1250.000000	0.346331
1251.000000	0.346352
1252.000000	0.346423
1253.000000	0.346615
1254.000000	0.346692
1255.000000	0.346739
1256.000000	0.346773
1257.000000	0.346771
1258.000000	0.346895
1259.000000	0.346993
1260.000000	0.347145
1261.000000	0.347290
1262.000000	0.347417
1263.000000	0.347603
1264.000000	0.347729
1265.000000	0.347689
1266.000000	0.347747
1267.000000	0.347865
1268.000000	0.347896
1269.000000	0.348019
1270.000000	0.348262
1271.000000	0.348190
1272.000000	0.348167
1273.000000	0.348420
1274.000000	0.348572
1275.000000	0.348692
1276.000000	0.348937
1277.000000	0.349167
1278.000000	0.349199
1279.000000	0.349339
1280.000000	0.349533
1281.000000	0.349611
1282.000000	0.349656
1283.000000	0.349775
1284.000000	0.349846
1285.000000	0.349939
1286.000000	0.350057
1287.000000	0.350051
1288.000000	0.350095
1289.000000	0.350166
1290.000000	0.350183
1291.000000	0.350266
1292.000000	0.350347
1293.000000	0.350342
1294.000000	0.350406
1295.000000	0.350549
1296.000000	0.350689
1297.000000	0.350891
1298.000000	0.351076
1299.000000	0.351169
1300.000000	0.351339
1301.000000	0.351489
1302.000000	0.351538
1303.000000	0.351713
1304.000000	0.351707
1305.000000	0.351641
1306.000000	0.351595
1307.000000	0.351496
1308.000000	0.351543
1309.000000	0.351598
1310.000000	0.351730
1311.000000	0.352061
1312.000000	0.352290
1313.000000	0.352286
1314.000000	0.352196
1315.000000	0.351996
1316.000000	0.351806
1317.000000	0.351725
1318.000000	0.351914
1319.000000	0.351996
1320.000000	0.351989
1321.000000	0.351993
1322.000000	0.351886
1323.000000	0.351946
1324.000000	0.351961
1325.000000	0.351884
1326.000000	0.351994
1327.000000	0.351986
1328.000000	0.352053
1329.000000	0.352024
1330.000000	0.351990
1331.000000	0.351991
1332.000000	0.351956
1333.000000	0.351988
1334.000000	0.352295
1335.000000	0.352391
1336.000000	0.352325
1337.000000	0.352344
1338.000000	0.352264
1339.000000	0.352203
1340.000000	0.352270
1341.000000	0.352417
1342.000000	0.352526
1343.000000	0.352519
1344.000000	0.352443
1345.000000	0.352430
1346.000000	0.352457
1347.000000	0.352484
1348.000000	0.352687
1349.000000	0.352708
1350.000000	0.352771
1351.000000	0.352790
1352.000000	0.352646
1353.000000	0.352562
1354.000000	0.352484
1355.000000	0.352468
1356.000000	0.352521
1357.000000	0.352413
1358.000000	0.352439
1359.000000	0.352426
1360.000000	0.352316
1361.000000	0.352178
1362.000000	0.352122
1363.000000	0.352008
1364.000000	0.351895
1365.000000	0.351823
1366.000000	0.351760
1367.000000	0.351670
1368.000000	0.351466
1369.000000	0.351501
1370.000000	0.351411
1371.000000	0.351187
1372.000000	0.351032
1373.000000	0.350783
1374.000000	0.350532
1375.000000	0.350365
1376.000000	0.350170
1377.000000	0.349934
1378.000000	0.349753
1379.000000	0.349275
1380.000000	0.348815
1381.000000	0.348443
1382.000000	0.347763
1383.000000	0.347316
1384.000000	0.346737
1385.000000	0.345786
1386.000000	0.344921
1387.000000	0.343931
1388.000000	0.342856
1389.000000	0.341901
1390.000000	0.340963
1391.000000	0.339778
1392.000000	0.338402
1393.000000	0.336900
1394.000000	0.335176
1395.000000	0.333578
1396.000000	0.331919
1397.000000	0.330231
1398.000000	0.328503
1399.000000	0.326854
1400.000000	0.325202
1401.000000	0.323604
1402.000000	0.322142
1403.000000	0.320514
1404.000000	0.319078
1405.000000	0.317726
1406.000000	0.316513
1407.000000	0.315603
1408.000000	0.314717
1409.000000	0.313828
1410.000000	0.313145
1411.000000	0.312604
1412.000000	0.312115
1413.000000	0.311869
1414.000000	0.311674
1415.000000	0.311539
1416.000000	0.311583
1417.000000	0.311645
1418.000000	0.311683
1419.000000	0.311774
1420.000000	0.311733
1421.000000	0.311726
1422.000000	0.311759
1423.000000	0.311725
1424.000000	0.311569
1425.000000	0.311500
1426.000000	0.311517
1427.000000	0.311723
1428.000000	0.312029
1429.000000	0.312313
1430.000000	0.312511
1431.000000	0.312567
1432.000000	0.312681
1433.000000	0.312764
1434.000000	0.312961
1435.000000	0.313347
1436.000000	0.313683
1437.000000	0.314037
1438.000000	0.314402
1439.000000	0.314740
1440.000000	0.315200
1441.000000	0.315774
1442.000000	0.316422
1443.000000	0.317072
1444.000000	0.317834
1445.000000	0.318649
1446.000000	0.319473
1447.000000	0.320453
1448.000000	0.321391
1449.000000	0.322437
1450.000000	0.323617
1451.000000	0.324663
1452.000000	0.325647
1453.000000	0.326583
1454.000000	0.327239
1455.000000	0.327746
1456.000000	0.328303
1457.000000	0.328844
1458.000000	0.329317
1459.000000	0.329809
1460.000000	0.330425
1461.000000	0.330894
1462.000000	0.331272
1463.000000	0.331679
1464.000000	0.331984
1465.000000	0.332371
1466.000000	0.332787
1467.000000	0.333176
1468.000000	0.333666
1469.000000	0.334172
1470.000000	0.334584
1471.000000	0.335159
1472.000000	0.335747
1473.000000	0.336336
1474.000000	0.336869
1475.000000	0.337318
1476.000000	0.337685
1477.000000	0.338013
1478.000000	0.338423
1479.000000	0.338851
1480.000000	0.339293
1481.000000	0.339653
1482.000000	0.340009
1483.000000	0.340383
1484.000000	0.340706
1485.000000	0.341056
1486.000000	0.341453
1487.000000	0.341830
1488.000000	0.342186
1489.000000	0.342575
1490.000000	0.342884
1491.000000	0.343212
1492.000000	0.343470
1493.000000	0.343808
1494.000000	0.344124
1495.000000	0.344402
1496.000000	0.344707
1497.000000	0.345008
1498.000000	0.345311
1499.000000	0.345570
1500.000000	0.345832
1501.000000	0.346158
1502.000000	0.346325
1503.000000	0.346572
1504.000000	0.346962
1505.000000	0.347142
1506.000000	0.347379
1507.000000	0.347647
1508.000000	0.347663
1509.000000	0.347771
1510.000000	0.347987
1511.000000	0.348075
1512.000000	0.348243
1513.000000	0.348482
1514.000000	0.348661
1515.000000	0.348770
1516.000000	0.348892
1517.000000	0.349026
1518.000000	0.349146
1519.000000	0.349276
1520.000000	0.349539
1521.000000	0.349682
1522.000000	0.349814
1523.000000	0.350070
1524.000000	0.350239
1525.000000	0.350495
1526.000000	0.350765
1527.000000	0.350910
1528.000000	0.351094
1529.000000	0.351226
1530.000000	0.351209
1531.000000	0.351292
1532.000000	0.351369
1533.000000	0.351485
1534.000000	0.351716
1535.000000	0.351901
1536.000000	0.352135
1537.000000	0.352402
1538.000000	0.352435
1539.000000	0.352452
1540.000000	0.352488
1541.000000	0.352553
1542.000000	0.352817
1543.000000	0.353066
1544.000000	0.353225
1545.000000	0.353387
1546.000000	0.353558
1547.000000	0.353751
1548.000000	0.353984
1549.000000	0.354140
1550.000000	0.354125
1551.000000	0.354080
1552.000000	0.354040
1553.000000	0.354042
1554.000000	0.354175
1555.000000	0.354359
1556.000000	0.354595
1557.000000	0.354759
1558.000000	0.354868
1559.000000	0.354851
1560.000000	0.354884
1561.000000	0.354865
1562.000000	0.354925
1563.000000	0.355102
1564.000000	0.355206
1565.000000	0.355313
1566.000000	0.355394
1567.000000	0.355583
1568.000000	0.355698
1569.000000	0.355829
1570.000000	0.355931
1571.000000	0.355982
1572.000000	0.356037
1573.000000	0.356154
1574.000000	0.356183
1575.000000	0.356139
1576.000000	0.356159
1577.000000	0.356116
1578.000000	0.356142
1579.000000	0.356322
1580.000000	0.356416
1581.000000	0.356570
1582.000000	0.356688
1583.000000	0.356831
1584.000000	0.356817
1585.000000	0.356784
1586.000000	0.356799
1587.000000	0.356675
1588.000000	0.356680
1589.000000	0.356867
1590.000000	0.356888
1591.000000	0.356886
1592.000000	0.356915
1593.000000	0.356921
1594.000000	0.356916
1595.000000	0.357006
1596.000000	0.357022
1597.000000	0.356955
1598.000000	0.356960
1599.000000	0.357095
1600.000000	0.357061
1601.000000	0.357001
1602.000000	0.357036
1603.000000	0.357108
1604.000000	0.357094
1605.000000	0.357157
1606.000000	0.357170
1607.000000	0.357085
1608.000000	0.357070
1609.000000	0.357174
1610.000000	0.357240
1611.000000	0.357342
1612.000000	0.357360
1613.000000	0.357506
1614.000000	0.357562
1615.000000	0.357566
1616.000000	0.357618
1617.000000	0.357621
1618.000000	0.357613
1619.000000	0.357592
1620.000000	0.357534
1621.000000	0.357444
1622.000000	0.357487
1623.000000	0.357497
1624.000000	0.357569
1625.000000	0.357651
1626.000000	0.357620
1627.000000	0.357517
1628.000000	0.357588
1629.000000	0.357703
1630.000000	0.357779
1631.000000	0.357888
1632.000000	0.357839
1633.000000	0.357604
1634.000000	0.357593
1635.000000	0.357737
1636.000000	0.357755
1637.000000	0.357836
1638.000000	0.357840
1639.000000	0.357784
1640.000000	0.357724
1641.000000	0.357774
1642.000000	0.357787
1643.000000	0.357719
1644.000000	0.357746
1645.000000	0.357861
1646.000000	0.357846
1647.000000	0.357815
1648.000000	0.357866
1649.000000	0.358043
1650.000000	0.358136
1651.000000	0.358343
1652.000000	0.358412
1653.000000	0.358258
1654.000000	0.358235
1655.000000	0.358129
1656.000000	0.358035
1657.000000	0.358090
1658.000000	0.358062
1659.000000	0.358124
1660.000000	0.358144
1661.000000	0.358006
1662.000000	0.357994
1663.000000	0.357984
1664.000000	0.358023
1665.000000	0.358143
1666.000000	0.358273
1667.000000	0.358329
1668.000000	0.358411
1669.000000	0.358488
1670.000000	0.358480
1671.000000	0.358576
1672.000000	0.358609
1673.000000	0.358538
1674.000000	0.358601
1675.000000	0.358634
1676.000000	0.358733
1677.000000	0.358756
1678.000000	0.358624
1679.000000	0.358597
1680.000000	0.358539
1681.000000	0.358389
1682.000000	0.358305
1683.000000	0.358205
1684.000000	0.358077
1685.000000	0.358024
1686.000000	0.357881
1687.000000	0.357699
1688.000000	0.357652
1689.000000	0.357699
1690.000000	0.357508
1691.000000	0.357612
1692.000000	0.357722
1693.000000	0.357481
1694.000000	0.357532
1695.000000	0.357669
1696.000000	0.357509
1697.000000	0.357407
1698.000000	0.357418
1699.000000	0.357376
1700.000000	0.357203
1701.000000	0.357319
1702.000000	0.357398
1703.000000	0.357423
1704.000000	0.357780
1705.000000	0.357908
1706.000000	0.357919
1707.000000	0.357876
1708.000000	0.357580
1709.000000	0.357427
1710.000000	0.357406
1711.000000	0.357376
1712.000000	0.357606
1713.000000	0.357560
1714.000000	0.357248
1715.000000	0.357189
1716.000000	0.357210
1717.000000	0.357113
1718.000000	0.357131
1719.000000	0.356997
1720.000000	0.356551
1721.000000	0.356485
1722.000000	0.356679
1723.000000	0.356703
1724.000000	0.356934
1725.000000	0.356925
1726.000000	0.356544
1727.000000	0.356384
1728.000000	0.356199
1729.000000	0.355919
1730.000000	0.355732
1731.000000	0.355648
1732.000000	0.355574
1733.000000	0.355602
1734.000000	0.355664
1735.000000	0.355681
1736.000000	0.355623
1737.000000	0.355599
1738.000000	0.355652
1739.000000	0.355626
1740.000000	0.355526
1741.000000	0.355447
1742.000000	0.355333
1743.000000	0.355412
1744.000000	0.355590
1745.000000	0.355543
1746.000000	0.355540
1747.000000	0.355163
1748.000000	0.354874
1749.000000	0.354687
1750.000000	0.354422
1751.000000	0.354200
1752.000000	0.354203
1753.000000	0.354196
1754.000000	0.354135
1755.000000	0.354111
1756.000000	0.354090
1757.000000	0.353941
1758.000000	0.353930
1759.000000	0.354047
1760.000000	0.354145
1761.000000	0.354355
1762.000000	0.354318
1763.000000	0.354149
1764.000000	0.354033
1765.000000	0.353694
1766.000000	0.353502
1767.000000	0.353307
1768.000000	0.353188
1769.000000	0.353256
1770.000000	0.353271
1771.000000	0.353411
1772.000000	0.353277
1773.000000	0.352806
1774.000000	0.352607
1775.000000	0.352507
1776.000000	0.352334
1777.000000	0.352175
1778.000000	0.352105
1779.000000	0.351875
1780.000000	0.351968
1781.000000	0.352424
1782.000000	0.352429
1783.000000	0.352401
1784.000000	0.352413
1785.000000	0.352150
1786.000000	0.351987
1787.000000	0.351982
1788.000000	0.351948
1789.000000	0.351905
1790.000000	0.352228
1791.000000	0.352243
1792.000000	0.352031
1793.000000	0.351971
1794.000000	0.351924
1795.000000	0.351885
1796.000000	0.351957
1797.000000	0.351964
1798.000000	0.351863
1799.000000	0.351755
1800.000000	0.351662
1801.000000	0.351631
1802.000000	0.351992
1803.000000	0.351658
1804.000000	0.351938
1805.000000	0.352952
1806.000000	0.352640
1807.000000	0.351533
1808.000000	0.350940
1809.000000	0.349041
1810.000000	0.347989
1811.000000	0.348506
1812.000000	0.350787
1813.000000	0.351668
1814.000000	0.353742
1815.000000	0.354239
1816.000000	0.353248
1817.000000	0.352902
1818.000000	0.352543
1819.000000	0.351981
1820.000000	0.351858
1821.000000	0.350948
1822.000000	0.350386
1823.000000	0.349581
1824.000000	0.348978
1825.000000	0.348189
1826.000000	0.348070
1827.000000	0.348307
1828.000000	0.348274
1829.000000	0.348716
1830.000000	0.348999
1831.000000	0.349042
1832.000000	0.348607
1833.000000	0.348632
1834.000000	0.348901
1835.000000	0.348913
1836.000000	0.348766
1837.000000	0.348707
1838.000000	0.348349
1839.000000	0.348182
1840.000000	0.347838
1841.000000	0.348152
1842.000000	0.348296
1843.000000	0.348488
1844.000000	0.348499
1845.000000	0.348243
1846.000000	0.348422
1847.000000	0.348779
1848.000000	0.348640
1849.000000	0.348599
1850.000000	0.348704
1851.000000	0.348490
1852.000000	0.347666
1853.000000	0.347391
1854.000000	0.347036
1855.000000	0.346638
1856.000000	0.346238
1857.000000	0.345636
1858.000000	0.345330
1859.000000	0.345656
1860.000000	0.345269
1861.000000	0.344848
1862.000000	0.344157
1863.000000	0.342833
1864.000000	0.341926
1865.000000	0.341391
1866.000000	0.340484
1867.000000	0.339569
1868.000000	0.338212
1869.000000	0.336745
1870.000000	0.335382
1871.000000	0.333844
1872.000000	0.332294
1873.000000	0.330676
1874.000000	0.328546
1875.000000	0.326897
1876.000000	0.325252
1877.000000	0.323667
1878.000000	0.321364
1879.000000	0.319435
1880.000000	0.316825
1881.000000	0.313368
1882.000000	0.310397
1883.000000	0.307117
1884.000000	0.303685
1885.000000	0.299907
1886.000000	0.295926
1887.000000	0.291819
1888.000000	0.287180
1889.000000	0.281975
1890.000000	0.276775
1891.000000	0.271795
1892.000000	0.266932
1893.000000	0.262099
1894.000000	0.257499
1895.000000	0.252853
1896.000000	0.248295
1897.000000	0.243723
1898.000000	0.239170
1899.000000	0.235230
1900.000000	0.231950
1901.000000	0.228386
1902.000000	0.225779
1903.000000	0.224319
1904.000000	0.222875
1905.000000	0.222059
1906.000000	0.221492
1907.000000	0.221423
1908.000000	0.221391
1909.000000	0.221907
1910.000000	0.222869
1911.000000	0.224303
1912.000000	0.225807
1913.000000	0.227542
1914.000000	0.229507
1915.000000	0.231666
1916.000000	0.234121
1917.000000	0.236129
1918.000000	0.238085
1919.000000	0.240029
1920.000000	0.241483
1921.000000	0.242972
1922.000000	0.244781
1923.000000	0.245888
1924.000000	0.247146
1925.000000	0.248320
1926.000000	0.248667
1927.000000	0.249799
1928.000000	0.251109
1929.000000	0.252813
1930.000000	0.254014
1931.000000	0.255457
1932.000000	0.256802
1933.000000	0.258061
1934.000000	0.259363
1935.000000	0.260434
1936.000000	0.261269
1937.000000	0.261713
1938.000000	0.261617
1939.000000	0.261803
1940.000000	0.262094
1941.000000	0.262529
1942.000000	0.262946
1943.000000	0.263840
1944.000000	0.264945
1945.000000	0.266310
1946.000000	0.267212
1947.000000	0.267286
1948.000000	0.267039
1949.000000	0.266696
1950.000000	0.266448
1951.000000	0.266489
1952.000000	0.266873
1953.000000	0.267934
1954.000000	0.269229
1955.000000	0.270216
1956.000000	0.271279
1957.000000	0.271748
1958.000000	0.271490
1959.000000	0.271686
1960.000000	0.272082
1961.000000	0.272645
1962.000000	0.273162
1963.000000	0.273975
1964.000000	0.274393
1965.000000	0.274778
1966.000000	0.275310
1967.000000	0.275505
1968.000000	0.275238
1969.000000	0.274978
1970.000000	0.275327
1971.000000	0.275572
1972.000000	0.276092
1973.000000	0.276807
1974.000000	0.277895
1975.000000	0.278585
1976.000000	0.279281
1977.000000	0.280559
1978.000000	0.280948
1979.000000	0.281446
1980.000000	0.281920
1981.000000	0.282554
1982.000000	0.283667
1983.000000	0.284657
1984.000000	0.285096
1985.000000	0.285111
1986.000000	0.285141
1987.000000	0.284611
1988.000000	0.284796
1989.000000	0.285353
1990.000000	0.286578
1991.000000	0.288079
1992.000000	0.289056
1993.000000	0.289693
1994.000000	0.290223
1995.000000	0.290421
1996.000000	0.290273
1997.000000	0.290503
1998.000000	0.290901
1999.000000	0.291479
2000.000000	0.292105
2001.000000	0.293386
2002.000000	0.294476
2003.000000	0.295131
2004.000000	0.295810
2005.000000	0.295901
2006.000000	0.295887
2007.000000	0.296182
2008.000000	0.296756
2009.000000	0.297536
2010.000000	0.298267
2011.000000	0.299389
2012.000000	0.300199
2013.000000	0.300878
2014.000000	0.300876
2015.000000	0.301539
2016.000000	0.302038
2017.000000	0.302313
2018.000000	0.303586
2019.000000	0.304414
2020.000000	0.304662
2021.000000	0.305163
2022.000000	0.305412
2023.000000	0.305917
2024.000000	0.306743
2025.000000	0.307419
2026.000000	0.308187
2027.000000	0.308385
2028.000000	0.308339
2029.000000	0.308997
2030.000000	0.309480
2031.000000	0.310292
2032.000000	0.311271
2033.000000	0.311767
2034.000000	0.312106
2035.000000	0.312036
2036.000000	0.312176
2037.000000	0.312409
2038.000000	0.312739
2039.000000	0.313337
2040.000000	0.313853
2041.000000	0.313806
2042.000000	0.313636
2043.000000	0.313260
2044.000000	0.313276
2045.000000	0.313519
2046.000000	0.314051
2047.000000	0.314565
2048.000000	0.315122
2049.000000	0.315508
2050.000000	0.315473
2051.000000	0.315545
2052.000000	0.315302
2053.000000	0.315292
2054.000000	0.315593
2055.000000	0.316484
2056.000000	0.316493
2057.000000	0.316869
2058.000000	0.317461
2059.000000	0.317423
2060.000000	0.317688
2061.000000	0.318134
2062.000000	0.318655
2063.000000	0.319418
2064.000000	0.319744
2065.000000	0.320336
2066.000000	0.320612
2067.000000	0.320759
2068.000000	0.320908
2069.000000	0.320790
2070.000000	0.321344
2071.000000	0.321301
2072.000000	0.320742
2073.000000	0.320848
2074.000000	0.320420
2075.000000	0.320408
2076.000000	0.320772
2077.000000	0.320751
2078.000000	0.320616
2079.000000	0.320652
2080.000000	0.320546
2081.000000	0.320783
2082.000000	0.321499
2083.000000	0.321904
2084.000000	0.322290
2085.000000	0.321842
2086.000000	0.320882
2087.000000	0.320375
2088.000000	0.320363
2089.000000	0.320437
2090.000000	0.320593
2091.000000	0.321466
2092.000000	0.321723
2093.000000	0.321529
2094.000000	0.321696
2095.000000	0.321979
2096.000000	0.322127
2097.000000	0.322262
2098.000000	0.322387
2099.000000	0.322106
2100.000000	0.322436
2101.000000	0.323105
2102.000000	0.323804
2103.000000	0.324491
2104.000000	0.324650
2105.000000	0.324351
2106.000000	0.322842
2107.000000	0.322682
2108.000000	0.322773
2109.000000	0.322738
2110.000000	0.323379
2111.000000	0.323568
2112.000000	0.323012
2113.000000	0.322614
2114.000000	0.323457
2115.000000	0.323491
2116.000000	0.323111
2117.000000	0.323579
2118.000000	0.324420
2119.000000	0.324362
2120.000000	0.324332
2121.000000	0.324510
2122.000000	0.324553
2123.000000	0.324040
2124.000000	0.324083
2125.000000	0.324674
2126.000000	0.324892
2127.000000	0.324637
2128.000000	0.324843
2129.000000	0.325325
2130.000000	0.325684
2131.000000	0.326220
2132.000000	0.326443
2133.000000	0.325963
2134.000000	0.326287
2135.000000	0.326604
2136.000000	0.327159
2137.000000	0.327204
2138.000000	0.327132
2139.000000	0.327062
2140.000000	0.326518
2141.000000	0.326313
2142.000000	0.326269
2143.000000	0.326275
2144.000000	0.326778
2145.000000	0.326781
2146.000000	0.326989
2147.000000	0.327170
2148.000000	0.326085
2149.000000	0.325224
2150.000000	0.325063
2151.000000	0.325249
2152.000000	0.325845
2153.000000	0.326752
2154.000000	0.326902
2155.000000	0.326165
2156.000000	0.326305
2157.000000	0.326679
2158.000000	0.326850
2159.000000	0.327714
2160.000000	0.328157
2161.000000	0.328117
2162.000000	0.328047
2163.000000	0.327534
2164.000000	0.327256
2165.000000	0.326697
2166.000000	0.326737
2167.000000	0.327089
2168.000000	0.327004
2169.000000	0.326589
2170.000000	0.325775
2171.000000	0.325738
2172.000000	0.325943
2173.000000	0.326301
2174.000000	0.327596
2175.000000	0.328081
2176.000000	0.328233
2177.000000	0.328071
2178.000000	0.327517
2179.000000	0.326935
2180.000000	0.325630
2181.000000	0.325325
2182.000000	0.324493
2183.000000	0.324611
2184.000000	0.325123
2185.000000	0.325590
2186.000000	0.325921
2187.000000	0.325143
2188.000000	0.324186
2189.000000	0.323099
2190.000000	0.322071
2191.000000	0.322637
2192.000000	0.323178
2193.000000	0.324555
2194.000000	0.325485
2195.000000	0.327811
2196.000000	0.328187
2197.000000	0.327297
2198.000000	0.326202
2199.000000	0.322628
2200.000000	0.320506
2201.000000	0.318442
2202.000000	0.318129
2203.000000	0.319001
2204.000000	0.320971
2205.000000	0.324600
2206.000000	0.325285
2207.000000	0.324590
2208.000000	0.323887
2209.000000	0.322295
2210.000000	0.320816
2211.000000	0.320344
2212.000000	0.321873
2213.000000	0.322629
2214.000000	0.324389
2215.000000	0.324628
2216.000000	0.324482
2217.000000	0.322994
2218.000000	0.319075
2219.000000	0.318128
2220.000000	0.317529
2221.000000	0.317850
2222.000000	0.321238
2223.000000	0.322095
2224.000000	0.322644
2225.000000	0.321237
2226.000000	0.319847
2227.000000	0.317012
2228.000000	0.314975
2229.000000	0.314228
2230.000000	0.311355
2231.000000	0.310276
2232.000000	0.309084
2233.000000	0.306246
2234.000000	0.306423
2235.000000	0.306715
2236.000000	0.306579
2237.000000	0.306549
2238.000000	0.307038
2239.000000	0.307484
2240.000000	0.307860
2241.000000	0.308477
2242.000000	0.309130
2243.000000	0.310185
2244.000000	0.310411
2245.000000	0.310910
2246.000000	0.310712
2247.000000	0.307679
2248.000000	0.307252
2249.000000	0.309160
2250.000000	0.308845
2251.000000	0.308367
2252.000000	0.308480
2253.000000	0.306150
2254.000000	0.305756
2255.000000	0.306394
2256.000000	0.306495
2257.000000	0.308141
2258.000000	0.307742
2259.000000	0.306825
2260.000000	0.308277
2261.000000	0.307329
2262.000000	0.304259
2263.000000	0.303396
2264.000000	0.302888
2265.000000	0.301935
2266.000000	0.301605
2267.000000	0.300900
2268.000000	0.299718
2269.000000	0.298521
2270.000000	0.298694
2271.000000	0.297036
2272.000000	0.293255
2273.000000	0.290738
2274.000000	0.287232
2275.000000	0.284764
2276.000000	0.283960
2277.000000	0.281991
2278.000000	0.279855
2279.000000	0.277906
2280.000000	0.275040
2281.000000	0.274735
2282.000000	0.273599
2283.000000	0.271949
2284.000000	0.269453
2285.000000	0.263807
2286.000000	0.260426
2287.000000	0.258596
2288.000000	0.258183
2289.000000	0.260734
2290.000000	0.260170
2291.000000	0.259407
2292.000000	0.259803
2293.000000	0.257100
2294.000000	0.255813
2295.000000	0.255469
2296.000000	0.254381
2297.000000	0.251972
2298.000000	0.251678
2299.000000	0.252332
2300.000000	0.253880
2301.000000	0.258292
2302.000000	0.260368
2303.000000	0.261552
2304.000000	0.262543
2305.000000	0.261030
2306.000000	0.261098
2307.000000	0.262739
2308.000000	0.263118
2309.000000	0.263471
2310.000000	0.265689
2311.000000	0.268328
2312.000000	0.272373
2313.000000	0.275397
2314.000000	0.277769
2315.000000	0.280170
2316.000000	0.282144
2317.000000	0.281289
2318.000000	0.282914
2319.000000	0.284484
2320.000000	0.282299
2321.000000	0.284853
2322.000000	0.287722
2323.000000	0.286793
2324.000000	0.286606
2325.000000	0.286470
2326.000000	0.283498
2327.000000	0.281991
2328.000000	0.284653
2329.000000	0.286889
2330.000000	0.288192
2331.000000	0.289743
2332.000000	0.289391
2333.000000	0.287975
2334.000000	0.289677
2335.000000	0.290609
2336.000000	0.290860
2337.000000	0.291623
2338.000000	0.292570
2339.000000	0.293064
2340.000000	0.295064
2341.000000	0.294654
2342.000000	0.292107
2343.000000	0.290676
2344.000000	0.288401
2345.000000	0.286461
2346.000000	0.284960
2347.000000	0.284208
2348.000000	0.283545
2349.000000	0.282483
2350.000000	0.283662
2351.000000	0.284610
2352.000000	0.283621
2353.000000	0.283852
2354.000000	0.282768
2355.000000	0.280770
2356.000000	0.279405
2357.000000	0.277060
2358.000000	0.273606
2359.000000	0.272413
2360.000000	0.271875
2361.000000	0.270605
2362.000000	0.271949
2363.000000	0.272634
2364.000000	0.272401
2365.000000	0.272375
2366.000000	0.271585
2367.000000	0.270882
2368.000000	0.268918
2369.000000	0.269508
2370.000000	0.268886
2371.000000	0.265016
2372.000000	0.264593
2373.000000	0.263703
2374.000000	0.264271
2375.000000	0.265982
2376.000000	0.261824
2377.000000	0.255975
2378.000000	0.251570
2379.000000	0.249954
2380.000000	0.250681
2381.000000	0.253326
2382.000000	0.255459
2383.000000	0.248867
2384.000000	0.246570
2385.000000	0.251089
2386.000000	0.250469
2387.000000	0.255886
2388.000000	0.259636
2389.000000	0.254808
2390.000000	0.249929
2391.000000	0.243347
2392.000000	0.239988
2393.000000	0.237562
2394.000000	0.237546
2395.000000	0.241495
2396.000000	0.240335
2397.000000	0.237143
2398.000000	0.234833
2399.000000	0.228654
2400.000000	0.225197
2401.000000	0.226077
2402.000000	0.227509
2403.000000	0.237865
2404.000000	0.249164
2405.000000	0.254145
2406.000000	0.253801
2407.000000	0.249918
2408.000000	0.245912
2409.000000	0.241422
2410.000000	0.246012
2411.000000	0.249685
2412.000000	0.246057
2413.000000	0.247723
2414.000000	0.240484
2415.000000	0.230982
2416.000000	0.235485
2417.000000	0.233106
2418.000000	0.235401
2419.000000	0.241336
2420.000000	0.235887
2421.000000	0.242741
2422.000000	0.250165
2423.000000	0.251323
2424.000000	0.252595
2425.000000	0.245235
2426.000000	0.239619
2427.000000	0.233707
2428.000000	0.227624
2429.000000	0.225970
2430.000000	0.224732
2431.000000	0.227981
2432.000000	0.225481
2433.000000	0.229920
2434.000000	0.238901
2435.000000	0.248700
2436.000000	0.270000
2437.000000	0.274323
2438.000000	0.260804
2439.000000	0.243377
2440.000000	0.219753
2441.000000	0.209270
2442.000000	0.214887
2443.000000	0.217113
2444.000000	0.216281
2445.000000	0.214164
2446.000000	0.212591
2447.000000	0.218512
2448.000000	0.225625
2449.000000	0.229529
2450.000000	0.229909
2451.000000	0.223759
2452.000000	0.213261
2453.000000	0.203939
2454.000000	0.200536
2455.000000	0.192624
2456.000000	0.182060
2457.000000	0.177960
2458.000000	0.173042
2459.000000	0.175237
2460.000000	0.189641
2461.000000	0.207121
2462.000000	0.212945
2463.000000	0.216380
2464.000000	0.219444
2465.000000	0.204992
2466.000000	0.189448
2467.000000	0.173975
2468.000000	0.157993
2469.000000	0.161119
2470.000000	0.181925
2471.000000	0.198602
2472.000000	0.196619
2473.000000	0.194000
2474.000000	0.185288
2475.000000	0.184816
2476.000000	0.201761
2477.000000	0.220022
2478.000000	0.230785
2479.000000	0.237074
2480.000000	0.231259
2481.000000	0.209811
2482.000000	0.219792
2483.000000	0.213411
2484.000000	0.196741
2485.000000	0.215859
2486.000000	0.186664
2487.000000	0.160128
2488.000000	0.158683
2489.000000	0.142480
2490.000000	0.156404
2491.000000	0.190860
2492.000000	0.191778
2493.000000	0.157126
2494.000000	0.141540
2495.000000	0.100891
2496.000000	0.086090
2497.000000	0.103946
2498.000000	0.109341
2499.000000	0.133202
2500.000000	0.163714
