# Wavelength	NAu-2-60_HEX-10_FV7-30_00000.asd.rts.txt
350.000000	0.114924
351.000000	0.106981
352.000000	0.105620
353.000000	0.102861
354.000000	0.098613
355.000000	0.110525
356.000000	0.103483
357.000000	0.087067
358.000000	0.101920
359.000000	0.112075
360.000000	0.109908
361.000000	0.097651
362.000000	0.098553
363.000000	0.105800
364.000000	0.110144
365.000000	0.102365
366.000000	0.098271
367.000000	0.101634
368.000000	0.107111
369.000000	0.104971
370.000000	0.101168
371.000000	0.104675
372.000000	0.102728
373.000000	0.101715
374.000000	0.105366
375.000000	0.104662
376.000000	0.105908
377.000000	0.108650
378.000000	0.106119
379.000000	0.104762
380.000000	0.104499
381.000000	0.103810
382.000000	0.104746
383.000000	0.105230
384.000000	0.103789
385.000000	0.100203
386.000000	0.101042
387.000000	0.105768
388.000000	0.106215
389.000000	0.105722
390.000000	0.105808
391.000000	0.107027
392.000000	0.104291
393.000000	0.102970
394.000000	0.106326
395.000000	0.106616
396.000000	0.107589
397.000000	0.109286
398.000000	0.106145
399.000000	0.105279
400.000000	0.106363
401.000000	0.106093
402.000000	0.107137
403.000000	0.107881
404.000000	0.107183
405.000000	0.108478
406.000000	0.109157
407.000000	0.108387
408.000000	0.108396
409.000000	0.108437
410.000000	0.108432
411.000000	0.108587
412.000000	0.109313
413.000000	0.109733
414.000000	0.109157
415.000000	0.109518
416.000000	0.110552
417.000000	0.111562
418.000000	0.111124
419.000000	0.110939
420.000000	0.111360
421.000000	0.111669
422.000000	0.111841
423.000000	0.112117
424.000000	0.112792
425.000000	0.113221
426.000000	0.113409
427.000000	0.113449
428.000000	0.113335
429.000000	0.113708
430.000000	0.114522
431.000000	0.114848
432.000000	0.114677
433.000000	0.114525
434.000000	0.115207
435.000000	0.115751
436.000000	0.116059
437.000000	0.116231
438.000000	0.116467
439.000000	0.116923
440.000000	0.117462
441.000000	0.117096
442.000000	0.117206
443.000000	0.117871
444.000000	0.118365
445.000000	0.118393
446.000000	0.118406
447.000000	0.118894
448.000000	0.119427
449.000000	0.119973
450.000000	0.120518
451.000000	0.120970
452.000000	0.121265
453.000000	0.121490
454.000000	0.122065
455.000000	0.122292
456.000000	0.122453
457.000000	0.123066
458.000000	0.123123
459.000000	0.123202
460.000000	0.123851
461.000000	0.124234
462.000000	0.124438
463.000000	0.124612
464.000000	0.125255
465.000000	0.125965
466.000000	0.126352
467.000000	0.126059
468.000000	0.126082
469.000000	0.126472
470.000000	0.127073
471.000000	0.127594
472.000000	0.128133
473.000000	0.128687
474.000000	0.128762
475.000000	0.128765
476.000000	0.128983
477.000000	0.129464
478.000000	0.129714
479.000000	0.129942
480.000000	0.130436
481.000000	0.130816
482.000000	0.131146
483.000000	0.131442
484.000000	0.131832
485.000000	0.132081
486.000000	0.132235
487.000000	0.132585
488.000000	0.132800
489.000000	0.132890
490.000000	0.133073
491.000000	0.133251
492.000000	0.133473
493.000000	0.133728
494.000000	0.133971
495.000000	0.134002
496.000000	0.133788
497.000000	0.133868
498.000000	0.134022
499.000000	0.134174
500.000000	0.134300
501.000000	0.134565
502.000000	0.134829
503.000000	0.134794
504.000000	0.134874
505.000000	0.135154
506.000000	0.135571
507.000000	0.135693
508.000000	0.135839
509.000000	0.136144
510.000000	0.136377
511.000000	0.136721
512.000000	0.137135
513.000000	0.137368
514.000000	0.137799
515.000000	0.138315
516.000000	0.138639
517.000000	0.138955
518.000000	0.139294
519.000000	0.139633
520.000000	0.140047
521.000000	0.140528
522.000000	0.141077
523.000000	0.141716
524.000000	0.142336
525.000000	0.142967
526.000000	0.143737
527.000000	0.144597
528.000000	0.145501
529.000000	0.146452
530.000000	0.147555
531.000000	0.148793
532.000000	0.150054
533.000000	0.151197
534.000000	0.152456
535.000000	0.153840
536.000000	0.155159
537.000000	0.156431
538.000000	0.157667
539.000000	0.158868
540.000000	0.159982
541.000000	0.161057
542.000000	0.162158
543.000000	0.163241
544.000000	0.164258
545.000000	0.165205
546.000000	0.166324
547.000000	0.167379
548.000000	0.168411
549.000000	0.169588
550.000000	0.170810
551.000000	0.172068
552.000000	0.173353
553.000000	0.174813
554.000000	0.176346
555.000000	0.177889
556.000000	0.179572
557.000000	0.181323
558.000000	0.183173
559.000000	0.185057
560.000000	0.186842
561.000000	0.188593
562.000000	0.190372
563.000000	0.192086
564.000000	0.193787
565.000000	0.195448
566.000000	0.196971
567.000000	0.198419
568.000000	0.199813
569.000000	0.201128
570.000000	0.202295
571.000000	0.203304
572.000000	0.204220
573.000000	0.205113
574.000000	0.205934
575.000000	0.206628
576.000000	0.207216
577.000000	0.207698
578.000000	0.208122
579.000000	0.208498
580.000000	0.208787
581.000000	0.208978
582.000000	0.209105
583.000000	0.209193
584.000000	0.209246
585.000000	0.209253
586.000000	0.209214
587.000000	0.209108
588.000000	0.208921
589.000000	0.208697
590.000000	0.208456
591.000000	0.208185
592.000000	0.207779
593.000000	0.207358
594.000000	0.206939
595.000000	0.206441
596.000000	0.205936
597.000000	0.205433
598.000000	0.204854
599.000000	0.204244
600.000000	0.203685
601.000000	0.203149
602.000000	0.202464
603.000000	0.201783
604.000000	0.201153
605.000000	0.200402
606.000000	0.199683
607.000000	0.199059
608.000000	0.198536
609.000000	0.197916
610.000000	0.197293
611.000000	0.196797
612.000000	0.196227
613.000000	0.195684
614.000000	0.195231
615.000000	0.194656
616.000000	0.194113
617.000000	0.193592
618.000000	0.192986
619.000000	0.192477
620.000000	0.192005
621.000000	0.191473
622.000000	0.191010
623.000000	0.190594
624.000000	0.190182
625.000000	0.189748
626.000000	0.189432
627.000000	0.189231
628.000000	0.188877
629.000000	0.188573
630.000000	0.188296
631.000000	0.188098
632.000000	0.187873
633.000000	0.187652
634.000000	0.187467
635.000000	0.187235
636.000000	0.187033
637.000000	0.186900
638.000000	0.186838
639.000000	0.186739
640.000000	0.186614
641.000000	0.186471
642.000000	0.186406
643.000000	0.186391
644.000000	0.186373
645.000000	0.186455
646.000000	0.186584
647.000000	0.186692
648.000000	0.186793
649.000000	0.186953
650.000000	0.187163
651.000000	0.187353
652.000000	0.187531
653.000000	0.187764
654.000000	0.188088
655.000000	0.188399
656.000000	0.188725
657.000000	0.189067
658.000000	0.189424
659.000000	0.189820
660.000000	0.190262
661.000000	0.190763
662.000000	0.191242
663.000000	0.191754
664.000000	0.192360
665.000000	0.193015
666.000000	0.193656
667.000000	0.194232
668.000000	0.194896
669.000000	0.195646
670.000000	0.196440
671.000000	0.197157
672.000000	0.197923
673.000000	0.198763
674.000000	0.199647
675.000000	0.200517
676.000000	0.201418
677.000000	0.202427
678.000000	0.203449
679.000000	0.204448
680.000000	0.205447
681.000000	0.206571
682.000000	0.207773
683.000000	0.208964
684.000000	0.210157
685.000000	0.211364
686.000000	0.212629
687.000000	0.213960
688.000000	0.215286
689.000000	0.216628
690.000000	0.218042
691.000000	0.219529
692.000000	0.221022
693.000000	0.222559
694.000000	0.224176
695.000000	0.225766
696.000000	0.227356
697.000000	0.229022
698.000000	0.230700
699.000000	0.232424
700.000000	0.234212
701.000000	0.235957
702.000000	0.237755
703.000000	0.239605
704.000000	0.241413
705.000000	0.243317
706.000000	0.245266
707.000000	0.247206
708.000000	0.249197
709.000000	0.251230
710.000000	0.253291
711.000000	0.255316
712.000000	0.257367
713.000000	0.259482
714.000000	0.261613
715.000000	0.263733
716.000000	0.265838
717.000000	0.267917
718.000000	0.270000
719.000000	0.272116
720.000000	0.274284
721.000000	0.276414
722.000000	0.278531
723.000000	0.280692
724.000000	0.282830
725.000000	0.284958
726.000000	0.287130
727.000000	0.289262
728.000000	0.291368
729.000000	0.293468
730.000000	0.295532
731.000000	0.297570
732.000000	0.299606
733.000000	0.301675
734.000000	0.303704
735.000000	0.305700
736.000000	0.307741
737.000000	0.309681
738.000000	0.311566
739.000000	0.313490
740.000000	0.315350
741.000000	0.317250
742.000000	0.319109
743.000000	0.320887
744.000000	0.322686
745.000000	0.324368
746.000000	0.326028
747.000000	0.327713
748.000000	0.329328
749.000000	0.330898
750.000000	0.332416
751.000000	0.333893
752.000000	0.335388
753.000000	0.336869
754.000000	0.338201
755.000000	0.339537
756.000000	0.340868
757.000000	0.342096
758.000000	0.343278
759.000000	0.344435
760.000000	0.345525
761.000000	0.346701
762.000000	0.347795
763.000000	0.348770
764.000000	0.349757
765.000000	0.350705
766.000000	0.351609
767.000000	0.352463
768.000000	0.353303
769.000000	0.354093
770.000000	0.354837
771.000000	0.355584
772.000000	0.356287
773.000000	0.356910
774.000000	0.357574
775.000000	0.358209
776.000000	0.358813
777.000000	0.359373
778.000000	0.359899
779.000000	0.360424
780.000000	0.360925
781.000000	0.361308
782.000000	0.361678
783.000000	0.362120
784.000000	0.362500
785.000000	0.362899
786.000000	0.363264
787.000000	0.363553
788.000000	0.363788
789.000000	0.363999
790.000000	0.364211
791.000000	0.364495
792.000000	0.364698
793.000000	0.364891
794.000000	0.365141
795.000000	0.365325
796.000000	0.365533
797.000000	0.365762
798.000000	0.365929
799.000000	0.366044
800.000000	0.366128
801.000000	0.366200
802.000000	0.366221
803.000000	0.366258
804.000000	0.366354
805.000000	0.366341
806.000000	0.366246
807.000000	0.366222
808.000000	0.366295
809.000000	0.366366
810.000000	0.366411
811.000000	0.366397
812.000000	0.366298
813.000000	0.366153
814.000000	0.366010
815.000000	0.365951
816.000000	0.365911
817.000000	0.365900
818.000000	0.365842
819.000000	0.365815
820.000000	0.365789
821.000000	0.365679
822.000000	0.365514
823.000000	0.365318
824.000000	0.365096
825.000000	0.364992
826.000000	0.364987
827.000000	0.364970
828.000000	0.364904
829.000000	0.364723
830.000000	0.364502
831.000000	0.364346
832.000000	0.364174
833.000000	0.363967
834.000000	0.363817
835.000000	0.363777
836.000000	0.363549
837.000000	0.363362
838.000000	0.363217
839.000000	0.362896
840.000000	0.362623
841.000000	0.362391
842.000000	0.362111
843.000000	0.361847
844.000000	0.361574
845.000000	0.361284
846.000000	0.361083
847.000000	0.360881
848.000000	0.360660
849.000000	0.360458
850.000000	0.360220
851.000000	0.359927
852.000000	0.359646
853.000000	0.359436
854.000000	0.359104
855.000000	0.358839
856.000000	0.358681
857.000000	0.358495
858.000000	0.358328
859.000000	0.358099
860.000000	0.357792
861.000000	0.357458
862.000000	0.357141
863.000000	0.356806
864.000000	0.356612
865.000000	0.356417
866.000000	0.356178
867.000000	0.355989
868.000000	0.355779
869.000000	0.355495
870.000000	0.355212
871.000000	0.354782
872.000000	0.354369
873.000000	0.354020
874.000000	0.353757
875.000000	0.353477
876.000000	0.353147
877.000000	0.352707
878.000000	0.352315
879.000000	0.352011
880.000000	0.351655
881.000000	0.351378
882.000000	0.350987
883.000000	0.350617
884.000000	0.350424
885.000000	0.350174
886.000000	0.349880
887.000000	0.349583
888.000000	0.349221
889.000000	0.349000
890.000000	0.348704
891.000000	0.348266
892.000000	0.347893
893.000000	0.347601
894.000000	0.347449
895.000000	0.347157
896.000000	0.346820
897.000000	0.346487
898.000000	0.346189
899.000000	0.345910
900.000000	0.345631
901.000000	0.345353
902.000000	0.345269
903.000000	0.344989
904.000000	0.344605
905.000000	0.344210
906.000000	0.343934
907.000000	0.343554
908.000000	0.343143
909.000000	0.342897
910.000000	0.342562
911.000000	0.342204
912.000000	0.341953
913.000000	0.341821
914.000000	0.341433
915.000000	0.340886
916.000000	0.340465
917.000000	0.340234
918.000000	0.340000
919.000000	0.339612
920.000000	0.339229
921.000000	0.338970
922.000000	0.338710
923.000000	0.338211
924.000000	0.337788
925.000000	0.337479
926.000000	0.337277
927.000000	0.337024
928.000000	0.336734
929.000000	0.336465
930.000000	0.336277
931.000000	0.336105
932.000000	0.335783
933.000000	0.335382
934.000000	0.335108
935.000000	0.334854
936.000000	0.334644
937.000000	0.334378
938.000000	0.333995
939.000000	0.333737
940.000000	0.333514
941.000000	0.333226
942.000000	0.332960
943.000000	0.332774
944.000000	0.332573
945.000000	0.332479
946.000000	0.332279
947.000000	0.332050
948.000000	0.331860
949.000000	0.331713
950.000000	0.331627
951.000000	0.331411
952.000000	0.330861
953.000000	0.330540
954.000000	0.330252
955.000000	0.329753
956.000000	0.329397
957.000000	0.329038
958.000000	0.328747
959.000000	0.328723
960.000000	0.328345
961.000000	0.328148
962.000000	0.328127
963.000000	0.327639
964.000000	0.327323
965.000000	0.327190
966.000000	0.326992
967.000000	0.326727
968.000000	0.326526
969.000000	0.326380
970.000000	0.326319
971.000000	0.326083
972.000000	0.325940
973.000000	0.325839
974.000000	0.325516
975.000000	0.325172
976.000000	0.324912
977.000000	0.324761
978.000000	0.324606
979.000000	0.324631
980.000000	0.324486
981.000000	0.324221
982.000000	0.324201
983.000000	0.324187
984.000000	0.324095
985.000000	0.323895
986.000000	0.323756
987.000000	0.323699
988.000000	0.323571
989.000000	0.323356
990.000000	0.323265
991.000000	0.323146
992.000000	0.322895
993.000000	0.323017
994.000000	0.323022
995.000000	0.322907
996.000000	0.322664
997.000000	0.322727
998.000000	0.322776
999.000000	0.322704
1000.000000	0.322595
1001.000000	0.323145
1002.000000	0.322509
1003.000000	0.322421
1004.000000	0.322439
1005.000000	0.322727
1006.000000	0.323008
1007.000000	0.323821
1008.000000	0.323716
1009.000000	0.322920
1010.000000	0.322062
1011.000000	0.321180
1012.000000	0.320950
1013.000000	0.321237
1014.000000	0.321841
1015.000000	0.322101
1016.000000	0.321692
1017.000000	0.321493
1018.000000	0.320913
1019.000000	0.320910
1020.000000	0.321575
1021.000000	0.321676
1022.000000	0.322118
1023.000000	0.322718
1024.000000	0.323144
1025.000000	0.323156
1026.000000	0.323463
1027.000000	0.323011
1028.000000	0.323086
1029.000000	0.323277
1030.000000	0.323087
1031.000000	0.323097
1032.000000	0.322459
1033.000000	0.322198
1034.000000	0.322154
1035.000000	0.322437
1036.000000	0.322700
1037.000000	0.323385
1038.000000	0.323360
1039.000000	0.322795
1040.000000	0.323238
1041.000000	0.323824
1042.000000	0.323793
1043.000000	0.324222
1044.000000	0.324481
1045.000000	0.323951
1046.000000	0.324185
1047.000000	0.324471
1048.000000	0.325000
1049.000000	0.325258
1050.000000	0.325746
1051.000000	0.325662
1052.000000	0.324811
1053.000000	0.324943
1054.000000	0.325708
1055.000000	0.326013
1056.000000	0.326664
1057.000000	0.327199
1058.000000	0.327144
1059.000000	0.326883
1060.000000	0.327241
1061.000000	0.327746
1062.000000	0.327814
1063.000000	0.328018
1064.000000	0.328291
1065.000000	0.328327
1066.000000	0.328711
1067.000000	0.329654
1068.000000	0.329929
1069.000000	0.329837
1070.000000	0.330003
1071.000000	0.329909
1072.000000	0.330040
1073.000000	0.330557
1074.000000	0.331028
1075.000000	0.331397
1076.000000	0.331761
1077.000000	0.331616
1078.000000	0.331680
1079.000000	0.331893
1080.000000	0.332088
1081.000000	0.332268
1082.000000	0.332837
1083.000000	0.333160
1084.000000	0.333300
1085.000000	0.333609
1086.000000	0.334034
1087.000000	0.334301
1088.000000	0.334224
1089.000000	0.334427
1090.000000	0.334677
1091.000000	0.335017
1092.000000	0.335230
1093.000000	0.335741
1094.000000	0.335961
1095.000000	0.335786
1096.000000	0.336018
1097.000000	0.336490
1098.000000	0.336702
1099.000000	0.336764
1100.000000	0.337096
1101.000000	0.337394
1102.000000	0.337675
1103.000000	0.338292
1104.000000	0.338532
1105.000000	0.338316
1106.000000	0.338407
1107.000000	0.338431
1108.000000	0.338513
1109.000000	0.338841
1110.000000	0.339141
1111.000000	0.339435
1112.000000	0.339677
1113.000000	0.340077
1114.000000	0.340594
1115.000000	0.341010
1116.000000	0.341616
1117.000000	0.341853
1118.000000	0.341815
1119.000000	0.341846
1120.000000	0.341616
1121.000000	0.341630
1122.000000	0.341892
1123.000000	0.342278
1124.000000	0.342625
1125.000000	0.342898
1126.000000	0.343131
1127.000000	0.343243
1128.000000	0.343265
1129.000000	0.343094
1130.000000	0.343312
1131.000000	0.343695
1132.000000	0.343864
1133.000000	0.344232
1134.000000	0.344475
1135.000000	0.344451
1136.000000	0.344511
1137.000000	0.344571
1138.000000	0.344700
1139.000000	0.344966
1140.000000	0.345172
1141.000000	0.345496
1142.000000	0.345631
1143.000000	0.345385
1144.000000	0.345441
1145.000000	0.345332
1146.000000	0.345269
1147.000000	0.345356
1148.000000	0.345491
1149.000000	0.345661
1150.000000	0.345946
1151.000000	0.346208
1152.000000	0.346495
1153.000000	0.346670
1154.000000	0.346751
1155.000000	0.346853
1156.000000	0.346881
1157.000000	0.346955
1158.000000	0.347014
1159.000000	0.347084
1160.000000	0.347123
1161.000000	0.347184
1162.000000	0.347329
1163.000000	0.347569
1164.000000	0.347819
1165.000000	0.348025
1166.000000	0.348223
1167.000000	0.348405
1168.000000	0.348525
1169.000000	0.348605
1170.000000	0.348725
1171.000000	0.348915
1172.000000	0.349053
1173.000000	0.349074
1174.000000	0.349200
1175.000000	0.349369
1176.000000	0.349404
1177.000000	0.349488
1178.000000	0.349618
1179.000000	0.349612
1180.000000	0.349686
1181.000000	0.350035
1182.000000	0.350263
1183.000000	0.350380
1184.000000	0.350532
1185.000000	0.350743
1186.000000	0.350968
1187.000000	0.351094
1188.000000	0.351245
1189.000000	0.351357
1190.000000	0.351377
1191.000000	0.351459
1192.000000	0.351770
1193.000000	0.352017
1194.000000	0.352027
1195.000000	0.352174
1196.000000	0.352289
1197.000000	0.352445
1198.000000	0.352766
1199.000000	0.352926
1200.000000	0.352983
1201.000000	0.353077
1202.000000	0.353108
1203.000000	0.353216
1204.000000	0.353180
1205.000000	0.353249
1206.000000	0.353249
1207.000000	0.353218
1208.000000	0.353238
1209.000000	0.353422
1210.000000	0.353479
1211.000000	0.353501
1212.000000	0.353514
1213.000000	0.353459
1214.000000	0.353567
1215.000000	0.353799
1216.000000	0.353898
1217.000000	0.353921
1218.000000	0.354034
1219.000000	0.354163
1220.000000	0.354266
1221.000000	0.354494
1222.000000	0.354760
1223.000000	0.354810
1224.000000	0.354913
1225.000000	0.355093
1226.000000	0.355159
1227.000000	0.355258
1228.000000	0.355397
1229.000000	0.355453
1230.000000	0.355432
1231.000000	0.355449
1232.000000	0.355580
1233.000000	0.355728
1234.000000	0.355848
1235.000000	0.355917
1236.000000	0.355858
1237.000000	0.356011
1238.000000	0.356201
1239.000000	0.356365
1240.000000	0.356707
1241.000000	0.356809
1242.000000	0.356751
1243.000000	0.356765
1244.000000	0.356824
1245.000000	0.357045
1246.000000	0.357344
1247.000000	0.357644
1248.000000	0.357822
1249.000000	0.357883
1250.000000	0.357992
1251.000000	0.358149
1252.000000	0.358230
1253.000000	0.358404
1254.000000	0.358456
1255.000000	0.358308
1256.000000	0.358327
1257.000000	0.358437
1258.000000	0.358579
1259.000000	0.358726
1260.000000	0.358909
1261.000000	0.359048
1262.000000	0.359165
1263.000000	0.359302
1264.000000	0.359432
1265.000000	0.359558
1266.000000	0.359727
1267.000000	0.359935
1268.000000	0.360096
1269.000000	0.360256
1270.000000	0.360486
1271.000000	0.360510
1272.000000	0.360593
1273.000000	0.360714
1274.000000	0.360736
1275.000000	0.360787
1276.000000	0.360925
1277.000000	0.361025
1278.000000	0.360938
1279.000000	0.360989
1280.000000	0.361099
1281.000000	0.361100
1282.000000	0.361160
1283.000000	0.361262
1284.000000	0.361147
1285.000000	0.361181
1286.000000	0.361310
1287.000000	0.361429
1288.000000	0.361543
1289.000000	0.361634
1290.000000	0.361631
1291.000000	0.361685
1292.000000	0.361804
1293.000000	0.362004
1294.000000	0.362264
1295.000000	0.362439
1296.000000	0.362508
1297.000000	0.362619
1298.000000	0.362730
1299.000000	0.362784
1300.000000	0.363011
1301.000000	0.363133
1302.000000	0.363078
1303.000000	0.362961
1304.000000	0.363007
1305.000000	0.363153
1306.000000	0.363179
1307.000000	0.363376
1308.000000	0.363436
1309.000000	0.363200
1310.000000	0.363193
1311.000000	0.363332
1312.000000	0.363489
1313.000000	0.363596
1314.000000	0.363546
1315.000000	0.363375
1316.000000	0.363372
1317.000000	0.363480
1318.000000	0.363644
1319.000000	0.363657
1320.000000	0.363607
1321.000000	0.363423
1322.000000	0.363203
1323.000000	0.363247
1324.000000	0.363177
1325.000000	0.362994
1326.000000	0.362883
1327.000000	0.362746
1328.000000	0.362817
1329.000000	0.362766
1330.000000	0.362748
1331.000000	0.362787
1332.000000	0.362793
1333.000000	0.362878
1334.000000	0.363342
1335.000000	0.363527
1336.000000	0.363508
1337.000000	0.363593
1338.000000	0.363649
1339.000000	0.363426
1340.000000	0.363294
1341.000000	0.363311
1342.000000	0.363360
1343.000000	0.363248
1344.000000	0.363130
1345.000000	0.363056
1346.000000	0.362877
1347.000000	0.362784
1348.000000	0.362897
1349.000000	0.362864
1350.000000	0.362847
1351.000000	0.362777
1352.000000	0.362670
1353.000000	0.362577
1354.000000	0.362490
1355.000000	0.362496
1356.000000	0.362475
1357.000000	0.362407
1358.000000	0.362512
1359.000000	0.362532
1360.000000	0.362521
1361.000000	0.362644
1362.000000	0.362620
1363.000000	0.362377
1364.000000	0.362287
1365.000000	0.362194
1366.000000	0.362143
1367.000000	0.362146
1368.000000	0.362122
1369.000000	0.362137
1370.000000	0.361995
1371.000000	0.361650
1372.000000	0.361234
1373.000000	0.360833
1374.000000	0.360388
1375.000000	0.359986
1376.000000	0.359805
1377.000000	0.359701
1378.000000	0.359451
1379.000000	0.359158
1380.000000	0.358931
1381.000000	0.358332
1382.000000	0.357647
1383.000000	0.357150
1384.000000	0.356352
1385.000000	0.355423
1386.000000	0.354656
1387.000000	0.353819
1388.000000	0.352752
1389.000000	0.351704
1390.000000	0.350733
1391.000000	0.349495
1392.000000	0.348104
1393.000000	0.346610
1394.000000	0.345003
1395.000000	0.343400
1396.000000	0.341673
1397.000000	0.339975
1398.000000	0.338158
1399.000000	0.336564
1400.000000	0.335071
1401.000000	0.333484
1402.000000	0.332011
1403.000000	0.330555
1404.000000	0.329112
1405.000000	0.327774
1406.000000	0.326661
1407.000000	0.325696
1408.000000	0.324561
1409.000000	0.323582
1410.000000	0.322869
1411.000000	0.322061
1412.000000	0.321415
1413.000000	0.321052
1414.000000	0.320624
1415.000000	0.320321
1416.000000	0.320112
1417.000000	0.319761
1418.000000	0.319505
1419.000000	0.319468
1420.000000	0.319270
1421.000000	0.319165
1422.000000	0.319064
1423.000000	0.318871
1424.000000	0.318619
1425.000000	0.318402
1426.000000	0.318303
1427.000000	0.318166
1428.000000	0.318047
1429.000000	0.318166
1430.000000	0.318149
1431.000000	0.318073
1432.000000	0.318065
1433.000000	0.318114
1434.000000	0.318133
1435.000000	0.318264
1436.000000	0.318394
1437.000000	0.318524
1438.000000	0.318650
1439.000000	0.318730
1440.000000	0.319006
1441.000000	0.319383
1442.000000	0.319874
1443.000000	0.320433
1444.000000	0.321185
1445.000000	0.321836
1446.000000	0.322480
1447.000000	0.323307
1448.000000	0.324046
1449.000000	0.324841
1450.000000	0.325785
1451.000000	0.326619
1452.000000	0.327381
1453.000000	0.328160
1454.000000	0.328781
1455.000000	0.329198
1456.000000	0.329639
1457.000000	0.330165
1458.000000	0.330601
1459.000000	0.331083
1460.000000	0.331521
1461.000000	0.331748
1462.000000	0.332120
1463.000000	0.332505
1464.000000	0.332818
1465.000000	0.333224
1466.000000	0.333398
1467.000000	0.333544
1468.000000	0.333935
1469.000000	0.334403
1470.000000	0.334818
1471.000000	0.335292
1472.000000	0.335672
1473.000000	0.336066
1474.000000	0.336592
1475.000000	0.337184
1476.000000	0.337696
1477.000000	0.338178
1478.000000	0.338646
1479.000000	0.338940
1480.000000	0.339220
1481.000000	0.339596
1482.000000	0.340081
1483.000000	0.340525
1484.000000	0.341085
1485.000000	0.341521
1486.000000	0.341819
1487.000000	0.342216
1488.000000	0.342659
1489.000000	0.343039
1490.000000	0.343325
1491.000000	0.343607
1492.000000	0.343747
1493.000000	0.343993
1494.000000	0.344217
1495.000000	0.344450
1496.000000	0.344685
1497.000000	0.344960
1498.000000	0.345294
1499.000000	0.345602
1500.000000	0.345871
1501.000000	0.346190
1502.000000	0.346468
1503.000000	0.346698
1504.000000	0.346961
1505.000000	0.347186
1506.000000	0.347382
1507.000000	0.347591
1508.000000	0.347913
1509.000000	0.348315
1510.000000	0.348553
1511.000000	0.348777
1512.000000	0.349074
1513.000000	0.349136
1514.000000	0.349176
1515.000000	0.349419
1516.000000	0.349629
1517.000000	0.349851
1518.000000	0.350178
1519.000000	0.350289
1520.000000	0.350320
1521.000000	0.350410
1522.000000	0.350714
1523.000000	0.351078
1524.000000	0.351281
1525.000000	0.351523
1526.000000	0.351575
1527.000000	0.351597
1528.000000	0.351893
1529.000000	0.352045
1530.000000	0.352021
1531.000000	0.352151
1532.000000	0.352216
1533.000000	0.352240
1534.000000	0.352362
1535.000000	0.352479
1536.000000	0.352430
1537.000000	0.352452
1538.000000	0.352542
1539.000000	0.352579
1540.000000	0.352709
1541.000000	0.352857
1542.000000	0.353013
1543.000000	0.353176
1544.000000	0.353390
1545.000000	0.353662
1546.000000	0.353802
1547.000000	0.353933
1548.000000	0.354063
1549.000000	0.354101
1550.000000	0.354229
1551.000000	0.354378
1552.000000	0.354494
1553.000000	0.354622
1554.000000	0.354695
1555.000000	0.354889
1556.000000	0.355033
1557.000000	0.355066
1558.000000	0.355151
1559.000000	0.355140
1560.000000	0.355144
1561.000000	0.355204
1562.000000	0.355269
1563.000000	0.355434
1564.000000	0.355490
1565.000000	0.355461
1566.000000	0.355466
1567.000000	0.355518
1568.000000	0.355602
1569.000000	0.355879
1570.000000	0.355985
1571.000000	0.355996
1572.000000	0.356026
1573.000000	0.356037
1574.000000	0.356053
1575.000000	0.356025
1576.000000	0.356134
1577.000000	0.356320
1578.000000	0.356401
1579.000000	0.356649
1580.000000	0.356685
1581.000000	0.356556
1582.000000	0.356554
1583.000000	0.356518
1584.000000	0.356511
1585.000000	0.356675
1586.000000	0.356782
1587.000000	0.356885
1588.000000	0.356949
1589.000000	0.357021
1590.000000	0.357089
1591.000000	0.357133
1592.000000	0.357190
1593.000000	0.357262
1594.000000	0.357352
1595.000000	0.357510
1596.000000	0.357616
1597.000000	0.357826
1598.000000	0.357907
1599.000000	0.357885
1600.000000	0.357922
1601.000000	0.358036
1602.000000	0.358062
1603.000000	0.358174
1604.000000	0.358132
1605.000000	0.357934
1606.000000	0.357850
1607.000000	0.357810
1608.000000	0.357713
1609.000000	0.357718
1610.000000	0.357667
1611.000000	0.357538
1612.000000	0.357530
1613.000000	0.357783
1614.000000	0.357760
1615.000000	0.357703
1616.000000	0.357662
1617.000000	0.357336
1618.000000	0.357257
1619.000000	0.357346
1620.000000	0.357388
1621.000000	0.357563
1622.000000	0.357725
1623.000000	0.357785
1624.000000	0.357933
1625.000000	0.358026
1626.000000	0.358034
1627.000000	0.358048
1628.000000	0.358118
1629.000000	0.358123
1630.000000	0.358177
1631.000000	0.358228
1632.000000	0.358307
1633.000000	0.358381
1634.000000	0.358485
1635.000000	0.358737
1636.000000	0.358843
1637.000000	0.358921
1638.000000	0.358908
1639.000000	0.358850
1640.000000	0.358800
1641.000000	0.358775
1642.000000	0.358743
1643.000000	0.358760
1644.000000	0.358720
1645.000000	0.358572
1646.000000	0.358503
1647.000000	0.358482
1648.000000	0.358532
1649.000000	0.358826
1650.000000	0.358957
1651.000000	0.359115
1652.000000	0.359214
1653.000000	0.359116
1654.000000	0.359184
1655.000000	0.359287
1656.000000	0.359232
1657.000000	0.359236
1658.000000	0.359199
1659.000000	0.359181
1660.000000	0.359216
1661.000000	0.359186
1662.000000	0.359178
1663.000000	0.359107
1664.000000	0.359139
1665.000000	0.359255
1666.000000	0.359384
1667.000000	0.359471
1668.000000	0.359556
1669.000000	0.359615
1670.000000	0.359591
1671.000000	0.359624
1672.000000	0.359800
1673.000000	0.359975
1674.000000	0.360075
1675.000000	0.360328
1676.000000	0.360331
1677.000000	0.360310
1678.000000	0.360465
1679.000000	0.360524
1680.000000	0.360738
1681.000000	0.360943
1682.000000	0.360921
1683.000000	0.360939
1684.000000	0.360765
1685.000000	0.360573
1686.000000	0.360498
1687.000000	0.360397
1688.000000	0.360267
1689.000000	0.360087
1690.000000	0.359886
1691.000000	0.359959
1692.000000	0.360099
1693.000000	0.360170
1694.000000	0.360189
1695.000000	0.360223
1696.000000	0.360089
1697.000000	0.359998
1698.000000	0.360018
1699.000000	0.360051
1700.000000	0.360102
1701.000000	0.360264
1702.000000	0.360324
1703.000000	0.360314
1704.000000	0.360385
1705.000000	0.360438
1706.000000	0.360558
1707.000000	0.360548
1708.000000	0.360399
1709.000000	0.360260
1710.000000	0.360109
1711.000000	0.360017
1712.000000	0.360077
1713.000000	0.360004
1714.000000	0.359821
1715.000000	0.359826
1716.000000	0.359920
1717.000000	0.359970
1718.000000	0.360149
1719.000000	0.360148
1720.000000	0.360056
1721.000000	0.359977
1722.000000	0.359804
1723.000000	0.359762
1724.000000	0.359828
1725.000000	0.359833
1726.000000	0.359779
1727.000000	0.359745
1728.000000	0.359550
1729.000000	0.359447
1730.000000	0.359605
1731.000000	0.359619
1732.000000	0.359591
1733.000000	0.359713
1734.000000	0.359735
1735.000000	0.359753
1736.000000	0.359818
1737.000000	0.359804
1738.000000	0.359695
1739.000000	0.359673
1740.000000	0.359667
1741.000000	0.359675
1742.000000	0.359738
1743.000000	0.359739
1744.000000	0.359740
1745.000000	0.359608
1746.000000	0.359336
1747.000000	0.359124
1748.000000	0.359008
1749.000000	0.359174
1750.000000	0.359124
1751.000000	0.359107
1752.000000	0.359239
1753.000000	0.359244
1754.000000	0.359143
1755.000000	0.358926
1756.000000	0.358844
1757.000000	0.358731
1758.000000	0.358612
1759.000000	0.358606
1760.000000	0.358596
1761.000000	0.358428
1762.000000	0.358335
1763.000000	0.358437
1764.000000	0.358417
1765.000000	0.358232
1766.000000	0.358172
1767.000000	0.358058
1768.000000	0.357950
1769.000000	0.358011
1770.000000	0.358049
1771.000000	0.358069
1772.000000	0.357997
1773.000000	0.357739
1774.000000	0.357723
1775.000000	0.357832
1776.000000	0.357894
1777.000000	0.358152
1778.000000	0.358078
1779.000000	0.357723
1780.000000	0.357569
1781.000000	0.357267
1782.000000	0.357230
1783.000000	0.357467
1784.000000	0.357431
1785.000000	0.357532
1786.000000	0.357330
1787.000000	0.357118
1788.000000	0.357255
1789.000000	0.357266
1790.000000	0.357540
1791.000000	0.357536
1792.000000	0.357279
1793.000000	0.357158
1794.000000	0.356978
1795.000000	0.356934
1796.000000	0.357060
1797.000000	0.357102
1798.000000	0.357109
1799.000000	0.357163
1800.000000	0.357352
1801.000000	0.357753
1802.000000	0.357487
1803.000000	0.356384
1804.000000	0.356206
1805.000000	0.356243
1806.000000	0.356474
1807.000000	0.357296
1808.000000	0.357744
1809.000000	0.358206
1810.000000	0.358951
1811.000000	0.358626
1812.000000	0.357591
1813.000000	0.357099
1814.000000	0.355517
1815.000000	0.355446
1816.000000	0.357016
1817.000000	0.357175
1818.000000	0.356946
1819.000000	0.357829
1820.000000	0.357613
1821.000000	0.356527
1822.000000	0.356061
1823.000000	0.355649
1824.000000	0.355261
1825.000000	0.354476
1826.000000	0.354633
1827.000000	0.355521
1828.000000	0.355979
1829.000000	0.356393
1830.000000	0.356756
1831.000000	0.356562
1832.000000	0.355186
1833.000000	0.355104
1834.000000	0.355614
1835.000000	0.355409
1836.000000	0.355602
1837.000000	0.355302
1838.000000	0.353902
1839.000000	0.352873
1840.000000	0.352718
1841.000000	0.351966
1842.000000	0.351764
1843.000000	0.352221
1844.000000	0.352461
1845.000000	0.352651
1846.000000	0.352751
1847.000000	0.352950
1848.000000	0.352422
1849.000000	0.352056
1850.000000	0.352222
1851.000000	0.351693
1852.000000	0.350166
1853.000000	0.350280
1854.000000	0.350895
1855.000000	0.350774
1856.000000	0.350972
1857.000000	0.351967
1858.000000	0.350819
1859.000000	0.348991
1860.000000	0.347984
1861.000000	0.347074
1862.000000	0.345770
1863.000000	0.344307
1864.000000	0.343209
1865.000000	0.341694
1866.000000	0.340487
1867.000000	0.339495
1868.000000	0.339251
1869.000000	0.338157
1870.000000	0.336979
1871.000000	0.335891
1872.000000	0.333950
1873.000000	0.332168
1874.000000	0.330488
1875.000000	0.328629
1876.000000	0.326329
1877.000000	0.323709
1878.000000	0.321221
1879.000000	0.317936
1880.000000	0.315830
1881.000000	0.313408
1882.000000	0.309882
1883.000000	0.307203
1884.000000	0.303642
1885.000000	0.298276
1886.000000	0.294020
1887.000000	0.290382
1888.000000	0.285656
1889.000000	0.281139
1890.000000	0.277180
1891.000000	0.271982
1892.000000	0.266522
1893.000000	0.261735
1894.000000	0.256700
1895.000000	0.251915
1896.000000	0.247573
1897.000000	0.243837
1898.000000	0.239501
1899.000000	0.235571
1900.000000	0.231660
1901.000000	0.227426
1902.000000	0.224089
1903.000000	0.221700
1904.000000	0.219841
1905.000000	0.218761
1906.000000	0.217899
1907.000000	0.217625
1908.000000	0.216799
1909.000000	0.216898
1910.000000	0.218111
1911.000000	0.219196
1912.000000	0.220402
1913.000000	0.221846
1914.000000	0.222754
1915.000000	0.223256
1916.000000	0.224387
1917.000000	0.225487
1918.000000	0.226628
1919.000000	0.228046
1920.000000	0.229557
1921.000000	0.230580
1922.000000	0.231801
1923.000000	0.232473
1924.000000	0.233041
1925.000000	0.234240
1926.000000	0.235303
1927.000000	0.236435
1928.000000	0.237477
1929.000000	0.238700
1930.000000	0.239735
1931.000000	0.240439
1932.000000	0.241124
1933.000000	0.241882
1934.000000	0.242294
1935.000000	0.242900
1936.000000	0.243420
1937.000000	0.243894
1938.000000	0.244202
1939.000000	0.244593
1940.000000	0.244954
1941.000000	0.245626
1942.000000	0.245560
1943.000000	0.245483
1944.000000	0.245495
1945.000000	0.245104
1946.000000	0.246306
1947.000000	0.247476
1948.000000	0.247379
1949.000000	0.248242
1950.000000	0.248205
1951.000000	0.248064
1952.000000	0.247639
1953.000000	0.248316
1954.000000	0.248158
1955.000000	0.248415
1956.000000	0.248873
1957.000000	0.248938
1958.000000	0.249228
1959.000000	0.249279
1960.000000	0.249047
1961.000000	0.249499
1962.000000	0.249837
1963.000000	0.250292
1964.000000	0.250596
1965.000000	0.251283
1966.000000	0.251228
1967.000000	0.251606
1968.000000	0.252680
1969.000000	0.252796
1970.000000	0.253240
1971.000000	0.253666
1972.000000	0.253110
1973.000000	0.253045
1974.000000	0.253366
1975.000000	0.253741
1976.000000	0.254016
1977.000000	0.255186
1978.000000	0.255992
1979.000000	0.256689
1980.000000	0.257462
1981.000000	0.257640
1982.000000	0.258511
1983.000000	0.259526
1984.000000	0.260042
1985.000000	0.260607
1986.000000	0.261008
1987.000000	0.260810
1988.000000	0.261201
1989.000000	0.261930
1990.000000	0.262519
1991.000000	0.263283
1992.000000	0.263340
1993.000000	0.264020
1994.000000	0.265080
1995.000000	0.265799
1996.000000	0.267184
1997.000000	0.268086
1998.000000	0.268629
1999.000000	0.269298
2000.000000	0.270091
2001.000000	0.270240
2002.000000	0.271006
2003.000000	0.271779
2004.000000	0.272084
2005.000000	0.273085
2006.000000	0.273631
2007.000000	0.274269
2008.000000	0.275248
2009.000000	0.276593
2010.000000	0.277652
2011.000000	0.278718
2012.000000	0.279676
2013.000000	0.280478
2014.000000	0.281137
2015.000000	0.281806
2016.000000	0.282472
2017.000000	0.283061
2018.000000	0.283508
2019.000000	0.283999
2020.000000	0.284504
2021.000000	0.284925
2022.000000	0.284994
2023.000000	0.285466
2024.000000	0.286261
2025.000000	0.286939
2026.000000	0.287670
2027.000000	0.288231
2028.000000	0.288487
2029.000000	0.288727
2030.000000	0.288901
2031.000000	0.289632
2032.000000	0.290612
2033.000000	0.291301
2034.000000	0.292102
2035.000000	0.293092
2036.000000	0.293704
2037.000000	0.294577
2038.000000	0.295133
2039.000000	0.295413
2040.000000	0.295584
2041.000000	0.296100
2042.000000	0.296242
2043.000000	0.296230
2044.000000	0.296793
2045.000000	0.296944
2046.000000	0.297162
2047.000000	0.297687
2048.000000	0.298329
2049.000000	0.299038
2050.000000	0.299927
2051.000000	0.300398
2052.000000	0.300709
2053.000000	0.300952
2054.000000	0.301117
2055.000000	0.301177
2056.000000	0.301693
2057.000000	0.301892
2058.000000	0.302390
2059.000000	0.302376
2060.000000	0.302487
2061.000000	0.302533
2062.000000	0.302637
2063.000000	0.302745
2064.000000	0.302862
2065.000000	0.303094
2066.000000	0.303331
2067.000000	0.303948
2068.000000	0.304590
2069.000000	0.304933
2070.000000	0.305683
2071.000000	0.305899
2072.000000	0.306301
2073.000000	0.306908
2074.000000	0.307384
2075.000000	0.307957
2076.000000	0.308852
2077.000000	0.309003
2078.000000	0.308689
2079.000000	0.308618
2080.000000	0.308160
2081.000000	0.308124
2082.000000	0.308571
2083.000000	0.308852
2084.000000	0.308806
2085.000000	0.308678
2086.000000	0.308774
2087.000000	0.309510
2088.000000	0.310360
2089.000000	0.310850
2090.000000	0.311191
2091.000000	0.311211
2092.000000	0.311328
2093.000000	0.311285
2094.000000	0.311564
2095.000000	0.312203
2096.000000	0.312508
2097.000000	0.312850
2098.000000	0.312776
2099.000000	0.312177
2100.000000	0.312453
2101.000000	0.312551
2102.000000	0.313122
2103.000000	0.314630
2104.000000	0.315215
2105.000000	0.315848
2106.000000	0.316630
2107.000000	0.317052
2108.000000	0.316941
2109.000000	0.317033
2110.000000	0.316713
2111.000000	0.316716
2112.000000	0.316613
2113.000000	0.316781
2114.000000	0.316643
2115.000000	0.316857
2116.000000	0.317051
2117.000000	0.316814
2118.000000	0.317152
2119.000000	0.317136
2120.000000	0.317181
2121.000000	0.317156
2122.000000	0.317200
2123.000000	0.317100
2124.000000	0.317279
2125.000000	0.317379
2126.000000	0.317716
2127.000000	0.318731
2128.000000	0.319418
2129.000000	0.320324
2130.000000	0.320695
2131.000000	0.319689
2132.000000	0.318721
2133.000000	0.317943
2134.000000	0.317966
2135.000000	0.319137
2136.000000	0.319954
2137.000000	0.320439
2138.000000	0.320951
2139.000000	0.320758
2140.000000	0.319368
2141.000000	0.319351
2142.000000	0.319306
2143.000000	0.319505
2144.000000	0.321279
2145.000000	0.322285
2146.000000	0.323433
2147.000000	0.323941
2148.000000	0.324001
2149.000000	0.323901
2150.000000	0.323328
2151.000000	0.322534
2152.000000	0.321784
2153.000000	0.322020
2154.000000	0.321438
2155.000000	0.320292
2156.000000	0.320229
2157.000000	0.320128
2158.000000	0.320264
2159.000000	0.321868
2160.000000	0.322407
2161.000000	0.322586
2162.000000	0.322783
2163.000000	0.322385
2164.000000	0.322047
2165.000000	0.321864
2166.000000	0.320716
2167.000000	0.320412
2168.000000	0.320608
2169.000000	0.320454
2170.000000	0.321546
2171.000000	0.322271
2172.000000	0.323400
2173.000000	0.323394
2174.000000	0.322907
2175.000000	0.322538
2176.000000	0.321397
2177.000000	0.320843
2178.000000	0.320608
2179.000000	0.320844
2180.000000	0.320980
2181.000000	0.321616
2182.000000	0.322754
2183.000000	0.323764
2184.000000	0.323010
2185.000000	0.322606
2186.000000	0.321740
2187.000000	0.320487
2188.000000	0.320065
2189.000000	0.320040
2190.000000	0.319934
2191.000000	0.320890
2192.000000	0.321497
2193.000000	0.322734
2194.000000	0.323116
2195.000000	0.323787
2196.000000	0.322564
2197.000000	0.318899
2198.000000	0.317400
2199.000000	0.315117
2200.000000	0.314209
2201.000000	0.316802
2202.000000	0.316927
2203.000000	0.315498
2204.000000	0.314242
2205.000000	0.313281
2206.000000	0.313554
2207.000000	0.314578
2208.000000	0.314122
2209.000000	0.314154
2210.000000	0.314560
2211.000000	0.313649
2212.000000	0.314209
2213.000000	0.312523
2214.000000	0.308073
2215.000000	0.305211
2216.000000	0.301826
2217.000000	0.300385
2218.000000	0.299586
2219.000000	0.300178
2220.000000	0.302533
2221.000000	0.303959
2222.000000	0.307110
2223.000000	0.308657
2224.000000	0.308793
2225.000000	0.309804
2226.000000	0.310326
2227.000000	0.308909
2228.000000	0.310368
2229.000000	0.311878
2230.000000	0.312388
2231.000000	0.312227
2232.000000	0.311035
2233.000000	0.311900
2234.000000	0.310889
2235.000000	0.310170
2236.000000	0.308501
2237.000000	0.303869
2238.000000	0.301026
2239.000000	0.299050
2240.000000	0.298005
2241.000000	0.297471
2242.000000	0.298070
2243.000000	0.300523
2244.000000	0.300930
2245.000000	0.300863
2246.000000	0.301327
2247.000000	0.300874
2248.000000	0.301111
2249.000000	0.302969
2250.000000	0.303267
2251.000000	0.302227
2252.000000	0.300813
2253.000000	0.300536
2254.000000	0.301094
2255.000000	0.299912
2256.000000	0.300847
2257.000000	0.300930
2258.000000	0.297959
2259.000000	0.300386
2260.000000	0.303301
2261.000000	0.304031
2262.000000	0.305595
2263.000000	0.305557
2264.000000	0.302409
2265.000000	0.301158
2266.000000	0.300501
2267.000000	0.298940
2268.000000	0.296388
2269.000000	0.295246
2270.000000	0.295026
2271.000000	0.293592
2272.000000	0.293276
2273.000000	0.292493
2274.000000	0.289399
2275.000000	0.287911
2276.000000	0.288286
2277.000000	0.286025
2278.000000	0.283724
2279.000000	0.281903
2280.000000	0.281672
2281.000000	0.281053
2282.000000	0.279063
2283.000000	0.277234
2284.000000	0.272990
2285.000000	0.268622
2286.000000	0.266660
2287.000000	0.265925
2288.000000	0.265043
2289.000000	0.264522
2290.000000	0.262768
2291.000000	0.259494
2292.000000	0.257383
2293.000000	0.254340
2294.000000	0.252658
2295.000000	0.252647
2296.000000	0.252030
2297.000000	0.250851
2298.000000	0.251146
2299.000000	0.251447
2300.000000	0.252660
2301.000000	0.256997
2302.000000	0.258527
2303.000000	0.259427
2304.000000	0.260211
2305.000000	0.257536
2306.000000	0.258211
2307.000000	0.260749
2308.000000	0.263031
2309.000000	0.266765
2310.000000	0.270922
2311.000000	0.272292
2312.000000	0.273306
2313.000000	0.272244
2314.000000	0.270774
2315.000000	0.272906
2316.000000	0.273472
2317.000000	0.274601
2318.000000	0.277241
2319.000000	0.276381
2320.000000	0.275804
2321.000000	0.278916
2322.000000	0.280720
2323.000000	0.280833
2324.000000	0.281493
2325.000000	0.279642
2326.000000	0.276638
2327.000000	0.275105
2328.000000	0.275453
2329.000000	0.274459
2330.000000	0.273309
2331.000000	0.274817
2332.000000	0.275546
2333.000000	0.277218
2334.000000	0.279178
2335.000000	0.278947
2336.000000	0.275208
2337.000000	0.273674
2338.000000	0.270888
2339.000000	0.270013
2340.000000	0.272232
2341.000000	0.271709
2342.000000	0.269900
2343.000000	0.269533
2344.000000	0.268324
2345.000000	0.268345
2346.000000	0.271126
2347.000000	0.271373
2348.000000	0.270983
2349.000000	0.269301
2350.000000	0.265627
2351.000000	0.264108
2352.000000	0.264761
2353.000000	0.267034
2354.000000	0.272176
2355.000000	0.275264
2356.000000	0.274788
2357.000000	0.273910
2358.000000	0.273279
2359.000000	0.270669
2360.000000	0.269285
2361.000000	0.267637
2362.000000	0.262882
2363.000000	0.263255
2364.000000	0.263109
2365.000000	0.260584
2366.000000	0.260860
2367.000000	0.257405
2368.000000	0.254631
2369.000000	0.253685
2370.000000	0.247760
2371.000000	0.244209
2372.000000	0.242094
2373.000000	0.239561
2374.000000	0.239932
2375.000000	0.239843
2376.000000	0.242949
2377.000000	0.247493
2378.000000	0.249016
2379.000000	0.248222
2380.000000	0.244264
2381.000000	0.238353
2382.000000	0.233039
2383.000000	0.229656
2384.000000	0.227616
2385.000000	0.226693
2386.000000	0.226169
2387.000000	0.227270
2388.000000	0.228361
2389.000000	0.225959
2390.000000	0.223284
2391.000000	0.221217
2392.000000	0.215730
2393.000000	0.211181
2394.000000	0.209624
2395.000000	0.206597
2396.000000	0.207676
2397.000000	0.212033
2398.000000	0.215478
2399.000000	0.218382
2400.000000	0.219258
2401.000000	0.218758
2402.000000	0.217268
2403.000000	0.217963
2404.000000	0.215851
2405.000000	0.211555
2406.000000	0.208706
2407.000000	0.207685
2408.000000	0.213456
2409.000000	0.215268
2410.000000	0.216120
2411.000000	0.218819
2412.000000	0.215872
2413.000000	0.219352
2414.000000	0.220621
2415.000000	0.215231
2416.000000	0.220219
2417.000000	0.224642
2418.000000	0.228107
2419.000000	0.235357
2420.000000	0.231424
2421.000000	0.226436
2422.000000	0.225238
2423.000000	0.214611
2424.000000	0.207251
2425.000000	0.204708
2426.000000	0.199459
2427.000000	0.203186
2428.000000	0.202020
2429.000000	0.187188
2430.000000	0.177670
2431.000000	0.172060
2432.000000	0.167223
2433.000000	0.178879
2434.000000	0.195551
2435.000000	0.204739
2436.000000	0.221483
2437.000000	0.237325
2438.000000	0.233930
2439.000000	0.235065
2440.000000	0.237008
2441.000000	0.222091
2442.000000	0.223132
2443.000000	0.214172
2444.000000	0.202530
2445.000000	0.200489
2446.000000	0.182085
2447.000000	0.174923
2448.000000	0.161680
2449.000000	0.149819
2450.000000	0.148511
2451.000000	0.152379
2452.000000	0.172880
2453.000000	0.179875
2454.000000	0.179823
2455.000000	0.179887
2456.000000	0.170617
2457.000000	0.176458
2458.000000	0.202400
2459.000000	0.216877
2460.000000	0.217146
2461.000000	0.206105
2462.000000	0.191869
2463.000000	0.188766
2464.000000	0.186601
2465.000000	0.187585
2466.000000	0.183926
2467.000000	0.174050
2468.000000	0.172147
2469.000000	0.159605
2470.000000	0.149170
2471.000000	0.148180
2472.000000	0.138141
2473.000000	0.154447
2474.000000	0.174900
2475.000000	0.172933
2476.000000	0.174683
2477.000000	0.169131
2478.000000	0.170020
2479.000000	0.176304
2480.000000	0.187589
2481.000000	0.177316
2482.000000	0.157034
2483.000000	0.153085
2484.000000	0.121331
2485.000000	0.123383
2486.000000	0.132892
2487.000000	0.120206
2488.000000	0.162881
2489.000000	0.174070
2490.000000	0.161878
2491.000000	0.148974
2492.000000	0.130250
2493.000000	0.113466
2494.000000	0.107220
2495.000000	0.091323
2496.000000	0.104680
2497.000000	0.165770
2498.000000	0.173107
2499.000000	0.172371
2500.000000	0.158276
