# Wavelength	Nau-1_00002.asd.rts.txt
350.000000	0.077505
351.000000	0.074106
352.000000	0.072271
353.000000	0.074294
354.000000	0.078903
355.000000	0.074895
356.000000	0.073258
357.000000	0.075108
358.000000	0.074038
359.000000	0.073702
360.000000	0.073362
361.000000	0.071868
362.000000	0.073620
363.000000	0.072918
364.000000	0.068379
365.000000	0.071866
366.000000	0.071425
367.000000	0.066655
368.000000	0.067021
369.000000	0.067858
370.000000	0.067966
371.000000	0.067260
372.000000	0.067521
373.000000	0.068681
374.000000	0.070065
375.000000	0.069250
376.000000	0.068850
377.000000	0.069953
378.000000	0.072491
379.000000	0.073841
380.000000	0.074130
381.000000	0.074695
382.000000	0.075996
383.000000	0.076498
384.000000	0.075821
385.000000	0.076990
386.000000	0.078705
387.000000	0.080421
388.000000	0.082422
389.000000	0.082123
390.000000	0.081845
391.000000	0.085005
392.000000	0.086619
393.000000	0.087514
394.000000	0.088874
395.000000	0.090174
396.000000	0.091886
397.000000	0.093991
398.000000	0.095868
399.000000	0.097770
400.000000	0.099598
401.000000	0.101098
402.000000	0.102785
403.000000	0.104631
404.000000	0.106569
405.000000	0.108557
406.000000	0.110401
407.000000	0.111999
408.000000	0.113196
409.000000	0.114874
410.000000	0.116902
411.000000	0.118551
412.000000	0.119871
413.000000	0.121072
414.000000	0.122362
415.000000	0.123515
416.000000	0.124541
417.000000	0.125454
418.000000	0.126200
419.000000	0.126906
420.000000	0.127561
421.000000	0.128036
422.000000	0.128344
423.000000	0.128625
424.000000	0.129023
425.000000	0.128892
426.000000	0.128662
427.000000	0.128641
428.000000	0.128351
429.000000	0.128098
430.000000	0.127991
431.000000	0.127893
432.000000	0.127801
433.000000	0.127595
434.000000	0.127189
435.000000	0.127044
436.000000	0.126924
437.000000	0.126529
438.000000	0.126001
439.000000	0.125429
440.000000	0.124881
441.000000	0.124240
442.000000	0.123534
443.000000	0.122795
444.000000	0.122156
445.000000	0.121829
446.000000	0.121816
447.000000	0.121989
448.000000	0.122545
449.000000	0.123433
450.000000	0.124625
451.000000	0.126207
452.000000	0.128311
453.000000	0.130902
454.000000	0.133864
455.000000	0.137107
456.000000	0.140654
457.000000	0.144457
458.000000	0.148155
459.000000	0.151811
460.000000	0.155510
461.000000	0.158953
462.000000	0.162078
463.000000	0.164833
464.000000	0.167496
465.000000	0.169771
466.000000	0.171683
467.000000	0.173539
468.000000	0.175288
469.000000	0.176768
470.000000	0.177969
471.000000	0.179245
472.000000	0.180437
473.000000	0.181466
474.000000	0.182516
475.000000	0.183413
476.000000	0.184270
477.000000	0.185290
478.000000	0.186084
479.000000	0.186863
480.000000	0.187807
481.000000	0.188633
482.000000	0.189455
483.000000	0.190251
484.000000	0.191015
485.000000	0.191700
486.000000	0.192424
487.000000	0.193170
488.000000	0.194041
489.000000	0.194983
490.000000	0.195806
491.000000	0.196671
492.000000	0.197578
493.000000	0.198393
494.000000	0.199207
495.000000	0.200095
496.000000	0.201037
497.000000	0.201907
498.000000	0.202833
499.000000	0.203874
500.000000	0.204844
501.000000	0.205905
502.000000	0.207008
503.000000	0.207963
504.000000	0.209017
505.000000	0.210124
506.000000	0.211210
507.000000	0.212304
508.000000	0.213458
509.000000	0.214653
510.000000	0.215849
511.000000	0.217036
512.000000	0.218244
513.000000	0.219483
514.000000	0.220800
515.000000	0.222147
516.000000	0.223411
517.000000	0.224752
518.000000	0.226166
519.000000	0.227556
520.000000	0.228941
521.000000	0.230373
522.000000	0.231868
523.000000	0.233375
524.000000	0.234912
525.000000	0.236484
526.000000	0.238128
527.000000	0.239762
528.000000	0.241426
529.000000	0.243209
530.000000	0.244965
531.000000	0.246761
532.000000	0.248574
533.000000	0.250451
534.000000	0.252365
535.000000	0.254291
536.000000	0.256239
537.000000	0.258189
538.000000	0.260151
539.000000	0.262130
540.000000	0.264131
541.000000	0.266134
542.000000	0.268152
543.000000	0.270158
544.000000	0.272207
545.000000	0.274254
546.000000	0.276299
547.000000	0.278347
548.000000	0.280401
549.000000	0.282373
550.000000	0.284427
551.000000	0.286524
552.000000	0.288526
553.000000	0.290546
554.000000	0.292553
555.000000	0.294539
556.000000	0.296585
557.000000	0.298553
558.000000	0.300516
559.000000	0.302429
560.000000	0.304284
561.000000	0.306149
562.000000	0.307964
563.000000	0.309677
564.000000	0.311368
565.000000	0.313007
566.000000	0.314606
567.000000	0.316174
568.000000	0.317681
569.000000	0.319104
570.000000	0.320457
571.000000	0.321753
572.000000	0.323039
573.000000	0.324251
574.000000	0.325375
575.000000	0.326480
576.000000	0.327549
577.000000	0.328528
578.000000	0.329451
579.000000	0.330350
580.000000	0.331162
581.000000	0.331877
582.000000	0.332586
583.000000	0.333225
584.000000	0.333799
585.000000	0.334354
586.000000	0.334836
587.000000	0.335260
588.000000	0.335656
589.000000	0.336040
590.000000	0.336383
591.000000	0.336669
592.000000	0.336910
593.000000	0.337133
594.000000	0.337349
595.000000	0.337560
596.000000	0.337726
597.000000	0.337884
598.000000	0.337989
599.000000	0.338073
600.000000	0.338170
601.000000	0.338226
602.000000	0.338322
603.000000	0.338375
604.000000	0.338371
605.000000	0.338386
606.000000	0.338308
607.000000	0.338170
608.000000	0.338093
609.000000	0.338045
610.000000	0.338011
611.000000	0.337971
612.000000	0.337889
613.000000	0.337778
614.000000	0.337688
615.000000	0.337591
616.000000	0.337506
617.000000	0.337392
618.000000	0.337259
619.000000	0.337155
620.000000	0.337035
621.000000	0.336891
622.000000	0.336789
623.000000	0.336697
624.000000	0.336589
625.000000	0.336532
626.000000	0.336496
627.000000	0.336483
628.000000	0.336561
629.000000	0.336665
630.000000	0.336662
631.000000	0.336702
632.000000	0.336712
633.000000	0.336732
634.000000	0.336786
635.000000	0.336800
636.000000	0.336866
637.000000	0.337004
638.000000	0.337154
639.000000	0.337297
640.000000	0.337472
641.000000	0.337585
642.000000	0.337734
643.000000	0.337911
644.000000	0.338083
645.000000	0.338265
646.000000	0.338453
647.000000	0.338620
648.000000	0.338812
649.000000	0.339059
650.000000	0.339328
651.000000	0.339570
652.000000	0.339781
653.000000	0.340018
654.000000	0.340275
655.000000	0.340545
656.000000	0.340833
657.000000	0.341087
658.000000	0.341379
659.000000	0.341690
660.000000	0.341999
661.000000	0.342349
662.000000	0.342695
663.000000	0.343093
664.000000	0.343536
665.000000	0.343983
666.000000	0.344417
667.000000	0.344814
668.000000	0.345299
669.000000	0.345835
670.000000	0.346384
671.000000	0.346901
672.000000	0.347446
673.000000	0.348009
674.000000	0.348553
675.000000	0.349059
676.000000	0.349572
677.000000	0.350165
678.000000	0.350769
679.000000	0.351388
680.000000	0.352036
681.000000	0.352677
682.000000	0.353376
683.000000	0.354067
684.000000	0.354811
685.000000	0.355546
686.000000	0.356292
687.000000	0.357033
688.000000	0.357777
689.000000	0.358538
690.000000	0.359354
691.000000	0.360154
692.000000	0.360933
693.000000	0.361776
694.000000	0.362675
695.000000	0.363564
696.000000	0.364441
697.000000	0.365334
698.000000	0.366240
699.000000	0.367170
700.000000	0.368122
701.000000	0.368991
702.000000	0.369934
703.000000	0.370940
704.000000	0.371824
705.000000	0.372786
706.000000	0.373789
707.000000	0.374815
708.000000	0.375872
709.000000	0.376910
710.000000	0.377913
711.000000	0.378891
712.000000	0.379897
713.000000	0.380957
714.000000	0.381996
715.000000	0.383017
716.000000	0.384044
717.000000	0.385079
718.000000	0.386078
719.000000	0.387059
720.000000	0.388068
721.000000	0.389142
722.000000	0.390120
723.000000	0.391060
724.000000	0.392093
725.000000	0.393106
726.000000	0.394148
727.000000	0.395120
728.000000	0.396101
729.000000	0.397095
730.000000	0.398026
731.000000	0.398936
732.000000	0.399825
733.000000	0.400730
734.000000	0.401578
735.000000	0.402377
736.000000	0.403270
737.000000	0.404118
738.000000	0.404885
739.000000	0.405708
740.000000	0.406464
741.000000	0.407195
742.000000	0.407925
743.000000	0.408625
744.000000	0.409324
745.000000	0.409941
746.000000	0.410540
747.000000	0.411097
748.000000	0.411677
749.000000	0.412293
750.000000	0.412873
751.000000	0.413320
752.000000	0.413753
753.000000	0.414212
754.000000	0.414633
755.000000	0.414974
756.000000	0.415296
757.000000	0.415608
758.000000	0.415881
759.000000	0.416181
760.000000	0.416455
761.000000	0.416755
762.000000	0.416977
763.000000	0.417092
764.000000	0.417223
765.000000	0.417320
766.000000	0.417381
767.000000	0.417402
768.000000	0.417397
769.000000	0.417330
770.000000	0.417227
771.000000	0.417197
772.000000	0.417176
773.000000	0.417061
774.000000	0.416906
775.000000	0.416669
776.000000	0.416394
777.000000	0.416095
778.000000	0.415751
779.000000	0.415445
780.000000	0.415159
781.000000	0.414745
782.000000	0.414338
783.000000	0.414009
784.000000	0.413564
785.000000	0.413075
786.000000	0.412574
787.000000	0.412082
788.000000	0.411631
789.000000	0.411155
790.000000	0.410610
791.000000	0.410032
792.000000	0.409436
793.000000	0.408827
794.000000	0.408218
795.000000	0.407619
796.000000	0.406998
797.000000	0.406356
798.000000	0.405741
799.000000	0.405123
800.000000	0.404474
801.000000	0.403785
802.000000	0.403110
803.000000	0.402389
804.000000	0.401650
805.000000	0.400917
806.000000	0.400183
807.000000	0.399517
808.000000	0.398825
809.000000	0.398152
810.000000	0.397415
811.000000	0.396566
812.000000	0.395768
813.000000	0.394932
814.000000	0.394067
815.000000	0.393295
816.000000	0.392515
817.000000	0.391774
818.000000	0.391033
819.000000	0.390372
820.000000	0.389697
821.000000	0.388896
822.000000	0.388018
823.000000	0.387187
824.000000	0.386402
825.000000	0.385742
826.000000	0.385022
827.000000	0.384280
828.000000	0.383588
829.000000	0.382848
830.000000	0.382036
831.000000	0.381244
832.000000	0.380436
833.000000	0.379734
834.000000	0.379033
835.000000	0.378271
836.000000	0.377443
837.000000	0.376612
838.000000	0.375839
839.000000	0.375128
840.000000	0.374457
841.000000	0.373811
842.000000	0.373140
843.000000	0.372512
844.000000	0.371916
845.000000	0.371296
846.000000	0.370641
847.000000	0.369970
848.000000	0.369305
849.000000	0.368692
850.000000	0.368011
851.000000	0.367304
852.000000	0.366648
853.000000	0.366022
854.000000	0.365358
855.000000	0.364762
856.000000	0.364146
857.000000	0.363396
858.000000	0.362779
859.000000	0.362294
860.000000	0.361762
861.000000	0.361228
862.000000	0.360725
863.000000	0.360197
864.000000	0.359668
865.000000	0.359187
866.000000	0.358767
867.000000	0.358268
868.000000	0.357789
869.000000	0.357264
870.000000	0.356706
871.000000	0.356170
872.000000	0.355673
873.000000	0.355157
874.000000	0.354667
875.000000	0.354197
876.000000	0.353756
877.000000	0.353278
878.000000	0.352798
879.000000	0.352426
880.000000	0.352040
881.000000	0.351626
882.000000	0.351220
883.000000	0.350844
884.000000	0.350444
885.000000	0.350109
886.000000	0.349730
887.000000	0.349320
888.000000	0.349046
889.000000	0.348828
890.000000	0.348530
891.000000	0.348252
892.000000	0.347942
893.000000	0.347637
894.000000	0.347452
895.000000	0.347166
896.000000	0.346877
897.000000	0.346608
898.000000	0.346360
899.000000	0.346170
900.000000	0.346004
901.000000	0.345809
902.000000	0.345661
903.000000	0.345498
904.000000	0.345338
905.000000	0.345120
906.000000	0.345043
907.000000	0.344968
908.000000	0.344854
909.000000	0.344587
910.000000	0.344423
911.000000	0.344308
912.000000	0.344173
913.000000	0.344068
914.000000	0.344027
915.000000	0.344060
916.000000	0.343981
917.000000	0.343951
918.000000	0.343920
919.000000	0.343831
920.000000	0.343816
921.000000	0.343786
922.000000	0.343730
923.000000	0.343644
924.000000	0.343539
925.000000	0.343439
926.000000	0.343385
927.000000	0.343308
928.000000	0.343280
929.000000	0.343259
930.000000	0.343204
931.000000	0.343283
932.000000	0.343377
933.000000	0.343453
934.000000	0.343472
935.000000	0.343494
936.000000	0.343633
937.000000	0.343812
938.000000	0.343826
939.000000	0.343932
940.000000	0.344052
941.000000	0.344097
942.000000	0.344089
943.000000	0.344157
944.000000	0.344269
945.000000	0.344582
946.000000	0.344750
947.000000	0.344935
948.000000	0.345264
949.000000	0.345276
950.000000	0.345358
951.000000	0.345550
952.000000	0.345659
953.000000	0.345702
954.000000	0.345797
955.000000	0.345947
956.000000	0.346132
957.000000	0.346353
958.000000	0.346528
959.000000	0.346703
960.000000	0.346862
961.000000	0.347086
962.000000	0.347342
963.000000	0.347527
964.000000	0.347779
965.000000	0.348087
966.000000	0.348301
967.000000	0.348545
968.000000	0.348906
969.000000	0.349196
970.000000	0.349328
971.000000	0.349787
972.000000	0.350330
973.000000	0.350709
974.000000	0.350981
975.000000	0.351228
976.000000	0.351523
977.000000	0.351874
978.000000	0.352181
979.000000	0.352416
980.000000	0.352586
981.000000	0.353193
982.000000	0.353667
983.000000	0.354011
984.000000	0.354398
985.000000	0.354937
986.000000	0.355492
987.000000	0.356129
988.000000	0.356720
989.000000	0.357120
990.000000	0.357675
991.000000	0.358318
992.000000	0.358918
993.000000	0.359533
994.000000	0.359857
995.000000	0.360184
996.000000	0.360724
997.000000	0.361143
998.000000	0.361552
999.000000	0.362120
1000.000000	0.362693
1001.000000	0.361609
1002.000000	0.362101
1003.000000	0.362655
1004.000000	0.363175
1005.000000	0.363496
1006.000000	0.363719
1007.000000	0.363996
1008.000000	0.364263
1009.000000	0.364651
1010.000000	0.364893
1011.000000	0.365837
1012.000000	0.366984
1013.000000	0.367212
1014.000000	0.367649
1015.000000	0.368201
1016.000000	0.368672
1017.000000	0.369497
1018.000000	0.370576
1019.000000	0.371396
1020.000000	0.372207
1021.000000	0.372577
1022.000000	0.372861
1023.000000	0.373569
1024.000000	0.373963
1025.000000	0.375021
1026.000000	0.376061
1027.000000	0.376525
1028.000000	0.377281
1029.000000	0.377991
1030.000000	0.378617
1031.000000	0.379548
1032.000000	0.380185
1033.000000	0.380591
1034.000000	0.381294
1035.000000	0.382100
1036.000000	0.382928
1037.000000	0.384085
1038.000000	0.384857
1039.000000	0.385553
1040.000000	0.386351
1041.000000	0.387055
1042.000000	0.387618
1043.000000	0.388519
1044.000000	0.389685
1045.000000	0.390534
1046.000000	0.391227
1047.000000	0.392059
1048.000000	0.392684
1049.000000	0.393381
1050.000000	0.394253
1051.000000	0.395120
1052.000000	0.395786
1053.000000	0.396583
1054.000000	0.397864
1055.000000	0.398883
1056.000000	0.399795
1057.000000	0.400910
1058.000000	0.401775
1059.000000	0.402263
1060.000000	0.403196
1061.000000	0.404209
1062.000000	0.405072
1063.000000	0.406334
1064.000000	0.407397
1065.000000	0.408241
1066.000000	0.409240
1067.000000	0.410329
1068.000000	0.411250
1069.000000	0.412010
1070.000000	0.412922
1071.000000	0.413921
1072.000000	0.414882
1073.000000	0.415930
1074.000000	0.417125
1075.000000	0.418110
1076.000000	0.418999
1077.000000	0.419880
1078.000000	0.420697
1079.000000	0.421576
1080.000000	0.422488
1081.000000	0.423425
1082.000000	0.424489
1083.000000	0.425577
1084.000000	0.426806
1085.000000	0.427935
1086.000000	0.428996
1087.000000	0.430157
1088.000000	0.431212
1089.000000	0.432262
1090.000000	0.433334
1091.000000	0.434343
1092.000000	0.435459
1093.000000	0.436729
1094.000000	0.437945
1095.000000	0.439228
1096.000000	0.440435
1097.000000	0.441633
1098.000000	0.442734
1099.000000	0.443613
1100.000000	0.444785
1101.000000	0.445952
1102.000000	0.447054
1103.000000	0.448254
1104.000000	0.449467
1105.000000	0.450628
1106.000000	0.451716
1107.000000	0.452664
1108.000000	0.453744
1109.000000	0.454906
1110.000000	0.455971
1111.000000	0.457197
1112.000000	0.458664
1113.000000	0.459963
1114.000000	0.461270
1115.000000	0.462451
1116.000000	0.463524
1117.000000	0.464698
1118.000000	0.465792
1119.000000	0.466864
1120.000000	0.467974
1121.000000	0.469120
1122.000000	0.470359
1123.000000	0.471815
1124.000000	0.473061
1125.000000	0.474407
1126.000000	0.475726
1127.000000	0.476944
1128.000000	0.478125
1129.000000	0.479373
1130.000000	0.480585
1131.000000	0.481754
1132.000000	0.482833
1133.000000	0.483924
1134.000000	0.485107
1135.000000	0.486199
1136.000000	0.487252
1137.000000	0.488377
1138.000000	0.489376
1139.000000	0.490357
1140.000000	0.491437
1141.000000	0.492471
1142.000000	0.493511
1143.000000	0.494428
1144.000000	0.495543
1145.000000	0.496486
1146.000000	0.497325
1147.000000	0.498287
1148.000000	0.499113
1149.000000	0.500104
1150.000000	0.501210
1151.000000	0.502353
1152.000000	0.503497
1153.000000	0.504652
1154.000000	0.505796
1155.000000	0.506904
1156.000000	0.507982
1157.000000	0.509113
1158.000000	0.510171
1159.000000	0.511286
1160.000000	0.512401
1161.000000	0.513564
1162.000000	0.514876
1163.000000	0.516354
1164.000000	0.517617
1165.000000	0.518858
1166.000000	0.520149
1167.000000	0.521330
1168.000000	0.522451
1169.000000	0.523639
1170.000000	0.524844
1171.000000	0.526028
1172.000000	0.527266
1173.000000	0.528569
1174.000000	0.529765
1175.000000	0.530839
1176.000000	0.531892
1177.000000	0.533078
1178.000000	0.534170
1179.000000	0.535136
1180.000000	0.536100
1181.000000	0.537171
1182.000000	0.538192
1183.000000	0.539398
1184.000000	0.540682
1185.000000	0.541845
1186.000000	0.543033
1187.000000	0.544103
1188.000000	0.545053
1189.000000	0.546012
1190.000000	0.547019
1191.000000	0.547998
1192.000000	0.549084
1193.000000	0.550314
1194.000000	0.551431
1195.000000	0.552517
1196.000000	0.553553
1197.000000	0.554577
1198.000000	0.555563
1199.000000	0.556571
1200.000000	0.557560
1201.000000	0.558605
1202.000000	0.559574
1203.000000	0.560554
1204.000000	0.561585
1205.000000	0.562589
1206.000000	0.563486
1207.000000	0.564524
1208.000000	0.565401
1209.000000	0.566223
1210.000000	0.567136
1211.000000	0.568110
1212.000000	0.568958
1213.000000	0.569839
1214.000000	0.570734
1215.000000	0.571501
1216.000000	0.572336
1217.000000	0.573239
1218.000000	0.574022
1219.000000	0.574772
1220.000000	0.575591
1221.000000	0.576389
1222.000000	0.577105
1223.000000	0.577905
1224.000000	0.578725
1225.000000	0.579411
1226.000000	0.580168
1227.000000	0.580896
1228.000000	0.581651
1229.000000	0.582315
1230.000000	0.582904
1231.000000	0.583483
1232.000000	0.584206
1233.000000	0.585067
1234.000000	0.586019
1235.000000	0.586813
1236.000000	0.587432
1237.000000	0.588150
1238.000000	0.588717
1239.000000	0.589329
1240.000000	0.590007
1241.000000	0.590627
1242.000000	0.591263
1243.000000	0.591957
1244.000000	0.592648
1245.000000	0.593489
1246.000000	0.594182
1247.000000	0.594870
1248.000000	0.595648
1249.000000	0.596375
1250.000000	0.597060
1251.000000	0.597714
1252.000000	0.598283
1253.000000	0.598800
1254.000000	0.599297
1255.000000	0.599711
1256.000000	0.600195
1257.000000	0.600710
1258.000000	0.601278
1259.000000	0.601769
1260.000000	0.602375
1261.000000	0.602967
1262.000000	0.603483
1263.000000	0.604064
1264.000000	0.604537
1265.000000	0.604957
1266.000000	0.605302
1267.000000	0.605693
1268.000000	0.606128
1269.000000	0.606448
1270.000000	0.606930
1271.000000	0.607369
1272.000000	0.607855
1273.000000	0.608505
1274.000000	0.608995
1275.000000	0.609389
1276.000000	0.609773
1277.000000	0.610211
1278.000000	0.610380
1279.000000	0.610626
1280.000000	0.610782
1281.000000	0.610942
1282.000000	0.611174
1283.000000	0.611534
1284.000000	0.611877
1285.000000	0.612175
1286.000000	0.612432
1287.000000	0.612628
1288.000000	0.612955
1289.000000	0.613219
1290.000000	0.613361
1291.000000	0.613580
1292.000000	0.613792
1293.000000	0.613954
1294.000000	0.614161
1295.000000	0.614382
1296.000000	0.614455
1297.000000	0.614469
1298.000000	0.614616
1299.000000	0.614794
1300.000000	0.614988
1301.000000	0.615125
1302.000000	0.615119
1303.000000	0.615160
1304.000000	0.615162
1305.000000	0.615303
1306.000000	0.615354
1307.000000	0.615497
1308.000000	0.615604
1309.000000	0.615644
1310.000000	0.615650
1311.000000	0.615729
1312.000000	0.615603
1313.000000	0.615436
1314.000000	0.615243
1315.000000	0.614896
1316.000000	0.614747
1317.000000	0.614593
1318.000000	0.614369
1319.000000	0.614086
1320.000000	0.613778
1321.000000	0.613481
1322.000000	0.613186
1323.000000	0.612957
1324.000000	0.612791
1325.000000	0.612536
1326.000000	0.612255
1327.000000	0.612037
1328.000000	0.611935
1329.000000	0.611680
1330.000000	0.611397
1331.000000	0.611184
1332.000000	0.611043
1333.000000	0.610837
1334.000000	0.610791
1335.000000	0.610710
1336.000000	0.610544
1337.000000	0.610377
1338.000000	0.610146
1339.000000	0.609853
1340.000000	0.609536
1341.000000	0.609273
1342.000000	0.609007
1343.000000	0.608720
1344.000000	0.608404
1345.000000	0.608004
1346.000000	0.607735
1347.000000	0.607307
1348.000000	0.606945
1349.000000	0.606520
1350.000000	0.606103
1351.000000	0.605606
1352.000000	0.605026
1353.000000	0.604573
1354.000000	0.604192
1355.000000	0.603770
1356.000000	0.603488
1357.000000	0.603058
1358.000000	0.602601
1359.000000	0.602190
1360.000000	0.601793
1361.000000	0.601502
1362.000000	0.601129
1363.000000	0.600761
1364.000000	0.600337
1365.000000	0.599815
1366.000000	0.599263
1367.000000	0.598705
1368.000000	0.597943
1369.000000	0.597227
1370.000000	0.596227
1371.000000	0.594963
1372.000000	0.593570
1373.000000	0.592062
1374.000000	0.590472
1375.000000	0.588668
1376.000000	0.586861
1377.000000	0.584792
1378.000000	0.582340
1379.000000	0.579669
1380.000000	0.576721
1381.000000	0.573445
1382.000000	0.570006
1383.000000	0.566404
1384.000000	0.562422
1385.000000	0.558247
1386.000000	0.553943
1387.000000	0.549537
1388.000000	0.545006
1389.000000	0.540379
1390.000000	0.535864
1391.000000	0.531176
1392.000000	0.526444
1393.000000	0.521634
1394.000000	0.516775
1395.000000	0.511957
1396.000000	0.507096
1397.000000	0.502234
1398.000000	0.497311
1399.000000	0.492581
1400.000000	0.487854
1401.000000	0.483207
1402.000000	0.478779
1403.000000	0.474291
1404.000000	0.469949
1405.000000	0.465652
1406.000000	0.461336
1407.000000	0.457290
1408.000000	0.453295
1409.000000	0.449518
1410.000000	0.446202
1411.000000	0.443084
1412.000000	0.440157
1413.000000	0.437784
1414.000000	0.435865
1415.000000	0.434398
1416.000000	0.433494
1417.000000	0.433008
1418.000000	0.432758
1419.000000	0.432803
1420.000000	0.432873
1421.000000	0.433051
1422.000000	0.433231
1423.000000	0.433303
1424.000000	0.433104
1425.000000	0.432734
1426.000000	0.432058
1427.000000	0.431200
1428.000000	0.430295
1429.000000	0.429343
1430.000000	0.428502
1431.000000	0.427855
1432.000000	0.427612
1433.000000	0.427561
1434.000000	0.428186
1435.000000	0.429309
1436.000000	0.431104
1437.000000	0.433436
1438.000000	0.436384
1439.000000	0.440116
1440.000000	0.444113
1441.000000	0.448852
1442.000000	0.453665
1443.000000	0.458708
1444.000000	0.463951
1445.000000	0.469102
1446.000000	0.473898
1447.000000	0.478448
1448.000000	0.482456
1449.000000	0.486038
1450.000000	0.489237
1451.000000	0.491878
1452.000000	0.494081
1453.000000	0.495920
1454.000000	0.497388
1455.000000	0.498622
1456.000000	0.499758
1457.000000	0.500744
1458.000000	0.501561
1459.000000	0.502299
1460.000000	0.502951
1461.000000	0.503570
1462.000000	0.504251
1463.000000	0.504908
1464.000000	0.505655
1465.000000	0.506632
1466.000000	0.507689
1467.000000	0.508876
1468.000000	0.510169
1469.000000	0.511538
1470.000000	0.512870
1471.000000	0.514350
1472.000000	0.515850
1473.000000	0.517437
1474.000000	0.519056
1475.000000	0.520668
1476.000000	0.522307
1477.000000	0.523932
1478.000000	0.525517
1479.000000	0.527069
1480.000000	0.528609
1481.000000	0.530104
1482.000000	0.531648
1483.000000	0.533211
1484.000000	0.534776
1485.000000	0.536293
1486.000000	0.537763
1487.000000	0.539272
1488.000000	0.540822
1489.000000	0.542318
1490.000000	0.543604
1491.000000	0.545028
1492.000000	0.546362
1493.000000	0.547745
1494.000000	0.549187
1495.000000	0.550486
1496.000000	0.551655
1497.000000	0.552906
1498.000000	0.554187
1499.000000	0.555420
1500.000000	0.556703
1501.000000	0.557917
1502.000000	0.558967
1503.000000	0.560073
1504.000000	0.561192
1505.000000	0.562271
1506.000000	0.563415
1507.000000	0.564512
1508.000000	0.565634
1509.000000	0.566749
1510.000000	0.567778
1511.000000	0.568903
1512.000000	0.569949
1513.000000	0.570899
1514.000000	0.571963
1515.000000	0.572897
1516.000000	0.573847
1517.000000	0.574789
1518.000000	0.575623
1519.000000	0.576357
1520.000000	0.577135
1521.000000	0.577866
1522.000000	0.578735
1523.000000	0.579701
1524.000000	0.580476
1525.000000	0.581358
1526.000000	0.582213
1527.000000	0.583008
1528.000000	0.583925
1529.000000	0.584722
1530.000000	0.585310
1531.000000	0.586062
1532.000000	0.586844
1533.000000	0.587517
1534.000000	0.588248
1535.000000	0.588959
1536.000000	0.589503
1537.000000	0.590229
1538.000000	0.591013
1539.000000	0.591644
1540.000000	0.592349
1541.000000	0.593162
1542.000000	0.593953
1543.000000	0.594712
1544.000000	0.595433
1545.000000	0.596187
1546.000000	0.596954
1547.000000	0.597638
1548.000000	0.598308
1549.000000	0.598930
1550.000000	0.599351
1551.000000	0.599818
1552.000000	0.600389
1553.000000	0.600851
1554.000000	0.601385
1555.000000	0.602023
1556.000000	0.602626
1557.000000	0.603170
1558.000000	0.603763
1559.000000	0.604260
1560.000000	0.604759
1561.000000	0.605352
1562.000000	0.605841
1563.000000	0.606352
1564.000000	0.606867
1565.000000	0.607347
1566.000000	0.607684
1567.000000	0.608147
1568.000000	0.608561
1569.000000	0.609026
1570.000000	0.609452
1571.000000	0.609857
1572.000000	0.610224
1573.000000	0.610548
1574.000000	0.610873
1575.000000	0.611228
1576.000000	0.611588
1577.000000	0.611909
1578.000000	0.612195
1579.000000	0.612598
1580.000000	0.612911
1581.000000	0.613293
1582.000000	0.613596
1583.000000	0.613820
1584.000000	0.614021
1585.000000	0.614324
1586.000000	0.614633
1587.000000	0.614933
1588.000000	0.615223
1589.000000	0.615548
1590.000000	0.615847
1591.000000	0.616173
1592.000000	0.616517
1593.000000	0.616934
1594.000000	0.617236
1595.000000	0.617602
1596.000000	0.617903
1597.000000	0.618177
1598.000000	0.618424
1599.000000	0.618707
1600.000000	0.618888
1601.000000	0.619134
1602.000000	0.619361
1603.000000	0.619612
1604.000000	0.619831
1605.000000	0.620094
1606.000000	0.620290
1607.000000	0.620581
1608.000000	0.620734
1609.000000	0.620889
1610.000000	0.620994
1611.000000	0.621015
1612.000000	0.621097
1613.000000	0.621420
1614.000000	0.621562
1615.000000	0.621778
1616.000000	0.621984
1617.000000	0.622012
1618.000000	0.622071
1619.000000	0.622075
1620.000000	0.622138
1621.000000	0.622293
1622.000000	0.622506
1623.000000	0.622711
1624.000000	0.622873
1625.000000	0.622730
1626.000000	0.622678
1627.000000	0.622677
1628.000000	0.622828
1629.000000	0.623063
1630.000000	0.623286
1631.000000	0.623482
1632.000000	0.623569
1633.000000	0.623592
1634.000000	0.623699
1635.000000	0.623896
1636.000000	0.624001
1637.000000	0.624150
1638.000000	0.624204
1639.000000	0.624253
1640.000000	0.624306
1641.000000	0.624483
1642.000000	0.624598
1643.000000	0.624771
1644.000000	0.624862
1645.000000	0.624881
1646.000000	0.624862
1647.000000	0.624872
1648.000000	0.624802
1649.000000	0.624844
1650.000000	0.624904
1651.000000	0.625000
1652.000000	0.625130
1653.000000	0.625201
1654.000000	0.625361
1655.000000	0.625473
1656.000000	0.625396
1657.000000	0.625420
1658.000000	0.625415
1659.000000	0.625520
1660.000000	0.625602
1661.000000	0.625534
1662.000000	0.625543
1663.000000	0.625449
1664.000000	0.625411
1665.000000	0.625466
1666.000000	0.625603
1667.000000	0.625568
1668.000000	0.625602
1669.000000	0.625705
1670.000000	0.625628
1671.000000	0.625665
1672.000000	0.625768
1673.000000	0.625774
1674.000000	0.625860
1675.000000	0.626032
1676.000000	0.626078
1677.000000	0.626087
1678.000000	0.626033
1679.000000	0.625982
1680.000000	0.625904
1681.000000	0.625871
1682.000000	0.625912
1683.000000	0.625987
1684.000000	0.626042
1685.000000	0.626143
1686.000000	0.626188
1687.000000	0.626232
1688.000000	0.626219
1689.000000	0.626225
1690.000000	0.626180
1691.000000	0.626203
1692.000000	0.626138
1693.000000	0.626117
1694.000000	0.626075
1695.000000	0.626096
1696.000000	0.626013
1697.000000	0.625841
1698.000000	0.625709
1699.000000	0.625603
1700.000000	0.625449
1701.000000	0.625511
1702.000000	0.625358
1703.000000	0.625122
1704.000000	0.625086
1705.000000	0.624988
1706.000000	0.624885
1707.000000	0.624778
1708.000000	0.624668
1709.000000	0.624370
1710.000000	0.624099
1711.000000	0.623890
1712.000000	0.623678
1713.000000	0.623445
1714.000000	0.623356
1715.000000	0.623187
1716.000000	0.622998
1717.000000	0.622753
1718.000000	0.622365
1719.000000	0.622042
1720.000000	0.621810
1721.000000	0.621547
1722.000000	0.621323
1723.000000	0.621108
1724.000000	0.620919
1725.000000	0.620767
1726.000000	0.620531
1727.000000	0.620247
1728.000000	0.619789
1729.000000	0.619322
1730.000000	0.619068
1731.000000	0.618751
1732.000000	0.618449
1733.000000	0.618261
1734.000000	0.617814
1735.000000	0.617534
1736.000000	0.617325
1737.000000	0.617039
1738.000000	0.616816
1739.000000	0.616504
1740.000000	0.616086
1741.000000	0.615692
1742.000000	0.615267
1743.000000	0.615027
1744.000000	0.614840
1745.000000	0.614517
1746.000000	0.614220
1747.000000	0.613812
1748.000000	0.613326
1749.000000	0.612857
1750.000000	0.612343
1751.000000	0.611963
1752.000000	0.611778
1753.000000	0.611451
1754.000000	0.611141
1755.000000	0.610821
1756.000000	0.610458
1757.000000	0.610052
1758.000000	0.609704
1759.000000	0.609342
1760.000000	0.608975
1761.000000	0.608567
1762.000000	0.608129
1763.000000	0.607693
1764.000000	0.607270
1765.000000	0.606727
1766.000000	0.606327
1767.000000	0.605859
1768.000000	0.605371
1769.000000	0.605135
1770.000000	0.604867
1771.000000	0.604477
1772.000000	0.604132
1773.000000	0.603695
1774.000000	0.603363
1775.000000	0.603215
1776.000000	0.602953
1777.000000	0.602637
1778.000000	0.602305
1779.000000	0.601864
1780.000000	0.601556
1781.000000	0.601243
1782.000000	0.600947
1783.000000	0.600767
1784.000000	0.600594
1785.000000	0.600351
1786.000000	0.600188
1787.000000	0.600144
1788.000000	0.600047
1789.000000	0.599830
1790.000000	0.599676
1791.000000	0.599387
1792.000000	0.599148
1793.000000	0.598970
1794.000000	0.598809
1795.000000	0.598694
1796.000000	0.598676
1797.000000	0.598569
1798.000000	0.598366
1799.000000	0.598206
1800.000000	0.598132
1801.000000	0.598266
1802.000000	0.598389
1803.000000	0.598050
1804.000000	0.598288
1805.000000	0.599156
1806.000000	0.599592
1807.000000	0.600157
1808.000000	0.600325
1809.000000	0.600115
1810.000000	0.599847
1811.000000	0.599885
1812.000000	0.599942
1813.000000	0.599932
1814.000000	0.600368
1815.000000	0.600348
1816.000000	0.599684
1817.000000	0.599312
1818.000000	0.598995
1819.000000	0.599207
1820.000000	0.599352
1821.000000	0.599223
1822.000000	0.599048
1823.000000	0.598524
1824.000000	0.598015
1825.000000	0.597052
1826.000000	0.596855
1827.000000	0.596762
1828.000000	0.596739
1829.000000	0.597080
1830.000000	0.597011
1831.000000	0.596617
1832.000000	0.595451
1833.000000	0.595123
1834.000000	0.594926
1835.000000	0.594838
1836.000000	0.595247
1837.000000	0.595197
1838.000000	0.594781
1839.000000	0.594194
1840.000000	0.593587
1841.000000	0.592779
1842.000000	0.592078
1843.000000	0.591138
1844.000000	0.590627
1845.000000	0.590268
1846.000000	0.589868
1847.000000	0.589474
1848.000000	0.588887
1849.000000	0.588196
1850.000000	0.586881
1851.000000	0.585892
1852.000000	0.584847
1853.000000	0.583833
1854.000000	0.582711
1855.000000	0.581272
1856.000000	0.579669
1857.000000	0.577454
1858.000000	0.575427
1859.000000	0.573039
1860.000000	0.570610
1861.000000	0.568355
1862.000000	0.565832
1863.000000	0.563310
1864.000000	0.560671
1865.000000	0.558144
1866.000000	0.555066
1867.000000	0.551759
1868.000000	0.547911
1869.000000	0.543500
1870.000000	0.538763
1871.000000	0.533701
1872.000000	0.528431
1873.000000	0.523069
1874.000000	0.517563
1875.000000	0.511801
1876.000000	0.505604
1877.000000	0.498795
1878.000000	0.491923
1879.000000	0.484799
1880.000000	0.477427
1881.000000	0.469700
1882.000000	0.461408
1883.000000	0.452722
1884.000000	0.444021
1885.000000	0.434640
1886.000000	0.425318
1887.000000	0.415890
1888.000000	0.406078
1889.000000	0.395964
1890.000000	0.386005
1891.000000	0.375998
1892.000000	0.365554
1893.000000	0.355233
1894.000000	0.345104
1895.000000	0.335149
1896.000000	0.325350
1897.000000	0.316112
1898.000000	0.307115
1899.000000	0.298856
1900.000000	0.291342
1901.000000	0.284359
1902.000000	0.278256
1903.000000	0.272934
1904.000000	0.268245
1905.000000	0.264412
1906.000000	0.261213
1907.000000	0.258851
1908.000000	0.257018
1909.000000	0.255953
1910.000000	0.255428
1911.000000	0.255461
1912.000000	0.256195
1913.000000	0.257254
1914.000000	0.258835
1915.000000	0.260658
1916.000000	0.262562
1917.000000	0.264539
1918.000000	0.266866
1919.000000	0.269074
1920.000000	0.271247
1921.000000	0.273649
1922.000000	0.275905
1923.000000	0.278195
1924.000000	0.280432
1925.000000	0.282515
1926.000000	0.284713
1927.000000	0.287015
1928.000000	0.289136
1929.000000	0.291310
1930.000000	0.293410
1931.000000	0.295254
1932.000000	0.297068
1933.000000	0.298795
1934.000000	0.300358
1935.000000	0.301947
1936.000000	0.303340
1937.000000	0.304837
1938.000000	0.306273
1939.000000	0.307690
1940.000000	0.309094
1941.000000	0.310576
1942.000000	0.312103
1943.000000	0.313572
1944.000000	0.314923
1945.000000	0.316394
1946.000000	0.317646
1947.000000	0.318916
1948.000000	0.320414
1949.000000	0.321842
1950.000000	0.323337
1951.000000	0.324525
1952.000000	0.325671
1953.000000	0.326468
1954.000000	0.327487
1955.000000	0.328518
1956.000000	0.329827
1957.000000	0.331460
1958.000000	0.332788
1959.000000	0.334085
1960.000000	0.335235
1961.000000	0.336495
1962.000000	0.337716
1963.000000	0.339060
1964.000000	0.340351
1965.000000	0.341597
1966.000000	0.342634
1967.000000	0.343985
1968.000000	0.345492
1969.000000	0.346844
1970.000000	0.348357
1971.000000	0.349570
1972.000000	0.350717
1973.000000	0.351869
1974.000000	0.353130
1975.000000	0.354508
1976.000000	0.356005
1977.000000	0.357545
1978.000000	0.359072
1979.000000	0.360710
1980.000000	0.362445
1981.000000	0.364230
1982.000000	0.366028
1983.000000	0.368101
1984.000000	0.369942
1985.000000	0.371801
1986.000000	0.373409
1987.000000	0.374951
1988.000000	0.376463
1989.000000	0.377922
1990.000000	0.379585
1991.000000	0.381314
1992.000000	0.382965
1993.000000	0.384633
1994.000000	0.386214
1995.000000	0.387574
1996.000000	0.389188
1997.000000	0.390955
1998.000000	0.392941
1999.000000	0.394853
2000.000000	0.397082
2001.000000	0.398984
2002.000000	0.400565
2003.000000	0.402262
2004.000000	0.403758
2005.000000	0.405288
2006.000000	0.407002
2007.000000	0.408749
2008.000000	0.410452
2009.000000	0.412107
2010.000000	0.413860
2011.000000	0.415427
2012.000000	0.417015
2013.000000	0.418601
2014.000000	0.420128
2015.000000	0.421589
2016.000000	0.423066
2017.000000	0.424440
2018.000000	0.425863
2019.000000	0.427297
2020.000000	0.428619
2021.000000	0.430106
2022.000000	0.431720
2023.000000	0.433190
2024.000000	0.434738
2025.000000	0.436285
2026.000000	0.437591
2027.000000	0.438753
2028.000000	0.440158
2029.000000	0.441621
2030.000000	0.442926
2031.000000	0.444220
2032.000000	0.445536
2033.000000	0.446886
2034.000000	0.448149
2035.000000	0.449589
2036.000000	0.450753
2037.000000	0.451989
2038.000000	0.453186
2039.000000	0.454421
2040.000000	0.455711
2041.000000	0.456643
2042.000000	0.457720
2043.000000	0.458575
2044.000000	0.459172
2045.000000	0.460015
2046.000000	0.460581
2047.000000	0.461391
2048.000000	0.462142
2049.000000	0.463437
2050.000000	0.464582
2051.000000	0.465664
2052.000000	0.466893
2053.000000	0.467755
2054.000000	0.468674
2055.000000	0.469795
2056.000000	0.470764
2057.000000	0.471854
2058.000000	0.473041
2059.000000	0.474019
2060.000000	0.474829
2061.000000	0.475505
2062.000000	0.476174
2063.000000	0.476671
2064.000000	0.477189
2065.000000	0.478245
2066.000000	0.478920
2067.000000	0.479846
2068.000000	0.480666
2069.000000	0.481537
2070.000000	0.482429
2071.000000	0.483105
2072.000000	0.483857
2073.000000	0.484429
2074.000000	0.484770
2075.000000	0.485259
2076.000000	0.485741
2077.000000	0.486231
2078.000000	0.486690
2079.000000	0.487161
2080.000000	0.487813
2081.000000	0.488334
2082.000000	0.488789
2083.000000	0.489419
2084.000000	0.489739
2085.000000	0.490007
2086.000000	0.490517
2087.000000	0.491056
2088.000000	0.491749
2089.000000	0.492611
2090.000000	0.493314
2091.000000	0.494039
2092.000000	0.494708
2093.000000	0.495408
2094.000000	0.495957
2095.000000	0.496519
2096.000000	0.497066
2097.000000	0.497379
2098.000000	0.497555
2099.000000	0.497968
2100.000000	0.498698
2101.000000	0.499533
2102.000000	0.500299
2103.000000	0.500897
2104.000000	0.501164
2105.000000	0.501498
2106.000000	0.501683
2107.000000	0.501897
2108.000000	0.502003
2109.000000	0.502275
2110.000000	0.502136
2111.000000	0.502350
2112.000000	0.502753
2113.000000	0.502804
2114.000000	0.503038
2115.000000	0.503490
2116.000000	0.503700
2117.000000	0.503760
2118.000000	0.504064
2119.000000	0.504200
2120.000000	0.504529
2121.000000	0.505114
2122.000000	0.505432
2123.000000	0.505715
2124.000000	0.505831
2125.000000	0.505680
2126.000000	0.505623
2127.000000	0.505469
2128.000000	0.505729
2129.000000	0.506067
2130.000000	0.506516
2131.000000	0.506742
2132.000000	0.506634
2133.000000	0.506611
2134.000000	0.506596
2135.000000	0.506439
2136.000000	0.506322
2137.000000	0.506110
2138.000000	0.505717
2139.000000	0.505349
2140.000000	0.504980
2141.000000	0.504626
2142.000000	0.504126
2143.000000	0.503339
2144.000000	0.503024
2145.000000	0.502461
2146.000000	0.501754
2147.000000	0.501388
2148.000000	0.500650
2149.000000	0.499615
2150.000000	0.498173
2151.000000	0.496862
2152.000000	0.495781
2153.000000	0.494717
2154.000000	0.493855
2155.000000	0.493552
2156.000000	0.492725
2157.000000	0.491826
2158.000000	0.490895
2159.000000	0.489729
2160.000000	0.489034
2161.000000	0.488312
2162.000000	0.487943
2163.000000	0.487891
2164.000000	0.487644
2165.000000	0.487443
2166.000000	0.487481
2167.000000	0.487231
2168.000000	0.487085
2169.000000	0.487029
2170.000000	0.487096
2171.000000	0.487097
2172.000000	0.487257
2173.000000	0.487333
2174.000000	0.487295
2175.000000	0.487284
2176.000000	0.487251
2177.000000	0.487321
2178.000000	0.487749
2179.000000	0.487761
2180.000000	0.487625
2181.000000	0.487727
2182.000000	0.486671
2183.000000	0.485719
2184.000000	0.485353
2185.000000	0.484275
2186.000000	0.482570
2187.000000	0.481571
2188.000000	0.480341
2189.000000	0.478679
2190.000000	0.478244
2191.000000	0.478180
2192.000000	0.477291
2193.000000	0.476382
2194.000000	0.474925
2195.000000	0.472239
2196.000000	0.470677
2197.000000	0.469543
2198.000000	0.467899
2199.000000	0.466617
2200.000000	0.465202
2201.000000	0.463562
2202.000000	0.461611
2203.000000	0.459456
2204.000000	0.456913
2205.000000	0.453541
2206.000000	0.450143
2207.000000	0.448526
2208.000000	0.448082
2209.000000	0.448689
2210.000000	0.450807
2211.000000	0.452606
2212.000000	0.455883
2213.000000	0.458388
2214.000000	0.460920
2215.000000	0.463028
2216.000000	0.464658
2217.000000	0.466599
2218.000000	0.468766
2219.000000	0.470388
2220.000000	0.472219
2221.000000	0.473143
2222.000000	0.473035
2223.000000	0.473159
2224.000000	0.472528
2225.000000	0.473177
2226.000000	0.472979
2227.000000	0.471833
2228.000000	0.471792
2229.000000	0.469790
2230.000000	0.467500
2231.000000	0.466201
2232.000000	0.463870
2233.000000	0.462061
2234.000000	0.460998
2235.000000	0.460291
2236.000000	0.458996
2237.000000	0.457104
2238.000000	0.456312
2239.000000	0.455446
2240.000000	0.455343
2241.000000	0.456892
2242.000000	0.457282
2243.000000	0.456971
2244.000000	0.457490
2245.000000	0.458294
2246.000000	0.458848
2247.000000	0.459576
2248.000000	0.460184
2249.000000	0.460922
2250.000000	0.461020
2251.000000	0.460395
2252.000000	0.459742
2253.000000	0.457798
2254.000000	0.455364
2255.000000	0.454305
2256.000000	0.453457
2257.000000	0.451766
2258.000000	0.449920
2259.000000	0.446815
2260.000000	0.442902
2261.000000	0.438650
2262.000000	0.433883
2263.000000	0.429295
2264.000000	0.424190
2265.000000	0.419249
2266.000000	0.414728
2267.000000	0.409163
2268.000000	0.402816
2269.000000	0.397175
2270.000000	0.391417
2271.000000	0.385414
2272.000000	0.379659
2273.000000	0.373816
2274.000000	0.367131
2275.000000	0.361367
2276.000000	0.356357
2277.000000	0.350765
2278.000000	0.345520
2279.000000	0.340438
2280.000000	0.335110
2281.000000	0.331314
2282.000000	0.328047
2283.000000	0.325553
2284.000000	0.324270
2285.000000	0.323008
2286.000000	0.322523
2287.000000	0.322463
2288.000000	0.322949
2289.000000	0.324202
2290.000000	0.325578
2291.000000	0.328097
2292.000000	0.331398
2293.000000	0.334653
2294.000000	0.338828
2295.000000	0.344211
2296.000000	0.349170
2297.000000	0.354784
2298.000000	0.359691
2299.000000	0.364085
2300.000000	0.368229
2301.000000	0.372281
2302.000000	0.375840
2303.000000	0.379010
2304.000000	0.382340
2305.000000	0.385716
2306.000000	0.388334
2307.000000	0.390413
2308.000000	0.392651
2309.000000	0.394386
2310.000000	0.395256
2311.000000	0.397711
2312.000000	0.399061
2313.000000	0.399210
2314.000000	0.400102
2315.000000	0.400216
2316.000000	0.400836
2317.000000	0.401901
2318.000000	0.402854
2319.000000	0.404259
2320.000000	0.404490
2321.000000	0.405099
2322.000000	0.405418
2323.000000	0.404773
2324.000000	0.404694
2325.000000	0.403277
2326.000000	0.402675
2327.000000	0.402641
2328.000000	0.401757
2329.000000	0.401532
2330.000000	0.400740
2331.000000	0.400029
2332.000000	0.399616
2333.000000	0.399028
2334.000000	0.398239
2335.000000	0.397504
2336.000000	0.395344
2337.000000	0.394001
2338.000000	0.392916
2339.000000	0.391826
2340.000000	0.390878
2341.000000	0.389807
2342.000000	0.389234
2343.000000	0.388272
2344.000000	0.386709
2345.000000	0.385605
2346.000000	0.384589
2347.000000	0.383125
2348.000000	0.381783
2349.000000	0.380365
2350.000000	0.377701
2351.000000	0.375188
2352.000000	0.373736
2353.000000	0.373006
2354.000000	0.371460
2355.000000	0.371074
2356.000000	0.368913
2357.000000	0.364992
2358.000000	0.362442
2359.000000	0.359887
2360.000000	0.358780
2361.000000	0.358991
2362.000000	0.359330
2363.000000	0.359776
2364.000000	0.358072
2365.000000	0.355855
2366.000000	0.353793
2367.000000	0.351421
2368.000000	0.350191
2369.000000	0.349761
2370.000000	0.348385
2371.000000	0.346615
2372.000000	0.343965
2373.000000	0.341036
2374.000000	0.338894
2375.000000	0.336916
2376.000000	0.337747
2377.000000	0.337333
2378.000000	0.335223
2379.000000	0.332849
2380.000000	0.327653
2381.000000	0.323553
2382.000000	0.319742
2383.000000	0.315948
2384.000000	0.313928
2385.000000	0.312951
2386.000000	0.311699
2387.000000	0.312013
2388.000000	0.312183
2389.000000	0.309376
2390.000000	0.306568
2391.000000	0.301549
2392.000000	0.298538
2393.000000	0.298139
2394.000000	0.298324
2395.000000	0.301869
2396.000000	0.302392
2397.000000	0.301795
2398.000000	0.302158
2399.000000	0.298858
2400.000000	0.295482
2401.000000	0.293270
2402.000000	0.290763
2403.000000	0.289832
2404.000000	0.291341
2405.000000	0.290875
2406.000000	0.289867
2407.000000	0.289708
2408.000000	0.288178
2409.000000	0.288551
2410.000000	0.287232
2411.000000	0.286971
2412.000000	0.287875
2413.000000	0.286536
2414.000000	0.287466
2415.000000	0.285204
2416.000000	0.283863
2417.000000	0.286128
2418.000000	0.285570
2419.000000	0.287886
2420.000000	0.290851
2421.000000	0.289732
2422.000000	0.288104
2423.000000	0.285269
2424.000000	0.282428
2425.000000	0.279966
2426.000000	0.277481
2427.000000	0.277264
2428.000000	0.275475
2429.000000	0.272710
2430.000000	0.274246
2431.000000	0.275955
2432.000000	0.275810
2433.000000	0.277982
2434.000000	0.279260
2435.000000	0.276699
2436.000000	0.274850
2437.000000	0.273254
2438.000000	0.271377
2439.000000	0.270775
2440.000000	0.271270
2441.000000	0.271377
2442.000000	0.266064
2443.000000	0.264250
2444.000000	0.266071
2445.000000	0.267339
2446.000000	0.276149
2447.000000	0.281564
2448.000000	0.282012
2449.000000	0.281454
2450.000000	0.277539
2451.000000	0.275521
2452.000000	0.274010
2453.000000	0.270840
2454.000000	0.266576
2455.000000	0.264184
2456.000000	0.262975
2457.000000	0.263679
2458.000000	0.265589
2459.000000	0.261412
2460.000000	0.256547
2461.000000	0.254424
2462.000000	0.246831
2463.000000	0.237428
2464.000000	0.234354
2465.000000	0.233073
2466.000000	0.237152
2467.000000	0.244336
2468.000000	0.246057
2469.000000	0.243160
2470.000000	0.237683
2471.000000	0.232116
2472.000000	0.232372
2473.000000	0.230448
2474.000000	0.221810
2475.000000	0.229310
2476.000000	0.238404
2477.000000	0.239308
2478.000000	0.248195
2479.000000	0.237498
2480.000000	0.218591
2481.000000	0.215593
2482.000000	0.213483
2483.000000	0.226041
2484.000000	0.236134
2485.000000	0.226346
2486.000000	0.224251
2487.000000	0.224196
2488.000000	0.228669
2489.000000	0.240310
2490.000000	0.249027
2491.000000	0.228955
2492.000000	0.216571
2493.000000	0.202835
2494.000000	0.208088
2495.000000	0.245215
2496.000000	0.249105
2497.000000	0.238654
2498.000000	0.234745
2499.000000	0.210256
2500.000000	0.199908
