# Wavelength	NAu-2-60_HEX-10_FV7-30_00002.asd.rts.txt
350.000000	0.109079
351.000000	0.099141
352.000000	0.083805
353.000000	0.075855
354.000000	0.082009
355.000000	0.099089
356.000000	0.104918
357.000000	0.102834
358.000000	0.112409
359.000000	0.113260
360.000000	0.106421
361.000000	0.098393
362.000000	0.098216
363.000000	0.104064
364.000000	0.109333
365.000000	0.097484
366.000000	0.089219
367.000000	0.089906
368.000000	0.092941
369.000000	0.095058
370.000000	0.097053
371.000000	0.100238
372.000000	0.097449
373.000000	0.097173
374.000000	0.103027
375.000000	0.100812
376.000000	0.103773
377.000000	0.110246
378.000000	0.104363
379.000000	0.101926
380.000000	0.102191
381.000000	0.100358
382.000000	0.102570
383.000000	0.103784
384.000000	0.101251
385.000000	0.100577
386.000000	0.101543
387.000000	0.103162
388.000000	0.103460
389.000000	0.103205
390.000000	0.103751
391.000000	0.106023
392.000000	0.103794
393.000000	0.102276
394.000000	0.104936
395.000000	0.104845
396.000000	0.104598
397.000000	0.105216
398.000000	0.105632
399.000000	0.106153
400.000000	0.106481
401.000000	0.106117
402.000000	0.106407
403.000000	0.106781
404.000000	0.106725
405.000000	0.107143
406.000000	0.107139
407.000000	0.106646
408.000000	0.107091
409.000000	0.107056
410.000000	0.106603
411.000000	0.106593
412.000000	0.107888
413.000000	0.108908
414.000000	0.108224
415.000000	0.108539
416.000000	0.108990
417.000000	0.109036
418.000000	0.109434
419.000000	0.109764
420.000000	0.110030
421.000000	0.110592
422.000000	0.111076
423.000000	0.111267
424.000000	0.111115
425.000000	0.111193
426.000000	0.111530
427.000000	0.112038
428.000000	0.112613
429.000000	0.113099
430.000000	0.113442
431.000000	0.113740
432.000000	0.113382
433.000000	0.113021
434.000000	0.113876
435.000000	0.114462
436.000000	0.114607
437.000000	0.114505
438.000000	0.114707
439.000000	0.115263
440.000000	0.115981
441.000000	0.116042
442.000000	0.116090
443.000000	0.116355
444.000000	0.116916
445.000000	0.117300
446.000000	0.117592
447.000000	0.117935
448.000000	0.118355
449.000000	0.118734
450.000000	0.119022
451.000000	0.119356
452.000000	0.119676
453.000000	0.119986
454.000000	0.120503
455.000000	0.120639
456.000000	0.120907
457.000000	0.122061
458.000000	0.122333
459.000000	0.122329
460.000000	0.122827
461.000000	0.123379
462.000000	0.123809
463.000000	0.124014
464.000000	0.124212
465.000000	0.124434
466.000000	0.124730
467.000000	0.125217
468.000000	0.125379
469.000000	0.125435
470.000000	0.125812
471.000000	0.126198
472.000000	0.126709
473.000000	0.127313
474.000000	0.127388
475.000000	0.127477
476.000000	0.127830
477.000000	0.128250
478.000000	0.128536
479.000000	0.128862
480.000000	0.129360
481.000000	0.129697
482.000000	0.130044
483.000000	0.130467
484.000000	0.130909
485.000000	0.131033
486.000000	0.130929
487.000000	0.131179
488.000000	0.131360
489.000000	0.131459
490.000000	0.131697
491.000000	0.131992
492.000000	0.132298
493.000000	0.132509
494.000000	0.132676
495.000000	0.132773
496.000000	0.132766
497.000000	0.132655
498.000000	0.132774
499.000000	0.133159
500.000000	0.133389
501.000000	0.133651
502.000000	0.133855
503.000000	0.133783
504.000000	0.133837
505.000000	0.133981
506.000000	0.134127
507.000000	0.134378
508.000000	0.134658
509.000000	0.134919
510.000000	0.135234
511.000000	0.135689
512.000000	0.136167
513.000000	0.136325
514.000000	0.136712
515.000000	0.137234
516.000000	0.137588
517.000000	0.137913
518.000000	0.138271
519.000000	0.138657
520.000000	0.139103
521.000000	0.139554
522.000000	0.140025
523.000000	0.140644
524.000000	0.141207
525.000000	0.141785
526.000000	0.142623
527.000000	0.143521
528.000000	0.144421
529.000000	0.145361
530.000000	0.146502
531.000000	0.147765
532.000000	0.149012
533.000000	0.150192
534.000000	0.151414
535.000000	0.152700
536.000000	0.154020
537.000000	0.155308
538.000000	0.156573
539.000000	0.157838
540.000000	0.159013
541.000000	0.160098
542.000000	0.161132
543.000000	0.162127
544.000000	0.163088
545.000000	0.164035
546.000000	0.165178
547.000000	0.166353
548.000000	0.167509
549.000000	0.168604
550.000000	0.169793
551.000000	0.171096
552.000000	0.172459
553.000000	0.173881
554.000000	0.175400
555.000000	0.177034
556.000000	0.178714
557.000000	0.180442
558.000000	0.182279
559.000000	0.184134
560.000000	0.185944
561.000000	0.187726
562.000000	0.189439
563.000000	0.191150
564.000000	0.192864
565.000000	0.194495
566.000000	0.196029
567.000000	0.197477
568.000000	0.198847
569.000000	0.200214
570.000000	0.201358
571.000000	0.202297
572.000000	0.203283
573.000000	0.204187
574.000000	0.204987
575.000000	0.205725
576.000000	0.206357
577.000000	0.206837
578.000000	0.207210
579.000000	0.207626
580.000000	0.207924
581.000000	0.208054
582.000000	0.208145
583.000000	0.208234
584.000000	0.208276
585.000000	0.208178
586.000000	0.208093
587.000000	0.208036
588.000000	0.207954
589.000000	0.207628
590.000000	0.207294
591.000000	0.207073
592.000000	0.206700
593.000000	0.206293
594.000000	0.205870
595.000000	0.205359
596.000000	0.204928
597.000000	0.204482
598.000000	0.203781
599.000000	0.203150
600.000000	0.202550
601.000000	0.201867
602.000000	0.201237
603.000000	0.200653
604.000000	0.200062
605.000000	0.199285
606.000000	0.198598
607.000000	0.198025
608.000000	0.197426
609.000000	0.196807
610.000000	0.196233
611.000000	0.195751
612.000000	0.195167
613.000000	0.194614
614.000000	0.194147
615.000000	0.193425
616.000000	0.192821
617.000000	0.192374
618.000000	0.191851
619.000000	0.191354
620.000000	0.190859
621.000000	0.190349
622.000000	0.189920
623.000000	0.189519
624.000000	0.189091
625.000000	0.188668
626.000000	0.188289
627.000000	0.187957
628.000000	0.187602
629.000000	0.187322
630.000000	0.187043
631.000000	0.186779
632.000000	0.186509
633.000000	0.186271
634.000000	0.186088
635.000000	0.185883
636.000000	0.185709
637.000000	0.185579
638.000000	0.185447
639.000000	0.185332
640.000000	0.185265
641.000000	0.185184
642.000000	0.185128
643.000000	0.185106
644.000000	0.185119
645.000000	0.185187
646.000000	0.185246
647.000000	0.185258
648.000000	0.185367
649.000000	0.185480
650.000000	0.185596
651.000000	0.185872
652.000000	0.186118
653.000000	0.186366
654.000000	0.186677
655.000000	0.186937
656.000000	0.187228
657.000000	0.187599
658.000000	0.187977
659.000000	0.188379
660.000000	0.188821
661.000000	0.189359
662.000000	0.189842
663.000000	0.190323
664.000000	0.190914
665.000000	0.191556
666.000000	0.192195
667.000000	0.192788
668.000000	0.193524
669.000000	0.194315
670.000000	0.195079
671.000000	0.195764
672.000000	0.196521
673.000000	0.197384
674.000000	0.198311
675.000000	0.199170
676.000000	0.200078
677.000000	0.201186
678.000000	0.202188
679.000000	0.203149
680.000000	0.204167
681.000000	0.205301
682.000000	0.206451
683.000000	0.207587
684.000000	0.208903
685.000000	0.210149
686.000000	0.211372
687.000000	0.212664
688.000000	0.213931
689.000000	0.215246
690.000000	0.216681
691.000000	0.218128
692.000000	0.219575
693.000000	0.221078
694.000000	0.222646
695.000000	0.224257
696.000000	0.225893
697.000000	0.227537
698.000000	0.229184
699.000000	0.230928
700.000000	0.232798
701.000000	0.234529
702.000000	0.236299
703.000000	0.238144
704.000000	0.239941
705.000000	0.241845
706.000000	0.243795
707.000000	0.245723
708.000000	0.247748
709.000000	0.249794
710.000000	0.251806
711.000000	0.253873
712.000000	0.255912
713.000000	0.257950
714.000000	0.260146
715.000000	0.262252
716.000000	0.264305
717.000000	0.266449
718.000000	0.268604
719.000000	0.270798
720.000000	0.273051
721.000000	0.275225
722.000000	0.277358
723.000000	0.279526
724.000000	0.281701
725.000000	0.283858
726.000000	0.286053
727.000000	0.288220
728.000000	0.290335
729.000000	0.292446
730.000000	0.294559
731.000000	0.296753
732.000000	0.298850
733.000000	0.300849
734.000000	0.302854
735.000000	0.304872
736.000000	0.306962
737.000000	0.308932
738.000000	0.310763
739.000000	0.312628
740.000000	0.314485
741.000000	0.316414
742.000000	0.318246
743.000000	0.319950
744.000000	0.321744
745.000000	0.323421
746.000000	0.325065
747.000000	0.326729
748.000000	0.328312
749.000000	0.329897
750.000000	0.331491
751.000000	0.333003
752.000000	0.334435
753.000000	0.335821
754.000000	0.337198
755.000000	0.338499
756.000000	0.339776
757.000000	0.341048
758.000000	0.342316
759.000000	0.343540
760.000000	0.344644
761.000000	0.345797
762.000000	0.346863
763.000000	0.347830
764.000000	0.348842
765.000000	0.349743
766.000000	0.350544
767.000000	0.351302
768.000000	0.352152
769.000000	0.352995
770.000000	0.353764
771.000000	0.354423
772.000000	0.355141
773.000000	0.355834
774.000000	0.356471
775.000000	0.357109
776.000000	0.357722
777.000000	0.358284
778.000000	0.358903
779.000000	0.359535
780.000000	0.360115
781.000000	0.360526
782.000000	0.360903
783.000000	0.361305
784.000000	0.361579
785.000000	0.361935
786.000000	0.362284
787.000000	0.362595
788.000000	0.363030
789.000000	0.363324
790.000000	0.363494
791.000000	0.363753
792.000000	0.364020
793.000000	0.364198
794.000000	0.364247
795.000000	0.364275
796.000000	0.364337
797.000000	0.364463
798.000000	0.364676
799.000000	0.364876
800.000000	0.365013
801.000000	0.365081
802.000000	0.365152
803.000000	0.365261
804.000000	0.365422
805.000000	0.365477
806.000000	0.365381
807.000000	0.365304
808.000000	0.365343
809.000000	0.365413
810.000000	0.365452
811.000000	0.365435
812.000000	0.365517
813.000000	0.365464
814.000000	0.365290
815.000000	0.365258
816.000000	0.365141
817.000000	0.365002
818.000000	0.364857
819.000000	0.364764
820.000000	0.364704
821.000000	0.364604
822.000000	0.364504
823.000000	0.364428
824.000000	0.364308
825.000000	0.364200
826.000000	0.364147
827.000000	0.364054
828.000000	0.363901
829.000000	0.363655
830.000000	0.363455
831.000000	0.363345
832.000000	0.363120
833.000000	0.362866
834.000000	0.362632
835.000000	0.362468
836.000000	0.362279
837.000000	0.362042
838.000000	0.361834
839.000000	0.361747
840.000000	0.361513
841.000000	0.361254
842.000000	0.361077
843.000000	0.360961
844.000000	0.360776
845.000000	0.360478
846.000000	0.360206
847.000000	0.359996
848.000000	0.359801
849.000000	0.359588
850.000000	0.359301
851.000000	0.358919
852.000000	0.358560
853.000000	0.358398
854.000000	0.358123
855.000000	0.357862
856.000000	0.357631
857.000000	0.357357
858.000000	0.357137
859.000000	0.356933
860.000000	0.356768
861.000000	0.356574
862.000000	0.356355
863.000000	0.356067
864.000000	0.355866
865.000000	0.355623
866.000000	0.355325
867.000000	0.355140
868.000000	0.354913
869.000000	0.354547
870.000000	0.354119
871.000000	0.353722
872.000000	0.353297
873.000000	0.352812
874.000000	0.352579
875.000000	0.352282
876.000000	0.351927
877.000000	0.351561
878.000000	0.351128
879.000000	0.350752
880.000000	0.350348
881.000000	0.349974
882.000000	0.349693
883.000000	0.349497
884.000000	0.349272
885.000000	0.349100
886.000000	0.348898
887.000000	0.348639
888.000000	0.348319
889.000000	0.348021
890.000000	0.347670
891.000000	0.347388
892.000000	0.347088
893.000000	0.346738
894.000000	0.346449
895.000000	0.346096
896.000000	0.345797
897.000000	0.345542
898.000000	0.345271
899.000000	0.344909
900.000000	0.344511
901.000000	0.344127
902.000000	0.343945
903.000000	0.343745
904.000000	0.343472
905.000000	0.343026
906.000000	0.342578
907.000000	0.342104
908.000000	0.341707
909.000000	0.341434
910.000000	0.341134
911.000000	0.340790
912.000000	0.340472
913.000000	0.340331
914.000000	0.340176
915.000000	0.339952
916.000000	0.339552
917.000000	0.339296
918.000000	0.339065
919.000000	0.338713
920.000000	0.338312
921.000000	0.337999
922.000000	0.337716
923.000000	0.337305
924.000000	0.337034
925.000000	0.336734
926.000000	0.336381
927.000000	0.336162
928.000000	0.335840
929.000000	0.335474
930.000000	0.335209
931.000000	0.335023
932.000000	0.334775
933.000000	0.334444
934.000000	0.334042
935.000000	0.333766
936.000000	0.333558
937.000000	0.333264
938.000000	0.333170
939.000000	0.332991
940.000000	0.332652
941.000000	0.332380
942.000000	0.332008
943.000000	0.331783
944.000000	0.331669
945.000000	0.331524
946.000000	0.331209
947.000000	0.330852
948.000000	0.330549
949.000000	0.330161
950.000000	0.329846
951.000000	0.329616
952.000000	0.329464
953.000000	0.329372
954.000000	0.329061
955.000000	0.328440
956.000000	0.328333
957.000000	0.328078
958.000000	0.327666
959.000000	0.327440
960.000000	0.327070
961.000000	0.326841
962.000000	0.326773
963.000000	0.326591
964.000000	0.326431
965.000000	0.326353
966.000000	0.326224
967.000000	0.325948
968.000000	0.325600
969.000000	0.325300
970.000000	0.325277
971.000000	0.325206
972.000000	0.325166
973.000000	0.325003
974.000000	0.324478
975.000000	0.324277
976.000000	0.324116
977.000000	0.323717
978.000000	0.323485
979.000000	0.323539
980.000000	0.323436
981.000000	0.323139
982.000000	0.323214
983.000000	0.323165
984.000000	0.322943
985.000000	0.322867
986.000000	0.322722
987.000000	0.322635
988.000000	0.322551
989.000000	0.322337
990.000000	0.322232
991.000000	0.322178
992.000000	0.322080
993.000000	0.321917
994.000000	0.321638
995.000000	0.321549
996.000000	0.321708
997.000000	0.321729
998.000000	0.321672
999.000000	0.321661
1000.000000	0.321546
1001.000000	0.322340
1002.000000	0.321599
1003.000000	0.320940
1004.000000	0.320961
1005.000000	0.321874
1006.000000	0.321751
1007.000000	0.321514
1008.000000	0.321583
1009.000000	0.321305
1010.000000	0.320908
1011.000000	0.321721
1012.000000	0.322331
1013.000000	0.321840
1014.000000	0.321726
1015.000000	0.321396
1016.000000	0.321181
1017.000000	0.321513
1018.000000	0.321693
1019.000000	0.321812
1020.000000	0.321899
1021.000000	0.321767
1022.000000	0.321948
1023.000000	0.322301
1024.000000	0.322403
1025.000000	0.322802
1026.000000	0.323681
1027.000000	0.323096
1028.000000	0.322694
1029.000000	0.323090
1030.000000	0.322880
1031.000000	0.322578
1032.000000	0.322853
1033.000000	0.322627
1034.000000	0.322426
1035.000000	0.322181
1036.000000	0.322247
1037.000000	0.322132
1038.000000	0.322319
1039.000000	0.322993
1040.000000	0.323759
1041.000000	0.324194
1042.000000	0.324804
1043.000000	0.324996
1044.000000	0.324610
1045.000000	0.324304
1046.000000	0.323374
1047.000000	0.323174
1048.000000	0.323329
1049.000000	0.323270
1050.000000	0.323354
1051.000000	0.323620
1052.000000	0.323566
1053.000000	0.323890
1054.000000	0.325053
1055.000000	0.325730
1056.000000	0.326271
1057.000000	0.327075
1058.000000	0.327484
1059.000000	0.327447
1060.000000	0.327628
1061.000000	0.327541
1062.000000	0.326868
1063.000000	0.326828
1064.000000	0.327008
1065.000000	0.327195
1066.000000	0.327509
1067.000000	0.328551
1068.000000	0.328840
1069.000000	0.328458
1070.000000	0.328659
1071.000000	0.329114
1072.000000	0.329288
1073.000000	0.329583
1074.000000	0.329996
1075.000000	0.329856
1076.000000	0.329769
1077.000000	0.329767
1078.000000	0.329998
1079.000000	0.330561
1080.000000	0.331787
1081.000000	0.332058
1082.000000	0.332324
1083.000000	0.332516
1084.000000	0.331900
1085.000000	0.331996
1086.000000	0.332740
1087.000000	0.333030
1088.000000	0.333122
1089.000000	0.333279
1090.000000	0.333309
1091.000000	0.333161
1092.000000	0.333605
1093.000000	0.334336
1094.000000	0.334562
1095.000000	0.334671
1096.000000	0.334928
1097.000000	0.334815
1098.000000	0.335130
1099.000000	0.335848
1100.000000	0.336371
1101.000000	0.336954
1102.000000	0.337239
1103.000000	0.337373
1104.000000	0.337486
1105.000000	0.337190
1106.000000	0.337260
1107.000000	0.337402
1108.000000	0.337619
1109.000000	0.338309
1110.000000	0.338535
1111.000000	0.339052
1112.000000	0.339738
1113.000000	0.340187
1114.000000	0.340768
1115.000000	0.340923
1116.000000	0.340656
1117.000000	0.340647
1118.000000	0.340338
1119.000000	0.340419
1120.000000	0.340914
1121.000000	0.341150
1122.000000	0.341641
1123.000000	0.342035
1124.000000	0.341852
1125.000000	0.341986
1126.000000	0.342234
1127.000000	0.342301
1128.000000	0.342338
1129.000000	0.342412
1130.000000	0.342637
1131.000000	0.342840
1132.000000	0.342998
1133.000000	0.343467
1134.000000	0.343629
1135.000000	0.343451
1136.000000	0.343411
1137.000000	0.343234
1138.000000	0.343281
1139.000000	0.343577
1140.000000	0.343829
1141.000000	0.344139
1142.000000	0.344441
1143.000000	0.344740
1144.000000	0.344974
1145.000000	0.344975
1146.000000	0.344949
1147.000000	0.344962
1148.000000	0.344670
1149.000000	0.344718
1150.000000	0.345036
1151.000000	0.345203
1152.000000	0.345254
1153.000000	0.345494
1154.000000	0.345875
1155.000000	0.345972
1156.000000	0.346007
1157.000000	0.346115
1158.000000	0.345949
1159.000000	0.345972
1160.000000	0.346244
1161.000000	0.346370
1162.000000	0.346424
1163.000000	0.346673
1164.000000	0.346982
1165.000000	0.347269
1166.000000	0.347476
1167.000000	0.347701
1168.000000	0.347775
1169.000000	0.347671
1170.000000	0.347744
1171.000000	0.347905
1172.000000	0.348064
1173.000000	0.348223
1174.000000	0.348386
1175.000000	0.348578
1176.000000	0.348634
1177.000000	0.348681
1178.000000	0.348776
1179.000000	0.348788
1180.000000	0.348807
1181.000000	0.349018
1182.000000	0.349160
1183.000000	0.349143
1184.000000	0.349326
1185.000000	0.349451
1186.000000	0.349542
1187.000000	0.349663
1188.000000	0.349835
1189.000000	0.349916
1190.000000	0.350083
1191.000000	0.350111
1192.000000	0.350059
1193.000000	0.350254
1194.000000	0.350377
1195.000000	0.350491
1196.000000	0.350665
1197.000000	0.350809
1198.000000	0.350888
1199.000000	0.350978
1200.000000	0.350981
1201.000000	0.351255
1202.000000	0.351438
1203.000000	0.351581
1204.000000	0.351768
1205.000000	0.351836
1206.000000	0.351914
1207.000000	0.352038
1208.000000	0.352115
1209.000000	0.352236
1210.000000	0.352385
1211.000000	0.352556
1212.000000	0.352603
1213.000000	0.352664
1214.000000	0.352764
1215.000000	0.352710
1216.000000	0.352798
1217.000000	0.353026
1218.000000	0.353156
1219.000000	0.353297
1220.000000	0.353478
1221.000000	0.353552
1222.000000	0.353574
1223.000000	0.353767
1224.000000	0.353885
1225.000000	0.353927
1226.000000	0.354019
1227.000000	0.354015
1228.000000	0.354036
1229.000000	0.354102
1230.000000	0.354292
1231.000000	0.354353
1232.000000	0.354502
1233.000000	0.354682
1234.000000	0.354747
1235.000000	0.354918
1236.000000	0.355142
1237.000000	0.355293
1238.000000	0.355393
1239.000000	0.355503
1240.000000	0.355598
1241.000000	0.355518
1242.000000	0.355637
1243.000000	0.355880
1244.000000	0.355972
1245.000000	0.356272
1246.000000	0.356462
1247.000000	0.356590
1248.000000	0.356720
1249.000000	0.356762
1250.000000	0.356945
1251.000000	0.357035
1252.000000	0.357123
1253.000000	0.357328
1254.000000	0.357430
1255.000000	0.357415
1256.000000	0.357462
1257.000000	0.357486
1258.000000	0.357610
1259.000000	0.357709
1260.000000	0.357854
1261.000000	0.358077
1262.000000	0.358196
1263.000000	0.358201
1264.000000	0.358345
1265.000000	0.358574
1266.000000	0.358730
1267.000000	0.359040
1268.000000	0.359277
1269.000000	0.359235
1270.000000	0.359303
1271.000000	0.359312
1272.000000	0.359322
1273.000000	0.359574
1274.000000	0.359830
1275.000000	0.360023
1276.000000	0.360335
1277.000000	0.360474
1278.000000	0.360319
1279.000000	0.360344
1280.000000	0.360303
1281.000000	0.360301
1282.000000	0.360469
1283.000000	0.360625
1284.000000	0.360606
1285.000000	0.360702
1286.000000	0.360829
1287.000000	0.361022
1288.000000	0.361258
1289.000000	0.361374
1290.000000	0.361332
1291.000000	0.361239
1292.000000	0.361161
1293.000000	0.361130
1294.000000	0.361295
1295.000000	0.361543
1296.000000	0.361686
1297.000000	0.361820
1298.000000	0.361882
1299.000000	0.361961
1300.000000	0.362081
1301.000000	0.362145
1302.000000	0.362178
1303.000000	0.362325
1304.000000	0.362352
1305.000000	0.362458
1306.000000	0.362470
1307.000000	0.362436
1308.000000	0.362460
1309.000000	0.362426
1310.000000	0.362460
1311.000000	0.362610
1312.000000	0.362694
1313.000000	0.362652
1314.000000	0.362577
1315.000000	0.362446
1316.000000	0.362273
1317.000000	0.362213
1318.000000	0.362175
1319.000000	0.361985
1320.000000	0.361997
1321.000000	0.362169
1322.000000	0.362265
1323.000000	0.362237
1324.000000	0.362113
1325.000000	0.361957
1326.000000	0.361850
1327.000000	0.361992
1328.000000	0.362209
1329.000000	0.362249
1330.000000	0.362209
1331.000000	0.362200
1332.000000	0.362156
1333.000000	0.362146
1334.000000	0.362274
1335.000000	0.362360
1336.000000	0.362432
1337.000000	0.362402
1338.000000	0.362332
1339.000000	0.362034
1340.000000	0.361692
1341.000000	0.361730
1342.000000	0.361939
1343.000000	0.361986
1344.000000	0.361987
1345.000000	0.361876
1346.000000	0.361675
1347.000000	0.361534
1348.000000	0.361565
1349.000000	0.361503
1350.000000	0.361516
1351.000000	0.361415
1352.000000	0.361197
1353.000000	0.361156
1354.000000	0.361163
1355.000000	0.361114
1356.000000	0.361181
1357.000000	0.361222
1358.000000	0.361225
1359.000000	0.361214
1360.000000	0.361207
1361.000000	0.361291
1362.000000	0.361243
1363.000000	0.361116
1364.000000	0.361021
1365.000000	0.360801
1366.000000	0.360660
1367.000000	0.360513
1368.000000	0.360459
1369.000000	0.360527
1370.000000	0.360346
1371.000000	0.360176
1372.000000	0.359885
1373.000000	0.359468
1374.000000	0.359358
1375.000000	0.359169
1376.000000	0.358904
1377.000000	0.358719
1378.000000	0.358418
1379.000000	0.358001
1380.000000	0.357578
1381.000000	0.357023
1382.000000	0.356366
1383.000000	0.355684
1384.000000	0.354900
1385.000000	0.354048
1386.000000	0.353112
1387.000000	0.352159
1388.000000	0.351091
1389.000000	0.349891
1390.000000	0.348755
1391.000000	0.347551
1392.000000	0.346280
1393.000000	0.344881
1394.000000	0.343434
1395.000000	0.341945
1396.000000	0.340314
1397.000000	0.338716
1398.000000	0.337082
1399.000000	0.335495
1400.000000	0.333873
1401.000000	0.332244
1402.000000	0.330671
1403.000000	0.329074
1404.000000	0.327644
1405.000000	0.326294
1406.000000	0.325027
1407.000000	0.323929
1408.000000	0.322879
1409.000000	0.321965
1410.000000	0.321264
1411.000000	0.320724
1412.000000	0.320184
1413.000000	0.319631
1414.000000	0.319120
1415.000000	0.318666
1416.000000	0.318319
1417.000000	0.318212
1418.000000	0.318136
1419.000000	0.318058
1420.000000	0.317845
1421.000000	0.317577
1422.000000	0.317428
1423.000000	0.317401
1424.000000	0.317291
1425.000000	0.317260
1426.000000	0.317196
1427.000000	0.317080
1428.000000	0.317058
1429.000000	0.317129
1430.000000	0.317159
1431.000000	0.317076
1432.000000	0.317030
1433.000000	0.316979
1434.000000	0.317006
1435.000000	0.317185
1436.000000	0.317347
1437.000000	0.317512
1438.000000	0.317671
1439.000000	0.317814
1440.000000	0.318098
1441.000000	0.318450
1442.000000	0.318955
1443.000000	0.319520
1444.000000	0.320210
1445.000000	0.320894
1446.000000	0.321741
1447.000000	0.322711
1448.000000	0.323420
1449.000000	0.324206
1450.000000	0.325088
1451.000000	0.325739
1452.000000	0.326420
1453.000000	0.327117
1454.000000	0.327560
1455.000000	0.327971
1456.000000	0.328584
1457.000000	0.329177
1458.000000	0.329678
1459.000000	0.330162
1460.000000	0.330518
1461.000000	0.330858
1462.000000	0.331293
1463.000000	0.331717
1464.000000	0.332140
1465.000000	0.332597
1466.000000	0.333045
1467.000000	0.333434
1468.000000	0.333804
1469.000000	0.334224
1470.000000	0.334450
1471.000000	0.334821
1472.000000	0.335387
1473.000000	0.335864
1474.000000	0.336378
1475.000000	0.336928
1476.000000	0.337283
1477.000000	0.337669
1478.000000	0.338052
1479.000000	0.338458
1480.000000	0.338958
1481.000000	0.339366
1482.000000	0.339853
1483.000000	0.340340
1484.000000	0.340745
1485.000000	0.341132
1486.000000	0.341566
1487.000000	0.341929
1488.000000	0.342225
1489.000000	0.342590
1490.000000	0.342811
1491.000000	0.343154
1492.000000	0.343566
1493.000000	0.343881
1494.000000	0.344108
1495.000000	0.344358
1496.000000	0.344512
1497.000000	0.344752
1498.000000	0.345093
1499.000000	0.345460
1500.000000	0.345644
1501.000000	0.345793
1502.000000	0.345929
1503.000000	0.346202
1504.000000	0.346667
1505.000000	0.347072
1506.000000	0.347373
1507.000000	0.347525
1508.000000	0.347667
1509.000000	0.347887
1510.000000	0.348151
1511.000000	0.348515
1512.000000	0.348766
1513.000000	0.348920
1514.000000	0.349129
1515.000000	0.349266
1516.000000	0.349549
1517.000000	0.349859
1518.000000	0.350030
1519.000000	0.350180
1520.000000	0.350374
1521.000000	0.350499
1522.000000	0.350726
1523.000000	0.351012
1524.000000	0.351046
1525.000000	0.351035
1526.000000	0.351021
1527.000000	0.351060
1528.000000	0.351230
1529.000000	0.351406
1530.000000	0.351581
1531.000000	0.351742
1532.000000	0.351881
1533.000000	0.352029
1534.000000	0.352148
1535.000000	0.352240
1536.000000	0.352211
1537.000000	0.352286
1538.000000	0.352363
1539.000000	0.352354
1540.000000	0.352461
1541.000000	0.352653
1542.000000	0.352865
1543.000000	0.353010
1544.000000	0.353133
1545.000000	0.353221
1546.000000	0.353271
1547.000000	0.353416
1548.000000	0.353523
1549.000000	0.353612
1550.000000	0.353700
1551.000000	0.353809
1552.000000	0.354027
1553.000000	0.354125
1554.000000	0.354095
1555.000000	0.354154
1556.000000	0.354210
1557.000000	0.354228
1558.000000	0.354340
1559.000000	0.354530
1560.000000	0.354566
1561.000000	0.354571
1562.000000	0.354663
1563.000000	0.354790
1564.000000	0.354903
1565.000000	0.355092
1566.000000	0.355095
1567.000000	0.355075
1568.000000	0.355086
1569.000000	0.355134
1570.000000	0.355179
1571.000000	0.355192
1572.000000	0.355278
1573.000000	0.355459
1574.000000	0.355541
1575.000000	0.355643
1576.000000	0.355716
1577.000000	0.355628
1578.000000	0.355689
1579.000000	0.355986
1580.000000	0.356020
1581.000000	0.356035
1582.000000	0.356074
1583.000000	0.355929
1584.000000	0.355933
1585.000000	0.356207
1586.000000	0.356347
1587.000000	0.356454
1588.000000	0.356491
1589.000000	0.356486
1590.000000	0.356503
1591.000000	0.356495
1592.000000	0.356546
1593.000000	0.356707
1594.000000	0.356722
1595.000000	0.356675
1596.000000	0.356756
1597.000000	0.356864
1598.000000	0.356945
1599.000000	0.357250
1600.000000	0.357257
1601.000000	0.357137
1602.000000	0.357074
1603.000000	0.356933
1604.000000	0.356851
1605.000000	0.356830
1606.000000	0.356770
1607.000000	0.356780
1608.000000	0.356726
1609.000000	0.356695
1610.000000	0.356683
1611.000000	0.356672
1612.000000	0.356666
1613.000000	0.356766
1614.000000	0.356788
1615.000000	0.356826
1616.000000	0.356953
1617.000000	0.357084
1618.000000	0.357231
1619.000000	0.357457
1620.000000	0.357546
1621.000000	0.357525
1622.000000	0.357701
1623.000000	0.357952
1624.000000	0.358029
1625.000000	0.357939
1626.000000	0.357909
1627.000000	0.357724
1628.000000	0.357803
1629.000000	0.358118
1630.000000	0.358275
1631.000000	0.358377
1632.000000	0.358391
1633.000000	0.358303
1634.000000	0.358348
1635.000000	0.358441
1636.000000	0.358534
1637.000000	0.358779
1638.000000	0.358829
1639.000000	0.358859
1640.000000	0.358819
1641.000000	0.358652
1642.000000	0.358620
1643.000000	0.358710
1644.000000	0.358706
1645.000000	0.358720
1646.000000	0.358716
1647.000000	0.358648
1648.000000	0.358596
1649.000000	0.358682
1650.000000	0.358782
1651.000000	0.358939
1652.000000	0.359050
1653.000000	0.359142
1654.000000	0.359218
1655.000000	0.359159
1656.000000	0.359091
1657.000000	0.359126
1658.000000	0.359086
1659.000000	0.359087
1660.000000	0.359138
1661.000000	0.359167
1662.000000	0.359067
1663.000000	0.358807
1664.000000	0.358799
1665.000000	0.358804
1666.000000	0.358884
1667.000000	0.359122
1668.000000	0.359124
1669.000000	0.358930
1670.000000	0.358817
1671.000000	0.358828
1672.000000	0.358829
1673.000000	0.358768
1674.000000	0.358771
1675.000000	0.358824
1676.000000	0.358859
1677.000000	0.358946
1678.000000	0.358995
1679.000000	0.359044
1680.000000	0.358949
1681.000000	0.358954
1682.000000	0.359064
1683.000000	0.359022
1684.000000	0.359131
1685.000000	0.359243
1686.000000	0.359184
1687.000000	0.359347
1688.000000	0.359358
1689.000000	0.359297
1690.000000	0.359446
1691.000000	0.359412
1692.000000	0.359303
1693.000000	0.359419
1694.000000	0.359356
1695.000000	0.359374
1696.000000	0.359369
1697.000000	0.359323
1698.000000	0.359277
1699.000000	0.359267
1700.000000	0.359372
1701.000000	0.359429
1702.000000	0.359183
1703.000000	0.359021
1704.000000	0.358891
1705.000000	0.358848
1706.000000	0.359054
1707.000000	0.359078
1708.000000	0.359016
1709.000000	0.358886
1710.000000	0.358646
1711.000000	0.358595
1712.000000	0.358686
1713.000000	0.358718
1714.000000	0.358886
1715.000000	0.358980
1716.000000	0.358980
1717.000000	0.359072
1718.000000	0.359204
1719.000000	0.359286
1720.000000	0.359537
1721.000000	0.359540
1722.000000	0.359321
1723.000000	0.359271
1724.000000	0.359203
1725.000000	0.359186
1726.000000	0.359230
1727.000000	0.359173
1728.000000	0.358971
1729.000000	0.358733
1730.000000	0.358588
1731.000000	0.358451
1732.000000	0.358294
1733.000000	0.358213
1734.000000	0.357995
1735.000000	0.357978
1736.000000	0.358007
1737.000000	0.358045
1738.000000	0.358267
1739.000000	0.358324
1740.000000	0.358245
1741.000000	0.358286
1742.000000	0.358397
1743.000000	0.358425
1744.000000	0.358457
1745.000000	0.358366
1746.000000	0.358101
1747.000000	0.358140
1748.000000	0.358075
1749.000000	0.358099
1750.000000	0.358045
1751.000000	0.358001
1752.000000	0.358064
1753.000000	0.358078
1754.000000	0.358004
1755.000000	0.357804
1756.000000	0.357636
1757.000000	0.357336
1758.000000	0.357216
1759.000000	0.357226
1760.000000	0.357214
1761.000000	0.357244
1762.000000	0.357256
1763.000000	0.357315
1764.000000	0.357299
1765.000000	0.357177
1766.000000	0.357161
1767.000000	0.357046
1768.000000	0.356952
1769.000000	0.357071
1770.000000	0.357113
1771.000000	0.357081
1772.000000	0.356989
1773.000000	0.356770
1774.000000	0.356659
1775.000000	0.356504
1776.000000	0.356580
1777.000000	0.356859
1778.000000	0.356950
1779.000000	0.357147
1780.000000	0.357086
1781.000000	0.356674
1782.000000	0.356640
1783.000000	0.356721
1784.000000	0.356909
1785.000000	0.356988
1786.000000	0.356758
1787.000000	0.356661
1788.000000	0.356562
1789.000000	0.356394
1790.000000	0.356467
1791.000000	0.356410
1792.000000	0.356500
1793.000000	0.356493
1794.000000	0.356344
1795.000000	0.356297
1796.000000	0.356142
1797.000000	0.356162
1798.000000	0.356411
1799.000000	0.356538
1800.000000	0.356873
1801.000000	0.356654
1802.000000	0.356734
1803.000000	0.356435
1804.000000	0.356849
1805.000000	0.357332
1806.000000	0.357804
1807.000000	0.359206
1808.000000	0.359628
1809.000000	0.359423
1810.000000	0.359226
1811.000000	0.358737
1812.000000	0.357785
1813.000000	0.357062
1814.000000	0.355711
1815.000000	0.355554
1816.000000	0.356118
1817.000000	0.356319
1818.000000	0.356978
1819.000000	0.358194
1820.000000	0.358643
1821.000000	0.358225
1822.000000	0.357799
1823.000000	0.356562
1824.000000	0.356081
1825.000000	0.355220
1826.000000	0.355217
1827.000000	0.356051
1828.000000	0.356803
1829.000000	0.357145
1830.000000	0.357276
1831.000000	0.356653
1832.000000	0.354636
1833.000000	0.354177
1834.000000	0.353786
1835.000000	0.353636
1836.000000	0.354884
1837.000000	0.354976
1838.000000	0.354079
1839.000000	0.353447
1840.000000	0.353305
1841.000000	0.353184
1842.000000	0.352990
1843.000000	0.353137
1844.000000	0.353112
1845.000000	0.352596
1846.000000	0.352418
1847.000000	0.352210
1848.000000	0.352460
1849.000000	0.352431
1850.000000	0.352164
1851.000000	0.351979
1852.000000	0.351627
1853.000000	0.351411
1854.000000	0.350971
1855.000000	0.350607
1856.000000	0.350190
1857.000000	0.350039
1858.000000	0.349247
1859.000000	0.348535
1860.000000	0.347859
1861.000000	0.346985
1862.000000	0.346134
1863.000000	0.345658
1864.000000	0.344846
1865.000000	0.343725
1866.000000	0.342568
1867.000000	0.341442
1868.000000	0.339970
1869.000000	0.338076
1870.000000	0.336284
1871.000000	0.335041
1872.000000	0.334525
1873.000000	0.333549
1874.000000	0.333333
1875.000000	0.332232
1876.000000	0.330680
1877.000000	0.327572
1878.000000	0.325143
1879.000000	0.321962
1880.000000	0.318553
1881.000000	0.315553
1882.000000	0.312293
1883.000000	0.308974
1884.000000	0.305254
1885.000000	0.300983
1886.000000	0.296729
1887.000000	0.292329
1888.000000	0.287243
1889.000000	0.281753
1890.000000	0.276942
1891.000000	0.271637
1892.000000	0.266474
1893.000000	0.262162
1894.000000	0.257012
1895.000000	0.252096
1896.000000	0.247310
1897.000000	0.242607
1898.000000	0.237444
1899.000000	0.233639
1900.000000	0.230235
1901.000000	0.227070
1902.000000	0.225090
1903.000000	0.223338
1904.000000	0.221431
1905.000000	0.219914
1906.000000	0.219027
1907.000000	0.218455
1908.000000	0.218547
1909.000000	0.219195
1910.000000	0.220125
1911.000000	0.221303
1912.000000	0.222099
1913.000000	0.223324
1914.000000	0.224843
1915.000000	0.225582
1916.000000	0.226587
1917.000000	0.227695
1918.000000	0.228964
1919.000000	0.230022
1920.000000	0.231244
1921.000000	0.232789
1922.000000	0.234159
1923.000000	0.235660
1924.000000	0.237227
1925.000000	0.238095
1926.000000	0.239102
1927.000000	0.239844
1928.000000	0.240492
1929.000000	0.240988
1930.000000	0.242053
1931.000000	0.242582
1932.000000	0.243441
1933.000000	0.244734
1934.000000	0.245434
1935.000000	0.246267
1936.000000	0.247311
1937.000000	0.247773
1938.000000	0.247881
1939.000000	0.248207
1940.000000	0.248564
1941.000000	0.248783
1942.000000	0.248858
1943.000000	0.249292
1944.000000	0.249979
1945.000000	0.249622
1946.000000	0.249794
1947.000000	0.250476
1948.000000	0.250094
1949.000000	0.250523
1950.000000	0.250881
1951.000000	0.250916
1952.000000	0.250552
1953.000000	0.250821
1954.000000	0.250831
1955.000000	0.251432
1956.000000	0.252408
1957.000000	0.252984
1958.000000	0.253971
1959.000000	0.254503
1960.000000	0.254221
1961.000000	0.254423
1962.000000	0.254469
1963.000000	0.254351
1964.000000	0.253956
1965.000000	0.254331
1966.000000	0.254477
1967.000000	0.254685
1968.000000	0.255547
1969.000000	0.256121
1970.000000	0.256247
1971.000000	0.255943
1972.000000	0.255923
1973.000000	0.256168
1974.000000	0.256817
1975.000000	0.257319
1976.000000	0.258243
1977.000000	0.258805
1978.000000	0.258936
1979.000000	0.259222
1980.000000	0.260167
1981.000000	0.261041
1982.000000	0.261636
1983.000000	0.262485
1984.000000	0.263018
1985.000000	0.263132
1986.000000	0.263637
1987.000000	0.264297
1988.000000	0.264860
1989.000000	0.266156
1990.000000	0.266758
1991.000000	0.267301
1992.000000	0.268239
1993.000000	0.268930
1994.000000	0.270292
1995.000000	0.271685
1996.000000	0.272855
1997.000000	0.273507
1998.000000	0.273478
1999.000000	0.273794
2000.000000	0.273970
2001.000000	0.273794
2002.000000	0.274783
2003.000000	0.275410
2004.000000	0.275174
2005.000000	0.275739
2006.000000	0.275706
2007.000000	0.275913
2008.000000	0.276656
2009.000000	0.278314
2010.000000	0.279097
2011.000000	0.279510
2012.000000	0.280137
2013.000000	0.280397
2014.000000	0.280746
2015.000000	0.282359
2016.000000	0.283848
2017.000000	0.284334
2018.000000	0.285483
2019.000000	0.285922
2020.000000	0.285692
2021.000000	0.285887
2022.000000	0.286205
2023.000000	0.286604
2024.000000	0.286949
2025.000000	0.287670
2026.000000	0.288764
2027.000000	0.289517
2028.000000	0.290351
2029.000000	0.291202
2030.000000	0.291992
2031.000000	0.292946
2032.000000	0.293647
2033.000000	0.294350
2034.000000	0.294964
2035.000000	0.295508
2036.000000	0.295909
2037.000000	0.296308
2038.000000	0.296821
2039.000000	0.297313
2040.000000	0.298031
2041.000000	0.298697
2042.000000	0.299396
2043.000000	0.299765
2044.000000	0.299994
2045.000000	0.300193
2046.000000	0.300585
2047.000000	0.301049
2048.000000	0.301609
2049.000000	0.301999
2050.000000	0.301981
2051.000000	0.302131
2052.000000	0.301990
2053.000000	0.302347
2054.000000	0.303413
2055.000000	0.304230
2056.000000	0.304985
2057.000000	0.305655
2058.000000	0.305416
2059.000000	0.304755
2060.000000	0.304733
2061.000000	0.304533
2062.000000	0.304803
2063.000000	0.306191
2064.000000	0.306564
2065.000000	0.306789
2066.000000	0.306992
2067.000000	0.307109
2068.000000	0.307070
2069.000000	0.307811
2070.000000	0.308303
2071.000000	0.308126
2072.000000	0.308483
2073.000000	0.308280
2074.000000	0.307941
2075.000000	0.308124
2076.000000	0.308523
2077.000000	0.308995
2078.000000	0.310059
2079.000000	0.310533
2080.000000	0.310935
2081.000000	0.311370
2082.000000	0.311337
2083.000000	0.311826
2084.000000	0.312568
2085.000000	0.312856
2086.000000	0.313304
2087.000000	0.313446
2088.000000	0.313414
2089.000000	0.313815
2090.000000	0.314103
2091.000000	0.314517
2092.000000	0.314701
2093.000000	0.314766
2094.000000	0.315004
2095.000000	0.315200
2096.000000	0.315555
2097.000000	0.316290
2098.000000	0.316557
2099.000000	0.315985
2100.000000	0.316294
2101.000000	0.316885
2102.000000	0.316586
2103.000000	0.316864
2104.000000	0.317318
2105.000000	0.317322
2106.000000	0.316889
2107.000000	0.316736
2108.000000	0.316165
2109.000000	0.316167
2110.000000	0.316357
2111.000000	0.316334
2112.000000	0.316197
2113.000000	0.316594
2114.000000	0.316837
2115.000000	0.317384
2116.000000	0.318286
2117.000000	0.318922
2118.000000	0.319478
2119.000000	0.319770
2120.000000	0.320380
2121.000000	0.321554
2122.000000	0.321901
2123.000000	0.322144
2124.000000	0.321806
2125.000000	0.320328
2126.000000	0.319630
2127.000000	0.318650
2128.000000	0.318410
2129.000000	0.318477
2130.000000	0.319568
2131.000000	0.319868
2132.000000	0.320024
2133.000000	0.320322
2134.000000	0.319686
2135.000000	0.320015
2136.000000	0.320665
2137.000000	0.320970
2138.000000	0.321569
2139.000000	0.321770
2140.000000	0.321453
2141.000000	0.321419
2142.000000	0.321422
2143.000000	0.321355
2144.000000	0.321529
2145.000000	0.321499
2146.000000	0.321903
2147.000000	0.321532
2148.000000	0.320525
2149.000000	0.320259
2150.000000	0.320032
2151.000000	0.319942
2152.000000	0.320437
2153.000000	0.320986
2154.000000	0.321305
2155.000000	0.321754
2156.000000	0.321626
2157.000000	0.321003
2158.000000	0.320737
2159.000000	0.319997
2160.000000	0.320116
2161.000000	0.321089
2162.000000	0.321736
2163.000000	0.322633
2164.000000	0.323266
2165.000000	0.323945
2166.000000	0.323814
2167.000000	0.324437
2168.000000	0.323984
2169.000000	0.322794
2170.000000	0.322359
2171.000000	0.322144
2172.000000	0.322070
2173.000000	0.321973
2174.000000	0.322288
2175.000000	0.322353
2176.000000	0.321925
2177.000000	0.322013
2178.000000	0.322814
2179.000000	0.323270
2180.000000	0.323811
2181.000000	0.324254
2182.000000	0.324297
2183.000000	0.323352
2184.000000	0.322898
2185.000000	0.321306
2186.000000	0.319523
2187.000000	0.320011
2188.000000	0.320229
2189.000000	0.319404
2190.000000	0.318667
2191.000000	0.318485
2192.000000	0.318463
2193.000000	0.319222
2194.000000	0.319294
2195.000000	0.318810
2196.000000	0.318742
2197.000000	0.318279
2198.000000	0.318490
2199.000000	0.320578
2200.000000	0.321564
2201.000000	0.322437
2202.000000	0.322125
2203.000000	0.319815
2204.000000	0.318166
2205.000000	0.316932
2206.000000	0.315108
2207.000000	0.315198
2208.000000	0.314978
2209.000000	0.314740
2210.000000	0.316287
2211.000000	0.317015
2212.000000	0.319455
2213.000000	0.320286
2214.000000	0.320276
2215.000000	0.319992
2216.000000	0.319388
2217.000000	0.317959
2218.000000	0.315473
2219.000000	0.314206
2220.000000	0.312181
2221.000000	0.311373
2222.000000	0.312364
2223.000000	0.312161
2224.000000	0.311752
2225.000000	0.311682
2226.000000	0.310950
2227.000000	0.309587
2228.000000	0.308836
2229.000000	0.307521
2230.000000	0.306009
2231.000000	0.306337
2232.000000	0.307264
2233.000000	0.309173
2234.000000	0.312191
2235.000000	0.313842
2236.000000	0.312892
2237.000000	0.309574
2238.000000	0.306735
2239.000000	0.300140
2240.000000	0.298101
2241.000000	0.298514
2242.000000	0.298905
2243.000000	0.302050
2244.000000	0.303277
2245.000000	0.304016
2246.000000	0.303764
2247.000000	0.301780
2248.000000	0.300492
2249.000000	0.298741
2250.000000	0.297922
2251.000000	0.296307
2252.000000	0.297919
2253.000000	0.299525
2254.000000	0.300905
2255.000000	0.303361
2256.000000	0.302295
2257.000000	0.301125
2258.000000	0.299876
2259.000000	0.298105
2260.000000	0.299637
2261.000000	0.298810
2262.000000	0.297604
2263.000000	0.296435
2264.000000	0.292989
2265.000000	0.292430
2266.000000	0.294251
2267.000000	0.294592
2268.000000	0.296026
2269.000000	0.296515
2270.000000	0.295819
2271.000000	0.294971
2272.000000	0.294533
2273.000000	0.293261
2274.000000	0.290771
2275.000000	0.288583
2276.000000	0.286225
2277.000000	0.283182
2278.000000	0.280474
2279.000000	0.277809
2280.000000	0.277236
2281.000000	0.276167
2282.000000	0.275593
2283.000000	0.275795
2284.000000	0.273829
2285.000000	0.271345
2286.000000	0.268252
2287.000000	0.265036
2288.000000	0.262925
2289.000000	0.261679
2290.000000	0.261267
2291.000000	0.260263
2292.000000	0.257517
2293.000000	0.254766
2294.000000	0.253698
2295.000000	0.253465
2296.000000	0.252789
2297.000000	0.253712
2298.000000	0.253420
2299.000000	0.250789
2300.000000	0.250158
2301.000000	0.250878
2302.000000	0.251145
2303.000000	0.251195
2304.000000	0.252904
2305.000000	0.255548
2306.000000	0.257424
2307.000000	0.259698
2308.000000	0.263198
2309.000000	0.265462
2310.000000	0.269478
2311.000000	0.274274
2312.000000	0.277897
2313.000000	0.278571
2314.000000	0.278461
2315.000000	0.279793
2316.000000	0.278000
2317.000000	0.277154
2318.000000	0.280002
2319.000000	0.281581
2320.000000	0.284112
2321.000000	0.287676
2322.000000	0.288248
2323.000000	0.286224
2324.000000	0.284266
2325.000000	0.282598
2326.000000	0.281754
2327.000000	0.282168
2328.000000	0.282993
2329.000000	0.283409
2330.000000	0.281393
2331.000000	0.281155
2332.000000	0.281717
2333.000000	0.280747
2334.000000	0.282050
2335.000000	0.282861
2336.000000	0.283094
2337.000000	0.282409
2338.000000	0.281479
2339.000000	0.279928
2340.000000	0.276470
2341.000000	0.274130
2342.000000	0.272519
2343.000000	0.270747
2344.000000	0.267191
2345.000000	0.266984
2346.000000	0.271408
2347.000000	0.271656
2348.000000	0.270873
2349.000000	0.272287
2350.000000	0.270294
2351.000000	0.266250
2352.000000	0.267918
2353.000000	0.269851
2354.000000	0.269388
2355.000000	0.269671
2356.000000	0.269508
2357.000000	0.268251
2358.000000	0.266131
2359.000000	0.265315
2360.000000	0.267309
2361.000000	0.266165
2362.000000	0.263891
2363.000000	0.263415
2364.000000	0.259371
2365.000000	0.257401
2366.000000	0.259932
2367.000000	0.258298
2368.000000	0.256316
2369.000000	0.257197
2370.000000	0.257557
2371.000000	0.261392
2372.000000	0.262629
2373.000000	0.259033
2374.000000	0.258070
2375.000000	0.256884
2376.000000	0.258281
2377.000000	0.259395
2378.000000	0.253131
2379.000000	0.249496
2380.000000	0.244981
2381.000000	0.241930
2382.000000	0.243304
2383.000000	0.237924
2384.000000	0.235238
2385.000000	0.236768
2386.000000	0.234853
2387.000000	0.230488
2388.000000	0.226604
2389.000000	0.222869
2390.000000	0.222121
2391.000000	0.227460
2392.000000	0.228461
2393.000000	0.224199
2394.000000	0.220396
2395.000000	0.216684
2396.000000	0.215936
2397.000000	0.222160
2398.000000	0.227328
2399.000000	0.226540
2400.000000	0.225461
2401.000000	0.219649
2402.000000	0.212420
2403.000000	0.206482
2404.000000	0.203758
2405.000000	0.204220
2406.000000	0.204588
2407.000000	0.210820
2408.000000	0.215881
2409.000000	0.218736
2410.000000	0.219556
2411.000000	0.217440
2412.000000	0.219240
2413.000000	0.218616
2414.000000	0.217250
2415.000000	0.216355
2416.000000	0.211943
2417.000000	0.213741
2418.000000	0.220324
2419.000000	0.227480
2420.000000	0.235480
2421.000000	0.232824
2422.000000	0.224780
2423.000000	0.218260
2424.000000	0.213865
2425.000000	0.213111
2426.000000	0.213401
2427.000000	0.226389
2428.000000	0.224220
2429.000000	0.216441
2430.000000	0.229122
2431.000000	0.221517
2432.000000	0.217757
2433.000000	0.231512
2434.000000	0.234638
2435.000000	0.231615
2436.000000	0.233739
2437.000000	0.235147
2438.000000	0.228421
2439.000000	0.235839
2440.000000	0.246971
2441.000000	0.241203
2442.000000	0.234701
2443.000000	0.224188
2444.000000	0.207603
2445.000000	0.204154
2446.000000	0.209443
2447.000000	0.218781
2448.000000	0.226606
2449.000000	0.220577
2450.000000	0.210407
2451.000000	0.203604
2452.000000	0.205225
2453.000000	0.204176
2454.000000	0.203356
2455.000000	0.209342
2456.000000	0.197969
2457.000000	0.190988
2458.000000	0.199985
2459.000000	0.198614
2460.000000	0.200746
2461.000000	0.216187
2462.000000	0.226991
2463.000000	0.224178
2464.000000	0.204385
2465.000000	0.186824
2466.000000	0.172313
2467.000000	0.149512
2468.000000	0.162466
2469.000000	0.173481
2470.000000	0.166303
2471.000000	0.189209
2472.000000	0.184949
2473.000000	0.156908
2474.000000	0.142884
2475.000000	0.123469
2476.000000	0.110056
2477.000000	0.126975
2478.000000	0.137326
2479.000000	0.125445
2480.000000	0.135638
2481.000000	0.149151
2482.000000	0.177305
2483.000000	0.180965
2484.000000	0.158697
2485.000000	0.146424
2486.000000	0.091737
2487.000000	0.093623
2488.000000	0.158644
2489.000000	0.203001
2490.000000	0.241461
2491.000000	0.228631
2492.000000	0.206332
2493.000000	0.144552
2494.000000	0.141820
2495.000000	0.182283
2496.000000	0.187026
2497.000000	0.212238
2498.000000	0.204558
2499.000000	0.136652
2500.000000	0.122116
