# Wavelength	NAu-1-20_HEX-50_FV7-30_00000.asd.rts.txt
350.000000	0.174038
351.000000	0.183982
352.000000	0.185829
353.000000	0.192820
354.000000	0.206018
355.000000	0.188692
356.000000	0.186476
357.000000	0.198755
358.000000	0.191947
359.000000	0.185229
360.000000	0.181672
361.000000	0.180113
362.000000	0.182479
363.000000	0.184248
364.000000	0.183520
365.000000	0.187457
366.000000	0.188297
367.000000	0.185436
368.000000	0.184901
369.000000	0.183337
370.000000	0.180584
371.000000	0.178123
372.000000	0.183500
373.000000	0.191181
374.000000	0.195798
375.000000	0.193682
376.000000	0.189535
377.000000	0.187562
378.000000	0.192178
379.000000	0.196428
380.000000	0.196811
381.000000	0.193087
382.000000	0.195808
383.000000	0.197741
384.000000	0.195040
385.000000	0.197920
386.000000	0.199356
387.000000	0.198531
388.000000	0.200810
389.000000	0.204277
390.000000	0.206239
391.000000	0.204093
392.000000	0.204021
393.000000	0.206262
394.000000	0.209365
395.000000	0.209722
396.000000	0.209834
397.000000	0.210638
398.000000	0.210996
399.000000	0.212451
400.000000	0.214814
401.000000	0.216945
402.000000	0.216796
403.000000	0.216403
404.000000	0.217772
405.000000	0.219218
406.000000	0.220445
407.000000	0.221443
408.000000	0.222375
409.000000	0.223053
410.000000	0.223637
411.000000	0.224452
412.000000	0.225449
413.000000	0.226360
414.000000	0.226917
415.000000	0.226902
416.000000	0.227191
417.000000	0.228092
418.000000	0.228505
419.000000	0.229308
420.000000	0.230235
421.000000	0.229987
422.000000	0.230306
423.000000	0.230824
424.000000	0.230742
425.000000	0.231056
426.000000	0.231438
427.000000	0.231565
428.000000	0.231735
429.000000	0.231744
430.000000	0.231644
431.000000	0.231827
432.000000	0.232175
433.000000	0.232431
434.000000	0.232366
435.000000	0.232274
436.000000	0.232578
437.000000	0.233348
438.000000	0.233124
439.000000	0.232735
440.000000	0.232681
441.000000	0.232253
442.000000	0.232443
443.000000	0.232857
444.000000	0.232254
445.000000	0.232095
446.000000	0.232399
447.000000	0.232689
448.000000	0.233450
449.000000	0.234277
450.000000	0.234974
451.000000	0.236136
452.000000	0.237294
453.000000	0.238340
454.000000	0.239795
455.000000	0.241331
456.000000	0.242841
457.000000	0.244156
458.000000	0.245726
459.000000	0.247300
460.000000	0.248605
461.000000	0.249501
462.000000	0.250448
463.000000	0.251527
464.000000	0.252720
465.000000	0.253602
466.000000	0.254198
467.000000	0.254975
468.000000	0.255516
469.000000	0.255963
470.000000	0.256681
471.000000	0.257159
472.000000	0.257539
473.000000	0.257990
474.000000	0.258496
475.000000	0.258860
476.000000	0.259300
477.000000	0.260207
478.000000	0.260473
479.000000	0.260533
480.000000	0.261048
481.000000	0.261428
482.000000	0.261922
483.000000	0.262534
484.000000	0.262969
485.000000	0.263248
486.000000	0.263631
487.000000	0.264229
488.000000	0.264670
489.000000	0.264980
490.000000	0.265421
491.000000	0.265837
492.000000	0.266263
493.000000	0.266646
494.000000	0.267135
495.000000	0.267642
496.000000	0.268084
497.000000	0.268663
498.000000	0.269220
499.000000	0.269776
500.000000	0.270373
501.000000	0.270790
502.000000	0.271177
503.000000	0.271747
504.000000	0.272157
505.000000	0.272594
506.000000	0.273243
507.000000	0.273780
508.000000	0.274265
509.000000	0.274743
510.000000	0.275341
511.000000	0.275912
512.000000	0.276449
513.000000	0.276990
514.000000	0.277445
515.000000	0.278048
516.000000	0.278980
517.000000	0.279606
518.000000	0.280128
519.000000	0.280711
520.000000	0.281480
521.000000	0.282101
522.000000	0.282556
523.000000	0.283302
524.000000	0.283994
525.000000	0.284578
526.000000	0.285186
527.000000	0.285892
528.000000	0.286601
529.000000	0.287266
530.000000	0.288005
531.000000	0.288777
532.000000	0.289444
533.000000	0.290015
534.000000	0.290698
535.000000	0.291467
536.000000	0.292093
537.000000	0.292772
538.000000	0.293523
539.000000	0.294283
540.000000	0.294970
541.000000	0.295591
542.000000	0.296224
543.000000	0.296971
544.000000	0.297734
545.000000	0.298413
546.000000	0.299187
547.000000	0.299896
548.000000	0.300595
549.000000	0.301385
550.000000	0.302127
551.000000	0.302856
552.000000	0.303583
553.000000	0.304226
554.000000	0.304855
555.000000	0.305546
556.000000	0.306341
557.000000	0.307005
558.000000	0.307623
559.000000	0.308294
560.000000	0.308926
561.000000	0.309561
562.000000	0.310142
563.000000	0.310752
564.000000	0.311407
565.000000	0.311991
566.000000	0.312575
567.000000	0.313178
568.000000	0.313768
569.000000	0.314275
570.000000	0.314803
571.000000	0.315343
572.000000	0.315812
573.000000	0.316362
574.000000	0.316880
575.000000	0.317257
576.000000	0.317720
577.000000	0.318175
578.000000	0.318606
579.000000	0.319105
580.000000	0.319588
581.000000	0.320001
582.000000	0.320335
583.000000	0.320696
584.000000	0.321078
585.000000	0.321421
586.000000	0.321765
587.000000	0.322070
588.000000	0.322305
589.000000	0.322579
590.000000	0.322863
591.000000	0.323140
592.000000	0.323446
593.000000	0.323744
594.000000	0.323992
595.000000	0.324134
596.000000	0.324313
597.000000	0.324564
598.000000	0.324767
599.000000	0.324972
600.000000	0.325151
601.000000	0.325230
602.000000	0.325506
603.000000	0.325723
604.000000	0.325817
605.000000	0.326036
606.000000	0.326282
607.000000	0.326495
608.000000	0.326615
609.000000	0.326758
610.000000	0.326930
611.000000	0.327105
612.000000	0.327275
613.000000	0.327453
614.000000	0.327659
615.000000	0.327756
616.000000	0.327843
617.000000	0.327946
618.000000	0.328151
619.000000	0.328294
620.000000	0.328337
621.000000	0.328369
622.000000	0.328380
623.000000	0.328398
624.000000	0.328452
625.000000	0.328603
626.000000	0.328750
627.000000	0.328856
628.000000	0.328973
629.000000	0.329118
630.000000	0.329206
631.000000	0.329410
632.000000	0.329544
633.000000	0.329629
634.000000	0.329721
635.000000	0.329938
636.000000	0.330202
637.000000	0.330418
638.000000	0.330544
639.000000	0.330710
640.000000	0.330968
641.000000	0.331131
642.000000	0.331214
643.000000	0.331300
644.000000	0.331488
645.000000	0.331659
646.000000	0.331794
647.000000	0.331889
648.000000	0.332104
649.000000	0.332318
650.000000	0.332476
651.000000	0.332665
652.000000	0.332870
653.000000	0.333097
654.000000	0.333269
655.000000	0.333450
656.000000	0.333665
657.000000	0.333871
658.000000	0.334140
659.000000	0.334375
660.000000	0.334541
661.000000	0.334777
662.000000	0.334952
663.000000	0.335113
664.000000	0.335292
665.000000	0.335499
666.000000	0.335707
667.000000	0.335875
668.000000	0.336153
669.000000	0.336460
670.000000	0.336744
671.000000	0.337024
672.000000	0.337300
673.000000	0.337559
674.000000	0.337796
675.000000	0.337984
676.000000	0.338180
677.000000	0.338466
678.000000	0.338698
679.000000	0.338928
680.000000	0.339196
681.000000	0.339394
682.000000	0.339649
683.000000	0.339910
684.000000	0.340213
685.000000	0.340468
686.000000	0.340739
687.000000	0.341066
688.000000	0.341344
689.000000	0.341579
690.000000	0.341838
691.000000	0.342151
692.000000	0.342460
693.000000	0.342795
694.000000	0.343077
695.000000	0.343374
696.000000	0.343694
697.000000	0.344026
698.000000	0.344371
699.000000	0.344720
700.000000	0.345071
701.000000	0.345404
702.000000	0.345735
703.000000	0.346066
704.000000	0.346463
705.000000	0.346803
706.000000	0.347049
707.000000	0.347314
708.000000	0.347609
709.000000	0.347912
710.000000	0.348216
711.000000	0.348485
712.000000	0.348760
713.000000	0.349073
714.000000	0.349364
715.000000	0.349677
716.000000	0.349986
717.000000	0.350212
718.000000	0.350468
719.000000	0.350721
720.000000	0.350957
721.000000	0.351233
722.000000	0.351561
723.000000	0.351947
724.000000	0.352157
725.000000	0.352391
726.000000	0.352721
727.000000	0.352977
728.000000	0.353233
729.000000	0.353499
730.000000	0.353713
731.000000	0.353893
732.000000	0.354126
733.000000	0.354446
734.000000	0.354671
735.000000	0.354852
736.000000	0.355124
737.000000	0.355356
738.000000	0.355512
739.000000	0.355725
740.000000	0.355902
741.000000	0.356093
742.000000	0.356335
743.000000	0.356592
744.000000	0.356853
745.000000	0.357075
746.000000	0.357313
747.000000	0.357529
748.000000	0.357702
749.000000	0.357847
750.000000	0.357954
751.000000	0.358107
752.000000	0.358223
753.000000	0.358315
754.000000	0.358447
755.000000	0.358547
756.000000	0.358631
757.000000	0.358687
758.000000	0.358780
759.000000	0.358946
760.000000	0.359102
761.000000	0.359254
762.000000	0.359356
763.000000	0.359420
764.000000	0.359582
765.000000	0.359682
766.000000	0.359738
767.000000	0.359786
768.000000	0.359812
769.000000	0.359861
770.000000	0.359930
771.000000	0.359919
772.000000	0.359914
773.000000	0.359892
774.000000	0.359943
775.000000	0.359979
776.000000	0.360067
777.000000	0.360206
778.000000	0.360238
779.000000	0.360242
780.000000	0.360249
781.000000	0.360229
782.000000	0.360261
783.000000	0.360345
784.000000	0.360273
785.000000	0.360256
786.000000	0.360201
787.000000	0.360069
788.000000	0.359976
789.000000	0.359909
790.000000	0.359836
791.000000	0.359767
792.000000	0.359758
793.000000	0.359703
794.000000	0.359567
795.000000	0.359611
796.000000	0.359600
797.000000	0.359467
798.000000	0.359336
799.000000	0.359254
800.000000	0.359180
801.000000	0.359066
802.000000	0.359022
803.000000	0.358995
804.000000	0.358972
805.000000	0.358878
806.000000	0.358724
807.000000	0.358608
808.000000	0.358483
809.000000	0.358315
810.000000	0.358192
811.000000	0.358147
812.000000	0.358063
813.000000	0.357947
814.000000	0.357838
815.000000	0.357831
816.000000	0.357659
817.000000	0.357422
818.000000	0.357183
819.000000	0.356976
820.000000	0.356874
821.000000	0.356785
822.000000	0.356552
823.000000	0.356433
824.000000	0.356331
825.000000	0.356187
826.000000	0.356125
827.000000	0.356044
828.000000	0.355940
829.000000	0.355862
830.000000	0.355798
831.000000	0.355768
832.000000	0.355613
833.000000	0.355392
834.000000	0.355168
835.000000	0.355017
836.000000	0.354897
837.000000	0.354731
838.000000	0.354551
839.000000	0.354423
840.000000	0.354433
841.000000	0.354413
842.000000	0.354191
843.000000	0.354066
844.000000	0.353966
845.000000	0.353829
846.000000	0.353698
847.000000	0.353549
848.000000	0.353370
849.000000	0.353199
850.000000	0.353049
851.000000	0.352921
852.000000	0.352829
853.000000	0.352677
854.000000	0.352437
855.000000	0.352281
856.000000	0.352179
857.000000	0.351938
858.000000	0.351813
859.000000	0.351744
860.000000	0.351363
861.000000	0.351143
862.000000	0.351109
863.000000	0.351022
864.000000	0.350869
865.000000	0.350740
866.000000	0.350657
867.000000	0.350383
868.000000	0.350198
869.000000	0.350022
870.000000	0.349790
871.000000	0.349656
872.000000	0.349549
873.000000	0.349365
874.000000	0.349225
875.000000	0.348980
876.000000	0.348722
877.000000	0.348539
878.000000	0.348291
879.000000	0.348146
880.000000	0.348016
881.000000	0.347819
882.000000	0.347657
883.000000	0.347510
884.000000	0.347258
885.000000	0.347113
886.000000	0.346977
887.000000	0.346807
888.000000	0.346612
889.000000	0.346432
890.000000	0.346162
891.000000	0.345923
892.000000	0.345773
893.000000	0.345628
894.000000	0.345526
895.000000	0.345268
896.000000	0.345052
897.000000	0.344843
898.000000	0.344572
899.000000	0.344505
900.000000	0.344405
901.000000	0.344177
902.000000	0.344098
903.000000	0.344050
904.000000	0.343977
905.000000	0.343759
906.000000	0.343653
907.000000	0.343498
908.000000	0.343317
909.000000	0.343139
910.000000	0.342937
911.000000	0.342732
912.000000	0.342539
913.000000	0.342242
914.000000	0.341838
915.000000	0.341564
916.000000	0.341614
917.000000	0.341601
918.000000	0.341457
919.000000	0.341209
920.000000	0.341050
921.000000	0.340898
922.000000	0.340736
923.000000	0.340552
924.000000	0.340432
925.000000	0.340370
926.000000	0.340330
927.000000	0.340113
928.000000	0.339880
929.000000	0.339644
930.000000	0.339399
931.000000	0.339303
932.000000	0.339059
933.000000	0.338740
934.000000	0.338709
935.000000	0.338575
936.000000	0.338473
937.000000	0.338423
938.000000	0.338248
939.000000	0.337980
940.000000	0.337732
941.000000	0.337803
942.000000	0.337792
943.000000	0.337641
944.000000	0.337276
945.000000	0.336967
946.000000	0.336729
947.000000	0.336526
948.000000	0.336244
949.000000	0.336050
950.000000	0.335822
951.000000	0.335630
952.000000	0.335831
953.000000	0.335723
954.000000	0.335524
955.000000	0.335342
956.000000	0.334811
957.000000	0.334456
958.000000	0.334257
959.000000	0.334128
960.000000	0.334183
961.000000	0.334161
962.000000	0.334020
963.000000	0.334053
964.000000	0.333789
965.000000	0.333522
966.000000	0.333358
967.000000	0.332905
968.000000	0.332748
969.000000	0.332712
970.000000	0.332474
971.000000	0.332464
972.000000	0.332538
973.000000	0.332488
974.000000	0.332313
975.000000	0.332091
976.000000	0.331825
977.000000	0.331573
978.000000	0.331677
979.000000	0.331586
980.000000	0.331115
981.000000	0.330829
982.000000	0.330862
983.000000	0.330794
984.000000	0.330643
985.000000	0.330729
986.000000	0.330612
987.000000	0.330550
988.000000	0.330562
989.000000	0.330307
990.000000	0.330123
991.000000	0.330167
992.000000	0.330428
993.000000	0.330190
994.000000	0.330122
995.000000	0.330344
996.000000	0.330138
997.000000	0.330122
998.000000	0.330098
999.000000	0.330073
1000.000000	0.330198
1001.000000	0.329541
1002.000000	0.330362
1003.000000	0.330466
1004.000000	0.330004
1005.000000	0.329681
1006.000000	0.329169
1007.000000	0.327530
1008.000000	0.326701
1009.000000	0.327540
1010.000000	0.327936
1011.000000	0.328684
1012.000000	0.329177
1013.000000	0.328533
1014.000000	0.328219
1015.000000	0.328061
1016.000000	0.328058
1017.000000	0.328338
1018.000000	0.328617
1019.000000	0.328999
1020.000000	0.329770
1021.000000	0.329715
1022.000000	0.329667
1023.000000	0.329726
1024.000000	0.329160
1025.000000	0.328837
1026.000000	0.329115
1027.000000	0.329229
1028.000000	0.330194
1029.000000	0.330899
1030.000000	0.330560
1031.000000	0.330568
1032.000000	0.330304
1033.000000	0.330081
1034.000000	0.330058
1035.000000	0.330481
1036.000000	0.330676
1037.000000	0.330716
1038.000000	0.330869
1039.000000	0.331153
1040.000000	0.331788
1041.000000	0.332321
1042.000000	0.332721
1043.000000	0.332941
1044.000000	0.333410
1045.000000	0.333571
1046.000000	0.332908
1047.000000	0.332802
1048.000000	0.332563
1049.000000	0.332558
1050.000000	0.332797
1051.000000	0.333141
1052.000000	0.333640
1053.000000	0.333915
1054.000000	0.334534
1055.000000	0.334925
1056.000000	0.335376
1057.000000	0.335180
1058.000000	0.334889
1059.000000	0.334866
1060.000000	0.335138
1061.000000	0.335815
1062.000000	0.336506
1063.000000	0.337118
1064.000000	0.337575
1065.000000	0.337653
1066.000000	0.337812
1067.000000	0.338041
1068.000000	0.338138
1069.000000	0.337731
1070.000000	0.337894
1071.000000	0.338462
1072.000000	0.338756
1073.000000	0.339151
1074.000000	0.339873
1075.000000	0.339959
1076.000000	0.340108
1077.000000	0.340452
1078.000000	0.340776
1079.000000	0.341187
1080.000000	0.341851
1081.000000	0.342289
1082.000000	0.342851
1083.000000	0.343133
1084.000000	0.343347
1085.000000	0.343400
1086.000000	0.342861
1087.000000	0.342937
1088.000000	0.343078
1089.000000	0.343324
1090.000000	0.343821
1091.000000	0.344626
1092.000000	0.344945
1093.000000	0.345204
1094.000000	0.345450
1095.000000	0.345381
1096.000000	0.345764
1097.000000	0.346383
1098.000000	0.346826
1099.000000	0.347422
1100.000000	0.347833
1101.000000	0.347933
1102.000000	0.348214
1103.000000	0.348407
1104.000000	0.348792
1105.000000	0.349423
1106.000000	0.349861
1107.000000	0.350192
1108.000000	0.350585
1109.000000	0.350989
1110.000000	0.351396
1111.000000	0.351653
1112.000000	0.352016
1113.000000	0.352166
1114.000000	0.351892
1115.000000	0.352134
1116.000000	0.352565
1117.000000	0.352956
1118.000000	0.353690
1119.000000	0.353996
1120.000000	0.354089
1121.000000	0.354193
1122.000000	0.354102
1123.000000	0.354418
1124.000000	0.354729
1125.000000	0.354972
1126.000000	0.355262
1127.000000	0.355444
1128.000000	0.355542
1129.000000	0.355465
1130.000000	0.355659
1131.000000	0.355919
1132.000000	0.356189
1133.000000	0.356722
1134.000000	0.357009
1135.000000	0.357135
1136.000000	0.357287
1137.000000	0.357355
1138.000000	0.357399
1139.000000	0.357465
1140.000000	0.357693
1141.000000	0.357996
1142.000000	0.358157
1143.000000	0.358200
1144.000000	0.358446
1145.000000	0.358475
1146.000000	0.358463
1147.000000	0.358559
1148.000000	0.358653
1149.000000	0.358850
1150.000000	0.359145
1151.000000	0.359354
1152.000000	0.359512
1153.000000	0.359779
1154.000000	0.360080
1155.000000	0.360189
1156.000000	0.360280
1157.000000	0.360411
1158.000000	0.360274
1159.000000	0.360282
1160.000000	0.360457
1161.000000	0.360585
1162.000000	0.360725
1163.000000	0.361059
1164.000000	0.361270
1165.000000	0.361306
1166.000000	0.361373
1167.000000	0.361259
1168.000000	0.361267
1169.000000	0.361343
1170.000000	0.361427
1171.000000	0.361544
1172.000000	0.361747
1173.000000	0.362041
1174.000000	0.362182
1175.000000	0.362200
1176.000000	0.362302
1177.000000	0.362474
1178.000000	0.362603
1179.000000	0.362797
1180.000000	0.362921
1181.000000	0.363093
1182.000000	0.363160
1183.000000	0.363236
1184.000000	0.363436
1185.000000	0.363512
1186.000000	0.363477
1187.000000	0.363520
1188.000000	0.363620
1189.000000	0.363567
1190.000000	0.363494
1191.000000	0.363478
1192.000000	0.363462
1193.000000	0.363635
1194.000000	0.363882
1195.000000	0.364005
1196.000000	0.363982
1197.000000	0.364082
1198.000000	0.364285
1199.000000	0.364369
1200.000000	0.364374
1201.000000	0.364567
1202.000000	0.364570
1203.000000	0.364441
1204.000000	0.364513
1205.000000	0.364533
1206.000000	0.364546
1207.000000	0.364713
1208.000000	0.364746
1209.000000	0.364757
1210.000000	0.364794
1211.000000	0.364777
1212.000000	0.364805
1213.000000	0.364980
1214.000000	0.365106
1215.000000	0.365161
1216.000000	0.365247
1217.000000	0.365342
1218.000000	0.365346
1219.000000	0.365302
1220.000000	0.365402
1221.000000	0.365444
1222.000000	0.365357
1223.000000	0.365316
1224.000000	0.365317
1225.000000	0.365223
1226.000000	0.365185
1227.000000	0.365321
1228.000000	0.365491
1229.000000	0.365581
1230.000000	0.365748
1231.000000	0.365747
1232.000000	0.365689
1233.000000	0.365822
1234.000000	0.365957
1235.000000	0.366078
1236.000000	0.366245
1237.000000	0.366315
1238.000000	0.366238
1239.000000	0.366207
1240.000000	0.366137
1241.000000	0.366053
1242.000000	0.366017
1243.000000	0.365962
1244.000000	0.365979
1245.000000	0.366060
1246.000000	0.366149
1247.000000	0.366437
1248.000000	0.366583
1249.000000	0.366608
1250.000000	0.366683
1251.000000	0.366662
1252.000000	0.366614
1253.000000	0.366518
1254.000000	0.366547
1255.000000	0.366602
1256.000000	0.366642
1257.000000	0.366824
1258.000000	0.366961
1259.000000	0.366895
1260.000000	0.366972
1261.000000	0.367134
1262.000000	0.367162
1263.000000	0.367135
1264.000000	0.367197
1265.000000	0.367200
1266.000000	0.367112
1267.000000	0.367150
1268.000000	0.367158
1269.000000	0.366970
1270.000000	0.366992
1271.000000	0.367091
1272.000000	0.367117
1273.000000	0.367313
1274.000000	0.367375
1275.000000	0.367339
1276.000000	0.367198
1277.000000	0.367205
1278.000000	0.367085
1279.000000	0.367030
1280.000000	0.366957
1281.000000	0.366910
1282.000000	0.366935
1283.000000	0.367009
1284.000000	0.367084
1285.000000	0.367111
1286.000000	0.367093
1287.000000	0.367083
1288.000000	0.367057
1289.000000	0.366953
1290.000000	0.366787
1291.000000	0.366649
1292.000000	0.366613
1293.000000	0.366630
1294.000000	0.366617
1295.000000	0.366735
1296.000000	0.366805
1297.000000	0.366736
1298.000000	0.366790
1299.000000	0.366877
1300.000000	0.366851
1301.000000	0.366807
1302.000000	0.366787
1303.000000	0.366920
1304.000000	0.366830
1305.000000	0.366830
1306.000000	0.366784
1307.000000	0.366623
1308.000000	0.366537
1309.000000	0.366491
1310.000000	0.366420
1311.000000	0.366376
1312.000000	0.366237
1313.000000	0.366134
1314.000000	0.366056
1315.000000	0.365911
1316.000000	0.365981
1317.000000	0.365985
1318.000000	0.365826
1319.000000	0.365720
1320.000000	0.365526
1321.000000	0.365238
1322.000000	0.365176
1323.000000	0.365311
1324.000000	0.365297
1325.000000	0.365318
1326.000000	0.365512
1327.000000	0.365395
1328.000000	0.365251
1329.000000	0.365124
1330.000000	0.364981
1331.000000	0.364852
1332.000000	0.364886
1333.000000	0.364724
1334.000000	0.364477
1335.000000	0.364422
1336.000000	0.364333
1337.000000	0.364261
1338.000000	0.364319
1339.000000	0.364218
1340.000000	0.363934
1341.000000	0.363723
1342.000000	0.363588
1343.000000	0.363460
1344.000000	0.363259
1345.000000	0.362974
1346.000000	0.362781
1347.000000	0.362451
1348.000000	0.362292
1349.000000	0.362268
1350.000000	0.362092
1351.000000	0.361854
1352.000000	0.361562
1353.000000	0.361248
1354.000000	0.361120
1355.000000	0.361044
1356.000000	0.360993
1357.000000	0.360797
1358.000000	0.360495
1359.000000	0.360156
1360.000000	0.360003
1361.000000	0.360136
1362.000000	0.360037
1363.000000	0.359932
1364.000000	0.359793
1365.000000	0.359355
1366.000000	0.359196
1367.000000	0.359186
1368.000000	0.359160
1369.000000	0.359222
1370.000000	0.359209
1371.000000	0.358878
1372.000000	0.358440
1373.000000	0.358082
1374.000000	0.357757
1375.000000	0.357377
1376.000000	0.357172
1377.000000	0.356987
1378.000000	0.356520
1379.000000	0.356098
1380.000000	0.355875
1381.000000	0.355513
1382.000000	0.355079
1383.000000	0.354745
1384.000000	0.354102
1385.000000	0.353251
1386.000000	0.352770
1387.000000	0.352323
1388.000000	0.351828
1389.000000	0.351444
1390.000000	0.350805
1391.000000	0.350056
1392.000000	0.349347
1393.000000	0.348639
1394.000000	0.348089
1395.000000	0.347400
1396.000000	0.346645
1397.000000	0.345815
1398.000000	0.344843
1399.000000	0.343937
1400.000000	0.342946
1401.000000	0.342006
1402.000000	0.341228
1403.000000	0.340188
1404.000000	0.339223
1405.000000	0.338365
1406.000000	0.337292
1407.000000	0.336317
1408.000000	0.335221
1409.000000	0.334071
1410.000000	0.333043
1411.000000	0.331865
1412.000000	0.330616
1413.000000	0.329474
1414.000000	0.328422
1415.000000	0.327565
1416.000000	0.326788
1417.000000	0.326008
1418.000000	0.325113
1419.000000	0.324216
1420.000000	0.323417
1421.000000	0.322694
1422.000000	0.321915
1423.000000	0.321191
1424.000000	0.320279
1425.000000	0.319322
1426.000000	0.318358
1427.000000	0.317395
1428.000000	0.316492
1429.000000	0.315651
1430.000000	0.314967
1431.000000	0.314363
1432.000000	0.313765
1433.000000	0.313280
1434.000000	0.312753
1435.000000	0.312294
1436.000000	0.311858
1437.000000	0.311408
1438.000000	0.311074
1439.000000	0.310839
1440.000000	0.310646
1441.000000	0.310547
1442.000000	0.310489
1443.000000	0.310443
1444.000000	0.310402
1445.000000	0.310296
1446.000000	0.310153
1447.000000	0.310037
1448.000000	0.310021
1449.000000	0.310011
1450.000000	0.309991
1451.000000	0.309955
1452.000000	0.309764
1453.000000	0.309522
1454.000000	0.309308
1455.000000	0.309095
1456.000000	0.308957
1457.000000	0.308989
1458.000000	0.309117
1459.000000	0.309165
1460.000000	0.309018
1461.000000	0.308764
1462.000000	0.308525
1463.000000	0.308299
1464.000000	0.308209
1465.000000	0.308213
1466.000000	0.308108
1467.000000	0.307980
1468.000000	0.307926
1469.000000	0.307942
1470.000000	0.307950
1471.000000	0.307987
1472.000000	0.307947
1473.000000	0.307979
1474.000000	0.307979
1475.000000	0.308044
1476.000000	0.308292
1477.000000	0.308607
1478.000000	0.308945
1479.000000	0.309261
1480.000000	0.309611
1481.000000	0.309887
1482.000000	0.310091
1483.000000	0.310401
1484.000000	0.310739
1485.000000	0.311027
1486.000000	0.311315
1487.000000	0.311625
1488.000000	0.311920
1489.000000	0.312310
1490.000000	0.312642
1491.000000	0.313017
1492.000000	0.313438
1493.000000	0.313820
1494.000000	0.314136
1495.000000	0.314491
1496.000000	0.314829
1497.000000	0.315146
1498.000000	0.315501
1499.000000	0.315818
1500.000000	0.316114
1501.000000	0.316418
1502.000000	0.316646
1503.000000	0.316970
1504.000000	0.317357
1505.000000	0.317733
1506.000000	0.318149
1507.000000	0.318464
1508.000000	0.318730
1509.000000	0.318922
1510.000000	0.319106
1511.000000	0.319452
1512.000000	0.319727
1513.000000	0.319963
1514.000000	0.320204
1515.000000	0.320313
1516.000000	0.320371
1517.000000	0.320409
1518.000000	0.320581
1519.000000	0.320753
1520.000000	0.321003
1521.000000	0.321242
1522.000000	0.321354
1523.000000	0.321489
1524.000000	0.321571
1525.000000	0.321691
1526.000000	0.321875
1527.000000	0.322045
1528.000000	0.322166
1529.000000	0.322241
1530.000000	0.322286
1531.000000	0.322314
1532.000000	0.322426
1533.000000	0.322528
1534.000000	0.322526
1535.000000	0.322598
1536.000000	0.322596
1537.000000	0.322722
1538.000000	0.322919
1539.000000	0.322980
1540.000000	0.323066
1541.000000	0.323078
1542.000000	0.323066
1543.000000	0.323119
1544.000000	0.323139
1545.000000	0.323226
1546.000000	0.323429
1547.000000	0.323557
1548.000000	0.323676
1549.000000	0.323849
1550.000000	0.323807
1551.000000	0.323703
1552.000000	0.323674
1553.000000	0.323572
1554.000000	0.323515
1555.000000	0.323483
1556.000000	0.323419
1557.000000	0.323413
1558.000000	0.323469
1559.000000	0.323561
1560.000000	0.323574
1561.000000	0.323637
1562.000000	0.323650
1563.000000	0.323605
1564.000000	0.323659
1565.000000	0.323789
1566.000000	0.323793
1567.000000	0.323868
1568.000000	0.323927
1569.000000	0.324035
1570.000000	0.324048
1571.000000	0.323980
1572.000000	0.323980
1573.000000	0.323980
1574.000000	0.323950
1575.000000	0.324004
1576.000000	0.323989
1577.000000	0.323819
1578.000000	0.323773
1579.000000	0.323847
1580.000000	0.323867
1581.000000	0.324002
1582.000000	0.324057
1583.000000	0.324037
1584.000000	0.324020
1585.000000	0.324086
1586.000000	0.324098
1587.000000	0.324089
1588.000000	0.324117
1589.000000	0.324131
1590.000000	0.324110
1591.000000	0.324095
1592.000000	0.324095
1593.000000	0.324121
1594.000000	0.324170
1595.000000	0.324316
1596.000000	0.324424
1597.000000	0.324560
1598.000000	0.324566
1599.000000	0.324556
1600.000000	0.324538
1601.000000	0.324459
1602.000000	0.324482
1603.000000	0.324652
1604.000000	0.324678
1605.000000	0.324702
1606.000000	0.324691
1607.000000	0.324675
1608.000000	0.324644
1609.000000	0.324627
1610.000000	0.324609
1611.000000	0.324539
1612.000000	0.324571
1613.000000	0.324852
1614.000000	0.324912
1615.000000	0.325002
1616.000000	0.325059
1617.000000	0.324843
1618.000000	0.324875
1619.000000	0.325049
1620.000000	0.325172
1621.000000	0.325396
1622.000000	0.325604
1623.000000	0.325772
1624.000000	0.325869
1625.000000	0.325804
1626.000000	0.325802
1627.000000	0.325765
1628.000000	0.325836
1629.000000	0.325964
1630.000000	0.326124
1631.000000	0.326242
1632.000000	0.326363
1633.000000	0.326601
1634.000000	0.326747
1635.000000	0.326860
1636.000000	0.327018
1637.000000	0.327138
1638.000000	0.327297
1639.000000	0.327644
1640.000000	0.327792
1641.000000	0.327906
1642.000000	0.328085
1643.000000	0.328202
1644.000000	0.328351
1645.000000	0.328630
1646.000000	0.328751
1647.000000	0.328827
1648.000000	0.328909
1649.000000	0.328998
1650.000000	0.329138
1651.000000	0.329341
1652.000000	0.329495
1653.000000	0.329584
1654.000000	0.329799
1655.000000	0.330027
1656.000000	0.330084
1657.000000	0.330228
1658.000000	0.330301
1659.000000	0.330303
1660.000000	0.330411
1661.000000	0.330490
1662.000000	0.330611
1663.000000	0.330681
1664.000000	0.330855
1665.000000	0.331195
1666.000000	0.331404
1667.000000	0.331476
1668.000000	0.331652
1669.000000	0.331750
1670.000000	0.331846
1671.000000	0.332137
1672.000000	0.332403
1673.000000	0.332600
1674.000000	0.332776
1675.000000	0.332945
1676.000000	0.332995
1677.000000	0.333135
1678.000000	0.333232
1679.000000	0.333365
1680.000000	0.333482
1681.000000	0.333470
1682.000000	0.333448
1683.000000	0.333423
1684.000000	0.333446
1685.000000	0.333610
1686.000000	0.333839
1687.000000	0.334068
1688.000000	0.334171
1689.000000	0.334109
1690.000000	0.334004
1691.000000	0.334048
1692.000000	0.333966
1693.000000	0.334011
1694.000000	0.334183
1695.000000	0.334236
1696.000000	0.334436
1697.000000	0.334506
1698.000000	0.334517
1699.000000	0.334606
1700.000000	0.334697
1701.000000	0.334830
1702.000000	0.334796
1703.000000	0.334808
1704.000000	0.334920
1705.000000	0.335006
1706.000000	0.335190
1707.000000	0.335345
1708.000000	0.335415
1709.000000	0.335485
1710.000000	0.335737
1711.000000	0.335847
1712.000000	0.335897
1713.000000	0.335940
1714.000000	0.335905
1715.000000	0.335947
1716.000000	0.336108
1717.000000	0.336142
1718.000000	0.336042
1719.000000	0.336051
1720.000000	0.336079
1721.000000	0.336172
1722.000000	0.336426
1723.000000	0.336564
1724.000000	0.336698
1725.000000	0.336823
1726.000000	0.336830
1727.000000	0.336847
1728.000000	0.336757
1729.000000	0.336725
1730.000000	0.336847
1731.000000	0.336893
1732.000000	0.336984
1733.000000	0.337102
1734.000000	0.337021
1735.000000	0.337075
1736.000000	0.337192
1737.000000	0.337249
1738.000000	0.337287
1739.000000	0.337424
1740.000000	0.337630
1741.000000	0.337628
1742.000000	0.337630
1743.000000	0.337619
1744.000000	0.337399
1745.000000	0.337350
1746.000000	0.337391
1747.000000	0.337500
1748.000000	0.337494
1749.000000	0.337438
1750.000000	0.337455
1751.000000	0.337644
1752.000000	0.337807
1753.000000	0.337908
1754.000000	0.337979
1755.000000	0.337853
1756.000000	0.337792
1757.000000	0.337721
1758.000000	0.337781
1759.000000	0.337902
1760.000000	0.338037
1761.000000	0.338283
1762.000000	0.338437
1763.000000	0.338604
1764.000000	0.338674
1765.000000	0.338559
1766.000000	0.338614
1767.000000	0.338605
1768.000000	0.338589
1769.000000	0.338778
1770.000000	0.338932
1771.000000	0.338996
1772.000000	0.339054
1773.000000	0.339060
1774.000000	0.339156
1775.000000	0.339372
1776.000000	0.339391
1777.000000	0.339330
1778.000000	0.339321
1779.000000	0.339121
1780.000000	0.339194
1781.000000	0.339436
1782.000000	0.339631
1783.000000	0.339971
1784.000000	0.339919
1785.000000	0.340020
1786.000000	0.339979
1787.000000	0.340110
1788.000000	0.340520
1789.000000	0.340743
1790.000000	0.340934
1791.000000	0.341026
1792.000000	0.341057
1793.000000	0.341127
1794.000000	0.341248
1795.000000	0.341319
1796.000000	0.341281
1797.000000	0.341384
1798.000000	0.341567
1799.000000	0.341630
1800.000000	0.341830
1801.000000	0.341057
1802.000000	0.341525
1803.000000	0.342445
1804.000000	0.342472
1805.000000	0.342237
1806.000000	0.342370
1807.000000	0.342300
1808.000000	0.341960
1809.000000	0.342180
1810.000000	0.341411
1811.000000	0.341317
1812.000000	0.340721
1813.000000	0.340686
1814.000000	0.341479
1815.000000	0.341819
1816.000000	0.342135
1817.000000	0.342050
1818.000000	0.341446
1819.000000	0.341800
1820.000000	0.342239
1821.000000	0.341537
1822.000000	0.341632
1823.000000	0.342200
1824.000000	0.342508
1825.000000	0.343124
1826.000000	0.343042
1827.000000	0.342508
1828.000000	0.341896
1829.000000	0.340728
1830.000000	0.339959
1831.000000	0.339802
1832.000000	0.340485
1833.000000	0.340401
1834.000000	0.340380
1835.000000	0.340232
1836.000000	0.339550
1837.000000	0.339307
1838.000000	0.338978
1839.000000	0.339278
1840.000000	0.339394
1841.000000	0.338346
1842.000000	0.338339
1843.000000	0.338812
1844.000000	0.338755
1845.000000	0.339199
1846.000000	0.339120
1847.000000	0.338293
1848.000000	0.336861
1849.000000	0.336752
1850.000000	0.336182
1851.000000	0.335724
1852.000000	0.335368
1853.000000	0.335262
1854.000000	0.335066
1855.000000	0.334830
1856.000000	0.334835
1857.000000	0.334650
1858.000000	0.334321
1859.000000	0.333519
1860.000000	0.332245
1861.000000	0.331419
1862.000000	0.330532
1863.000000	0.329394
1864.000000	0.328483
1865.000000	0.327874
1866.000000	0.327249
1867.000000	0.326777
1868.000000	0.325911
1869.000000	0.324861
1870.000000	0.323751
1871.000000	0.322296
1872.000000	0.320339
1873.000000	0.318809
1874.000000	0.317861
1875.000000	0.316108
1876.000000	0.313636
1877.000000	0.311454
1878.000000	0.308926
1879.000000	0.306327
1880.000000	0.304704
1881.000000	0.302490
1882.000000	0.300135
1883.000000	0.297885
1884.000000	0.295399
1885.000000	0.292168
1886.000000	0.289479
1887.000000	0.287249
1888.000000	0.284138
1889.000000	0.280548
1890.000000	0.277966
1891.000000	0.274911
1892.000000	0.271526
1893.000000	0.268545
1894.000000	0.264852
1895.000000	0.261067
1896.000000	0.256957
1897.000000	0.253135
1898.000000	0.249182
1899.000000	0.245952
1900.000000	0.243156
1901.000000	0.239717
1902.000000	0.236475
1903.000000	0.233297
1904.000000	0.229712
1905.000000	0.226581
1906.000000	0.223529
1907.000000	0.220701
1908.000000	0.217866
1909.000000	0.215344
1910.000000	0.213292
1911.000000	0.211339
1912.000000	0.209485
1913.000000	0.207831
1914.000000	0.206022
1915.000000	0.204362
1916.000000	0.202395
1917.000000	0.200664
1918.000000	0.199115
1919.000000	0.197711
1920.000000	0.196081
1921.000000	0.194805
1922.000000	0.193486
1923.000000	0.192768
1924.000000	0.192206
1925.000000	0.191661
1926.000000	0.191967
1927.000000	0.191651
1928.000000	0.191278
1929.000000	0.190805
1930.000000	0.190994
1931.000000	0.190471
1932.000000	0.190567
1933.000000	0.191004
1934.000000	0.191248
1935.000000	0.191767
1936.000000	0.192113
1937.000000	0.192715
1938.000000	0.193475
1939.000000	0.193670
1940.000000	0.193712
1941.000000	0.193237
1942.000000	0.192938
1943.000000	0.192375
1944.000000	0.191741
1945.000000	0.192017
1946.000000	0.192229
1947.000000	0.191659
1948.000000	0.191940
1949.000000	0.192730
1950.000000	0.192264
1951.000000	0.191906
1952.000000	0.191842
1953.000000	0.191312
1954.000000	0.190022
1955.000000	0.189585
1956.000000	0.189253
1957.000000	0.189211
1958.000000	0.189510
1959.000000	0.189896
1960.000000	0.190053
1961.000000	0.189716
1962.000000	0.189392
1963.000000	0.188771
1964.000000	0.188222
1965.000000	0.187817
1966.000000	0.188020
1967.000000	0.188631
1968.000000	0.188864
1969.000000	0.189372
1970.000000	0.189623
1971.000000	0.189083
1972.000000	0.188733
1973.000000	0.188416
1974.000000	0.187762
1975.000000	0.187665
1976.000000	0.187877
1977.000000	0.188464
1978.000000	0.189084
1979.000000	0.189880
1980.000000	0.190757
1981.000000	0.191468
1982.000000	0.192213
1983.000000	0.192747
1984.000000	0.192954
1985.000000	0.192656
1986.000000	0.192806
1987.000000	0.192760
1988.000000	0.193287
1989.000000	0.194349
1990.000000	0.194936
1991.000000	0.194989
1992.000000	0.194823
1993.000000	0.194716
1994.000000	0.195269
1995.000000	0.196548
1996.000000	0.197884
1997.000000	0.198667
1998.000000	0.199080
1999.000000	0.199760
2000.000000	0.200095
2001.000000	0.200607
2002.000000	0.202209
2003.000000	0.203304
2004.000000	0.204312
2005.000000	0.205121
2006.000000	0.205340
2007.000000	0.206021
2008.000000	0.206946
2009.000000	0.208329
2010.000000	0.209379
2011.000000	0.210437
2012.000000	0.211320
2013.000000	0.211961
2014.000000	0.212367
2015.000000	0.213049
2016.000000	0.214090
2017.000000	0.215141
2018.000000	0.215632
2019.000000	0.216199
2020.000000	0.217072
2021.000000	0.218106
2022.000000	0.219477
2023.000000	0.220714
2024.000000	0.222221
2025.000000	0.223228
2026.000000	0.223734
2027.000000	0.224383
2028.000000	0.225029
2029.000000	0.226091
2030.000000	0.227220
2031.000000	0.227810
2032.000000	0.228638
2033.000000	0.229407
2034.000000	0.229866
2035.000000	0.230179
2036.000000	0.230537
2037.000000	0.230622
2038.000000	0.231201
2039.000000	0.231913
2040.000000	0.233177
2041.000000	0.234908
2042.000000	0.235919
2043.000000	0.236940
2044.000000	0.237774
2045.000000	0.238033
2046.000000	0.238519
2047.000000	0.239215
2048.000000	0.240131
2049.000000	0.240953
2050.000000	0.241601
2051.000000	0.242270
2052.000000	0.242694
2053.000000	0.243106
2054.000000	0.243822
2055.000000	0.244496
2056.000000	0.244979
2057.000000	0.245621
2058.000000	0.246365
2059.000000	0.247132
2060.000000	0.248040
2061.000000	0.249125
2062.000000	0.250177
2063.000000	0.251637
2064.000000	0.252383
2065.000000	0.253291
2066.000000	0.253413
2067.000000	0.252769
2068.000000	0.252550
2069.000000	0.252651
2070.000000	0.252937
2071.000000	0.253796
2072.000000	0.254643
2073.000000	0.255131
2074.000000	0.255483
2075.000000	0.256323
2076.000000	0.257683
2077.000000	0.258676
2078.000000	0.259962
2079.000000	0.260684
2080.000000	0.260922
2081.000000	0.261229
2082.000000	0.261033
2083.000000	0.261460
2084.000000	0.262112
2085.000000	0.263257
2086.000000	0.265009
2087.000000	0.266477
2088.000000	0.267220
2089.000000	0.267756
2090.000000	0.268294
2091.000000	0.268174
2092.000000	0.268607
2093.000000	0.269456
2094.000000	0.270080
2095.000000	0.270768
2096.000000	0.271600
2097.000000	0.272422
2098.000000	0.273250
2099.000000	0.274034
2100.000000	0.274543
2101.000000	0.275088
2102.000000	0.275149
2103.000000	0.275303
2104.000000	0.275330
2105.000000	0.275693
2106.000000	0.276046
2107.000000	0.276807
2108.000000	0.278424
2109.000000	0.279155
2110.000000	0.279367
2111.000000	0.279761
2112.000000	0.279854
2113.000000	0.279391
2114.000000	0.279767
2115.000000	0.280849
2116.000000	0.281313
2117.000000	0.281942
2118.000000	0.282408
2119.000000	0.282203
2120.000000	0.282680
2121.000000	0.283485
2122.000000	0.284211
2123.000000	0.285410
2124.000000	0.286037
2125.000000	0.286321
2126.000000	0.286422
2127.000000	0.286092
2128.000000	0.286126
2129.000000	0.285934
2130.000000	0.286277
2131.000000	0.286263
2132.000000	0.286483
2133.000000	0.286592
2134.000000	0.286319
2135.000000	0.286972
2136.000000	0.287386
2137.000000	0.287446
2138.000000	0.287465
2139.000000	0.287680
2140.000000	0.287408
2141.000000	0.287479
2142.000000	0.288113
2143.000000	0.288164
2144.000000	0.288105
2145.000000	0.288148
2146.000000	0.288295
2147.000000	0.288522
2148.000000	0.288320
2149.000000	0.287728
2150.000000	0.287161
2151.000000	0.287170
2152.000000	0.287399
2153.000000	0.287206
2154.000000	0.286837
2155.000000	0.286052
2156.000000	0.285613
2157.000000	0.284975
2158.000000	0.285019
2159.000000	0.285607
2160.000000	0.286198
2161.000000	0.287691
2162.000000	0.288079
2163.000000	0.287893
2164.000000	0.287627
2165.000000	0.286183
2166.000000	0.285337
2167.000000	0.286226
2168.000000	0.287096
2169.000000	0.288502
2170.000000	0.289658
2171.000000	0.290016
2172.000000	0.289349
2173.000000	0.289059
2174.000000	0.288442
2175.000000	0.288148
2176.000000	0.287812
2177.000000	0.287952
2178.000000	0.288581
2179.000000	0.288912
2180.000000	0.289167
2181.000000	0.289644
2182.000000	0.289008
2183.000000	0.289921
2184.000000	0.291324
2185.000000	0.291793
2186.000000	0.293395
2187.000000	0.293734
2188.000000	0.292166
2189.000000	0.291751
2190.000000	0.288916
2191.000000	0.287459
2192.000000	0.286949
2193.000000	0.287443
2194.000000	0.287374
2195.000000	0.289126
2196.000000	0.288566
2197.000000	0.285928
2198.000000	0.284799
2199.000000	0.282961
2200.000000	0.282420
2201.000000	0.283261
2202.000000	0.284285
2203.000000	0.285754
2204.000000	0.288291
2205.000000	0.289753
2206.000000	0.291590
2207.000000	0.291017
2208.000000	0.287692
2209.000000	0.285721
2210.000000	0.284116
2211.000000	0.282451
2212.000000	0.281556
2213.000000	0.281406
2214.000000	0.280826
2215.000000	0.281377
2216.000000	0.285064
2217.000000	0.285629
2218.000000	0.284452
2219.000000	0.284577
2220.000000	0.283214
2221.000000	0.283607
2222.000000	0.286973
2223.000000	0.288202
2224.000000	0.288570
2225.000000	0.289265
2226.000000	0.289216
2227.000000	0.286908
2228.000000	0.287636
2229.000000	0.286815
2230.000000	0.286754
2231.000000	0.289474
2232.000000	0.289171
2233.000000	0.289533
2234.000000	0.288550
2235.000000	0.285567
2236.000000	0.284653
2237.000000	0.283809
2238.000000	0.284351
2239.000000	0.287352
2240.000000	0.288203
2241.000000	0.288992
2242.000000	0.288651
2243.000000	0.285654
2244.000000	0.285284
2245.000000	0.286554
2246.000000	0.287527
2247.000000	0.290041
2248.000000	0.290434
2249.000000	0.290811
2250.000000	0.287123
2251.000000	0.284246
2252.000000	0.285141
2253.000000	0.285769
2254.000000	0.286436
2255.000000	0.285737
2256.000000	0.284396
2257.000000	0.285363
2258.000000	0.286395
2259.000000	0.287326
2260.000000	0.289689
2261.000000	0.289422
2262.000000	0.286583
2263.000000	0.284607
2264.000000	0.281472
2265.000000	0.280149
2266.000000	0.279848
2267.000000	0.279277
2268.000000	0.278932
2269.000000	0.278785
2270.000000	0.278980
2271.000000	0.278448
2272.000000	0.278666
2273.000000	0.278878
2274.000000	0.277481
2275.000000	0.276668
2276.000000	0.277590
2277.000000	0.275589
2278.000000	0.272905
2279.000000	0.273381
2280.000000	0.272704
2281.000000	0.272838
2282.000000	0.273337
2283.000000	0.272424
2284.000000	0.270969
2285.000000	0.271595
2286.000000	0.272390
2287.000000	0.272170
2288.000000	0.272972
2289.000000	0.272026
2290.000000	0.270872
2291.000000	0.269398
2292.000000	0.267708
2293.000000	0.265627
2294.000000	0.264323
2295.000000	0.263817
2296.000000	0.263607
2297.000000	0.263647
2298.000000	0.263983
2299.000000	0.264178
2300.000000	0.264930
2301.000000	0.266564
2302.000000	0.267620
2303.000000	0.269451
2304.000000	0.269652
2305.000000	0.269050
2306.000000	0.268373
2307.000000	0.266000
2308.000000	0.265530
2309.000000	0.265416
2310.000000	0.264537
2311.000000	0.265734
2312.000000	0.266058
2313.000000	0.266871
2314.000000	0.266839
2315.000000	0.265485
2316.000000	0.264507
2317.000000	0.260935
2318.000000	0.257526
2319.000000	0.255679
2320.000000	0.254673
2321.000000	0.255965
2322.000000	0.258420
2323.000000	0.259265
2324.000000	0.257750
2325.000000	0.255696
2326.000000	0.254325
2327.000000	0.253869
2328.000000	0.254284
2329.000000	0.255026
2330.000000	0.255151
2331.000000	0.254050
2332.000000	0.251516
2333.000000	0.249907
2334.000000	0.247272
2335.000000	0.245614
2336.000000	0.245345
2337.000000	0.244171
2338.000000	0.241878
2339.000000	0.241600
2340.000000	0.241669
2341.000000	0.241192
2342.000000	0.241796
2343.000000	0.241791
2344.000000	0.241620
2345.000000	0.241253
2346.000000	0.241855
2347.000000	0.240968
2348.000000	0.239309
2349.000000	0.234994
2350.000000	0.231134
2351.000000	0.227542
2352.000000	0.225148
2353.000000	0.225556
2354.000000	0.225816
2355.000000	0.226752
2356.000000	0.227104
2357.000000	0.226463
2358.000000	0.224186
2359.000000	0.224008
2360.000000	0.223555
2361.000000	0.220367
2362.000000	0.218653
2363.000000	0.212312
2364.000000	0.207452
2365.000000	0.204605
2366.000000	0.202603
2367.000000	0.204060
2368.000000	0.204139
2369.000000	0.206209
2370.000000	0.206842
2371.000000	0.207358
2372.000000	0.205590
2373.000000	0.201802
2374.000000	0.203321
2375.000000	0.206817
2376.000000	0.215398
2377.000000	0.220477
2378.000000	0.219243
2379.000000	0.221036
2380.000000	0.219671
2381.000000	0.218488
2382.000000	0.221670
2383.000000	0.219798
2384.000000	0.213366
2385.000000	0.207848
2386.000000	0.202586
2387.000000	0.197309
2388.000000	0.196520
2389.000000	0.198129
2390.000000	0.197635
2391.000000	0.197938
2392.000000	0.196719
2393.000000	0.199482
2394.000000	0.203450
2395.000000	0.203072
2396.000000	0.201872
2397.000000	0.197329
2398.000000	0.191167
2399.000000	0.186176
2400.000000	0.186140
2401.000000	0.185992
2402.000000	0.181408
2403.000000	0.180658
2404.000000	0.178142
2405.000000	0.175156
2406.000000	0.181611
2407.000000	0.189906
2408.000000	0.197981
2409.000000	0.202110
2410.000000	0.206994
2411.000000	0.207284
2412.000000	0.201033
2413.000000	0.201387
2414.000000	0.197640
2415.000000	0.198474
2416.000000	0.205224
2417.000000	0.213746
2418.000000	0.219646
2419.000000	0.209199
2420.000000	0.197664
2421.000000	0.182440
2422.000000	0.169977
2423.000000	0.168406
2424.000000	0.166744
2425.000000	0.168428
2426.000000	0.168023
2427.000000	0.172074
2428.000000	0.177113
2429.000000	0.186913
2430.000000	0.197933
2431.000000	0.195976
2432.000000	0.199867
2433.000000	0.192235
2434.000000	0.177264
2435.000000	0.168043
2436.000000	0.157274
2437.000000	0.152316
2438.000000	0.150874
2439.000000	0.145629
2440.000000	0.146270
2441.000000	0.158273
2442.000000	0.166830
2443.000000	0.183835
2444.000000	0.193692
2445.000000	0.185121
2446.000000	0.180080
2447.000000	0.174909
2448.000000	0.174835
2449.000000	0.172638
2450.000000	0.170234
2451.000000	0.156058
2452.000000	0.138147
2453.000000	0.144855
2454.000000	0.158092
2455.000000	0.180625
2456.000000	0.189069
2457.000000	0.166936
2458.000000	0.136727
2459.000000	0.123858
2460.000000	0.126819
2461.000000	0.141658
2462.000000	0.167420
2463.000000	0.170208
2464.000000	0.169299
2465.000000	0.178844
2466.000000	0.182984
2467.000000	0.186288
2468.000000	0.186627
2469.000000	0.182575
2470.000000	0.177049
2471.000000	0.172346
2472.000000	0.173926
2473.000000	0.172382
2474.000000	0.159257
2475.000000	0.167379
2476.000000	0.175857
2477.000000	0.175100
2478.000000	0.199861
2479.000000	0.191455
2480.000000	0.170456
2481.000000	0.185174
2482.000000	0.178919
2483.000000	0.167884
2484.000000	0.165938
2485.000000	0.137920
2486.000000	0.131806
2487.000000	0.168355
2488.000000	0.181049
2489.000000	0.162312
2490.000000	0.165748
2491.000000	0.200029
2492.000000	0.198970
2493.000000	0.229108
2494.000000	0.211644
2495.000000	0.054603
2496.000000	-0.010493
2497.000000	0.015872
2498.000000	0.003613
2499.000000	-0.015225
2500.000000	0.007631
