# Wavelength	NAu-1-70_HEX-20_FV7-10_00001.asd.rts.txt
350.000000	0.088375
351.000000	0.095669
352.000000	0.100984
353.000000	0.109275
354.000000	0.118892
355.000000	0.106253
356.000000	0.099767
357.000000	0.107421
358.000000	0.123159
359.000000	0.126016
360.000000	0.115240
361.000000	0.098303
362.000000	0.104403
363.000000	0.108510
364.000000	0.098101
365.000000	0.101480
366.000000	0.100437
367.000000	0.093193
368.000000	0.091835
369.000000	0.093991
370.000000	0.096662
371.000000	0.097373
372.000000	0.103145
373.000000	0.107360
374.000000	0.106726
375.000000	0.108859
376.000000	0.108382
377.000000	0.105736
378.000000	0.106921
379.000000	0.110591
380.000000	0.111364
381.000000	0.104771
382.000000	0.103324
383.000000	0.107251
384.000000	0.112831
385.000000	0.109196
386.000000	0.108493
387.000000	0.112578
388.000000	0.112133
389.000000	0.114371
390.000000	0.118436
391.000000	0.120744
392.000000	0.119850
393.000000	0.118945
394.000000	0.120703
395.000000	0.124934
396.000000	0.126601
397.000000	0.125664
398.000000	0.128765
399.000000	0.131495
400.000000	0.133206
401.000000	0.134558
402.000000	0.135664
403.000000	0.137348
404.000000	0.139805
405.000000	0.139714
406.000000	0.140884
407.000000	0.144139
408.000000	0.145007
409.000000	0.145619
410.000000	0.146745
411.000000	0.148535
412.000000	0.149693
413.000000	0.150818
414.000000	0.152651
415.000000	0.154001
416.000000	0.154948
417.000000	0.155587
418.000000	0.155659
419.000000	0.156179
420.000000	0.157104
421.000000	0.157492
422.000000	0.157819
423.000000	0.157946
424.000000	0.157678
425.000000	0.157303
426.000000	0.157246
427.000000	0.157564
428.000000	0.157231
429.000000	0.156854
430.000000	0.156806
431.000000	0.157281
432.000000	0.157109
433.000000	0.156658
434.000000	0.157044
435.000000	0.157430
436.000000	0.157379
437.000000	0.156746
438.000000	0.156400
439.000000	0.155659
440.000000	0.154483
441.000000	0.154004
442.000000	0.153738
443.000000	0.153414
444.000000	0.152938
445.000000	0.152782
446.000000	0.152948
447.000000	0.153221
448.000000	0.153808
449.000000	0.154761
450.000000	0.156135
451.000000	0.158023
452.000000	0.160454
453.000000	0.163187
454.000000	0.165771
455.000000	0.168726
456.000000	0.171963
457.000000	0.175073
458.000000	0.178617
459.000000	0.181987
460.000000	0.184670
461.000000	0.187103
462.000000	0.189521
463.000000	0.191827
464.000000	0.193745
465.000000	0.195296
466.000000	0.196567
467.000000	0.197818
468.000000	0.199138
469.000000	0.200353
470.000000	0.201397
471.000000	0.202470
472.000000	0.203406
473.000000	0.204162
474.000000	0.205009
475.000000	0.205739
476.000000	0.206442
477.000000	0.207260
478.000000	0.207874
479.000000	0.208600
480.000000	0.209656
481.000000	0.210154
482.000000	0.210649
483.000000	0.211494
484.000000	0.212159
485.000000	0.212753
486.000000	0.213467
487.000000	0.214128
488.000000	0.214767
489.000000	0.215435
490.000000	0.216184
491.000000	0.216973
492.000000	0.217802
493.000000	0.218557
494.000000	0.219207
495.000000	0.219959
496.000000	0.220879
497.000000	0.221766
498.000000	0.222623
499.000000	0.223512
500.000000	0.224414
501.000000	0.225151
502.000000	0.225892
503.000000	0.226880
504.000000	0.227934
505.000000	0.228873
506.000000	0.229618
507.000000	0.230509
508.000000	0.231420
509.000000	0.232309
510.000000	0.233509
511.000000	0.234666
512.000000	0.235738
513.000000	0.236867
514.000000	0.237856
515.000000	0.238857
516.000000	0.240039
517.000000	0.241130
518.000000	0.242347
519.000000	0.243705
520.000000	0.244700
521.000000	0.245828
522.000000	0.247212
523.000000	0.248385
524.000000	0.249661
525.000000	0.251035
526.000000	0.252393
527.000000	0.253763
528.000000	0.255151
529.000000	0.256596
530.000000	0.257982
531.000000	0.259475
532.000000	0.261071
533.000000	0.262671
534.000000	0.264158
535.000000	0.265592
536.000000	0.267282
537.000000	0.268808
538.000000	0.270267
539.000000	0.271918
540.000000	0.273545
541.000000	0.275099
542.000000	0.276628
543.000000	0.278243
544.000000	0.279893
545.000000	0.281471
546.000000	0.282992
547.000000	0.284584
548.000000	0.286254
549.000000	0.287825
550.000000	0.289387
551.000000	0.290976
552.000000	0.292553
553.000000	0.294132
554.000000	0.295670
555.000000	0.297172
556.000000	0.298800
557.000000	0.300294
558.000000	0.301730
559.000000	0.303226
560.000000	0.304616
561.000000	0.305987
562.000000	0.307375
563.000000	0.308712
564.000000	0.310026
565.000000	0.311247
566.000000	0.312463
567.000000	0.313646
568.000000	0.314745
569.000000	0.315736
570.000000	0.316780
571.000000	0.317854
572.000000	0.318797
573.000000	0.319761
574.000000	0.320668
575.000000	0.321453
576.000000	0.322346
577.000000	0.323140
578.000000	0.323766
579.000000	0.324507
580.000000	0.325160
581.000000	0.325677
582.000000	0.326288
583.000000	0.326839
584.000000	0.327308
585.000000	0.327738
586.000000	0.328138
587.000000	0.328506
588.000000	0.328845
589.000000	0.329243
590.000000	0.329587
591.000000	0.329819
592.000000	0.330047
593.000000	0.330260
594.000000	0.330463
595.000000	0.330692
596.000000	0.330829
597.000000	0.330971
598.000000	0.331167
599.000000	0.331218
600.000000	0.331226
601.000000	0.331231
602.000000	0.331307
603.000000	0.331320
604.000000	0.331249
605.000000	0.331236
606.000000	0.331246
607.000000	0.331276
608.000000	0.331330
609.000000	0.331427
610.000000	0.331530
611.000000	0.331586
612.000000	0.331589
613.000000	0.331572
614.000000	0.331594
615.000000	0.331613
616.000000	0.331576
617.000000	0.331459
618.000000	0.331379
619.000000	0.331423
620.000000	0.331486
621.000000	0.331473
622.000000	0.331578
623.000000	0.331620
624.000000	0.331481
625.000000	0.331516
626.000000	0.331566
627.000000	0.331566
628.000000	0.331613
629.000000	0.331728
630.000000	0.331781
631.000000	0.331869
632.000000	0.331910
633.000000	0.331963
634.000000	0.332077
635.000000	0.332193
636.000000	0.332351
637.000000	0.332520
638.000000	0.332565
639.000000	0.332608
640.000000	0.332741
641.000000	0.332867
642.000000	0.333013
643.000000	0.333155
644.000000	0.333272
645.000000	0.333455
646.000000	0.333680
647.000000	0.333869
648.000000	0.333931
649.000000	0.334054
650.000000	0.334275
651.000000	0.334511
652.000000	0.334736
653.000000	0.334986
654.000000	0.335238
655.000000	0.335497
656.000000	0.335803
657.000000	0.336111
658.000000	0.336364
659.000000	0.336624
660.000000	0.336901
661.000000	0.337164
662.000000	0.337424
663.000000	0.337763
664.000000	0.338187
665.000000	0.338552
666.000000	0.338889
667.000000	0.339229
668.000000	0.339596
669.000000	0.339950
670.000000	0.340291
671.000000	0.340700
672.000000	0.341139
673.000000	0.341591
674.000000	0.342077
675.000000	0.342539
676.000000	0.342976
677.000000	0.343433
678.000000	0.343984
679.000000	0.344547
680.000000	0.345066
681.000000	0.345551
682.000000	0.346082
683.000000	0.346593
684.000000	0.347121
685.000000	0.347671
686.000000	0.348268
687.000000	0.348878
688.000000	0.349424
689.000000	0.349974
690.000000	0.350605
691.000000	0.351198
692.000000	0.351734
693.000000	0.352303
694.000000	0.352910
695.000000	0.353561
696.000000	0.354229
697.000000	0.354880
698.000000	0.355542
699.000000	0.356241
700.000000	0.356989
701.000000	0.357710
702.000000	0.358456
703.000000	0.359189
704.000000	0.359800
705.000000	0.360462
706.000000	0.361174
707.000000	0.361968
708.000000	0.362721
709.000000	0.363452
710.000000	0.364209
711.000000	0.364918
712.000000	0.365657
713.000000	0.366447
714.000000	0.367151
715.000000	0.367851
716.000000	0.368562
717.000000	0.369247
718.000000	0.369940
719.000000	0.370634
720.000000	0.371342
721.000000	0.372095
722.000000	0.372844
723.000000	0.373597
724.000000	0.374211
725.000000	0.374813
726.000000	0.375486
727.000000	0.376098
728.000000	0.376771
729.000000	0.377544
730.000000	0.378332
731.000000	0.379041
732.000000	0.379681
733.000000	0.380319
734.000000	0.380952
735.000000	0.381524
736.000000	0.382143
737.000000	0.382669
738.000000	0.383188
739.000000	0.383731
740.000000	0.384137
741.000000	0.384652
742.000000	0.385183
743.000000	0.385668
744.000000	0.386188
745.000000	0.386644
746.000000	0.387061
747.000000	0.387390
748.000000	0.387768
749.000000	0.388149
750.000000	0.388461
751.000000	0.388796
752.000000	0.389158
753.000000	0.389531
754.000000	0.389845
755.000000	0.390085
756.000000	0.390335
757.000000	0.390613
758.000000	0.390792
759.000000	0.390958
760.000000	0.391095
761.000000	0.391316
762.000000	0.391534
763.000000	0.391690
764.000000	0.391834
765.000000	0.391860
766.000000	0.391861
767.000000	0.391914
768.000000	0.391909
769.000000	0.391819
770.000000	0.391692
771.000000	0.391673
772.000000	0.391708
773.000000	0.391672
774.000000	0.391580
775.000000	0.391429
776.000000	0.391286
777.000000	0.391154
778.000000	0.390907
779.000000	0.390663
780.000000	0.390456
781.000000	0.390218
782.000000	0.389970
783.000000	0.389801
784.000000	0.389583
785.000000	0.389393
786.000000	0.389192
787.000000	0.388953
788.000000	0.388691
789.000000	0.388426
790.000000	0.388123
791.000000	0.387781
792.000000	0.387473
793.000000	0.387143
794.000000	0.386745
795.000000	0.386300
796.000000	0.385846
797.000000	0.385416
798.000000	0.385048
799.000000	0.384665
800.000000	0.384254
801.000000	0.383836
802.000000	0.383465
803.000000	0.383022
804.000000	0.382514
805.000000	0.382031
806.000000	0.381513
807.000000	0.381059
808.000000	0.380645
809.000000	0.380176
810.000000	0.379701
811.000000	0.379252
812.000000	0.378831
813.000000	0.378371
814.000000	0.377872
815.000000	0.377416
816.000000	0.376916
817.000000	0.376387
818.000000	0.375778
819.000000	0.375283
820.000000	0.374842
821.000000	0.374353
822.000000	0.373859
823.000000	0.373347
824.000000	0.372809
825.000000	0.372373
826.000000	0.371931
827.000000	0.371430
828.000000	0.370915
829.000000	0.370433
830.000000	0.369916
831.000000	0.369377
832.000000	0.368687
833.000000	0.368149
834.000000	0.367663
835.000000	0.367171
836.000000	0.366790
837.000000	0.366350
838.000000	0.365850
839.000000	0.365362
840.000000	0.364763
841.000000	0.364146
842.000000	0.363581
843.000000	0.363142
844.000000	0.362748
845.000000	0.362331
846.000000	0.361927
847.000000	0.361491
848.000000	0.361040
849.000000	0.360622
850.000000	0.360091
851.000000	0.359496
852.000000	0.358953
853.000000	0.358519
854.000000	0.358165
855.000000	0.357927
856.000000	0.357610
857.000000	0.357060
858.000000	0.356653
859.000000	0.356393
860.000000	0.355919
861.000000	0.355435
862.000000	0.355042
863.000000	0.354693
864.000000	0.354268
865.000000	0.353869
866.000000	0.353569
867.000000	0.353282
868.000000	0.352839
869.000000	0.352299
870.000000	0.351930
871.000000	0.351570
872.000000	0.351241
873.000000	0.350890
874.000000	0.350532
875.000000	0.350172
876.000000	0.349800
877.000000	0.349326
878.000000	0.348758
879.000000	0.348391
880.000000	0.348167
881.000000	0.347870
882.000000	0.347582
883.000000	0.347270
884.000000	0.346821
885.000000	0.346549
886.000000	0.346283
887.000000	0.345980
888.000000	0.345833
889.000000	0.345657
890.000000	0.345350
891.000000	0.345099
892.000000	0.344807
893.000000	0.344569
894.000000	0.344522
895.000000	0.344413
896.000000	0.344319
897.000000	0.344121
898.000000	0.343717
899.000000	0.343424
900.000000	0.343264
901.000000	0.343157
902.000000	0.343065
903.000000	0.342948
904.000000	0.342819
905.000000	0.342610
906.000000	0.342518
907.000000	0.342385
908.000000	0.342216
909.000000	0.342012
910.000000	0.341863
911.000000	0.341732
912.000000	0.341578
913.000000	0.341365
914.000000	0.341157
915.000000	0.341024
916.000000	0.340856
917.000000	0.340790
918.000000	0.340793
919.000000	0.340785
920.000000	0.340757
921.000000	0.340685
922.000000	0.340625
923.000000	0.340624
924.000000	0.340547
925.000000	0.340472
926.000000	0.340475
927.000000	0.340465
928.000000	0.340287
929.000000	0.340028
930.000000	0.339873
931.000000	0.339971
932.000000	0.339956
933.000000	0.339725
934.000000	0.339385
935.000000	0.339292
936.000000	0.339387
937.000000	0.339424
938.000000	0.339433
939.000000	0.339504
940.000000	0.339539
941.000000	0.339525
942.000000	0.339540
943.000000	0.339649
944.000000	0.339695
945.000000	0.339614
946.000000	0.339495
947.000000	0.339561
948.000000	0.339872
949.000000	0.339995
950.000000	0.340072
951.000000	0.340051
952.000000	0.339846
953.000000	0.339998
954.000000	0.340235
955.000000	0.340191
956.000000	0.339962
957.000000	0.340036
958.000000	0.340260
959.000000	0.340371
960.000000	0.340416
961.000000	0.340314
962.000000	0.340126
963.000000	0.340146
964.000000	0.340210
965.000000	0.340357
966.000000	0.340497
967.000000	0.340630
968.000000	0.340879
969.000000	0.340973
970.000000	0.340739
971.000000	0.340959
972.000000	0.341349
973.000000	0.341543
974.000000	0.341445
975.000000	0.341670
976.000000	0.342057
977.000000	0.342320
978.000000	0.342406
979.000000	0.342495
980.000000	0.342464
981.000000	0.342635
982.000000	0.343054
983.000000	0.343439
984.000000	0.343603
985.000000	0.343377
986.000000	0.343763
987.000000	0.344356
988.000000	0.344563
989.000000	0.344460
990.000000	0.344867
991.000000	0.345289
992.000000	0.345161
993.000000	0.345754
994.000000	0.346031
995.000000	0.346080
996.000000	0.346394
997.000000	0.347006
998.000000	0.347500
999.000000	0.347743
1000.000000	0.347814
1001.000000	0.348048
1002.000000	0.347641
1003.000000	0.347368
1004.000000	0.347583
1005.000000	0.347413
1006.000000	0.347604
1007.000000	0.348501
1008.000000	0.349350
1009.000000	0.349984
1010.000000	0.350049
1011.000000	0.350153
1012.000000	0.350751
1013.000000	0.350452
1014.000000	0.350195
1015.000000	0.350317
1016.000000	0.350868
1017.000000	0.351562
1018.000000	0.352311
1019.000000	0.352838
1020.000000	0.353161
1021.000000	0.353107
1022.000000	0.352814
1023.000000	0.353365
1024.000000	0.353961
1025.000000	0.354910
1026.000000	0.356061
1027.000000	0.356773
1028.000000	0.356743
1029.000000	0.356834
1030.000000	0.357364
1031.000000	0.357759
1032.000000	0.357901
1033.000000	0.358254
1034.000000	0.358964
1035.000000	0.360009
1036.000000	0.360577
1037.000000	0.361361
1038.000000	0.361826
1039.000000	0.361961
1040.000000	0.361896
1041.000000	0.361968
1042.000000	0.362384
1043.000000	0.362785
1044.000000	0.362829
1045.000000	0.363259
1046.000000	0.364225
1047.000000	0.364962
1048.000000	0.365645
1049.000000	0.366240
1050.000000	0.366864
1051.000000	0.367386
1052.000000	0.367697
1053.000000	0.368189
1054.000000	0.369179
1055.000000	0.369672
1056.000000	0.369823
1057.000000	0.370228
1058.000000	0.370866
1059.000000	0.371308
1060.000000	0.372555
1061.000000	0.373917
1062.000000	0.374596
1063.000000	0.375418
1064.000000	0.376181
1065.000000	0.376825
1066.000000	0.377321
1067.000000	0.377664
1068.000000	0.378014
1069.000000	0.377955
1070.000000	0.378415
1071.000000	0.379328
1072.000000	0.380006
1073.000000	0.381019
1074.000000	0.381696
1075.000000	0.381783
1076.000000	0.382638
1077.000000	0.383555
1078.000000	0.384098
1079.000000	0.384733
1080.000000	0.385554
1081.000000	0.386107
1082.000000	0.386511
1083.000000	0.387021
1084.000000	0.387399
1085.000000	0.388133
1086.000000	0.389226
1087.000000	0.390008
1088.000000	0.390721
1089.000000	0.391416
1090.000000	0.391780
1091.000000	0.392192
1092.000000	0.393234
1093.000000	0.394289
1094.000000	0.394952
1095.000000	0.395266
1096.000000	0.396225
1097.000000	0.397383
1098.000000	0.398164
1099.000000	0.399252
1100.000000	0.400051
1101.000000	0.399921
1102.000000	0.400487
1103.000000	0.401665
1104.000000	0.402477
1105.000000	0.403206
1106.000000	0.403962
1107.000000	0.404438
1108.000000	0.405041
1109.000000	0.405848
1110.000000	0.406708
1111.000000	0.407309
1112.000000	0.407741
1113.000000	0.408505
1114.000000	0.409241
1115.000000	0.410057
1116.000000	0.411332
1117.000000	0.412062
1118.000000	0.412280
1119.000000	0.412899
1120.000000	0.413530
1121.000000	0.414191
1122.000000	0.415215
1123.000000	0.416303
1124.000000	0.417160
1125.000000	0.417928
1126.000000	0.418706
1127.000000	0.419245
1128.000000	0.419603
1129.000000	0.419532
1130.000000	0.420203
1131.000000	0.421143
1132.000000	0.421793
1133.000000	0.422828
1134.000000	0.423568
1135.000000	0.423725
1136.000000	0.424341
1137.000000	0.425364
1138.000000	0.425955
1139.000000	0.426602
1140.000000	0.427207
1141.000000	0.427264
1142.000000	0.427797
1143.000000	0.428649
1144.000000	0.429401
1145.000000	0.429995
1146.000000	0.430622
1147.000000	0.431204
1148.000000	0.431487
1149.000000	0.431917
1150.000000	0.432414
1151.000000	0.433045
1152.000000	0.433580
1153.000000	0.434243
1154.000000	0.435150
1155.000000	0.435806
1156.000000	0.436386
1157.000000	0.436919
1158.000000	0.437220
1159.000000	0.437690
1160.000000	0.438250
1161.000000	0.438674
1162.000000	0.439108
1163.000000	0.439751
1164.000000	0.440454
1165.000000	0.440883
1166.000000	0.441414
1167.000000	0.441997
1168.000000	0.442511
1169.000000	0.442910
1170.000000	0.443508
1171.000000	0.444355
1172.000000	0.445029
1173.000000	0.445590
1174.000000	0.446191
1175.000000	0.446700
1176.000000	0.447209
1177.000000	0.447974
1178.000000	0.448513
1179.000000	0.448878
1180.000000	0.449235
1181.000000	0.449653
1182.000000	0.449900
1183.000000	0.450320
1184.000000	0.450843
1185.000000	0.451339
1186.000000	0.451885
1187.000000	0.452310
1188.000000	0.452694
1189.000000	0.453095
1190.000000	0.453484
1191.000000	0.453908
1192.000000	0.454620
1193.000000	0.455200
1194.000000	0.455494
1195.000000	0.455894
1196.000000	0.456157
1197.000000	0.456505
1198.000000	0.456958
1199.000000	0.457403
1200.000000	0.457929
1201.000000	0.458310
1202.000000	0.458629
1203.000000	0.458937
1204.000000	0.459231
1205.000000	0.459688
1206.000000	0.460128
1207.000000	0.460863
1208.000000	0.461311
1209.000000	0.461760
1210.000000	0.462176
1211.000000	0.462499
1212.000000	0.462799
1213.000000	0.463120
1214.000000	0.463504
1215.000000	0.463838
1216.000000	0.464152
1217.000000	0.464501
1218.000000	0.464773
1219.000000	0.464939
1220.000000	0.465278
1221.000000	0.465605
1222.000000	0.465802
1223.000000	0.466005
1224.000000	0.466117
1225.000000	0.466284
1226.000000	0.466583
1227.000000	0.466862
1228.000000	0.467347
1229.000000	0.467600
1230.000000	0.467736
1231.000000	0.467842
1232.000000	0.467944
1233.000000	0.468296
1234.000000	0.468800
1235.000000	0.469149
1236.000000	0.469434
1237.000000	0.469717
1238.000000	0.469793
1239.000000	0.469942
1240.000000	0.470094
1241.000000	0.470312
1242.000000	0.470574
1243.000000	0.470916
1244.000000	0.471200
1245.000000	0.471449
1246.000000	0.471661
1247.000000	0.472071
1248.000000	0.472564
1249.000000	0.473046
1250.000000	0.473346
1251.000000	0.473452
1252.000000	0.473630
1253.000000	0.473722
1254.000000	0.473938
1255.000000	0.474287
1256.000000	0.474501
1257.000000	0.474710
1258.000000	0.474994
1259.000000	0.475144
1260.000000	0.475371
1261.000000	0.475587
1262.000000	0.475781
1263.000000	0.475912
1264.000000	0.476198
1265.000000	0.476563
1266.000000	0.476765
1267.000000	0.476854
1268.000000	0.476989
1269.000000	0.477172
1270.000000	0.477364
1271.000000	0.477460
1272.000000	0.477604
1273.000000	0.477825
1274.000000	0.477900
1275.000000	0.477977
1276.000000	0.478230
1277.000000	0.478489
1278.000000	0.478472
1279.000000	0.478541
1280.000000	0.478644
1281.000000	0.478639
1282.000000	0.478665
1283.000000	0.478784
1284.000000	0.478731
1285.000000	0.478819
1286.000000	0.478944
1287.000000	0.479044
1288.000000	0.479213
1289.000000	0.479469
1290.000000	0.479494
1291.000000	0.479422
1292.000000	0.479529
1293.000000	0.479755
1294.000000	0.480006
1295.000000	0.480209
1296.000000	0.480264
1297.000000	0.480226
1298.000000	0.480297
1299.000000	0.480426
1300.000000	0.480333
1301.000000	0.480163
1302.000000	0.480068
1303.000000	0.480044
1304.000000	0.479948
1305.000000	0.480161
1306.000000	0.480131
1307.000000	0.479952
1308.000000	0.479917
1309.000000	0.479952
1310.000000	0.479888
1311.000000	0.479891
1312.000000	0.479657
1313.000000	0.479371
1314.000000	0.479163
1315.000000	0.478989
1316.000000	0.478932
1317.000000	0.478944
1318.000000	0.478880
1319.000000	0.478640
1320.000000	0.478426
1321.000000	0.478190
1322.000000	0.477913
1323.000000	0.477801
1324.000000	0.477788
1325.000000	0.477622
1326.000000	0.477464
1327.000000	0.477363
1328.000000	0.477257
1329.000000	0.477071
1330.000000	0.476965
1331.000000	0.476778
1332.000000	0.476526
1333.000000	0.476334
1334.000000	0.476234
1335.000000	0.476143
1336.000000	0.476057
1337.000000	0.475982
1338.000000	0.475911
1339.000000	0.475694
1340.000000	0.475365
1341.000000	0.475106
1342.000000	0.474799
1343.000000	0.474626
1344.000000	0.474593
1345.000000	0.474457
1346.000000	0.474494
1347.000000	0.474284
1348.000000	0.473912
1349.000000	0.473492
1350.000000	0.473054
1351.000000	0.472549
1352.000000	0.472053
1353.000000	0.471691
1354.000000	0.471373
1355.000000	0.471044
1356.000000	0.470948
1357.000000	0.470881
1358.000000	0.470760
1359.000000	0.470403
1360.000000	0.470041
1361.000000	0.469614
1362.000000	0.469294
1363.000000	0.468929
1364.000000	0.468672
1365.000000	0.468503
1366.000000	0.468179
1367.000000	0.467788
1368.000000	0.467419
1369.000000	0.467101
1370.000000	0.466563
1371.000000	0.465902
1372.000000	0.465235
1373.000000	0.464437
1374.000000	0.463630
1375.000000	0.462909
1376.000000	0.462216
1377.000000	0.461437
1378.000000	0.460566
1379.000000	0.459415
1380.000000	0.458126
1381.000000	0.456684
1382.000000	0.455171
1383.000000	0.453612
1384.000000	0.451835
1385.000000	0.450044
1386.000000	0.448103
1387.000000	0.446105
1388.000000	0.443929
1389.000000	0.441445
1390.000000	0.439068
1391.000000	0.436654
1392.000000	0.434252
1393.000000	0.431800
1394.000000	0.429432
1395.000000	0.426974
1396.000000	0.424437
1397.000000	0.421911
1398.000000	0.419291
1399.000000	0.416743
1400.000000	0.414212
1401.000000	0.411582
1402.000000	0.408978
1403.000000	0.406397
1404.000000	0.403902
1405.000000	0.401360
1406.000000	0.398678
1407.000000	0.396326
1408.000000	0.393981
1409.000000	0.391605
1410.000000	0.389617
1411.000000	0.387618
1412.000000	0.385624
1413.000000	0.383977
1414.000000	0.382493
1415.000000	0.381321
1416.000000	0.380349
1417.000000	0.379461
1418.000000	0.378799
1419.000000	0.378323
1420.000000	0.377815
1421.000000	0.377464
1422.000000	0.377095
1423.000000	0.376657
1424.000000	0.376054
1425.000000	0.375329
1426.000000	0.374402
1427.000000	0.373451
1428.000000	0.372514
1429.000000	0.371559
1430.000000	0.370836
1431.000000	0.370131
1432.000000	0.369611
1433.000000	0.369251
1434.000000	0.369155
1435.000000	0.369225
1436.000000	0.369731
1437.000000	0.370548
1438.000000	0.371632
1439.000000	0.373185
1440.000000	0.374809
1441.000000	0.376693
1442.000000	0.378661
1443.000000	0.380748
1444.000000	0.382925
1445.000000	0.384923
1446.000000	0.386784
1447.000000	0.388406
1448.000000	0.389708
1449.000000	0.391006
1450.000000	0.392129
1451.000000	0.392984
1452.000000	0.393742
1453.000000	0.394285
1454.000000	0.394654
1455.000000	0.394996
1456.000000	0.395313
1457.000000	0.395609
1458.000000	0.395933
1459.000000	0.396179
1460.000000	0.396278
1461.000000	0.396375
1462.000000	0.396408
1463.000000	0.396389
1464.000000	0.396555
1465.000000	0.396864
1466.000000	0.397213
1467.000000	0.397626
1468.000000	0.398036
1469.000000	0.398447
1470.000000	0.398776
1471.000000	0.399239
1472.000000	0.399804
1473.000000	0.400588
1474.000000	0.401367
1475.000000	0.402001
1476.000000	0.402710
1477.000000	0.403461
1478.000000	0.404194
1479.000000	0.404958
1480.000000	0.405727
1481.000000	0.406427
1482.000000	0.407016
1483.000000	0.407752
1484.000000	0.408557
1485.000000	0.409378
1486.000000	0.410289
1487.000000	0.411087
1488.000000	0.411876
1489.000000	0.412669
1490.000000	0.413178
1491.000000	0.413893
1492.000000	0.414710
1493.000000	0.415490
1494.000000	0.416255
1495.000000	0.416979
1496.000000	0.417671
1497.000000	0.418296
1498.000000	0.418874
1499.000000	0.419491
1500.000000	0.420125
1501.000000	0.420758
1502.000000	0.421430
1503.000000	0.422145
1504.000000	0.422732
1505.000000	0.423260
1506.000000	0.423777
1507.000000	0.424256
1508.000000	0.424931
1509.000000	0.425569
1510.000000	0.426119
1511.000000	0.426759
1512.000000	0.427192
1513.000000	0.427584
1514.000000	0.428037
1515.000000	0.428370
1516.000000	0.428821
1517.000000	0.429248
1518.000000	0.429696
1519.000000	0.430130
1520.000000	0.430480
1521.000000	0.430774
1522.000000	0.431158
1523.000000	0.431666
1524.000000	0.432072
1525.000000	0.432433
1526.000000	0.432741
1527.000000	0.433040
1528.000000	0.433415
1529.000000	0.433834
1530.000000	0.434111
1531.000000	0.434355
1532.000000	0.434673
1533.000000	0.434917
1534.000000	0.435207
1535.000000	0.435481
1536.000000	0.435626
1537.000000	0.436020
1538.000000	0.436436
1539.000000	0.436733
1540.000000	0.437058
1541.000000	0.437329
1542.000000	0.437667
1543.000000	0.438136
1544.000000	0.438484
1545.000000	0.438735
1546.000000	0.438994
1547.000000	0.439161
1548.000000	0.439338
1549.000000	0.439537
1550.000000	0.439603
1551.000000	0.439711
1552.000000	0.439856
1553.000000	0.440021
1554.000000	0.440298
1555.000000	0.440504
1556.000000	0.440669
1557.000000	0.440804
1558.000000	0.440975
1559.000000	0.441033
1560.000000	0.441143
1561.000000	0.441389
1562.000000	0.441452
1563.000000	0.441428
1564.000000	0.441570
1565.000000	0.441730
1566.000000	0.441727
1567.000000	0.441887
1568.000000	0.441998
1569.000000	0.442068
1570.000000	0.442215
1571.000000	0.442473
1572.000000	0.442588
1573.000000	0.442614
1574.000000	0.442647
1575.000000	0.442673
1576.000000	0.442756
1577.000000	0.442797
1578.000000	0.442877
1579.000000	0.443107
1580.000000	0.443274
1581.000000	0.443580
1582.000000	0.443720
1583.000000	0.443763
1584.000000	0.443754
1585.000000	0.443707
1586.000000	0.443772
1587.000000	0.443885
1588.000000	0.443972
1589.000000	0.444099
1590.000000	0.444173
1591.000000	0.444209
1592.000000	0.444346
1593.000000	0.444617
1594.000000	0.444710
1595.000000	0.444846
1596.000000	0.444950
1597.000000	0.444963
1598.000000	0.445036
1599.000000	0.445213
1600.000000	0.445308
1601.000000	0.445443
1602.000000	0.445532
1603.000000	0.445685
1604.000000	0.445738
1605.000000	0.445774
1606.000000	0.445784
1607.000000	0.445807
1608.000000	0.445783
1609.000000	0.445769
1610.000000	0.445677
1611.000000	0.445539
1612.000000	0.445518
1613.000000	0.445614
1614.000000	0.445736
1615.000000	0.446071
1616.000000	0.446337
1617.000000	0.446536
1618.000000	0.446706
1619.000000	0.446851
1620.000000	0.446926
1621.000000	0.446951
1622.000000	0.447161
1623.000000	0.447401
1624.000000	0.447544
1625.000000	0.447505
1626.000000	0.447483
1627.000000	0.447386
1628.000000	0.447452
1629.000000	0.447604
1630.000000	0.447825
1631.000000	0.448048
1632.000000	0.448184
1633.000000	0.448408
1634.000000	0.448544
1635.000000	0.448590
1636.000000	0.448724
1637.000000	0.448942
1638.000000	0.449002
1639.000000	0.449060
1640.000000	0.449152
1641.000000	0.449258
1642.000000	0.449443
1643.000000	0.449823
1644.000000	0.450036
1645.000000	0.450155
1646.000000	0.450274
1647.000000	0.450437
1648.000000	0.450472
1649.000000	0.450551
1650.000000	0.450669
1651.000000	0.450744
1652.000000	0.450900
1653.000000	0.451104
1654.000000	0.451315
1655.000000	0.451412
1656.000000	0.451514
1657.000000	0.451813
1658.000000	0.451894
1659.000000	0.451981
1660.000000	0.452187
1661.000000	0.452197
1662.000000	0.452381
1663.000000	0.452757
1664.000000	0.452983
1665.000000	0.453197
1666.000000	0.453386
1667.000000	0.453334
1668.000000	0.453436
1669.000000	0.453527
1670.000000	0.453599
1671.000000	0.453937
1672.000000	0.454127
1673.000000	0.454153
1674.000000	0.454309
1675.000000	0.454467
1676.000000	0.454547
1677.000000	0.454614
1678.000000	0.454735
1679.000000	0.454858
1680.000000	0.454956
1681.000000	0.455089
1682.000000	0.455163
1683.000000	0.455374
1684.000000	0.455680
1685.000000	0.455878
1686.000000	0.455937
1687.000000	0.455884
1688.000000	0.455658
1689.000000	0.455641
1690.000000	0.455636
1691.000000	0.455530
1692.000000	0.455451
1693.000000	0.455451
1694.000000	0.455592
1695.000000	0.455813
1696.000000	0.455879
1697.000000	0.455845
1698.000000	0.455637
1699.000000	0.455572
1700.000000	0.455503
1701.000000	0.455657
1702.000000	0.455851
1703.000000	0.455843
1704.000000	0.455988
1705.000000	0.456020
1706.000000	0.455792
1707.000000	0.455750
1708.000000	0.455818
1709.000000	0.455730
1710.000000	0.455760
1711.000000	0.455808
1712.000000	0.455821
1713.000000	0.455818
1714.000000	0.455936
1715.000000	0.455997
1716.000000	0.456021
1717.000000	0.456025
1718.000000	0.455895
1719.000000	0.455910
1720.000000	0.456102
1721.000000	0.456178
1722.000000	0.456344
1723.000000	0.456395
1724.000000	0.456334
1725.000000	0.456316
1726.000000	0.456142
1727.000000	0.456093
1728.000000	0.456032
1729.000000	0.455806
1730.000000	0.455723
1731.000000	0.455664
1732.000000	0.455538
1733.000000	0.455521
1734.000000	0.455440
1735.000000	0.455408
1736.000000	0.455286
1737.000000	0.455267
1738.000000	0.455409
1739.000000	0.455448
1740.000000	0.455459
1741.000000	0.455382
1742.000000	0.455223
1743.000000	0.455308
1744.000000	0.455421
1745.000000	0.455411
1746.000000	0.455509
1747.000000	0.455423
1748.000000	0.455199
1749.000000	0.454869
1750.000000	0.454630
1751.000000	0.454561
1752.000000	0.454509
1753.000000	0.454242
1754.000000	0.454216
1755.000000	0.454252
1756.000000	0.454178
1757.000000	0.454369
1758.000000	0.454337
1759.000000	0.453910
1760.000000	0.453684
1761.000000	0.453378
1762.000000	0.453221
1763.000000	0.453262
1764.000000	0.453249
1765.000000	0.453272
1766.000000	0.453291
1767.000000	0.453228
1768.000000	0.453043
1769.000000	0.452855
1770.000000	0.452869
1771.000000	0.452822
1772.000000	0.452831
1773.000000	0.453008
1774.000000	0.453002
1775.000000	0.452934
1776.000000	0.452921
1777.000000	0.452838
1778.000000	0.452810
1779.000000	0.452810
1780.000000	0.452765
1781.000000	0.452661
1782.000000	0.452597
1783.000000	0.452576
1784.000000	0.452513
1785.000000	0.452507
1786.000000	0.452602
1787.000000	0.452891
1788.000000	0.453280
1789.000000	0.453501
1790.000000	0.453591
1791.000000	0.453583
1792.000000	0.453548
1793.000000	0.453519
1794.000000	0.453416
1795.000000	0.453469
1796.000000	0.453684
1797.000000	0.453718
1798.000000	0.453667
1799.000000	0.453673
1800.000000	0.453705
1801.000000	0.453261
1802.000000	0.453667
1803.000000	0.454117
1804.000000	0.454675
1805.000000	0.455056
1806.000000	0.455348
1807.000000	0.456019
1808.000000	0.456286
1809.000000	0.455896
1810.000000	0.455884
1811.000000	0.455644
1812.000000	0.455394
1813.000000	0.455163
1814.000000	0.454764
1815.000000	0.454495
1816.000000	0.454293
1817.000000	0.454046
1818.000000	0.453866
1819.000000	0.454031
1820.000000	0.453821
1821.000000	0.453455
1822.000000	0.453237
1823.000000	0.452596
1824.000000	0.452355
1825.000000	0.452425
1826.000000	0.452369
1827.000000	0.452070
1828.000000	0.452199
1829.000000	0.451917
1830.000000	0.451867
1831.000000	0.451539
1832.000000	0.450837
1833.000000	0.450608
1834.000000	0.450362
1835.000000	0.450394
1836.000000	0.450940
1837.000000	0.451081
1838.000000	0.450947
1839.000000	0.450687
1840.000000	0.450727
1841.000000	0.451061
1842.000000	0.450972
1843.000000	0.451015
1844.000000	0.450753
1845.000000	0.449649
1846.000000	0.449218
1847.000000	0.449002
1848.000000	0.448485
1849.000000	0.447983
1850.000000	0.446951
1851.000000	0.446316
1852.000000	0.445612
1853.000000	0.444833
1854.000000	0.444194
1855.000000	0.443084
1856.000000	0.441215
1857.000000	0.439518
1858.000000	0.438934
1859.000000	0.437855
1860.000000	0.436531
1861.000000	0.435796
1862.000000	0.434701
1863.000000	0.433189
1864.000000	0.431905
1865.000000	0.431305
1866.000000	0.429641
1867.000000	0.427480
1868.000000	0.424691
1869.000000	0.421717
1870.000000	0.418678
1871.000000	0.414877
1872.000000	0.411890
1873.000000	0.408920
1874.000000	0.405924
1875.000000	0.402763
1876.000000	0.399979
1877.000000	0.395860
1878.000000	0.391145
1879.000000	0.387323
1880.000000	0.382887
1881.000000	0.378246
1882.000000	0.373763
1883.000000	0.368527
1884.000000	0.363155
1885.000000	0.356939
1886.000000	0.351283
1887.000000	0.345926
1888.000000	0.339674
1889.000000	0.332998
1890.000000	0.326315
1891.000000	0.318729
1892.000000	0.311022
1893.000000	0.304109
1894.000000	0.297456
1895.000000	0.290789
1896.000000	0.284442
1897.000000	0.278365
1898.000000	0.271959
1899.000000	0.266000
1900.000000	0.260310
1901.000000	0.254571
1902.000000	0.249299
1903.000000	0.244428
1904.000000	0.240537
1905.000000	0.237491
1906.000000	0.234615
1907.000000	0.232540
1908.000000	0.230560
1909.000000	0.228655
1910.000000	0.227399
1911.000000	0.226460
1912.000000	0.226086
1913.000000	0.225927
1914.000000	0.225420
1915.000000	0.224971
1916.000000	0.224895
1917.000000	0.224981
1918.000000	0.225417
1919.000000	0.225955
1920.000000	0.226817
1921.000000	0.227655
1922.000000	0.228160
1923.000000	0.228689
1924.000000	0.229210
1925.000000	0.229549
1926.000000	0.229868
1927.000000	0.231198
1928.000000	0.232170
1929.000000	0.233155
1930.000000	0.233913
1931.000000	0.235226
1932.000000	0.235758
1933.000000	0.236316
1934.000000	0.237126
1935.000000	0.237402
1936.000000	0.238121
1937.000000	0.239279
1938.000000	0.240747
1939.000000	0.241813
1940.000000	0.243259
1941.000000	0.243743
1942.000000	0.243603
1943.000000	0.243276
1944.000000	0.243342
1945.000000	0.243858
1946.000000	0.244371
1947.000000	0.244719
1948.000000	0.244436
1949.000000	0.244360
1950.000000	0.244916
1951.000000	0.245183
1952.000000	0.245439
1953.000000	0.246225
1954.000000	0.247032
1955.000000	0.247149
1956.000000	0.247579
1957.000000	0.247868
1958.000000	0.248240
1959.000000	0.248820
1960.000000	0.249388
1961.000000	0.250385
1962.000000	0.250921
1963.000000	0.251201
1964.000000	0.251341
1965.000000	0.251752
1966.000000	0.251964
1967.000000	0.252507
1968.000000	0.253166
1969.000000	0.253661
1970.000000	0.254126
1971.000000	0.254168
1972.000000	0.254478
1973.000000	0.254530
1974.000000	0.253999
1975.000000	0.254328
1976.000000	0.254954
1977.000000	0.255880
1978.000000	0.257448
1979.000000	0.259125
1980.000000	0.260769
1981.000000	0.262165
1982.000000	0.263219
1983.000000	0.264555
1984.000000	0.265062
1985.000000	0.264672
1986.000000	0.264961
1987.000000	0.264976
1988.000000	0.265236
1989.000000	0.267054
1990.000000	0.268594
1991.000000	0.269618
1992.000000	0.270888
1993.000000	0.271598
1994.000000	0.272310
1995.000000	0.273788
1996.000000	0.274902
1997.000000	0.275926
1998.000000	0.276972
1999.000000	0.278089
2000.000000	0.279095
2001.000000	0.280032
2002.000000	0.281010
2003.000000	0.282021
2004.000000	0.283339
2005.000000	0.284832
2006.000000	0.286511
2007.000000	0.287519
2008.000000	0.288691
2009.000000	0.289513
2010.000000	0.290637
2011.000000	0.291917
2012.000000	0.293207
2013.000000	0.294477
2014.000000	0.295314
2015.000000	0.296868
2016.000000	0.298237
2017.000000	0.299380
2018.000000	0.300826
2019.000000	0.301926
2020.000000	0.302618
2021.000000	0.303687
2022.000000	0.304908
2023.000000	0.306103
2024.000000	0.307567
2025.000000	0.308836
2026.000000	0.309918
2027.000000	0.310783
2028.000000	0.311836
2029.000000	0.313193
2030.000000	0.314570
2031.000000	0.315698
2032.000000	0.316776
2033.000000	0.317936
2034.000000	0.318955
2035.000000	0.320214
2036.000000	0.320984
2037.000000	0.321438
2038.000000	0.322088
2039.000000	0.322605
2040.000000	0.323471
2041.000000	0.323910
2042.000000	0.325086
2043.000000	0.326488
2044.000000	0.327083
2045.000000	0.328315
2046.000000	0.328940
2047.000000	0.329700
2048.000000	0.330098
2049.000000	0.331110
2050.000000	0.332083
2051.000000	0.332974
2052.000000	0.333643
2053.000000	0.334563
2054.000000	0.335863
2055.000000	0.337599
2056.000000	0.338338
2057.000000	0.338536
2058.000000	0.338519
2059.000000	0.338215
2060.000000	0.338778
2061.000000	0.340266
2062.000000	0.341295
2063.000000	0.342686
2064.000000	0.343451
2065.000000	0.344369
2066.000000	0.344895
2067.000000	0.345132
2068.000000	0.345636
2069.000000	0.346300
2070.000000	0.347046
2071.000000	0.347762
2072.000000	0.348542
2073.000000	0.349676
2074.000000	0.350460
2075.000000	0.351338
2076.000000	0.352643
2077.000000	0.353443
2078.000000	0.353625
2079.000000	0.354321
2080.000000	0.355281
2081.000000	0.356144
2082.000000	0.357050
2083.000000	0.358170
2084.000000	0.359409
2085.000000	0.359835
2086.000000	0.360660
2087.000000	0.361248
2088.000000	0.361293
2089.000000	0.362266
2090.000000	0.362607
2091.000000	0.362614
2092.000000	0.363043
2093.000000	0.363074
2094.000000	0.363750
2095.000000	0.365484
2096.000000	0.366559
2097.000000	0.367631
2098.000000	0.368684
2099.000000	0.368443
2100.000000	0.368514
2101.000000	0.368973
2102.000000	0.369354
2103.000000	0.369983
2104.000000	0.370304
2105.000000	0.370568
2106.000000	0.370180
2107.000000	0.370455
2108.000000	0.371147
2109.000000	0.371603
2110.000000	0.371799
2111.000000	0.372225
2112.000000	0.372320
2113.000000	0.372804
2114.000000	0.374018
2115.000000	0.375678
2116.000000	0.376993
2117.000000	0.378086
2118.000000	0.378384
2119.000000	0.377911
2120.000000	0.377988
2121.000000	0.378065
2122.000000	0.377986
2123.000000	0.377910
2124.000000	0.378010
2125.000000	0.377989
2126.000000	0.377789
2127.000000	0.377541
2128.000000	0.377752
2129.000000	0.377588
2130.000000	0.378454
2131.000000	0.378641
2132.000000	0.379056
2133.000000	0.379950
2134.000000	0.380213
2135.000000	0.380412
2136.000000	0.380646
2137.000000	0.380481
2138.000000	0.379148
2139.000000	0.378825
2140.000000	0.378993
2141.000000	0.379190
2142.000000	0.379609
2143.000000	0.379559
2144.000000	0.379916
2145.000000	0.379949
2146.000000	0.379788
2147.000000	0.379933
2148.000000	0.378952
2149.000000	0.378089
2150.000000	0.377916
2151.000000	0.377723
2152.000000	0.377953
2153.000000	0.377966
2154.000000	0.377693
2155.000000	0.376683
2156.000000	0.376031
2157.000000	0.375650
2158.000000	0.375285
2159.000000	0.374606
2160.000000	0.374558
2161.000000	0.374987
2162.000000	0.375344
2163.000000	0.375874
2164.000000	0.376207
2165.000000	0.376892
2166.000000	0.376704
2167.000000	0.376363
2168.000000	0.376646
2169.000000	0.376115
2170.000000	0.375533
2171.000000	0.375130
2172.000000	0.374423
2173.000000	0.374381
2174.000000	0.375058
2175.000000	0.375147
2176.000000	0.375456
2177.000000	0.375314
2178.000000	0.374499
2179.000000	0.374454
2180.000000	0.374218
2181.000000	0.374803
2182.000000	0.376188
2183.000000	0.376340
2184.000000	0.375137
2185.000000	0.374399
2186.000000	0.371819
2187.000000	0.369269
2188.000000	0.368726
2189.000000	0.368106
2190.000000	0.369535
2191.000000	0.371394
2192.000000	0.372252
2193.000000	0.373394
2194.000000	0.373655
2195.000000	0.373061
2196.000000	0.372277
2197.000000	0.370873
2198.000000	0.369218
2199.000000	0.366303
2200.000000	0.363922
2201.000000	0.360654
2202.000000	0.358996
2203.000000	0.358124
2204.000000	0.358538
2205.000000	0.358284
2206.000000	0.358100
2207.000000	0.357123
2208.000000	0.356181
2209.000000	0.358546
2210.000000	0.362934
2211.000000	0.362985
2212.000000	0.363090
2213.000000	0.363246
2214.000000	0.359337
2215.000000	0.359324
2216.000000	0.362936
2217.000000	0.364619
2218.000000	0.366864
2219.000000	0.368497
2220.000000	0.370061
2221.000000	0.370511
2222.000000	0.368935
2223.000000	0.368793
2224.000000	0.368704
2225.000000	0.369090
2226.000000	0.369453
2227.000000	0.369940
2228.000000	0.370146
2229.000000	0.369216
2230.000000	0.369653
2231.000000	0.370929
2232.000000	0.369863
2233.000000	0.370289
2234.000000	0.369388
2235.000000	0.367029
2236.000000	0.365083
2237.000000	0.361646
2238.000000	0.361110
2239.000000	0.362159
2240.000000	0.362195
2241.000000	0.364339
2242.000000	0.364340
2243.000000	0.361297
2244.000000	0.361761
2245.000000	0.364188
2246.000000	0.364826
2247.000000	0.366406
2248.000000	0.366347
2249.000000	0.363649
2250.000000	0.363151
2251.000000	0.361798
2252.000000	0.361852
2253.000000	0.361717
2254.000000	0.359853
2255.000000	0.359604
2256.000000	0.357763
2257.000000	0.355768
2258.000000	0.355829
2259.000000	0.354028
2260.000000	0.352991
2261.000000	0.352073
2262.000000	0.351367
2263.000000	0.350155
2264.000000	0.348799
2265.000000	0.347362
2266.000000	0.346202
2267.000000	0.343674
2268.000000	0.341432
2269.000000	0.338573
2270.000000	0.333531
2271.000000	0.329731
2272.000000	0.326362
2273.000000	0.322028
2274.000000	0.317039
2275.000000	0.312899
2276.000000	0.308781
2277.000000	0.304583
2278.000000	0.301268
2279.000000	0.299448
2280.000000	0.295317
2281.000000	0.293780
2282.000000	0.291793
2283.000000	0.289545
2284.000000	0.289079
2285.000000	0.287516
2286.000000	0.287643
2287.000000	0.287949
2288.000000	0.288381
2289.000000	0.289501
2290.000000	0.291148
2291.000000	0.293550
2292.000000	0.295902
2293.000000	0.297940
2294.000000	0.299496
2295.000000	0.299552
2296.000000	0.301117
2297.000000	0.302670
2298.000000	0.305604
2299.000000	0.311504
2300.000000	0.314829
2301.000000	0.317859
2302.000000	0.318978
2303.000000	0.316187
2304.000000	0.315595
2305.000000	0.315470
2306.000000	0.316741
2307.000000	0.319159
2308.000000	0.322631
2309.000000	0.326501
2310.000000	0.326870
2311.000000	0.327808
2312.000000	0.329248
2313.000000	0.326816
2314.000000	0.328075
2315.000000	0.329135
2316.000000	0.327141
2317.000000	0.329088
2318.000000	0.328650
2319.000000	0.326484
2320.000000	0.325520
2321.000000	0.322486
2322.000000	0.320978
2323.000000	0.320047
2324.000000	0.318030
2325.000000	0.317216
2326.000000	0.316223
2327.000000	0.316161
2328.000000	0.319049
2329.000000	0.319622
2330.000000	0.316958
2331.000000	0.314005
2332.000000	0.308042
2333.000000	0.304106
2334.000000	0.304045
2335.000000	0.303952
2336.000000	0.305197
2337.000000	0.305706
2338.000000	0.306720
2339.000000	0.307397
2340.000000	0.309265
2341.000000	0.308016
2342.000000	0.303592
2343.000000	0.301594
2344.000000	0.297846
2345.000000	0.296207
2346.000000	0.299236
2347.000000	0.299011
2348.000000	0.297518
2349.000000	0.295352
2350.000000	0.291722
2351.000000	0.289259
2352.000000	0.287919
2353.000000	0.286779
2354.000000	0.288528
2355.000000	0.290844
2356.000000	0.290610
2357.000000	0.289321
2358.000000	0.286622
2359.000000	0.283149
2360.000000	0.281654
2361.000000	0.280505
2362.000000	0.278665
2363.000000	0.276138
2364.000000	0.271600
2365.000000	0.269685
2366.000000	0.270088
2367.000000	0.268810
2368.000000	0.269672
2369.000000	0.270738
2370.000000	0.266538
2371.000000	0.263891
2372.000000	0.260535
2373.000000	0.255833
2374.000000	0.256880
2375.000000	0.255543
2376.000000	0.254429
2377.000000	0.255024
2378.000000	0.250754
2379.000000	0.250073
2380.000000	0.252109
2381.000000	0.252905
2382.000000	0.254114
2383.000000	0.256436
2384.000000	0.256156
2385.000000	0.251622
2386.000000	0.247432
2387.000000	0.241372
2388.000000	0.240697
2389.000000	0.246658
2390.000000	0.249570
2391.000000	0.248111
2392.000000	0.243028
2393.000000	0.236459
2394.000000	0.230850
2395.000000	0.228243
2396.000000	0.227103
2397.000000	0.221735
2398.000000	0.218607
2399.000000	0.222227
2400.000000	0.224501
2401.000000	0.229413
2402.000000	0.232662
2403.000000	0.225752
2404.000000	0.220364
2405.000000	0.219889
2406.000000	0.214402
2407.000000	0.209473
2408.000000	0.207139
2409.000000	0.199860
2410.000000	0.197618
2411.000000	0.199202
2412.000000	0.207427
2413.000000	0.219629
2414.000000	0.223460
2415.000000	0.234445
2416.000000	0.236416
2417.000000	0.227776
2418.000000	0.227790
2419.000000	0.219533
2420.000000	0.211135
2421.000000	0.205745
2422.000000	0.198649
2423.000000	0.191882
2424.000000	0.188313
2425.000000	0.191197
2426.000000	0.193697
2427.000000	0.197175
2428.000000	0.198366
2429.000000	0.200909
2430.000000	0.200614
2431.000000	0.203259
2432.000000	0.217041
2433.000000	0.218641
2434.000000	0.219113
2435.000000	0.223438
2436.000000	0.217090
2437.000000	0.214712
2438.000000	0.221673
2439.000000	0.233388
2440.000000	0.232961
2441.000000	0.232870
2442.000000	0.235639
2443.000000	0.224847
2444.000000	0.228256
2445.000000	0.224799
2446.000000	0.205865
2447.000000	0.189226
2448.000000	0.167414
2449.000000	0.158825
2450.000000	0.158100
2451.000000	0.167128
2452.000000	0.173201
2453.000000	0.171085
2454.000000	0.182326
2455.000000	0.185429
2456.000000	0.185926
2457.000000	0.183803
2458.000000	0.186075
2459.000000	0.190470
2460.000000	0.186724
2461.000000	0.194975
2462.000000	0.192577
2463.000000	0.183647
2464.000000	0.179850
2465.000000	0.173132
2466.000000	0.164335
2467.000000	0.150642
2468.000000	0.144872
2469.000000	0.144831
2470.000000	0.135562
2471.000000	0.112187
2472.000000	0.097949
2473.000000	0.103854
2474.000000	0.111972
2475.000000	0.147165
2476.000000	0.163903
2477.000000	0.139332
2478.000000	0.124821
2479.000000	0.088294
2480.000000	0.070871
2481.000000	0.076975
2482.000000	0.070622
2483.000000	0.080423
2484.000000	0.089007
2485.000000	0.110000
2486.000000	0.121111
2487.000000	0.125234
2488.000000	0.154819
2489.000000	0.180776
2490.000000	0.200896
2491.000000	0.213838
2492.000000	0.216087
2493.000000	0.179203
2494.000000	0.174611
2495.000000	0.178782
2496.000000	0.193131
2497.000000	0.235188
2498.000000	0.265770
2499.000000	0.337583
2500.000000	0.341663
