# Wavelength	NAu-1-40_HEX-10_FV7-50_00001.asd.rts.txt
350.000000	0.170472
351.000000	0.185532
352.000000	0.172020
353.000000	0.159368
354.000000	0.164366
355.000000	0.173776
356.000000	0.172461
357.000000	0.164158
358.000000	0.164282
359.000000	0.155502
360.000000	0.147102
361.000000	0.151183
362.000000	0.155697
363.000000	0.156576
364.000000	0.153387
365.000000	0.152693
366.000000	0.153974
367.000000	0.154544
368.000000	0.149715
369.000000	0.148795
370.000000	0.149685
371.000000	0.147869
372.000000	0.148247
373.000000	0.152294
374.000000	0.158314
375.000000	0.156347
376.000000	0.157379
377.000000	0.161692
378.000000	0.159352
379.000000	0.159894
380.000000	0.161904
381.000000	0.161583
382.000000	0.159445
383.000000	0.158927
384.000000	0.161279
385.000000	0.160194
386.000000	0.161751
387.000000	0.165883
388.000000	0.165686
389.000000	0.165425
390.000000	0.165708
391.000000	0.165956
392.000000	0.167779
393.000000	0.170524
394.000000	0.172756
395.000000	0.171183
396.000000	0.170742
397.000000	0.172740
398.000000	0.174015
399.000000	0.175240
400.000000	0.176309
401.000000	0.176838
402.000000	0.176819
403.000000	0.177702
404.000000	0.180241
405.000000	0.180943
406.000000	0.181884
407.000000	0.183700
408.000000	0.184217
409.000000	0.184132
410.000000	0.184470
411.000000	0.186503
412.000000	0.187880
413.000000	0.188597
414.000000	0.189150
415.000000	0.189217
416.000000	0.189372
417.000000	0.189968
418.000000	0.190927
419.000000	0.191473
420.000000	0.191529
421.000000	0.191578
422.000000	0.191943
423.000000	0.192338
424.000000	0.192401
425.000000	0.192669
426.000000	0.193023
427.000000	0.193291
428.000000	0.193544
429.000000	0.193165
430.000000	0.192470
431.000000	0.193141
432.000000	0.193394
433.000000	0.193247
434.000000	0.193541
435.000000	0.193587
436.000000	0.193613
437.000000	0.193821
438.000000	0.193568
439.000000	0.193099
440.000000	0.192784
441.000000	0.193034
442.000000	0.192837
443.000000	0.192355
444.000000	0.192725
445.000000	0.192685
446.000000	0.192547
447.000000	0.192850
448.000000	0.193592
449.000000	0.194336
450.000000	0.194884
451.000000	0.195697
452.000000	0.197028
453.000000	0.198687
454.000000	0.200110
455.000000	0.201771
456.000000	0.203521
457.000000	0.204898
458.000000	0.206887
459.000000	0.208854
460.000000	0.210198
461.000000	0.211354
462.000000	0.212545
463.000000	0.213722
464.000000	0.214839
465.000000	0.215717
466.000000	0.216434
467.000000	0.217359
468.000000	0.217998
469.000000	0.218573
470.000000	0.219484
471.000000	0.219825
472.000000	0.220107
473.000000	0.220719
474.000000	0.221358
475.000000	0.221743
476.000000	0.222020
477.000000	0.222513
478.000000	0.223121
479.000000	0.223743
480.000000	0.223999
481.000000	0.224495
482.000000	0.225029
483.000000	0.225228
484.000000	0.225668
485.000000	0.226242
486.000000	0.226865
487.000000	0.226947
488.000000	0.227174
489.000000	0.227674
490.000000	0.228205
491.000000	0.228618
492.000000	0.228972
493.000000	0.229292
494.000000	0.229824
495.000000	0.230459
496.000000	0.231042
497.000000	0.231550
498.000000	0.232084
499.000000	0.232682
500.000000	0.233123
501.000000	0.233638
502.000000	0.234243
503.000000	0.234793
504.000000	0.235432
505.000000	0.236045
506.000000	0.236526
507.000000	0.237013
508.000000	0.237579
509.000000	0.238186
510.000000	0.238716
511.000000	0.239196
512.000000	0.239721
513.000000	0.240398
514.000000	0.241133
515.000000	0.241801
516.000000	0.242247
517.000000	0.242767
518.000000	0.243449
519.000000	0.244211
520.000000	0.244923
521.000000	0.245556
522.000000	0.246140
523.000000	0.246762
524.000000	0.247436
525.000000	0.248160
526.000000	0.248960
527.000000	0.249685
528.000000	0.250333
529.000000	0.251011
530.000000	0.251853
531.000000	0.252666
532.000000	0.253284
533.000000	0.253985
534.000000	0.254738
535.000000	0.255532
536.000000	0.256422
537.000000	0.257168
538.000000	0.257857
539.000000	0.258682
540.000000	0.259437
541.000000	0.260194
542.000000	0.261037
543.000000	0.261740
544.000000	0.262460
545.000000	0.263213
546.000000	0.263969
547.000000	0.264697
548.000000	0.265450
549.000000	0.266259
550.000000	0.267060
551.000000	0.267820
552.000000	0.268478
553.000000	0.269155
554.000000	0.269904
555.000000	0.270727
556.000000	0.271503
557.000000	0.272171
558.000000	0.272853
559.000000	0.273547
560.000000	0.274199
561.000000	0.274921
562.000000	0.275737
563.000000	0.276366
564.000000	0.276933
565.000000	0.277515
566.000000	0.278129
567.000000	0.278719
568.000000	0.279261
569.000000	0.279899
570.000000	0.280500
571.000000	0.281011
572.000000	0.281469
573.000000	0.281904
574.000000	0.282344
575.000000	0.282859
576.000000	0.283359
577.000000	0.283788
578.000000	0.284178
579.000000	0.284539
580.000000	0.284928
581.000000	0.285342
582.000000	0.285678
583.000000	0.286064
584.000000	0.286460
585.000000	0.286736
586.000000	0.286990
587.000000	0.287295
588.000000	0.287690
589.000000	0.288021
590.000000	0.288247
591.000000	0.288395
592.000000	0.288635
593.000000	0.288845
594.000000	0.289014
595.000000	0.289242
596.000000	0.289463
597.000000	0.289674
598.000000	0.289799
599.000000	0.289889
600.000000	0.290010
601.000000	0.290128
602.000000	0.290256
603.000000	0.290371
604.000000	0.290487
605.000000	0.290676
606.000000	0.290798
607.000000	0.290864
608.000000	0.290985
609.000000	0.291195
610.000000	0.291399
611.000000	0.291494
612.000000	0.291606
613.000000	0.291743
614.000000	0.291895
615.000000	0.291868
616.000000	0.291873
617.000000	0.291949
618.000000	0.292074
619.000000	0.292171
620.000000	0.292223
621.000000	0.292294
622.000000	0.292330
623.000000	0.292345
624.000000	0.292367
625.000000	0.292443
626.000000	0.292481
627.000000	0.292495
628.000000	0.292677
629.000000	0.292886
630.000000	0.292996
631.000000	0.293160
632.000000	0.293328
633.000000	0.293444
634.000000	0.293475
635.000000	0.293633
636.000000	0.293856
637.000000	0.294040
638.000000	0.294087
639.000000	0.294144
640.000000	0.294297
641.000000	0.294428
642.000000	0.294542
643.000000	0.294672
644.000000	0.294854
645.000000	0.294978
646.000000	0.295095
647.000000	0.295227
648.000000	0.295355
649.000000	0.295528
650.000000	0.295728
651.000000	0.295911
652.000000	0.296043
653.000000	0.296205
654.000000	0.296438
655.000000	0.296606
656.000000	0.296781
657.000000	0.296975
658.000000	0.297111
659.000000	0.297272
660.000000	0.297476
661.000000	0.297677
662.000000	0.297858
663.000000	0.298048
664.000000	0.298204
665.000000	0.298398
666.000000	0.298614
667.000000	0.298798
668.000000	0.299032
669.000000	0.299322
670.000000	0.299639
671.000000	0.299865
672.000000	0.300085
673.000000	0.300333
674.000000	0.300640
675.000000	0.300953
676.000000	0.301230
677.000000	0.301461
678.000000	0.301703
679.000000	0.301961
680.000000	0.302227
681.000000	0.302426
682.000000	0.302687
683.000000	0.302974
684.000000	0.303317
685.000000	0.303589
686.000000	0.303835
687.000000	0.304105
688.000000	0.304390
689.000000	0.304694
690.000000	0.305035
691.000000	0.305342
692.000000	0.305644
693.000000	0.306006
694.000000	0.306353
695.000000	0.306672
696.000000	0.306992
697.000000	0.307357
698.000000	0.307644
699.000000	0.307929
700.000000	0.308279
701.000000	0.308583
702.000000	0.308909
703.000000	0.309242
704.000000	0.309511
705.000000	0.309803
706.000000	0.310077
707.000000	0.310339
708.000000	0.310678
709.000000	0.311038
710.000000	0.311369
711.000000	0.311635
712.000000	0.311903
713.000000	0.312227
714.000000	0.312588
715.000000	0.312910
716.000000	0.313183
717.000000	0.313412
718.000000	0.313627
719.000000	0.313910
720.000000	0.314312
721.000000	0.314678
722.000000	0.314954
723.000000	0.315190
724.000000	0.315378
725.000000	0.315589
726.000000	0.315882
727.000000	0.316142
728.000000	0.316450
729.000000	0.316731
730.000000	0.316899
731.000000	0.317175
732.000000	0.317439
733.000000	0.317708
734.000000	0.318060
735.000000	0.318379
736.000000	0.318697
737.000000	0.318849
738.000000	0.318945
739.000000	0.319141
740.000000	0.319349
741.000000	0.319561
742.000000	0.319753
743.000000	0.319934
744.000000	0.320244
745.000000	0.320454
746.000000	0.320614
747.000000	0.320768
748.000000	0.321020
749.000000	0.321239
750.000000	0.321321
751.000000	0.321424
752.000000	0.321538
753.000000	0.321659
754.000000	0.321758
755.000000	0.321898
756.000000	0.322042
757.000000	0.322098
758.000000	0.322216
759.000000	0.322375
760.000000	0.322485
761.000000	0.322632
762.000000	0.322705
763.000000	0.322725
764.000000	0.322869
765.000000	0.322964
766.000000	0.323022
767.000000	0.323070
768.000000	0.323080
769.000000	0.323061
770.000000	0.323023
771.000000	0.322954
772.000000	0.322939
773.000000	0.322933
774.000000	0.322968
775.000000	0.322996
776.000000	0.323017
777.000000	0.323002
778.000000	0.322871
779.000000	0.322805
780.000000	0.322808
781.000000	0.322697
782.000000	0.322687
783.000000	0.322728
784.000000	0.322560
785.000000	0.322496
786.000000	0.322455
787.000000	0.322380
788.000000	0.322320
789.000000	0.322296
790.000000	0.322271
791.000000	0.322221
792.000000	0.322144
793.000000	0.322042
794.000000	0.321937
795.000000	0.321878
796.000000	0.321798
797.000000	0.321704
798.000000	0.321700
799.000000	0.321631
800.000000	0.321536
801.000000	0.321501
802.000000	0.321518
803.000000	0.321432
804.000000	0.321240
805.000000	0.321103
806.000000	0.320884
807.000000	0.320694
808.000000	0.320598
809.000000	0.320529
810.000000	0.320447
811.000000	0.320301
812.000000	0.320062
813.000000	0.319808
814.000000	0.319578
815.000000	0.319396
816.000000	0.319222
817.000000	0.319059
818.000000	0.318852
819.000000	0.318781
820.000000	0.318686
821.000000	0.318457
822.000000	0.318224
823.000000	0.318134
824.000000	0.318065
825.000000	0.317932
826.000000	0.317790
827.000000	0.317572
828.000000	0.317318
829.000000	0.317152
830.000000	0.316971
831.000000	0.316811
832.000000	0.316606
833.000000	0.316399
834.000000	0.316233
835.000000	0.316137
836.000000	0.315946
837.000000	0.315694
838.000000	0.315460
839.000000	0.315309
840.000000	0.315159
841.000000	0.314994
842.000000	0.314781
843.000000	0.314555
844.000000	0.314383
845.000000	0.314232
846.000000	0.314042
847.000000	0.313833
848.000000	0.313617
849.000000	0.313423
850.000000	0.313139
851.000000	0.312860
852.000000	0.312666
853.000000	0.312491
854.000000	0.312359
855.000000	0.312319
856.000000	0.312207
857.000000	0.311884
858.000000	0.311699
859.000000	0.311684
860.000000	0.311543
861.000000	0.311401
862.000000	0.311284
863.000000	0.311103
864.000000	0.310858
865.000000	0.310565
866.000000	0.310297
867.000000	0.310144
868.000000	0.310078
869.000000	0.309927
870.000000	0.309619
871.000000	0.309435
872.000000	0.309308
873.000000	0.309123
874.000000	0.308980
875.000000	0.308709
876.000000	0.308395
877.000000	0.308153
878.000000	0.307958
879.000000	0.307748
880.000000	0.307405
881.000000	0.307217
882.000000	0.307124
883.000000	0.307013
884.000000	0.306720
885.000000	0.306580
886.000000	0.306350
887.000000	0.305977
888.000000	0.305786
889.000000	0.305578
890.000000	0.305324
891.000000	0.305247
892.000000	0.305092
893.000000	0.304939
894.000000	0.304907
895.000000	0.304724
896.000000	0.304521
897.000000	0.304329
898.000000	0.304154
899.000000	0.304024
900.000000	0.303882
901.000000	0.303670
902.000000	0.303458
903.000000	0.303185
904.000000	0.302930
905.000000	0.302703
906.000000	0.302613
907.000000	0.302493
908.000000	0.302306
909.000000	0.301999
910.000000	0.301773
911.000000	0.301652
912.000000	0.301578
913.000000	0.301282
914.000000	0.301012
915.000000	0.300844
916.000000	0.300565
917.000000	0.300380
918.000000	0.300325
919.000000	0.300325
920.000000	0.300196
921.000000	0.299851
922.000000	0.299489
923.000000	0.299395
924.000000	0.299280
925.000000	0.299039
926.000000	0.298731
927.000000	0.298548
928.000000	0.298465
929.000000	0.298422
930.000000	0.298345
931.000000	0.298197
932.000000	0.297946
933.000000	0.297647
934.000000	0.297345
935.000000	0.297035
936.000000	0.296771
937.000000	0.296507
938.000000	0.296313
939.000000	0.296256
940.000000	0.296294
941.000000	0.296418
942.000000	0.295986
943.000000	0.295676
944.000000	0.295717
945.000000	0.295659
946.000000	0.295404
947.000000	0.295149
948.000000	0.295047
949.000000	0.294812
950.000000	0.294695
951.000000	0.294668
952.000000	0.294536
953.000000	0.294178
954.000000	0.293966
955.000000	0.294029
956.000000	0.293925
957.000000	0.293858
958.000000	0.293759
959.000000	0.293608
960.000000	0.293476
961.000000	0.293419
962.000000	0.293349
963.000000	0.293091
964.000000	0.292986
965.000000	0.292985
966.000000	0.292865
967.000000	0.292700
968.000000	0.292353
969.000000	0.291953
970.000000	0.291834
971.000000	0.291724
972.000000	0.291714
973.000000	0.291710
974.000000	0.291557
975.000000	0.291425
976.000000	0.291330
977.000000	0.291220
978.000000	0.290947
979.000000	0.291018
980.000000	0.291125
981.000000	0.291085
982.000000	0.290744
983.000000	0.290517
984.000000	0.290606
985.000000	0.290766
986.000000	0.290819
987.000000	0.290834
988.000000	0.290730
989.000000	0.290350
990.000000	0.290270
991.000000	0.290522
992.000000	0.290865
993.000000	0.290692
994.000000	0.290336
995.000000	0.290203
996.000000	0.290284
997.000000	0.290468
998.000000	0.290429
999.000000	0.290185
1000.000000	0.290028
1001.000000	0.290612
1002.000000	0.290533
1003.000000	0.289496
1004.000000	0.288941
1005.000000	0.288812
1006.000000	0.288750
1007.000000	0.288702
1008.000000	0.288816
1009.000000	0.289049
1010.000000	0.288043
1011.000000	0.287612
1012.000000	0.288018
1013.000000	0.288089
1014.000000	0.288434
1015.000000	0.288347
1016.000000	0.288271
1017.000000	0.288969
1018.000000	0.289981
1019.000000	0.290127
1020.000000	0.289982
1021.000000	0.289664
1022.000000	0.288472
1023.000000	0.288402
1024.000000	0.288879
1025.000000	0.289711
1026.000000	0.289876
1027.000000	0.289891
1028.000000	0.289906
1029.000000	0.290125
1030.000000	0.291035
1031.000000	0.291495
1032.000000	0.291600
1033.000000	0.291275
1034.000000	0.291131
1035.000000	0.290655
1036.000000	0.290753
1037.000000	0.291444
1038.000000	0.291504
1039.000000	0.291583
1040.000000	0.291486
1041.000000	0.291328
1042.000000	0.291467
1043.000000	0.292085
1044.000000	0.292584
1045.000000	0.292944
1046.000000	0.293387
1047.000000	0.293905
1048.000000	0.294809
1049.000000	0.294873
1050.000000	0.294303
1051.000000	0.294322
1052.000000	0.294069
1053.000000	0.294011
1054.000000	0.294784
1055.000000	0.295242
1056.000000	0.295533
1057.000000	0.295634
1058.000000	0.295985
1059.000000	0.295823
1060.000000	0.296320
1061.000000	0.297012
1062.000000	0.297407
1063.000000	0.298106
1064.000000	0.298244
1065.000000	0.297439
1066.000000	0.297525
1067.000000	0.297684
1068.000000	0.298077
1069.000000	0.299208
1070.000000	0.299687
1071.000000	0.300116
1072.000000	0.300293
1073.000000	0.299808
1074.000000	0.299946
1075.000000	0.300310
1076.000000	0.300384
1077.000000	0.300620
1078.000000	0.300819
1079.000000	0.301208
1080.000000	0.301599
1081.000000	0.302071
1082.000000	0.302998
1083.000000	0.303458
1084.000000	0.303681
1085.000000	0.304009
1086.000000	0.304184
1087.000000	0.304508
1088.000000	0.304900
1089.000000	0.305146
1090.000000	0.305408
1091.000000	0.305429
1092.000000	0.305726
1093.000000	0.305936
1094.000000	0.306109
1095.000000	0.306259
1096.000000	0.306574
1097.000000	0.306751
1098.000000	0.307215
1099.000000	0.307963
1100.000000	0.308582
1101.000000	0.309315
1102.000000	0.309793
1103.000000	0.310109
1104.000000	0.310453
1105.000000	0.310629
1106.000000	0.310857
1107.000000	0.311014
1108.000000	0.311246
1109.000000	0.311515
1110.000000	0.311844
1111.000000	0.312237
1112.000000	0.312831
1113.000000	0.313120
1114.000000	0.313345
1115.000000	0.313526
1116.000000	0.313415
1117.000000	0.313641
1118.000000	0.314000
1119.000000	0.314317
1120.000000	0.314846
1121.000000	0.315169
1122.000000	0.315443
1123.000000	0.315904
1124.000000	0.316178
1125.000000	0.316444
1126.000000	0.316758
1127.000000	0.316895
1128.000000	0.316920
1129.000000	0.316715
1130.000000	0.316916
1131.000000	0.317214
1132.000000	0.317439
1133.000000	0.317910
1134.000000	0.318269
1135.000000	0.318475
1136.000000	0.318665
1137.000000	0.318871
1138.000000	0.319066
1139.000000	0.319149
1140.000000	0.319478
1141.000000	0.320154
1142.000000	0.320441
1143.000000	0.320483
1144.000000	0.320726
1145.000000	0.320708
1146.000000	0.320490
1147.000000	0.320611
1148.000000	0.320876
1149.000000	0.321025
1150.000000	0.321221
1151.000000	0.321459
1152.000000	0.321677
1153.000000	0.321855
1154.000000	0.322068
1155.000000	0.322136
1156.000000	0.322013
1157.000000	0.322047
1158.000000	0.322028
1159.000000	0.322093
1160.000000	0.322146
1161.000000	0.322341
1162.000000	0.322737
1163.000000	0.323210
1164.000000	0.323533
1165.000000	0.323967
1166.000000	0.324264
1167.000000	0.324377
1168.000000	0.324490
1169.000000	0.324661
1170.000000	0.324715
1171.000000	0.324589
1172.000000	0.324727
1173.000000	0.324927
1174.000000	0.325083
1175.000000	0.325344
1176.000000	0.325485
1177.000000	0.325619
1178.000000	0.325715
1179.000000	0.325814
1180.000000	0.325797
1181.000000	0.325700
1182.000000	0.325665
1183.000000	0.325759
1184.000000	0.325893
1185.000000	0.326066
1186.000000	0.326417
1187.000000	0.326512
1188.000000	0.326509
1189.000000	0.326510
1190.000000	0.326405
1191.000000	0.326473
1192.000000	0.326767
1193.000000	0.326993
1194.000000	0.327081
1195.000000	0.327252
1196.000000	0.327469
1197.000000	0.327518
1198.000000	0.327554
1199.000000	0.327597
1200.000000	0.327482
1201.000000	0.327330
1202.000000	0.327433
1203.000000	0.327638
1204.000000	0.327680
1205.000000	0.327712
1206.000000	0.327777
1207.000000	0.327883
1208.000000	0.327892
1209.000000	0.327984
1210.000000	0.328074
1211.000000	0.328070
1212.000000	0.328127
1213.000000	0.328388
1214.000000	0.328500
1215.000000	0.328415
1216.000000	0.328469
1217.000000	0.328526
1218.000000	0.328570
1219.000000	0.328670
1220.000000	0.328879
1221.000000	0.328923
1222.000000	0.328980
1223.000000	0.329197
1224.000000	0.329286
1225.000000	0.329176
1226.000000	0.329104
1227.000000	0.328981
1228.000000	0.328969
1229.000000	0.329053
1230.000000	0.329444
1231.000000	0.329447
1232.000000	0.329399
1233.000000	0.329526
1234.000000	0.329592
1235.000000	0.329643
1236.000000	0.329704
1237.000000	0.329771
1238.000000	0.329719
1239.000000	0.329671
1240.000000	0.329670
1241.000000	0.329635
1242.000000	0.329597
1243.000000	0.329558
1244.000000	0.329602
1245.000000	0.329729
1246.000000	0.329773
1247.000000	0.329897
1248.000000	0.329946
1249.000000	0.329945
1250.000000	0.329986
1251.000000	0.329889
1252.000000	0.329885
1253.000000	0.330025
1254.000000	0.330038
1255.000000	0.329990
1256.000000	0.330024
1257.000000	0.330031
1258.000000	0.330096
1259.000000	0.330178
1260.000000	0.330276
1261.000000	0.330318
1262.000000	0.330398
1263.000000	0.330570
1264.000000	0.330678
1265.000000	0.330672
1266.000000	0.330610
1267.000000	0.330566
1268.000000	0.330547
1269.000000	0.330500
1270.000000	0.330610
1271.000000	0.330579
1272.000000	0.330469
1273.000000	0.330571
1274.000000	0.330608
1275.000000	0.330633
1276.000000	0.330768
1277.000000	0.330877
1278.000000	0.330801
1279.000000	0.330789
1280.000000	0.330787
1281.000000	0.330663
1282.000000	0.330491
1283.000000	0.330509
1284.000000	0.330498
1285.000000	0.330498
1286.000000	0.330610
1287.000000	0.330534
1288.000000	0.330517
1289.000000	0.330456
1290.000000	0.330316
1291.000000	0.330383
1292.000000	0.330481
1293.000000	0.330499
1294.000000	0.330596
1295.000000	0.330669
1296.000000	0.330603
1297.000000	0.330487
1298.000000	0.330434
1299.000000	0.330408
1300.000000	0.330354
1301.000000	0.330456
1302.000000	0.330481
1303.000000	0.330576
1304.000000	0.330588
1305.000000	0.330773
1306.000000	0.330787
1307.000000	0.330698
1308.000000	0.330685
1309.000000	0.330653
1310.000000	0.330532
1311.000000	0.330282
1312.000000	0.330345
1313.000000	0.330465
1314.000000	0.330407
1315.000000	0.330403
1316.000000	0.330287
1317.000000	0.329997
1318.000000	0.329815
1319.000000	0.329601
1320.000000	0.329582
1321.000000	0.329625
1322.000000	0.329523
1323.000000	0.329560
1324.000000	0.329640
1325.000000	0.329559
1326.000000	0.329406
1327.000000	0.329295
1328.000000	0.329305
1329.000000	0.329244
1330.000000	0.329186
1331.000000	0.329227
1332.000000	0.329410
1333.000000	0.329383
1334.000000	0.329403
1335.000000	0.329413
1336.000000	0.329238
1337.000000	0.329184
1338.000000	0.329126
1339.000000	0.329121
1340.000000	0.329212
1341.000000	0.329374
1342.000000	0.329497
1343.000000	0.329564
1344.000000	0.329612
1345.000000	0.329414
1346.000000	0.329389
1347.000000	0.329450
1348.000000	0.329343
1349.000000	0.329179
1350.000000	0.329046
1351.000000	0.328921
1352.000000	0.328803
1353.000000	0.328703
1354.000000	0.328694
1355.000000	0.328529
1356.000000	0.328355
1357.000000	0.328200
1358.000000	0.328082
1359.000000	0.327998
1360.000000	0.327907
1361.000000	0.327919
1362.000000	0.327872
1363.000000	0.327771
1364.000000	0.327682
1365.000000	0.327536
1366.000000	0.327470
1367.000000	0.327423
1368.000000	0.327346
1369.000000	0.327505
1370.000000	0.327466
1371.000000	0.327240
1372.000000	0.326981
1373.000000	0.326719
1374.000000	0.326546
1375.000000	0.326304
1376.000000	0.326170
1377.000000	0.325961
1378.000000	0.325567
1379.000000	0.325283
1380.000000	0.325035
1381.000000	0.324759
1382.000000	0.324605
1383.000000	0.324393
1384.000000	0.324033
1385.000000	0.323551
1386.000000	0.322942
1387.000000	0.322450
1388.000000	0.322010
1389.000000	0.321604
1390.000000	0.321235
1391.000000	0.320732
1392.000000	0.320333
1393.000000	0.319836
1394.000000	0.319303
1395.000000	0.318762
1396.000000	0.318214
1397.000000	0.317592
1398.000000	0.316862
1399.000000	0.316265
1400.000000	0.315687
1401.000000	0.314999
1402.000000	0.314359
1403.000000	0.313708
1404.000000	0.312987
1405.000000	0.312218
1406.000000	0.311559
1407.000000	0.310972
1408.000000	0.310266
1409.000000	0.309624
1410.000000	0.309088
1411.000000	0.308602
1412.000000	0.308160
1413.000000	0.307835
1414.000000	0.307529
1415.000000	0.307119
1416.000000	0.306861
1417.000000	0.306787
1418.000000	0.306728
1419.000000	0.306787
1420.000000	0.306660
1421.000000	0.306539
1422.000000	0.306515
1423.000000	0.306387
1424.000000	0.306168
1425.000000	0.306068
1426.000000	0.305818
1427.000000	0.305576
1428.000000	0.305465
1429.000000	0.305244
1430.000000	0.305080
1431.000000	0.304985
1432.000000	0.304893
1433.000000	0.304879
1434.000000	0.304958
1435.000000	0.305132
1436.000000	0.305365
1437.000000	0.305706
1438.000000	0.305978
1439.000000	0.306238
1440.000000	0.306678
1441.000000	0.307288
1442.000000	0.307865
1443.000000	0.308482
1444.000000	0.309086
1445.000000	0.309548
1446.000000	0.309950
1447.000000	0.310440
1448.000000	0.310849
1449.000000	0.311278
1450.000000	0.311683
1451.000000	0.312010
1452.000000	0.312237
1453.000000	0.312368
1454.000000	0.312519
1455.000000	0.312597
1456.000000	0.312702
1457.000000	0.312814
1458.000000	0.312809
1459.000000	0.312888
1460.000000	0.312927
1461.000000	0.312922
1462.000000	0.312962
1463.000000	0.312745
1464.000000	0.312552
1465.000000	0.312589
1466.000000	0.312641
1467.000000	0.312851
1468.000000	0.313126
1469.000000	0.313310
1470.000000	0.313377
1471.000000	0.313451
1472.000000	0.313576
1473.000000	0.313784
1474.000000	0.313954
1475.000000	0.314238
1476.000000	0.314470
1477.000000	0.314586
1478.000000	0.314773
1479.000000	0.314896
1480.000000	0.315026
1481.000000	0.315200
1482.000000	0.315524
1483.000000	0.315756
1484.000000	0.315976
1485.000000	0.316201
1486.000000	0.316383
1487.000000	0.316548
1488.000000	0.316753
1489.000000	0.316943
1490.000000	0.316962
1491.000000	0.317074
1492.000000	0.317161
1493.000000	0.317280
1494.000000	0.317380
1495.000000	0.317490
1496.000000	0.317671
1497.000000	0.317778
1498.000000	0.317827
1499.000000	0.317939
1500.000000	0.318075
1501.000000	0.318142
1502.000000	0.318320
1503.000000	0.318503
1504.000000	0.318609
1505.000000	0.318731
1506.000000	0.318769
1507.000000	0.318763
1508.000000	0.318917
1509.000000	0.319077
1510.000000	0.319203
1511.000000	0.319384
1512.000000	0.319465
1513.000000	0.319498
1514.000000	0.319551
1515.000000	0.319554
1516.000000	0.319569
1517.000000	0.319525
1518.000000	0.319474
1519.000000	0.319434
1520.000000	0.319480
1521.000000	0.319500
1522.000000	0.319588
1523.000000	0.319803
1524.000000	0.319907
1525.000000	0.320020
1526.000000	0.320130
1527.000000	0.320146
1528.000000	0.320217
1529.000000	0.320307
1530.000000	0.320379
1531.000000	0.320473
1532.000000	0.320528
1533.000000	0.320618
1534.000000	0.320658
1535.000000	0.320732
1536.000000	0.320733
1537.000000	0.320803
1538.000000	0.320976
1539.000000	0.320931
1540.000000	0.321003
1541.000000	0.321259
1542.000000	0.321337
1543.000000	0.321416
1544.000000	0.321584
1545.000000	0.321562
1546.000000	0.321525
1547.000000	0.321694
1548.000000	0.321658
1549.000000	0.321544
1550.000000	0.321569
1551.000000	0.321520
1552.000000	0.321671
1553.000000	0.321853
1554.000000	0.321893
1555.000000	0.321930
1556.000000	0.321763
1557.000000	0.321635
1558.000000	0.321683
1559.000000	0.321820
1560.000000	0.321837
1561.000000	0.321992
1562.000000	0.322002
1563.000000	0.321812
1564.000000	0.321867
1565.000000	0.322050
1566.000000	0.322150
1567.000000	0.322466
1568.000000	0.322569
1569.000000	0.322663
1570.000000	0.322658
1571.000000	0.322492
1572.000000	0.322409
1573.000000	0.322296
1574.000000	0.322173
1575.000000	0.322076
1576.000000	0.321977
1577.000000	0.321834
1578.000000	0.321765
1579.000000	0.321825
1580.000000	0.321795
1581.000000	0.321777
1582.000000	0.321800
1583.000000	0.321782
1584.000000	0.321804
1585.000000	0.322080
1586.000000	0.322128
1587.000000	0.322079
1588.000000	0.322030
1589.000000	0.321762
1590.000000	0.321781
1591.000000	0.322001
1592.000000	0.322104
1593.000000	0.322375
1594.000000	0.322453
1595.000000	0.322462
1596.000000	0.322460
1597.000000	0.322419
1598.000000	0.322379
1599.000000	0.322246
1600.000000	0.322181
1601.000000	0.322260
1602.000000	0.322245
1603.000000	0.322292
1604.000000	0.322307
1605.000000	0.322272
1606.000000	0.322266
1607.000000	0.322408
1608.000000	0.322329
1609.000000	0.322110
1610.000000	0.322061
1611.000000	0.322034
1612.000000	0.321962
1613.000000	0.322095
1614.000000	0.322090
1615.000000	0.321993
1616.000000	0.321983
1617.000000	0.321976
1618.000000	0.321932
1619.000000	0.321863
1620.000000	0.321786
1621.000000	0.321713
1622.000000	0.321727
1623.000000	0.321690
1624.000000	0.321739
1625.000000	0.321733
1626.000000	0.321715
1627.000000	0.321766
1628.000000	0.321838
1629.000000	0.321908
1630.000000	0.322022
1631.000000	0.322089
1632.000000	0.322153
1633.000000	0.322269
1634.000000	0.322307
1635.000000	0.322385
1636.000000	0.322416
1637.000000	0.322408
1638.000000	0.322355
1639.000000	0.322274
1640.000000	0.322233
1641.000000	0.322282
1642.000000	0.322214
1643.000000	0.322139
1644.000000	0.322110
1645.000000	0.321989
1646.000000	0.321921
1647.000000	0.322039
1648.000000	0.321971
1649.000000	0.321859
1650.000000	0.321833
1651.000000	0.321809
1652.000000	0.321870
1653.000000	0.322012
1654.000000	0.322086
1655.000000	0.322035
1656.000000	0.322034
1657.000000	0.322115
1658.000000	0.322149
1659.000000	0.322413
1660.000000	0.322481
1661.000000	0.322309
1662.000000	0.322258
1663.000000	0.322093
1664.000000	0.322048
1665.000000	0.322123
1666.000000	0.322179
1667.000000	0.322183
1668.000000	0.322178
1669.000000	0.322138
1670.000000	0.322042
1671.000000	0.321998
1672.000000	0.322028
1673.000000	0.322008
1674.000000	0.322150
1675.000000	0.322385
1676.000000	0.322544
1677.000000	0.322603
1678.000000	0.322514
1679.000000	0.322476
1680.000000	0.322525
1681.000000	0.322545
1682.000000	0.322661
1683.000000	0.322833
1684.000000	0.322832
1685.000000	0.322822
1686.000000	0.322795
1687.000000	0.322617
1688.000000	0.322537
1689.000000	0.322664
1690.000000	0.322749
1691.000000	0.322932
1692.000000	0.322932
1693.000000	0.322743
1694.000000	0.322641
1695.000000	0.322600
1696.000000	0.322447
1697.000000	0.322298
1698.000000	0.322066
1699.000000	0.321962
1700.000000	0.322013
1701.000000	0.322106
1702.000000	0.322051
1703.000000	0.322017
1704.000000	0.322083
1705.000000	0.322162
1706.000000	0.322388
1707.000000	0.322492
1708.000000	0.322489
1709.000000	0.322494
1710.000000	0.322557
1711.000000	0.322575
1712.000000	0.322611
1713.000000	0.322635
1714.000000	0.322627
1715.000000	0.322666
1716.000000	0.322803
1717.000000	0.322842
1718.000000	0.322809
1719.000000	0.322756
1720.000000	0.322670
1721.000000	0.322655
1722.000000	0.322630
1723.000000	0.322681
1724.000000	0.322888
1725.000000	0.322987
1726.000000	0.323015
1727.000000	0.323011
1728.000000	0.322864
1729.000000	0.322721
1730.000000	0.322674
1731.000000	0.322636
1732.000000	0.322665
1733.000000	0.322596
1734.000000	0.322346
1735.000000	0.322196
1736.000000	0.321927
1737.000000	0.321801
1738.000000	0.321831
1739.000000	0.321782
1740.000000	0.321698
1741.000000	0.321654
1742.000000	0.321633
1743.000000	0.321692
1744.000000	0.321804
1745.000000	0.321801
1746.000000	0.321799
1747.000000	0.321617
1748.000000	0.321482
1749.000000	0.321326
1750.000000	0.321244
1751.000000	0.321468
1752.000000	0.321622
1753.000000	0.321584
1754.000000	0.321658
1755.000000	0.321725
1756.000000	0.321707
1757.000000	0.321703
1758.000000	0.321749
1759.000000	0.321754
1760.000000	0.321683
1761.000000	0.321575
1762.000000	0.321506
1763.000000	0.321368
1764.000000	0.321266
1765.000000	0.321252
1766.000000	0.321177
1767.000000	0.320906
1768.000000	0.320730
1769.000000	0.320649
1770.000000	0.320685
1771.000000	0.320820
1772.000000	0.320835
1773.000000	0.320796
1774.000000	0.320836
1775.000000	0.320916
1776.000000	0.320962
1777.000000	0.321114
1778.000000	0.321015
1779.000000	0.320612
1780.000000	0.320577
1781.000000	0.320590
1782.000000	0.320589
1783.000000	0.320832
1784.000000	0.320767
1785.000000	0.320715
1786.000000	0.320813
1787.000000	0.321041
1788.000000	0.321296
1789.000000	0.321368
1790.000000	0.321506
1791.000000	0.321481
1792.000000	0.321363
1793.000000	0.321334
1794.000000	0.321373
1795.000000	0.321267
1796.000000	0.321044
1797.000000	0.320906
1798.000000	0.320619
1799.000000	0.320501
1800.000000	0.320644
1801.000000	0.320578
1802.000000	0.320490
1803.000000	0.320696
1804.000000	0.320647
1805.000000	0.320156
1806.000000	0.319754
1807.000000	0.318914
1808.000000	0.319037
1809.000000	0.319480
1810.000000	0.320185
1811.000000	0.320589
1812.000000	0.322021
1813.000000	0.321950
1814.000000	0.320389
1815.000000	0.320077
1816.000000	0.320004
1817.000000	0.319571
1818.000000	0.319312
1819.000000	0.319472
1820.000000	0.318709
1821.000000	0.318646
1822.000000	0.318641
1823.000000	0.319004
1824.000000	0.318952
1825.000000	0.318753
1826.000000	0.318702
1827.000000	0.318000
1828.000000	0.318548
1829.000000	0.318764
1830.000000	0.318385
1831.000000	0.318437
1832.000000	0.318144
1833.000000	0.318494
1834.000000	0.319986
1835.000000	0.320228
1836.000000	0.320098
1837.000000	0.319881
1838.000000	0.318444
1839.000000	0.317579
1840.000000	0.317512
1841.000000	0.318167
1842.000000	0.318429
1843.000000	0.319100
1844.000000	0.319269
1845.000000	0.318905
1846.000000	0.318809
1847.000000	0.318482
1848.000000	0.318444
1849.000000	0.318589
1850.000000	0.318303
1851.000000	0.317856
1852.000000	0.316904
1853.000000	0.316655
1854.000000	0.316395
1855.000000	0.316057
1856.000000	0.315950
1857.000000	0.315811
1858.000000	0.315562
1859.000000	0.315023
1860.000000	0.314727
1861.000000	0.314955
1862.000000	0.314853
1863.000000	0.314907
1864.000000	0.314534
1865.000000	0.313847
1866.000000	0.313362
1867.000000	0.312646
1868.000000	0.311584
1869.000000	0.311761
1870.000000	0.311627
1871.000000	0.311099
1872.000000	0.311141
1873.000000	0.310763
1874.000000	0.310045
1875.000000	0.309207
1876.000000	0.308035
1877.000000	0.306642
1878.000000	0.305079
1879.000000	0.303582
1880.000000	0.302787
1881.000000	0.301552
1882.000000	0.300032
1883.000000	0.298809
1884.000000	0.297795
1885.000000	0.296859
1886.000000	0.295716
1887.000000	0.294897
1888.000000	0.293406
1889.000000	0.291785
1890.000000	0.289464
1891.000000	0.286884
1892.000000	0.284441
1893.000000	0.281527
1894.000000	0.278922
1895.000000	0.276351
1896.000000	0.274155
1897.000000	0.271880
1898.000000	0.269197
1899.000000	0.266837
1900.000000	0.264789
1901.000000	0.262443
1902.000000	0.261031
1903.000000	0.259603
1904.000000	0.258443
1905.000000	0.258100
1906.000000	0.257299
1907.000000	0.256427
1908.000000	0.256123
1909.000000	0.255454
1910.000000	0.254305
1911.000000	0.254252
1912.000000	0.254298
1913.000000	0.254652
1914.000000	0.255213
1915.000000	0.255043
1916.000000	0.254902
1917.000000	0.254732
1918.000000	0.254312
1919.000000	0.254166
1920.000000	0.254837
1921.000000	0.255666
1922.000000	0.256166
1923.000000	0.256780
1924.000000	0.257086
1925.000000	0.256803
1926.000000	0.257089
1927.000000	0.257318
1928.000000	0.257463
1929.000000	0.257518
1930.000000	0.258124
1931.000000	0.258729
1932.000000	0.259355
1933.000000	0.259924
1934.000000	0.260202
1935.000000	0.260004
1936.000000	0.260190
1937.000000	0.260798
1938.000000	0.261026
1939.000000	0.261466
1940.000000	0.262106
1941.000000	0.262635
1942.000000	0.263069
1943.000000	0.263706
1944.000000	0.264287
1945.000000	0.264164
1946.000000	0.263789
1947.000000	0.264061
1948.000000	0.263931
1949.000000	0.263918
1950.000000	0.264283
1951.000000	0.264327
1952.000000	0.264044
1953.000000	0.263839
1954.000000	0.263878
1955.000000	0.264428
1956.000000	0.265135
1957.000000	0.265590
1958.000000	0.266297
1959.000000	0.266680
1960.000000	0.266577
1961.000000	0.266510
1962.000000	0.266461
1963.000000	0.266425
1964.000000	0.266226
1965.000000	0.265750
1966.000000	0.265698
1967.000000	0.266204
1968.000000	0.266524
1969.000000	0.266786
1970.000000	0.267178
1971.000000	0.266853
1972.000000	0.266457
1973.000000	0.266488
1974.000000	0.267243
1975.000000	0.267542
1976.000000	0.267964
1977.000000	0.268218
1978.000000	0.268108
1979.000000	0.268240
1980.000000	0.268361
1981.000000	0.268789
1982.000000	0.269548
1983.000000	0.270169
1984.000000	0.270510
1985.000000	0.270767
1986.000000	0.271014
1987.000000	0.271025
1988.000000	0.271207
1989.000000	0.271752
1990.000000	0.272497
1991.000000	0.273134
1992.000000	0.273286
1993.000000	0.273411
1994.000000	0.273507
1995.000000	0.273725
1996.000000	0.274493
1997.000000	0.274903
1998.000000	0.275341
1999.000000	0.275718
2000.000000	0.275961
2001.000000	0.276132
2002.000000	0.276404
2003.000000	0.276798
2004.000000	0.277062
2005.000000	0.276826
2006.000000	0.277019
2007.000000	0.278005
2008.000000	0.278777
2009.000000	0.280125
2010.000000	0.280891
2011.000000	0.281095
2012.000000	0.281369
2013.000000	0.281605
2014.000000	0.281087
2015.000000	0.281052
2016.000000	0.281639
2017.000000	0.281842
2018.000000	0.282484
2019.000000	0.282908
2020.000000	0.282934
2021.000000	0.283276
2022.000000	0.283433
2023.000000	0.283974
2024.000000	0.285061
2025.000000	0.285835
2026.000000	0.286616
2027.000000	0.287091
2028.000000	0.287344
2029.000000	0.287694
2030.000000	0.287726
2031.000000	0.287681
2032.000000	0.287158
2033.000000	0.286710
2034.000000	0.286531
2035.000000	0.286333
2036.000000	0.286374
2037.000000	0.287038
2038.000000	0.287456
2039.000000	0.288156
2040.000000	0.288395
2041.000000	0.288303
2042.000000	0.288413
2043.000000	0.288082
2044.000000	0.288178
2045.000000	0.288453
2046.000000	0.288702
2047.000000	0.289114
2048.000000	0.289575
2049.000000	0.290036
2050.000000	0.290390
2051.000000	0.290563
2052.000000	0.290257
2053.000000	0.290350
2054.000000	0.290740
2055.000000	0.291450
2056.000000	0.291824
2057.000000	0.292484
2058.000000	0.293220
2059.000000	0.293429
2060.000000	0.293729
2061.000000	0.294185
2062.000000	0.294385
2063.000000	0.294337
2064.000000	0.294298
2065.000000	0.294745
2066.000000	0.294641
2067.000000	0.294364
2068.000000	0.294127
2069.000000	0.293756
2070.000000	0.293367
2071.000000	0.294054
2072.000000	0.294530
2073.000000	0.294982
2074.000000	0.295532
2075.000000	0.295801
2076.000000	0.295456
2077.000000	0.295594
2078.000000	0.296291
2079.000000	0.296213
2080.000000	0.295669
2081.000000	0.295584
2082.000000	0.295568
2083.000000	0.294969
2084.000000	0.294803
2085.000000	0.294525
2086.000000	0.294329
2087.000000	0.294460
2088.000000	0.294656
2089.000000	0.295039
2090.000000	0.295243
2091.000000	0.294805
2092.000000	0.295254
2093.000000	0.296684
2094.000000	0.297156
2095.000000	0.297961
2096.000000	0.298170
2097.000000	0.297278
2098.000000	0.296498
2099.000000	0.296494
2100.000000	0.296691
2101.000000	0.298449
2102.000000	0.299590
2103.000000	0.299516
2104.000000	0.299834
2105.000000	0.299983
2106.000000	0.299108
2107.000000	0.299264
2108.000000	0.300528
2109.000000	0.300703
2110.000000	0.300218
2111.000000	0.300112
2112.000000	0.299851
2113.000000	0.299026
2114.000000	0.299082
2115.000000	0.299015
2116.000000	0.298641
2117.000000	0.298848
2118.000000	0.299050
2119.000000	0.298909
2120.000000	0.298762
2121.000000	0.298477
2122.000000	0.298466
2123.000000	0.298386
2124.000000	0.298299
2125.000000	0.298239
2126.000000	0.298313
2127.000000	0.298555
2128.000000	0.298991
2129.000000	0.299694
2130.000000	0.300400
2131.000000	0.300530
2132.000000	0.299774
2133.000000	0.299630
2134.000000	0.300211
2135.000000	0.301358
2136.000000	0.302662
2137.000000	0.302922
2138.000000	0.302667
2139.000000	0.302113
2140.000000	0.300165
2141.000000	0.299650
2142.000000	0.299440
2143.000000	0.299427
2144.000000	0.301112
2145.000000	0.301274
2146.000000	0.301040
2147.000000	0.300658
2148.000000	0.298956
2149.000000	0.297604
2150.000000	0.298064
2151.000000	0.298477
2152.000000	0.298671
2153.000000	0.299930
2154.000000	0.300691
2155.000000	0.301250
2156.000000	0.301208
2157.000000	0.301018
2158.000000	0.301029
2159.000000	0.300374
2160.000000	0.300080
2161.000000	0.300643
2162.000000	0.300478
2163.000000	0.299394
2164.000000	0.298746
2165.000000	0.298113
2166.000000	0.297626
2167.000000	0.297312
2168.000000	0.296931
2169.000000	0.296616
2170.000000	0.297015
2171.000000	0.297604
2172.000000	0.299107
2173.000000	0.299321
2174.000000	0.299243
2175.000000	0.299093
2176.000000	0.297601
2177.000000	0.297420
2178.000000	0.298618
2179.000000	0.298832
2180.000000	0.298867
2181.000000	0.299271
2182.000000	0.299122
2183.000000	0.298271
2184.000000	0.297733
2185.000000	0.297893
2186.000000	0.297838
2187.000000	0.297636
2188.000000	0.297602
2189.000000	0.296862
2190.000000	0.295752
2191.000000	0.295500
2192.000000	0.295409
2193.000000	0.295931
2194.000000	0.296005
2195.000000	0.296784
2196.000000	0.296629
2197.000000	0.295274
2198.000000	0.295415
2199.000000	0.296558
2200.000000	0.296002
2201.000000	0.295095
2202.000000	0.294620
2203.000000	0.292587
2204.000000	0.291024
2205.000000	0.291063
2206.000000	0.291381
2207.000000	0.289423
2208.000000	0.287744
2209.000000	0.287757
2210.000000	0.288134
2211.000000	0.291822
2212.000000	0.296313
2213.000000	0.297797
2214.000000	0.297635
2215.000000	0.298643
2216.000000	0.298108
2217.000000	0.298553
2218.000000	0.300650
2219.000000	0.300953
2220.000000	0.300000
2221.000000	0.299079
2222.000000	0.297530
2223.000000	0.297426
2224.000000	0.297883
2225.000000	0.297908
2226.000000	0.298575
2227.000000	0.297550
2228.000000	0.296640
2229.000000	0.293239
2230.000000	0.290966
2231.000000	0.292066
2232.000000	0.292201
2233.000000	0.294335
2234.000000	0.296645
2235.000000	0.297372
2236.000000	0.298824
2237.000000	0.301232
2238.000000	0.301498
2239.000000	0.300487
2240.000000	0.300051
2241.000000	0.298149
2242.000000	0.297042
2243.000000	0.296792
2244.000000	0.296696
2245.000000	0.296410
2246.000000	0.296300
2247.000000	0.297750
2248.000000	0.297795
2249.000000	0.296358
2250.000000	0.295498
2251.000000	0.296750
2252.000000	0.295459
2253.000000	0.294249
2254.000000	0.293510
2255.000000	0.293542
2256.000000	0.293829
2257.000000	0.295232
2258.000000	0.297181
2259.000000	0.296225
2260.000000	0.293102
2261.000000	0.290786
2262.000000	0.287505
2263.000000	0.285535
2264.000000	0.284038
2265.000000	0.283066
2266.000000	0.282938
2267.000000	0.282549
2268.000000	0.282002
2269.000000	0.282526
2270.000000	0.284474
2271.000000	0.284124
2272.000000	0.283224
2273.000000	0.282623
2274.000000	0.280692
2275.000000	0.279405
2276.000000	0.278903
2277.000000	0.277795
2278.000000	0.278172
2279.000000	0.276104
2280.000000	0.274965
2281.000000	0.276145
2282.000000	0.274246
2283.000000	0.273934
2284.000000	0.274812
2285.000000	0.272032
2286.000000	0.273155
2287.000000	0.275013
2288.000000	0.273555
2289.000000	0.275337
2290.000000	0.275707
2291.000000	0.272724
2292.000000	0.273594
2293.000000	0.275573
2294.000000	0.275733
2295.000000	0.274914
2296.000000	0.276017
2297.000000	0.276790
2298.000000	0.277241
2299.000000	0.279049
2300.000000	0.280267
2301.000000	0.280554
2302.000000	0.280839
2303.000000	0.281509
2304.000000	0.281662
2305.000000	0.280566
2306.000000	0.280624
2307.000000	0.281310
2308.000000	0.282453
2309.000000	0.282436
2310.000000	0.282736
2311.000000	0.283155
2312.000000	0.283447
2313.000000	0.283565
2314.000000	0.285098
2315.000000	0.286648
2316.000000	0.286759
2317.000000	0.287362
2318.000000	0.286567
2319.000000	0.284375
2320.000000	0.282625
2321.000000	0.282788
2322.000000	0.281416
2323.000000	0.280540
2324.000000	0.282340
2325.000000	0.282160
2326.000000	0.283384
2327.000000	0.285983
2328.000000	0.285594
2329.000000	0.285996
2330.000000	0.286919
2331.000000	0.285704
2332.000000	0.285119
2333.000000	0.284420
2334.000000	0.284861
2335.000000	0.284595
2336.000000	0.283944
2337.000000	0.283210
2338.000000	0.281203
2339.000000	0.279835
2340.000000	0.279706
2341.000000	0.279835
2342.000000	0.279476
2343.000000	0.280625
2344.000000	0.282816
2345.000000	0.283833
2346.000000	0.286487
2347.000000	0.287048
2348.000000	0.285219
2349.000000	0.286379
2350.000000	0.285030
2351.000000	0.280503
2352.000000	0.278352
2353.000000	0.273678
2354.000000	0.267260
2355.000000	0.267076
2356.000000	0.266800
2357.000000	0.264386
2358.000000	0.265507
2359.000000	0.264636
2360.000000	0.262110
2361.000000	0.262985
2362.000000	0.264002
2363.000000	0.267142
2364.000000	0.271045
2365.000000	0.272742
2366.000000	0.272260
2367.000000	0.270483
2368.000000	0.267177
2369.000000	0.265470
2370.000000	0.269325
2371.000000	0.272858
2372.000000	0.276429
2373.000000	0.277343
2374.000000	0.275795
2375.000000	0.274999
2376.000000	0.270838
2377.000000	0.270829
2378.000000	0.271926
2379.000000	0.264220
2380.000000	0.259174
2381.000000	0.256338
2382.000000	0.249976
2383.000000	0.253595
2384.000000	0.259037
2385.000000	0.258273
2386.000000	0.258481
2387.000000	0.253117
2388.000000	0.249082
2389.000000	0.248482
2390.000000	0.250768
2391.000000	0.257089
2392.000000	0.258702
2393.000000	0.261447
2394.000000	0.258273
2395.000000	0.249976
2396.000000	0.246605
2397.000000	0.245281
2398.000000	0.245656
2399.000000	0.247599
2400.000000	0.248960
2401.000000	0.245933
2402.000000	0.245112
2403.000000	0.248818
2404.000000	0.250972
2405.000000	0.248698
2406.000000	0.247026
2407.000000	0.243004
2408.000000	0.230938
2409.000000	0.225660
2410.000000	0.226683
2411.000000	0.222296
2412.000000	0.221380
2413.000000	0.227564
2414.000000	0.229445
2415.000000	0.232446
2416.000000	0.247854
2417.000000	0.256907
2418.000000	0.257071
2419.000000	0.265275
2420.000000	0.268384
2421.000000	0.262509
2422.000000	0.259279
2423.000000	0.254114
2424.000000	0.245862
2425.000000	0.241745
2426.000000	0.247927
2427.000000	0.254102
2428.000000	0.252714
2429.000000	0.255044
2430.000000	0.250919
2431.000000	0.253076
2432.000000	0.262261
2433.000000	0.268515
2434.000000	0.274948
2435.000000	0.258961
2436.000000	0.241511
2437.000000	0.233479
2438.000000	0.228954
2439.000000	0.236167
2440.000000	0.240191
2441.000000	0.247746
2442.000000	0.251927
2443.000000	0.250567
2444.000000	0.258977
2445.000000	0.253915
2446.000000	0.238451
2447.000000	0.234034
2448.000000	0.233960
2449.000000	0.236571
2450.000000	0.237619
2451.000000	0.223170
2452.000000	0.207406
2453.000000	0.201092
2454.000000	0.194719
2455.000000	0.203516
2456.000000	0.212960
2457.000000	0.220970
2458.000000	0.237000
2459.000000	0.242006
2460.000000	0.245804
2461.000000	0.238793
2462.000000	0.228547
2463.000000	0.223830
2464.000000	0.216125
2465.000000	0.217843
2466.000000	0.197898
2467.000000	0.168937
2468.000000	0.174521
2469.000000	0.184978
2470.000000	0.214973
2471.000000	0.263876
2472.000000	0.277446
2473.000000	0.277725
2474.000000	0.275557
2475.000000	0.268620
2476.000000	0.259490
2477.000000	0.236511
2478.000000	0.218541
2479.000000	0.205445
2480.000000	0.202973
2481.000000	0.227558
2482.000000	0.234270
2483.000000	0.233249
2484.000000	0.226505
2485.000000	0.214772
2486.000000	0.221626
2487.000000	0.216345
2488.000000	0.229235
2489.000000	0.214900
2490.000000	0.200911
2491.000000	0.253804
2492.000000	0.258003
2493.000000	0.274445
2494.000000	0.291208
2495.000000	0.263362
2496.000000	0.252715
2497.000000	0.254763
2498.000000	0.260383
2499.000000	0.274609
2500.000000	0.292189
