# Wavelength	NAu-2-70_HEX-20_FV7-10_00000.asd.rts.txt
350.000000	0.090997
351.000000	0.081014
352.000000	0.092914
353.000000	0.093988
354.000000	0.075815
355.000000	0.075424
356.000000	0.081408
357.000000	0.086653
358.000000	0.084988
359.000000	0.084608
360.000000	0.083597
361.000000	0.078761
362.000000	0.076799
363.000000	0.075072
364.000000	0.072636
365.000000	0.075870
366.000000	0.075552
367.000000	0.073488
368.000000	0.081642
369.000000	0.082920
370.000000	0.078942
371.000000	0.076454
372.000000	0.073391
373.000000	0.076179
374.000000	0.085243
375.000000	0.084311
376.000000	0.080340
377.000000	0.078481
378.000000	0.083194
379.000000	0.081658
380.000000	0.077437
381.000000	0.078443
382.000000	0.075948
383.000000	0.075074
384.000000	0.079045
385.000000	0.082335
386.000000	0.083131
387.000000	0.081887
388.000000	0.081088
389.000000	0.082311
390.000000	0.083508
391.000000	0.081711
392.000000	0.081883
393.000000	0.083832
394.000000	0.086083
395.000000	0.085543
396.000000	0.084994
397.000000	0.084886
398.000000	0.082101
399.000000	0.082572
400.000000	0.084378
401.000000	0.082601
402.000000	0.082806
403.000000	0.083888
404.000000	0.084007
405.000000	0.082702
406.000000	0.082758
407.000000	0.084565
408.000000	0.084477
409.000000	0.084085
410.000000	0.084102
411.000000	0.084875
412.000000	0.085261
413.000000	0.085352
414.000000	0.085545
415.000000	0.086090
416.000000	0.086570
417.000000	0.086875
418.000000	0.087754
419.000000	0.088164
420.000000	0.088005
421.000000	0.087932
422.000000	0.088074
423.000000	0.088406
424.000000	0.088847
425.000000	0.089312
426.000000	0.089637
427.000000	0.089797
428.000000	0.090260
429.000000	0.090414
430.000000	0.090309
431.000000	0.090935
432.000000	0.091229
433.000000	0.091281
434.000000	0.091703
435.000000	0.092074
436.000000	0.092585
437.000000	0.093315
438.000000	0.093345
439.000000	0.093455
440.000000	0.093989
441.000000	0.094184
442.000000	0.094529
443.000000	0.094947
444.000000	0.095044
445.000000	0.095451
446.000000	0.095705
447.000000	0.095259
448.000000	0.095893
449.000000	0.096872
450.000000	0.097479
451.000000	0.097713
452.000000	0.098008
453.000000	0.098523
454.000000	0.099229
455.000000	0.100010
456.000000	0.100788
457.000000	0.101412
458.000000	0.101488
459.000000	0.101390
460.000000	0.101561
461.000000	0.101985
462.000000	0.102661
463.000000	0.103273
464.000000	0.102993
465.000000	0.103171
466.000000	0.103874
467.000000	0.104419
468.000000	0.104654
469.000000	0.104836
470.000000	0.105356
471.000000	0.106044
472.000000	0.106363
473.000000	0.106195
474.000000	0.106467
475.000000	0.107017
476.000000	0.107691
477.000000	0.108166
478.000000	0.108430
479.000000	0.108632
480.000000	0.108859
481.000000	0.109041
482.000000	0.109431
483.000000	0.110062
484.000000	0.110402
485.000000	0.110673
486.000000	0.110998
487.000000	0.110992
488.000000	0.111132
489.000000	0.111433
490.000000	0.111601
491.000000	0.111932
492.000000	0.112155
493.000000	0.111918
494.000000	0.111950
495.000000	0.112165
496.000000	0.112383
497.000000	0.112511
498.000000	0.112634
499.000000	0.112763
500.000000	0.112724
501.000000	0.112714
502.000000	0.112822
503.000000	0.113040
504.000000	0.113189
505.000000	0.113350
506.000000	0.113620
507.000000	0.113866
508.000000	0.114225
509.000000	0.114684
510.000000	0.114951
511.000000	0.115244
512.000000	0.115606
513.000000	0.115930
514.000000	0.116254
515.000000	0.116609
516.000000	0.116997
517.000000	0.117488
518.000000	0.117948
519.000000	0.118276
520.000000	0.118701
521.000000	0.119166
522.000000	0.119718
523.000000	0.120609
524.000000	0.121437
525.000000	0.122202
526.000000	0.123132
527.000000	0.124109
528.000000	0.125146
529.000000	0.126307
530.000000	0.127644
531.000000	0.129099
532.000000	0.130568
533.000000	0.132016
534.000000	0.133520
535.000000	0.135080
536.000000	0.136643
537.000000	0.138195
538.000000	0.139720
539.000000	0.141192
540.000000	0.142602
541.000000	0.143913
542.000000	0.145142
543.000000	0.146437
544.000000	0.147731
545.000000	0.148960
546.000000	0.150189
547.000000	0.151477
548.000000	0.152835
549.000000	0.154185
550.000000	0.155673
551.000000	0.157309
552.000000	0.159023
553.000000	0.160783
554.000000	0.162682
555.000000	0.164774
556.000000	0.166953
557.000000	0.169155
558.000000	0.171417
559.000000	0.173674
560.000000	0.175985
561.000000	0.178354
562.000000	0.180660
563.000000	0.182837
564.000000	0.184959
565.000000	0.187025
566.000000	0.188955
567.000000	0.190796
568.000000	0.192546
569.000000	0.194133
570.000000	0.195556
571.000000	0.196851
572.000000	0.198116
573.000000	0.199209
574.000000	0.200119
575.000000	0.200917
576.000000	0.201579
577.000000	0.202180
578.000000	0.202791
579.000000	0.203202
580.000000	0.203452
581.000000	0.203578
582.000000	0.203598
583.000000	0.203665
584.000000	0.203705
585.000000	0.203515
586.000000	0.203293
587.000000	0.203026
588.000000	0.202665
589.000000	0.202276
590.000000	0.201795
591.000000	0.201216
592.000000	0.200681
593.000000	0.200103
594.000000	0.199432
595.000000	0.198647
596.000000	0.197885
597.000000	0.197164
598.000000	0.196375
599.000000	0.195465
600.000000	0.194570
601.000000	0.193747
602.000000	0.192900
603.000000	0.191977
604.000000	0.190997
605.000000	0.190100
606.000000	0.189199
607.000000	0.188299
608.000000	0.187452
609.000000	0.186619
610.000000	0.185765
611.000000	0.184884
612.000000	0.184176
613.000000	0.183445
614.000000	0.182601
615.000000	0.181806
616.000000	0.181089
617.000000	0.180405
618.000000	0.179681
619.000000	0.178927
620.000000	0.178195
621.000000	0.177578
622.000000	0.176879
623.000000	0.176215
624.000000	0.175693
625.000000	0.175216
626.000000	0.174678
627.000000	0.174095
628.000000	0.173686
629.000000	0.173332
630.000000	0.172891
631.000000	0.172366
632.000000	0.172010
633.000000	0.171717
634.000000	0.171334
635.000000	0.171012
636.000000	0.170782
637.000000	0.170633
638.000000	0.170558
639.000000	0.170388
640.000000	0.170177
641.000000	0.170086
642.000000	0.170015
643.000000	0.169957
644.000000	0.169928
645.000000	0.169870
646.000000	0.169907
647.000000	0.170073
648.000000	0.170140
649.000000	0.170318
650.000000	0.170604
651.000000	0.170746
652.000000	0.170995
653.000000	0.171320
654.000000	0.171538
655.000000	0.171896
656.000000	0.172339
657.000000	0.172751
658.000000	0.173176
659.000000	0.173625
660.000000	0.174107
661.000000	0.174667
662.000000	0.175247
663.000000	0.175913
664.000000	0.176738
665.000000	0.177486
666.000000	0.178205
667.000000	0.178981
668.000000	0.179813
669.000000	0.180692
670.000000	0.181611
671.000000	0.182574
672.000000	0.183581
673.000000	0.184623
674.000000	0.185704
675.000000	0.186815
676.000000	0.187971
677.000000	0.189204
678.000000	0.190521
679.000000	0.191845
680.000000	0.193153
681.000000	0.194534
682.000000	0.196049
683.000000	0.197630
684.000000	0.199218
685.000000	0.200815
686.000000	0.202464
687.000000	0.204181
688.000000	0.205915
689.000000	0.207702
690.000000	0.209593
691.000000	0.211523
692.000000	0.213468
693.000000	0.215472
694.000000	0.217534
695.000000	0.219654
696.000000	0.221841
697.000000	0.224100
698.000000	0.226367
699.000000	0.228685
700.000000	0.231092
701.000000	0.233532
702.000000	0.236031
703.000000	0.238562
704.000000	0.241065
705.000000	0.243639
706.000000	0.246281
707.000000	0.249012
708.000000	0.251818
709.000000	0.254660
710.000000	0.257525
711.000000	0.260462
712.000000	0.263422
713.000000	0.266396
714.000000	0.269386
715.000000	0.272424
716.000000	0.275495
717.000000	0.278546
718.000000	0.281643
719.000000	0.284769
720.000000	0.287933
721.000000	0.291206
722.000000	0.294480
723.000000	0.297755
724.000000	0.301024
725.000000	0.304286
726.000000	0.307575
727.000000	0.310783
728.000000	0.313988
729.000000	0.317251
730.000000	0.320549
731.000000	0.323863
732.000000	0.327135
733.000000	0.330385
734.000000	0.333615
735.000000	0.336812
736.000000	0.340056
737.000000	0.343190
738.000000	0.346244
739.000000	0.349342
740.000000	0.352380
741.000000	0.355466
742.000000	0.358481
743.000000	0.361381
744.000000	0.364313
745.000000	0.367144
746.000000	0.369948
747.000000	0.372737
748.000000	0.375432
749.000000	0.378128
750.000000	0.380814
751.000000	0.383299
752.000000	0.385790
753.000000	0.388318
754.000000	0.390743
755.000000	0.393157
756.000000	0.395515
757.000000	0.397701
758.000000	0.399850
759.000000	0.401940
760.000000	0.403889
761.000000	0.405874
762.000000	0.407784
763.000000	0.409570
764.000000	0.411320
765.000000	0.413057
766.000000	0.414782
767.000000	0.416460
768.000000	0.418004
769.000000	0.419441
770.000000	0.420797
771.000000	0.422079
772.000000	0.423355
773.000000	0.424570
774.000000	0.425793
775.000000	0.426974
776.000000	0.428111
777.000000	0.429175
778.000000	0.430129
779.000000	0.431092
780.000000	0.432072
781.000000	0.432953
782.000000	0.433734
783.000000	0.434533
784.000000	0.435230
785.000000	0.435810
786.000000	0.436360
787.000000	0.436919
788.000000	0.437428
789.000000	0.438017
790.000000	0.438588
791.000000	0.439003
792.000000	0.439426
793.000000	0.439818
794.000000	0.440144
795.000000	0.440466
796.000000	0.440761
797.000000	0.441009
798.000000	0.441205
799.000000	0.441317
800.000000	0.441452
801.000000	0.441714
802.000000	0.441897
803.000000	0.442012
804.000000	0.442114
805.000000	0.442121
806.000000	0.442146
807.000000	0.442266
808.000000	0.442308
809.000000	0.442288
810.000000	0.442211
811.000000	0.442083
812.000000	0.441986
813.000000	0.441929
814.000000	0.441864
815.000000	0.441722
816.000000	0.441624
817.000000	0.441541
818.000000	0.441320
819.000000	0.441175
820.000000	0.441039
821.000000	0.440790
822.000000	0.440446
823.000000	0.440225
824.000000	0.440037
825.000000	0.439855
826.000000	0.439636
827.000000	0.439355
828.000000	0.439084
829.000000	0.438882
830.000000	0.438633
831.000000	0.438384
832.000000	0.438029
833.000000	0.437625
834.000000	0.437281
835.000000	0.437079
836.000000	0.436799
837.000000	0.436446
838.000000	0.436080
839.000000	0.435746
840.000000	0.435356
841.000000	0.435029
842.000000	0.434781
843.000000	0.434362
844.000000	0.433912
845.000000	0.433463
846.000000	0.433026
847.000000	0.432712
848.000000	0.432392
849.000000	0.431963
850.000000	0.431525
851.000000	0.431048
852.000000	0.430623
853.000000	0.430359
854.000000	0.429936
855.000000	0.429542
856.000000	0.429211
857.000000	0.428729
858.000000	0.428270
859.000000	0.427821
860.000000	0.427377
861.000000	0.426991
862.000000	0.426644
863.000000	0.426193
864.000000	0.425758
865.000000	0.425279
866.000000	0.424780
867.000000	0.424349
868.000000	0.423944
869.000000	0.423498
870.000000	0.423094
871.000000	0.422713
872.000000	0.422303
873.000000	0.421796
874.000000	0.421415
875.000000	0.420892
876.000000	0.420314
877.000000	0.419801
878.000000	0.419227
879.000000	0.418783
880.000000	0.418384
881.000000	0.418077
882.000000	0.417576
883.000000	0.416994
884.000000	0.416495
885.000000	0.415966
886.000000	0.415497
887.000000	0.415142
888.000000	0.414753
889.000000	0.414295
890.000000	0.413679
891.000000	0.413126
892.000000	0.412666
893.000000	0.412215
894.000000	0.411874
895.000000	0.411534
896.000000	0.411078
897.000000	0.410638
898.000000	0.410371
899.000000	0.409977
900.000000	0.409572
901.000000	0.409179
902.000000	0.408842
903.000000	0.408414
904.000000	0.407966
905.000000	0.407494
906.000000	0.407195
907.000000	0.406866
908.000000	0.406468
909.000000	0.405914
910.000000	0.405294
911.000000	0.404840
912.000000	0.404645
913.000000	0.404114
914.000000	0.403594
915.000000	0.403234
916.000000	0.402801
917.000000	0.402435
918.000000	0.402174
919.000000	0.401952
920.000000	0.401636
921.000000	0.401077
922.000000	0.400475
923.000000	0.400132
924.000000	0.399786
925.000000	0.399429
926.000000	0.399124
927.000000	0.398857
928.000000	0.398562
929.000000	0.398232
930.000000	0.397908
931.000000	0.397743
932.000000	0.397529
933.000000	0.397281
934.000000	0.397125
935.000000	0.396679
936.000000	0.396240
937.000000	0.395955
938.000000	0.395613
939.000000	0.395259
940.000000	0.394865
941.000000	0.394583
942.000000	0.394415
943.000000	0.394279
944.000000	0.394019
945.000000	0.393941
946.000000	0.393617
947.000000	0.393186
948.000000	0.392854
949.000000	0.392667
950.000000	0.392434
951.000000	0.392049
952.000000	0.391668
953.000000	0.391210
954.000000	0.390888
955.000000	0.390715
956.000000	0.390432
957.000000	0.390357
958.000000	0.390192
959.000000	0.389708
960.000000	0.389681
961.000000	0.389683
962.000000	0.389477
963.000000	0.389234
964.000000	0.389032
965.000000	0.388967
966.000000	0.388874
967.000000	0.388530
968.000000	0.388088
969.000000	0.387763
970.000000	0.387862
971.000000	0.387810
972.000000	0.387746
973.000000	0.387631
974.000000	0.387396
975.000000	0.387247
976.000000	0.387121
977.000000	0.386934
978.000000	0.386741
979.000000	0.386710
980.000000	0.386666
981.000000	0.386830
982.000000	0.386550
983.000000	0.386278
984.000000	0.386232
985.000000	0.386101
986.000000	0.386004
987.000000	0.385962
988.000000	0.385882
989.000000	0.386004
990.000000	0.386085
991.000000	0.386081
992.000000	0.386056
993.000000	0.385890
994.000000	0.385522
995.000000	0.385499
996.000000	0.386128
997.000000	0.386316
998.000000	0.386193
999.000000	0.386117
1000.000000	0.386180
1001.000000	0.384995
1002.000000	0.386326
1003.000000	0.387169
1004.000000	0.387363
1005.000000	0.386214
1006.000000	0.385652
1007.000000	0.384728
1008.000000	0.385210
1009.000000	0.385323
1010.000000	0.385662
1011.000000	0.386619
1012.000000	0.386916
1013.000000	0.386348
1014.000000	0.385907
1015.000000	0.385784
1016.000000	0.385441
1017.000000	0.385302
1018.000000	0.385989
1019.000000	0.386393
1020.000000	0.386791
1021.000000	0.386739
1022.000000	0.386800
1023.000000	0.387118
1024.000000	0.387265
1025.000000	0.387173
1026.000000	0.387429
1027.000000	0.387944
1028.000000	0.388071
1029.000000	0.388396
1030.000000	0.388300
1031.000000	0.387942
1032.000000	0.388419
1033.000000	0.388589
1034.000000	0.388679
1035.000000	0.389161
1036.000000	0.389439
1037.000000	0.389165
1038.000000	0.389229
1039.000000	0.389815
1040.000000	0.389965
1041.000000	0.390258
1042.000000	0.390321
1043.000000	0.390615
1044.000000	0.391367
1045.000000	0.391441
1046.000000	0.391209
1047.000000	0.391260
1048.000000	0.390779
1049.000000	0.391148
1050.000000	0.392379
1051.000000	0.392893
1052.000000	0.393386
1053.000000	0.393601
1054.000000	0.393468
1055.000000	0.393751
1056.000000	0.394233
1057.000000	0.394942
1058.000000	0.395074
1059.000000	0.394625
1060.000000	0.394760
1061.000000	0.394816
1062.000000	0.395117
1063.000000	0.395863
1064.000000	0.396184
1065.000000	0.395948
1066.000000	0.396293
1067.000000	0.396984
1068.000000	0.397230
1069.000000	0.397350
1070.000000	0.397593
1071.000000	0.397490
1072.000000	0.397790
1073.000000	0.398593
1074.000000	0.399473
1075.000000	0.399897
1076.000000	0.399959
1077.000000	0.399780
1078.000000	0.399570
1079.000000	0.399595
1080.000000	0.399805
1081.000000	0.400085
1082.000000	0.400592
1083.000000	0.401040
1084.000000	0.401775
1085.000000	0.402156
1086.000000	0.402345
1087.000000	0.402564
1088.000000	0.402248
1089.000000	0.402420
1090.000000	0.403038
1091.000000	0.403257
1092.000000	0.403299
1093.000000	0.403916
1094.000000	0.404222
1095.000000	0.404015
1096.000000	0.404435
1097.000000	0.405386
1098.000000	0.405864
1099.000000	0.406261
1100.000000	0.406726
1101.000000	0.406946
1102.000000	0.407190
1103.000000	0.407596
1104.000000	0.407793
1105.000000	0.407693
1106.000000	0.407797
1107.000000	0.407477
1108.000000	0.407742
1109.000000	0.408722
1110.000000	0.409480
1111.000000	0.409954
1112.000000	0.410662
1113.000000	0.410966
1114.000000	0.410664
1115.000000	0.410754
1116.000000	0.410834
1117.000000	0.411196
1118.000000	0.411737
1119.000000	0.412106
1120.000000	0.412806
1121.000000	0.413132
1122.000000	0.413207
1123.000000	0.413578
1124.000000	0.413525
1125.000000	0.413762
1126.000000	0.414208
1127.000000	0.414436
1128.000000	0.414620
1129.000000	0.414924
1130.000000	0.415078
1131.000000	0.414989
1132.000000	0.415124
1133.000000	0.415455
1134.000000	0.415660
1135.000000	0.415849
1136.000000	0.415942
1137.000000	0.415886
1138.000000	0.415881
1139.000000	0.415899
1140.000000	0.416117
1141.000000	0.416453
1142.000000	0.416672
1143.000000	0.416803
1144.000000	0.417114
1145.000000	0.417209
1146.000000	0.417254
1147.000000	0.417326
1148.000000	0.417354
1149.000000	0.417397
1150.000000	0.417373
1151.000000	0.417500
1152.000000	0.417628
1153.000000	0.417828
1154.000000	0.418069
1155.000000	0.418270
1156.000000	0.418561
1157.000000	0.418721
1158.000000	0.418622
1159.000000	0.418773
1160.000000	0.419017
1161.000000	0.419202
1162.000000	0.419547
1163.000000	0.420067
1164.000000	0.420331
1165.000000	0.420425
1166.000000	0.420706
1167.000000	0.420979
1168.000000	0.421195
1169.000000	0.421500
1170.000000	0.421748
1171.000000	0.422003
1172.000000	0.422261
1173.000000	0.422487
1174.000000	0.422669
1175.000000	0.422703
1176.000000	0.422819
1177.000000	0.423145
1178.000000	0.423297
1179.000000	0.423342
1180.000000	0.423426
1181.000000	0.423576
1182.000000	0.423584
1183.000000	0.423981
1184.000000	0.424475
1185.000000	0.424835
1186.000000	0.425315
1187.000000	0.425524
1188.000000	0.425486
1189.000000	0.425593
1190.000000	0.425672
1191.000000	0.425853
1192.000000	0.426318
1193.000000	0.426730
1194.000000	0.426960
1195.000000	0.427234
1196.000000	0.427438
1197.000000	0.427676
1198.000000	0.427941
1199.000000	0.428234
1200.000000	0.428560
1201.000000	0.428842
1202.000000	0.429077
1203.000000	0.429404
1204.000000	0.429589
1205.000000	0.429796
1206.000000	0.429900
1207.000000	0.430006
1208.000000	0.430134
1209.000000	0.430287
1210.000000	0.430512
1211.000000	0.430840
1212.000000	0.431121
1213.000000	0.431478
1214.000000	0.431782
1215.000000	0.432023
1216.000000	0.432285
1217.000000	0.432569
1218.000000	0.432750
1219.000000	0.432883
1220.000000	0.433043
1221.000000	0.433379
1222.000000	0.433524
1223.000000	0.433566
1224.000000	0.433872
1225.000000	0.434148
1226.000000	0.434296
1227.000000	0.434651
1228.000000	0.435113
1229.000000	0.435389
1230.000000	0.435532
1231.000000	0.435634
1232.000000	0.435693
1233.000000	0.436079
1234.000000	0.436646
1235.000000	0.436937
1236.000000	0.437198
1237.000000	0.437515
1238.000000	0.437465
1239.000000	0.437636
1240.000000	0.438021
1241.000000	0.438391
1242.000000	0.438712
1243.000000	0.438967
1244.000000	0.439097
1245.000000	0.439404
1246.000000	0.439758
1247.000000	0.440199
1248.000000	0.440757
1249.000000	0.441145
1250.000000	0.441317
1251.000000	0.441442
1252.000000	0.441604
1253.000000	0.441777
1254.000000	0.441987
1255.000000	0.442227
1256.000000	0.442426
1257.000000	0.442643
1258.000000	0.442921
1259.000000	0.443092
1260.000000	0.443381
1261.000000	0.443650
1262.000000	0.443927
1263.000000	0.444207
1264.000000	0.444674
1265.000000	0.445006
1266.000000	0.445305
1267.000000	0.445688
1268.000000	0.445804
1269.000000	0.445923
1270.000000	0.446276
1271.000000	0.446472
1272.000000	0.446743
1273.000000	0.447196
1274.000000	0.447538
1275.000000	0.447820
1276.000000	0.448116
1277.000000	0.448438
1278.000000	0.448536
1279.000000	0.448822
1280.000000	0.449190
1281.000000	0.449403
1282.000000	0.449660
1283.000000	0.449972
1284.000000	0.450086
1285.000000	0.450292
1286.000000	0.450569
1287.000000	0.450804
1288.000000	0.451065
1289.000000	0.451375
1290.000000	0.451456
1291.000000	0.451616
1292.000000	0.451903
1293.000000	0.452027
1294.000000	0.452385
1295.000000	0.452874
1296.000000	0.452978
1297.000000	0.452927
1298.000000	0.453106
1299.000000	0.453319
1300.000000	0.453449
1301.000000	0.453653
1302.000000	0.453739
1303.000000	0.453754
1304.000000	0.453801
1305.000000	0.454116
1306.000000	0.454185
1307.000000	0.454161
1308.000000	0.454240
1309.000000	0.454262
1310.000000	0.454277
1311.000000	0.454416
1312.000000	0.454363
1313.000000	0.454393
1314.000000	0.454487
1315.000000	0.454419
1316.000000	0.454491
1317.000000	0.454610
1318.000000	0.454685
1319.000000	0.454733
1320.000000	0.454960
1321.000000	0.455052
1322.000000	0.454880
1323.000000	0.454836
1324.000000	0.454973
1325.000000	0.454864
1326.000000	0.454603
1327.000000	0.454700
1328.000000	0.454923
1329.000000	0.454880
1330.000000	0.454833
1331.000000	0.454861
1332.000000	0.454784
1333.000000	0.454745
1334.000000	0.454990
1335.000000	0.455081
1336.000000	0.454991
1337.000000	0.454960
1338.000000	0.454789
1339.000000	0.454846
1340.000000	0.454894
1341.000000	0.454789
1342.000000	0.454757
1343.000000	0.454678
1344.000000	0.454574
1345.000000	0.454577
1346.000000	0.454732
1347.000000	0.454646
1348.000000	0.454575
1349.000000	0.454382
1350.000000	0.454102
1351.000000	0.453921
1352.000000	0.453805
1353.000000	0.453723
1354.000000	0.453809
1355.000000	0.453855
1356.000000	0.453862
1357.000000	0.453884
1358.000000	0.453763
1359.000000	0.453504
1360.000000	0.453319
1361.000000	0.453218
1362.000000	0.452973
1363.000000	0.452594
1364.000000	0.452416
1365.000000	0.452186
1366.000000	0.451912
1367.000000	0.451746
1368.000000	0.451538
1369.000000	0.451174
1370.000000	0.450903
1371.000000	0.450598
1372.000000	0.450040
1373.000000	0.449538
1374.000000	0.448957
1375.000000	0.448189
1376.000000	0.447664
1377.000000	0.447052
1378.000000	0.446242
1379.000000	0.445300
1380.000000	0.444234
1381.000000	0.443092
1382.000000	0.441712
1383.000000	0.440293
1384.000000	0.438710
1385.000000	0.436898
1386.000000	0.435124
1387.000000	0.433145
1388.000000	0.431035
1389.000000	0.428930
1390.000000	0.426582
1391.000000	0.423877
1392.000000	0.421124
1393.000000	0.418236
1394.000000	0.415136
1395.000000	0.412012
1396.000000	0.408922
1397.000000	0.405554
1398.000000	0.401788
1399.000000	0.398419
1400.000000	0.395017
1401.000000	0.391749
1402.000000	0.388779
1403.000000	0.385685
1404.000000	0.382611
1405.000000	0.379752
1406.000000	0.377133
1407.000000	0.374900
1408.000000	0.372862
1409.000000	0.371078
1410.000000	0.369499
1411.000000	0.367987
1412.000000	0.366703
1413.000000	0.365609
1414.000000	0.364597
1415.000000	0.363764
1416.000000	0.363015
1417.000000	0.362380
1418.000000	0.361796
1419.000000	0.361230
1420.000000	0.360675
1421.000000	0.360254
1422.000000	0.359850
1423.000000	0.359574
1424.000000	0.359198
1425.000000	0.358801
1426.000000	0.358435
1427.000000	0.358113
1428.000000	0.357918
1429.000000	0.357762
1430.000000	0.357716
1431.000000	0.357673
1432.000000	0.357540
1433.000000	0.357433
1434.000000	0.357288
1435.000000	0.357077
1436.000000	0.357086
1437.000000	0.357102
1438.000000	0.357280
1439.000000	0.357641
1440.000000	0.358082
1441.000000	0.358716
1442.000000	0.359489
1443.000000	0.360299
1444.000000	0.361224
1445.000000	0.362394
1446.000000	0.363576
1447.000000	0.364840
1448.000000	0.366233
1449.000000	0.367565
1450.000000	0.368794
1451.000000	0.370013
1452.000000	0.371063
1453.000000	0.371975
1454.000000	0.372771
1455.000000	0.373559
1456.000000	0.374506
1457.000000	0.375441
1458.000000	0.376272
1459.000000	0.376975
1460.000000	0.377549
1461.000000	0.378094
1462.000000	0.378710
1463.000000	0.379296
1464.000000	0.379907
1465.000000	0.380630
1466.000000	0.381256
1467.000000	0.381807
1468.000000	0.382374
1469.000000	0.383033
1470.000000	0.383680
1471.000000	0.384461
1472.000000	0.385332
1473.000000	0.386281
1474.000000	0.387245
1475.000000	0.388227
1476.000000	0.389201
1477.000000	0.390079
1478.000000	0.390899
1479.000000	0.391779
1480.000000	0.392653
1481.000000	0.393493
1482.000000	0.394428
1483.000000	0.395315
1484.000000	0.396142
1485.000000	0.396962
1486.000000	0.397766
1487.000000	0.398565
1488.000000	0.399352
1489.000000	0.400136
1490.000000	0.400734
1491.000000	0.401476
1492.000000	0.402187
1493.000000	0.403005
1494.000000	0.403958
1495.000000	0.404738
1496.000000	0.405450
1497.000000	0.406134
1498.000000	0.406764
1499.000000	0.407375
1500.000000	0.407991
1501.000000	0.408624
1502.000000	0.409193
1503.000000	0.409797
1504.000000	0.410502
1505.000000	0.411170
1506.000000	0.411876
1507.000000	0.412523
1508.000000	0.413058
1509.000000	0.413646
1510.000000	0.414265
1511.000000	0.414885
1512.000000	0.415442
1513.000000	0.415942
1514.000000	0.416546
1515.000000	0.417025
1516.000000	0.417464
1517.000000	0.417969
1518.000000	0.418271
1519.000000	0.418466
1520.000000	0.418874
1521.000000	0.419228
1522.000000	0.419595
1523.000000	0.420002
1524.000000	0.420371
1525.000000	0.420922
1526.000000	0.421353
1527.000000	0.421806
1528.000000	0.422361
1529.000000	0.422636
1530.000000	0.422877
1531.000000	0.423298
1532.000000	0.423613
1533.000000	0.423890
1534.000000	0.424230
1535.000000	0.424470
1536.000000	0.424524
1537.000000	0.424691
1538.000000	0.424990
1539.000000	0.425284
1540.000000	0.425567
1541.000000	0.425862
1542.000000	0.426189
1543.000000	0.426528
1544.000000	0.426909
1545.000000	0.427341
1546.000000	0.427641
1547.000000	0.427803
1548.000000	0.427992
1549.000000	0.428227
1550.000000	0.428476
1551.000000	0.428662
1552.000000	0.428896
1553.000000	0.429169
1554.000000	0.429243
1555.000000	0.429416
1556.000000	0.429610
1557.000000	0.429633
1558.000000	0.429778
1559.000000	0.429914
1560.000000	0.429999
1561.000000	0.430145
1562.000000	0.430264
1563.000000	0.430384
1564.000000	0.430571
1565.000000	0.430794
1566.000000	0.430878
1567.000000	0.431121
1568.000000	0.431228
1569.000000	0.431259
1570.000000	0.431436
1571.000000	0.431617
1572.000000	0.431720
1573.000000	0.431899
1574.000000	0.432014
1575.000000	0.432062
1576.000000	0.432160
1577.000000	0.432273
1578.000000	0.432339
1579.000000	0.432353
1580.000000	0.432532
1581.000000	0.432967
1582.000000	0.433165
1583.000000	0.433402
1584.000000	0.433450
1585.000000	0.433295
1586.000000	0.433415
1587.000000	0.433641
1588.000000	0.433741
1589.000000	0.433919
1590.000000	0.434016
1591.000000	0.433965
1592.000000	0.434087
1593.000000	0.434425
1594.000000	0.434537
1595.000000	0.434617
1596.000000	0.434739
1597.000000	0.434810
1598.000000	0.434935
1599.000000	0.435220
1600.000000	0.435312
1601.000000	0.435402
1602.000000	0.435462
1603.000000	0.435491
1604.000000	0.435590
1605.000000	0.435717
1606.000000	0.435846
1607.000000	0.436098
1608.000000	0.436201
1609.000000	0.436279
1610.000000	0.436435
1611.000000	0.436639
1612.000000	0.436783
1613.000000	0.437132
1614.000000	0.437295
1615.000000	0.437302
1616.000000	0.437553
1617.000000	0.437837
1618.000000	0.438063
1619.000000	0.438348
1620.000000	0.438622
1621.000000	0.438912
1622.000000	0.439211
1623.000000	0.439531
1624.000000	0.439759
1625.000000	0.439639
1626.000000	0.439685
1627.000000	0.439825
1628.000000	0.440009
1629.000000	0.440292
1630.000000	0.440453
1631.000000	0.440464
1632.000000	0.440468
1633.000000	0.440349
1634.000000	0.440436
1635.000000	0.440715
1636.000000	0.440911
1637.000000	0.441214
1638.000000	0.441334
1639.000000	0.441423
1640.000000	0.441517
1641.000000	0.441613
1642.000000	0.441749
1643.000000	0.441965
1644.000000	0.442072
1645.000000	0.442187
1646.000000	0.442170
1647.000000	0.442061
1648.000000	0.442040
1649.000000	0.442037
1650.000000	0.442200
1651.000000	0.442589
1652.000000	0.442906
1653.000000	0.443214
1654.000000	0.443520
1655.000000	0.443723
1656.000000	0.443868
1657.000000	0.444106
1658.000000	0.444300
1659.000000	0.444594
1660.000000	0.444847
1661.000000	0.444995
1662.000000	0.445102
1663.000000	0.445076
1664.000000	0.445207
1665.000000	0.445339
1666.000000	0.445628
1667.000000	0.445977
1668.000000	0.446243
1669.000000	0.446548
1670.000000	0.446563
1671.000000	0.446508
1672.000000	0.446680
1673.000000	0.446731
1674.000000	0.447082
1675.000000	0.447465
1676.000000	0.447547
1677.000000	0.447570
1678.000000	0.447581
1679.000000	0.447661
1680.000000	0.447760
1681.000000	0.447807
1682.000000	0.447947
1683.000000	0.448077
1684.000000	0.448176
1685.000000	0.448414
1686.000000	0.448417
1687.000000	0.448302
1688.000000	0.448257
1689.000000	0.448143
1690.000000	0.448140
1691.000000	0.448313
1692.000000	0.448162
1693.000000	0.448117
1694.000000	0.448095
1695.000000	0.448034
1696.000000	0.448258
1697.000000	0.448247
1698.000000	0.448065
1699.000000	0.448105
1700.000000	0.448195
1701.000000	0.448386
1702.000000	0.448571
1703.000000	0.448623
1704.000000	0.448597
1705.000000	0.448730
1706.000000	0.449086
1707.000000	0.449238
1708.000000	0.449353
1709.000000	0.449365
1710.000000	0.449240
1711.000000	0.449274
1712.000000	0.449515
1713.000000	0.449552
1714.000000	0.449567
1715.000000	0.449603
1716.000000	0.449590
1717.000000	0.449532
1718.000000	0.449427
1719.000000	0.449316
1720.000000	0.449151
1721.000000	0.449091
1722.000000	0.449129
1723.000000	0.449166
1724.000000	0.449322
1725.000000	0.449380
1726.000000	0.449317
1727.000000	0.449212
1728.000000	0.448860
1729.000000	0.448681
1730.000000	0.448729
1731.000000	0.448745
1732.000000	0.448918
1733.000000	0.449017
1734.000000	0.448831
1735.000000	0.448862
1736.000000	0.448922
1737.000000	0.448966
1738.000000	0.449155
1739.000000	0.449156
1740.000000	0.449030
1741.000000	0.448908
1742.000000	0.448709
1743.000000	0.448693
1744.000000	0.448706
1745.000000	0.448662
1746.000000	0.448682
1747.000000	0.448527
1748.000000	0.448358
1749.000000	0.448209
1750.000000	0.448008
1751.000000	0.447927
1752.000000	0.447991
1753.000000	0.447923
1754.000000	0.447868
1755.000000	0.447825
1756.000000	0.447746
1757.000000	0.447670
1758.000000	0.447545
1759.000000	0.447278
1760.000000	0.447167
1761.000000	0.447054
1762.000000	0.446921
1763.000000	0.446992
1764.000000	0.446895
1765.000000	0.446505
1766.000000	0.446389
1767.000000	0.446238
1768.000000	0.446112
1769.000000	0.446310
1770.000000	0.446397
1771.000000	0.446355
1772.000000	0.446356
1773.000000	0.446269
1774.000000	0.446274
1775.000000	0.446441
1776.000000	0.446496
1777.000000	0.446519
1778.000000	0.446487
1779.000000	0.446336
1780.000000	0.446239
1781.000000	0.446102
1782.000000	0.445989
1783.000000	0.445881
1784.000000	0.446142
1785.000000	0.446125
1786.000000	0.446195
1787.000000	0.446477
1788.000000	0.446472
1789.000000	0.446316
1790.000000	0.446081
1791.000000	0.445942
1792.000000	0.446022
1793.000000	0.446043
1794.000000	0.446186
1795.000000	0.446299
1796.000000	0.446326
1797.000000	0.446306
1798.000000	0.446183
1799.000000	0.446231
1800.000000	0.446457
1801.000000	0.446527
1802.000000	0.446359
1803.000000	0.445985
1804.000000	0.445665
1805.000000	0.445345
1806.000000	0.445382
1807.000000	0.445311
1808.000000	0.445397
1809.000000	0.446169
1810.000000	0.446373
1811.000000	0.446691
1812.000000	0.447014
1813.000000	0.447370
1814.000000	0.447883
1815.000000	0.448143
1816.000000	0.448186
1817.000000	0.448095
1818.000000	0.447850
1819.000000	0.447971
1820.000000	0.447643
1821.000000	0.447679
1822.000000	0.447442
1823.000000	0.446910
1824.000000	0.446475
1825.000000	0.445585
1826.000000	0.445268
1827.000000	0.445081
1828.000000	0.445037
1829.000000	0.444509
1830.000000	0.445505
1831.000000	0.445100
1832.000000	0.443704
1833.000000	0.443147
1834.000000	0.442295
1835.000000	0.441897
1836.000000	0.442079
1837.000000	0.442072
1838.000000	0.441935
1839.000000	0.442130
1840.000000	0.441442
1841.000000	0.441439
1842.000000	0.441241
1843.000000	0.440614
1844.000000	0.440546
1845.000000	0.441100
1846.000000	0.440991
1847.000000	0.440908
1848.000000	0.439938
1849.000000	0.438942
1850.000000	0.437697
1851.000000	0.436503
1852.000000	0.435261
1853.000000	0.434172
1854.000000	0.432598
1855.000000	0.431371
1856.000000	0.430323
1857.000000	0.429158
1858.000000	0.427942
1859.000000	0.426670
1860.000000	0.425317
1861.000000	0.424200
1862.000000	0.422852
1863.000000	0.421433
1864.000000	0.420066
1865.000000	0.419128
1866.000000	0.417307
1867.000000	0.415190
1868.000000	0.412831
1869.000000	0.409531
1870.000000	0.405847
1871.000000	0.402026
1872.000000	0.397869
1873.000000	0.393869
1874.000000	0.390005
1875.000000	0.385735
1876.000000	0.380803
1877.000000	0.376124
1878.000000	0.371653
1879.000000	0.366000
1880.000000	0.360568
1881.000000	0.354782
1882.000000	0.348320
1883.000000	0.341950
1884.000000	0.335496
1885.000000	0.328976
1886.000000	0.322031
1887.000000	0.314889
1888.000000	0.306709
1889.000000	0.298814
1890.000000	0.291760
1891.000000	0.284528
1892.000000	0.277203
1893.000000	0.270302
1894.000000	0.262386
1895.000000	0.254647
1896.000000	0.246714
1897.000000	0.239791
1898.000000	0.232338
1899.000000	0.225228
1900.000000	0.218915
1901.000000	0.213546
1902.000000	0.209060
1903.000000	0.205621
1904.000000	0.203362
1905.000000	0.201268
1906.000000	0.199486
1907.000000	0.198243
1908.000000	0.197414
1909.000000	0.196875
1910.000000	0.196957
1911.000000	0.197900
1912.000000	0.199046
1913.000000	0.199610
1914.000000	0.200630
1915.000000	0.201553
1916.000000	0.202852
1917.000000	0.204346
1918.000000	0.206690
1919.000000	0.208405
1920.000000	0.210010
1921.000000	0.211177
1922.000000	0.211929
1923.000000	0.213006
1924.000000	0.213807
1925.000000	0.214615
1926.000000	0.215885
1927.000000	0.217219
1928.000000	0.218259
1929.000000	0.219292
1930.000000	0.220441
1931.000000	0.220943
1932.000000	0.221409
1933.000000	0.222827
1934.000000	0.223761
1935.000000	0.224504
1936.000000	0.224981
1937.000000	0.224560
1938.000000	0.224443
1939.000000	0.224477
1940.000000	0.224564
1941.000000	0.225050
1942.000000	0.225989
1943.000000	0.226548
1944.000000	0.227527
1945.000000	0.228637
1946.000000	0.229336
1947.000000	0.229724
1948.000000	0.229870
1949.000000	0.229883
1950.000000	0.229718
1951.000000	0.229662
1952.000000	0.229794
1953.000000	0.229786
1954.000000	0.229907
1955.000000	0.230471
1956.000000	0.230716
1957.000000	0.230824
1958.000000	0.230845
1959.000000	0.230829
1960.000000	0.230987
1961.000000	0.231162
1962.000000	0.231615
1963.000000	0.232429
1964.000000	0.233203
1965.000000	0.233812
1966.000000	0.234748
1967.000000	0.235899
1968.000000	0.236545
1969.000000	0.236694
1970.000000	0.237129
1971.000000	0.237311
1972.000000	0.237541
1973.000000	0.237906
1974.000000	0.238803
1975.000000	0.239525
1976.000000	0.240343
1977.000000	0.240918
1978.000000	0.241247
1979.000000	0.241558
1980.000000	0.241810
1981.000000	0.242222
1982.000000	0.243201
1983.000000	0.244341
1984.000000	0.245416
1985.000000	0.246675
1986.000000	0.247663
1987.000000	0.248563
1988.000000	0.249807
1989.000000	0.250432
1990.000000	0.251458
1991.000000	0.252513
1992.000000	0.253155
1993.000000	0.254270
1994.000000	0.255334
1995.000000	0.256413
1996.000000	0.257806
1997.000000	0.258857
1998.000000	0.259609
1999.000000	0.260658
2000.000000	0.261813
2001.000000	0.262705
2002.000000	0.263739
2003.000000	0.265244
2004.000000	0.266509
2005.000000	0.267618
2006.000000	0.268824
2007.000000	0.270094
2008.000000	0.271393
2009.000000	0.272394
2010.000000	0.273973
2011.000000	0.275929
2012.000000	0.277651
2013.000000	0.279552
2014.000000	0.281313
2015.000000	0.282668
2016.000000	0.283694
2017.000000	0.284329
2018.000000	0.284843
2019.000000	0.285497
2020.000000	0.286117
2021.000000	0.287181
2022.000000	0.288686
2023.000000	0.290099
2024.000000	0.291882
2025.000000	0.293471
2026.000000	0.294959
2027.000000	0.296197
2028.000000	0.297630
2029.000000	0.298834
2030.000000	0.299440
2031.000000	0.300218
2032.000000	0.300801
2033.000000	0.301444
2034.000000	0.302417
2035.000000	0.303976
2036.000000	0.305126
2037.000000	0.306387
2038.000000	0.307683
2039.000000	0.309029
2040.000000	0.310497
2041.000000	0.311754
2042.000000	0.313040
2043.000000	0.313623
2044.000000	0.313459
2045.000000	0.313664
2046.000000	0.314050
2047.000000	0.314821
2048.000000	0.315972
2049.000000	0.317507
2050.000000	0.319301
2051.000000	0.320791
2052.000000	0.322821
2053.000000	0.323862
2054.000000	0.324753
2055.000000	0.324661
2056.000000	0.324986
2057.000000	0.325223
2058.000000	0.325537
2059.000000	0.326595
2060.000000	0.327288
2061.000000	0.327912
2062.000000	0.328486
2063.000000	0.329191
2064.000000	0.329648
2065.000000	0.329801
2066.000000	0.330376
2067.000000	0.331588
2068.000000	0.332485
2069.000000	0.333755
2070.000000	0.335059
2071.000000	0.335602
2072.000000	0.336390
2073.000000	0.336322
2074.000000	0.336503
2075.000000	0.337029
2076.000000	0.337443
2077.000000	0.338325
2078.000000	0.340183
2079.000000	0.340994
2080.000000	0.341623
2081.000000	0.342220
2082.000000	0.342365
2083.000000	0.342569
2084.000000	0.342612
2085.000000	0.342798
2086.000000	0.343118
2087.000000	0.343616
2088.000000	0.344451
2089.000000	0.345703
2090.000000	0.346848
2091.000000	0.348041
2092.000000	0.349148
2093.000000	0.350519
2094.000000	0.351582
2095.000000	0.352801
2096.000000	0.353411
2097.000000	0.353476
2098.000000	0.353471
2099.000000	0.352934
2100.000000	0.352909
2101.000000	0.354096
2102.000000	0.354761
2103.000000	0.355709
2104.000000	0.356418
2105.000000	0.356966
2106.000000	0.356847
2107.000000	0.357552
2108.000000	0.358777
2109.000000	0.359658
2110.000000	0.360552
2111.000000	0.361263
2112.000000	0.361723
2113.000000	0.361720
2114.000000	0.361585
2115.000000	0.361716
2116.000000	0.362011
2117.000000	0.361564
2118.000000	0.362610
2119.000000	0.363819
2120.000000	0.364518
2121.000000	0.365651
2122.000000	0.366038
2123.000000	0.365347
2124.000000	0.365531
2125.000000	0.365809
2126.000000	0.365967
2127.000000	0.366497
2128.000000	0.366761
2129.000000	0.366257
2130.000000	0.366851
2131.000000	0.367269
2132.000000	0.367162
2133.000000	0.367750
2134.000000	0.368284
2135.000000	0.368691
2136.000000	0.370264
2137.000000	0.371256
2138.000000	0.372781
2139.000000	0.372942
2140.000000	0.372004
2141.000000	0.371751
2142.000000	0.370651
2143.000000	0.370209
2144.000000	0.370857
2145.000000	0.371325
2146.000000	0.371907
2147.000000	0.372866
2148.000000	0.373719
2149.000000	0.374593
2150.000000	0.375597
2151.000000	0.376160
2152.000000	0.376618
2153.000000	0.377300
2154.000000	0.377324
2155.000000	0.376642
2156.000000	0.376426
2157.000000	0.375886
2158.000000	0.375935
2159.000000	0.376766
2160.000000	0.377316
2161.000000	0.377989
2162.000000	0.378464
2163.000000	0.378533
2164.000000	0.378545
2165.000000	0.378065
2166.000000	0.378546
2167.000000	0.379423
2168.000000	0.379744
2169.000000	0.380065
2170.000000	0.379918
2171.000000	0.379152
2172.000000	0.377361
2173.000000	0.376136
2174.000000	0.374577
2175.000000	0.373434
2176.000000	0.371871
2177.000000	0.371494
2178.000000	0.372136
2179.000000	0.372615
2180.000000	0.374060
2181.000000	0.375251
2182.000000	0.375703
2183.000000	0.375997
2184.000000	0.376571
2185.000000	0.376334
2186.000000	0.375368
2187.000000	0.374938
2188.000000	0.375386
2189.000000	0.376127
2190.000000	0.376537
2191.000000	0.377926
2192.000000	0.378778
2193.000000	0.378967
2194.000000	0.378835
2195.000000	0.379048
2196.000000	0.378830
2197.000000	0.376962
2198.000000	0.376394
2199.000000	0.377035
2200.000000	0.377148
2201.000000	0.377057
2202.000000	0.377659
2203.000000	0.378968
2204.000000	0.378656
2205.000000	0.379392
2206.000000	0.380759
2207.000000	0.380943
2208.000000	0.380801
2209.000000	0.379436
2210.000000	0.376079
2211.000000	0.372721
2212.000000	0.372101
2213.000000	0.370778
2214.000000	0.370479
2215.000000	0.369789
2216.000000	0.368965
2217.000000	0.367774
2218.000000	0.366744
2219.000000	0.365593
2220.000000	0.363593
2221.000000	0.362534
2222.000000	0.361382
2223.000000	0.361446
2224.000000	0.362248
2225.000000	0.364408
2226.000000	0.365512
2227.000000	0.365105
2228.000000	0.365559
2229.000000	0.363666
2230.000000	0.360074
2231.000000	0.358223
2232.000000	0.355830
2233.000000	0.354225
2234.000000	0.354336
2235.000000	0.356817
2236.000000	0.356788
2237.000000	0.355402
2238.000000	0.354450
2239.000000	0.352230
2240.000000	0.350615
2241.000000	0.349821
2242.000000	0.348457
2243.000000	0.346974
2244.000000	0.345788
2245.000000	0.343633
2246.000000	0.343340
2247.000000	0.344538
2248.000000	0.344970
2249.000000	0.346684
2250.000000	0.347085
2251.000000	0.346107
2252.000000	0.343377
2253.000000	0.342144
2254.000000	0.342122
2255.000000	0.343850
2256.000000	0.347202
2257.000000	0.349534
2258.000000	0.350187
2259.000000	0.349586
2260.000000	0.349659
2261.000000	0.348741
2262.000000	0.347403
2263.000000	0.346357
2264.000000	0.344391
2265.000000	0.342937
2266.000000	0.342634
2267.000000	0.339667
2268.000000	0.334979
2269.000000	0.332273
2270.000000	0.328716
2271.000000	0.326414
2272.000000	0.326112
2273.000000	0.324826
2274.000000	0.323962
2275.000000	0.321665
2276.000000	0.318536
2277.000000	0.315390
2278.000000	0.312072
2279.000000	0.308726
2280.000000	0.307363
2281.000000	0.305424
2282.000000	0.303636
2283.000000	0.301593
2284.000000	0.298321
2285.000000	0.296799
2286.000000	0.294021
2287.000000	0.289448
2288.000000	0.285432
2289.000000	0.281225
2290.000000	0.276725
2291.000000	0.273039
2292.000000	0.270624
2293.000000	0.268751
2294.000000	0.267941
2295.000000	0.269324
2296.000000	0.268762
2297.000000	0.267438
2298.000000	0.267535
2299.000000	0.267588
2300.000000	0.268396
2301.000000	0.270895
2302.000000	0.272349
2303.000000	0.272696
2304.000000	0.274145
2305.000000	0.276048
2306.000000	0.277972
2307.000000	0.280126
2308.000000	0.283202
2309.000000	0.286087
2310.000000	0.290215
2311.000000	0.292995
2312.000000	0.292561
2313.000000	0.293492
2314.000000	0.294216
2315.000000	0.293965
2316.000000	0.296414
2317.000000	0.297493
2318.000000	0.297306
2319.000000	0.299036
2320.000000	0.300288
2321.000000	0.300460
2322.000000	0.299752
2323.000000	0.299241
2324.000000	0.298741
2325.000000	0.299681
2326.000000	0.301015
2327.000000	0.300422
2328.000000	0.301135
2329.000000	0.300411
2330.000000	0.299001
2331.000000	0.300073
2332.000000	0.300960
2333.000000	0.302119
2334.000000	0.303270
2335.000000	0.302362
2336.000000	0.298432
2337.000000	0.295332
2338.000000	0.290490
2339.000000	0.287755
2340.000000	0.285811
2341.000000	0.284553
2342.000000	0.284430
2343.000000	0.284038
2344.000000	0.284126
2345.000000	0.285468
2346.000000	0.288618
2347.000000	0.288232
2348.000000	0.286981
2349.000000	0.285679
2350.000000	0.281774
2351.000000	0.280007
2352.000000	0.280235
2353.000000	0.277484
2354.000000	0.275106
2355.000000	0.275654
2356.000000	0.275902
2357.000000	0.276770
2358.000000	0.275594
2359.000000	0.273993
2360.000000	0.270570
2361.000000	0.266708
2362.000000	0.265426
2363.000000	0.262265
2364.000000	0.260899
2365.000000	0.261065
2366.000000	0.259296
2367.000000	0.258273
2368.000000	0.254475
2369.000000	0.253481
2370.000000	0.256046
2371.000000	0.255256
2372.000000	0.257867
2373.000000	0.260500
2374.000000	0.257975
2375.000000	0.255184
2376.000000	0.254952
2377.000000	0.252801
2378.000000	0.250305
2379.000000	0.250345
2380.000000	0.247710
2381.000000	0.242385
2382.000000	0.233337
2383.000000	0.228657
2384.000000	0.227233
2385.000000	0.226319
2386.000000	0.232785
2387.000000	0.231052
2388.000000	0.227568
2389.000000	0.226430
2390.000000	0.219431
2391.000000	0.218317
2392.000000	0.217356
2393.000000	0.215897
2394.000000	0.216981
2395.000000	0.216964
2396.000000	0.213464
2397.000000	0.208678
2398.000000	0.206990
2399.000000	0.208015
2400.000000	0.213965
2401.000000	0.218877
2402.000000	0.221592
2403.000000	0.223069
2404.000000	0.218986
2405.000000	0.216251
2406.000000	0.215684
2407.000000	0.216347
2408.000000	0.222949
2409.000000	0.224255
2410.000000	0.223012
2411.000000	0.223804
2412.000000	0.218472
2413.000000	0.218196
2414.000000	0.221789
2415.000000	0.222503
2416.000000	0.225152
2417.000000	0.227025
2418.000000	0.226926
2419.000000	0.231825
2420.000000	0.234736
2421.000000	0.235684
2422.000000	0.243806
2423.000000	0.240805
2424.000000	0.233245
2425.000000	0.226742
2426.000000	0.217097
2427.000000	0.221817
2428.000000	0.224693
2429.000000	0.224884
2430.000000	0.235019
2431.000000	0.235840
2432.000000	0.240578
2433.000000	0.247299
2434.000000	0.235854
2435.000000	0.229572
2436.000000	0.223644
2437.000000	0.217453
2438.000000	0.223889
2439.000000	0.213398
2440.000000	0.194810
2441.000000	0.186780
2442.000000	0.178586
2443.000000	0.176274
2444.000000	0.176788
2445.000000	0.172611
2446.000000	0.174219
2447.000000	0.178803
2448.000000	0.182235
2449.000000	0.192637
2450.000000	0.199599
2451.000000	0.200527
2452.000000	0.207923
2453.000000	0.203302
2454.000000	0.182838
2455.000000	0.161448
2456.000000	0.134143
2457.000000	0.122639
2458.000000	0.130057
2459.000000	0.147547
2460.000000	0.171905
2461.000000	0.196404
2462.000000	0.216611
2463.000000	0.209026
2464.000000	0.204632
2465.000000	0.203372
2466.000000	0.184790
2467.000000	0.176502
2468.000000	0.180015
2469.000000	0.166802
2470.000000	0.151058
2471.000000	0.168631
2472.000000	0.182216
2473.000000	0.199329
2474.000000	0.241849
2475.000000	0.236827
2476.000000	0.215845
2477.000000	0.206855
2478.000000	0.177262
2479.000000	0.174079
2480.000000	0.181039
2481.000000	0.195251
2482.000000	0.194531
2483.000000	0.168335
2484.000000	0.179789
2485.000000	0.172063
2486.000000	0.173459
2487.000000	0.217052
2488.000000	0.228512
2489.000000	0.221395
2490.000000	0.194088
2491.000000	0.149611
2492.000000	0.126595
2493.000000	0.123921
2494.000000	0.123934
2495.000000	0.115714
2496.000000	0.139990
2497.000000	0.187636
2498.000000	0.239424
2499.000000	0.391561
2500.000000	0.430832
