# Wavelength	NAu-1-70_HEX-10_FV7-20_00000.asd.rts.txt
350.000000	0.120633
351.000000	0.086843
352.000000	0.087650
353.000000	0.101988
354.000000	0.110666
355.000000	0.100318
356.000000	0.093577
357.000000	0.096657
358.000000	0.103329
359.000000	0.107078
360.000000	0.110365
361.000000	0.115271
362.000000	0.102667
363.000000	0.094471
364.000000	0.102155
365.000000	0.105834
366.000000	0.104411
367.000000	0.101656
368.000000	0.106774
369.000000	0.106279
370.000000	0.104441
371.000000	0.108645
372.000000	0.104918
373.000000	0.104397
374.000000	0.112269
375.000000	0.111186
376.000000	0.110844
377.000000	0.113168
378.000000	0.113222
379.000000	0.110700
380.000000	0.109899
381.000000	0.115426
382.000000	0.115955
383.000000	0.114481
384.000000	0.114604
385.000000	0.116430
386.000000	0.118187
387.000000	0.120185
388.000000	0.125189
389.000000	0.125982
390.000000	0.124612
391.000000	0.125956
392.000000	0.128167
393.000000	0.130303
394.000000	0.131761
395.000000	0.132311
396.000000	0.134152
397.000000	0.137325
398.000000	0.139314
399.000000	0.140021
400.000000	0.140575
401.000000	0.142542
402.000000	0.143889
403.000000	0.144854
404.000000	0.146076
405.000000	0.147637
406.000000	0.149322
407.000000	0.151091
408.000000	0.153199
409.000000	0.155049
410.000000	0.156167
411.000000	0.156140
412.000000	0.157065
413.000000	0.158846
414.000000	0.160729
415.000000	0.161595
416.000000	0.161942
417.000000	0.162404
418.000000	0.163852
419.000000	0.164470
420.000000	0.164174
421.000000	0.164294
422.000000	0.165065
423.000000	0.165654
424.000000	0.165147
425.000000	0.165299
426.000000	0.165336
427.000000	0.164764
428.000000	0.165036
429.000000	0.165235
430.000000	0.165099
431.000000	0.165231
432.000000	0.165062
433.000000	0.164681
434.000000	0.164548
435.000000	0.164917
436.000000	0.165116
437.000000	0.164611
438.000000	0.164465
439.000000	0.164029
440.000000	0.163253
441.000000	0.163260
442.000000	0.162849
443.000000	0.162101
444.000000	0.162091
445.000000	0.161618
446.000000	0.161357
447.000000	0.162136
448.000000	0.162743
449.000000	0.163703
450.000000	0.165358
451.000000	0.167030
452.000000	0.169070
453.000000	0.171472
454.000000	0.173985
455.000000	0.176814
456.000000	0.179826
457.000000	0.182643
458.000000	0.185174
459.000000	0.187654
460.000000	0.190271
461.000000	0.192534
462.000000	0.194727
463.000000	0.196791
464.000000	0.198371
465.000000	0.199743
466.000000	0.201116
467.000000	0.202779
468.000000	0.203814
469.000000	0.204558
470.000000	0.205688
471.000000	0.206608
472.000000	0.207505
473.000000	0.208485
474.000000	0.209184
475.000000	0.209620
476.000000	0.210074
477.000000	0.210877
478.000000	0.211707
479.000000	0.212495
480.000000	0.212995
481.000000	0.213494
482.000000	0.214083
483.000000	0.214621
484.000000	0.215146
485.000000	0.215869
486.000000	0.216845
487.000000	0.217328
488.000000	0.217801
489.000000	0.218389
490.000000	0.218995
491.000000	0.219919
492.000000	0.220804
493.000000	0.221145
494.000000	0.221834
495.000000	0.222590
496.000000	0.223180
497.000000	0.224040
498.000000	0.224898
499.000000	0.225714
500.000000	0.226576
501.000000	0.227259
502.000000	0.227912
503.000000	0.228762
504.000000	0.229618
505.000000	0.230489
506.000000	0.231388
507.000000	0.232100
508.000000	0.232912
509.000000	0.233914
510.000000	0.234901
511.000000	0.235824
512.000000	0.236714
513.000000	0.237614
514.000000	0.238529
515.000000	0.239514
516.000000	0.240556
517.000000	0.241498
518.000000	0.242489
519.000000	0.243554
520.000000	0.244550
521.000000	0.245624
522.000000	0.246780
523.000000	0.247757
524.000000	0.248846
525.000000	0.250034
526.000000	0.251198
527.000000	0.252401
528.000000	0.253595
529.000000	0.254785
530.000000	0.256055
531.000000	0.257416
532.000000	0.258751
533.000000	0.259938
534.000000	0.261271
535.000000	0.262712
536.000000	0.263915
537.000000	0.265129
538.000000	0.266451
539.000000	0.267890
540.000000	0.269137
541.000000	0.270357
542.000000	0.271742
543.000000	0.273057
544.000000	0.274400
545.000000	0.275756
546.000000	0.277133
547.000000	0.278492
548.000000	0.279834
549.000000	0.281091
550.000000	0.282353
551.000000	0.283678
552.000000	0.285040
553.000000	0.286350
554.000000	0.287658
555.000000	0.289009
556.000000	0.290374
557.000000	0.291557
558.000000	0.292675
559.000000	0.293880
560.000000	0.294945
561.000000	0.295984
562.000000	0.297113
563.000000	0.298221
564.000000	0.299338
565.000000	0.300393
566.000000	0.301377
567.000000	0.302317
568.000000	0.303231
569.000000	0.304210
570.000000	0.305106
571.000000	0.305914
572.000000	0.306785
573.000000	0.307648
574.000000	0.308415
575.000000	0.309064
576.000000	0.309706
577.000000	0.310327
578.000000	0.310968
579.000000	0.311599
580.000000	0.312197
581.000000	0.312736
582.000000	0.313188
583.000000	0.313557
584.000000	0.313931
585.000000	0.314451
586.000000	0.314750
587.000000	0.314962
588.000000	0.315303
589.000000	0.315651
590.000000	0.315973
591.000000	0.316251
592.000000	0.316464
593.000000	0.316755
594.000000	0.317095
595.000000	0.317277
596.000000	0.317431
597.000000	0.317601
598.000000	0.317698
599.000000	0.317788
600.000000	0.317917
601.000000	0.318014
602.000000	0.318025
603.000000	0.318052
604.000000	0.318141
605.000000	0.318215
606.000000	0.318235
607.000000	0.318264
608.000000	0.318432
609.000000	0.318541
610.000000	0.318613
611.000000	0.318705
612.000000	0.318711
613.000000	0.318731
614.000000	0.318844
615.000000	0.318873
616.000000	0.318857
617.000000	0.318782
618.000000	0.318694
619.000000	0.318674
620.000000	0.318691
621.000000	0.318727
622.000000	0.318744
623.000000	0.318745
624.000000	0.318738
625.000000	0.318724
626.000000	0.318753
627.000000	0.318845
628.000000	0.318961
629.000000	0.319124
630.000000	0.319199
631.000000	0.319276
632.000000	0.319413
633.000000	0.319544
634.000000	0.319594
635.000000	0.319709
636.000000	0.319849
637.000000	0.319955
638.000000	0.320017
639.000000	0.320117
640.000000	0.320282
641.000000	0.320321
642.000000	0.320396
643.000000	0.320531
644.000000	0.320702
645.000000	0.320804
646.000000	0.320948
647.000000	0.321162
648.000000	0.321271
649.000000	0.321440
650.000000	0.321676
651.000000	0.321844
652.000000	0.322020
653.000000	0.322248
654.000000	0.322471
655.000000	0.322766
656.000000	0.323078
657.000000	0.323303
658.000000	0.323573
659.000000	0.323820
660.000000	0.324029
661.000000	0.324353
662.000000	0.324581
663.000000	0.324777
664.000000	0.325061
665.000000	0.325368
666.000000	0.325699
667.000000	0.326023
668.000000	0.326302
669.000000	0.326624
670.000000	0.327024
671.000000	0.327359
672.000000	0.327763
673.000000	0.328236
674.000000	0.328702
675.000000	0.329074
676.000000	0.329404
677.000000	0.329797
678.000000	0.330202
679.000000	0.330608
680.000000	0.331014
681.000000	0.331367
682.000000	0.331806
683.000000	0.332261
684.000000	0.332697
685.000000	0.333153
686.000000	0.333633
687.000000	0.334079
688.000000	0.334559
689.000000	0.335031
690.000000	0.335501
691.000000	0.336017
692.000000	0.336520
693.000000	0.337068
694.000000	0.337654
695.000000	0.338199
696.000000	0.338704
697.000000	0.339210
698.000000	0.339772
699.000000	0.340374
700.000000	0.340985
701.000000	0.341527
702.000000	0.342064
703.000000	0.342604
704.000000	0.343123
705.000000	0.343689
706.000000	0.344270
707.000000	0.344898
708.000000	0.345521
709.000000	0.346101
710.000000	0.346652
711.000000	0.347235
712.000000	0.347804
713.000000	0.348374
714.000000	0.348985
715.000000	0.349631
716.000000	0.350288
717.000000	0.350894
718.000000	0.351515
719.000000	0.352080
720.000000	0.352566
721.000000	0.353105
722.000000	0.353615
723.000000	0.354138
724.000000	0.354681
725.000000	0.355157
726.000000	0.355674
727.000000	0.356229
728.000000	0.356777
729.000000	0.357312
730.000000	0.357791
731.000000	0.358365
732.000000	0.358882
733.000000	0.359350
734.000000	0.359848
735.000000	0.360294
736.000000	0.360803
737.000000	0.361260
738.000000	0.361663
739.000000	0.362117
740.000000	0.362490
741.000000	0.362804
742.000000	0.363175
743.000000	0.363584
744.000000	0.363963
745.000000	0.364266
746.000000	0.364593
747.000000	0.364955
748.000000	0.365286
749.000000	0.365574
750.000000	0.365790
751.000000	0.366005
752.000000	0.366240
753.000000	0.366474
754.000000	0.366613
755.000000	0.366779
756.000000	0.367024
757.000000	0.367290
758.000000	0.367469
759.000000	0.367650
760.000000	0.367811
761.000000	0.367988
762.000000	0.368130
763.000000	0.368220
764.000000	0.368353
765.000000	0.368442
766.000000	0.368524
767.000000	0.368633
768.000000	0.368730
769.000000	0.368768
770.000000	0.368767
771.000000	0.368829
772.000000	0.368831
773.000000	0.368713
774.000000	0.368600
775.000000	0.368454
776.000000	0.368309
777.000000	0.368177
778.000000	0.368070
779.000000	0.367951
780.000000	0.367804
781.000000	0.367604
782.000000	0.367412
783.000000	0.367322
784.000000	0.367199
785.000000	0.367040
786.000000	0.366847
787.000000	0.366620
788.000000	0.366372
789.000000	0.366147
790.000000	0.365923
791.000000	0.365704
792.000000	0.365526
793.000000	0.365344
794.000000	0.365105
795.000000	0.364739
796.000000	0.364384
797.000000	0.364073
798.000000	0.363742
799.000000	0.363529
800.000000	0.363337
801.000000	0.363032
802.000000	0.362726
803.000000	0.362375
804.000000	0.361997
805.000000	0.361578
806.000000	0.361124
807.000000	0.360754
808.000000	0.360456
809.000000	0.360188
810.000000	0.359908
811.000000	0.359565
812.000000	0.359155
813.000000	0.358708
814.000000	0.358256
815.000000	0.357852
816.000000	0.357401
817.000000	0.357008
818.000000	0.356672
819.000000	0.356288
820.000000	0.355886
821.000000	0.355466
822.000000	0.355162
823.000000	0.354800
824.000000	0.354341
825.000000	0.353936
826.000000	0.353576
827.000000	0.353207
828.000000	0.352852
829.000000	0.352534
830.000000	0.352163
831.000000	0.351794
832.000000	0.351373
833.000000	0.350995
834.000000	0.350618
835.000000	0.350213
836.000000	0.349687
837.000000	0.349194
838.000000	0.348786
839.000000	0.348374
840.000000	0.348022
841.000000	0.347673
842.000000	0.347250
843.000000	0.346978
844.000000	0.346625
845.000000	0.346168
846.000000	0.345906
847.000000	0.345517
848.000000	0.345058
849.000000	0.344701
850.000000	0.344434
851.000000	0.344092
852.000000	0.343680
853.000000	0.343314
854.000000	0.342966
855.000000	0.342707
856.000000	0.342397
857.000000	0.341974
858.000000	0.341554
859.000000	0.341159
860.000000	0.340922
861.000000	0.340678
862.000000	0.340400
863.000000	0.340036
864.000000	0.339642
865.000000	0.339286
866.000000	0.339000
867.000000	0.338678
868.000000	0.338386
869.000000	0.338043
870.000000	0.337650
871.000000	0.337266
872.000000	0.336980
873.000000	0.336744
874.000000	0.336486
875.000000	0.336190
876.000000	0.335946
877.000000	0.335774
878.000000	0.335411
879.000000	0.335059
880.000000	0.334737
881.000000	0.334580
882.000000	0.334297
883.000000	0.334028
884.000000	0.333943
885.000000	0.333549
886.000000	0.333118
887.000000	0.332838
888.000000	0.332495
889.000000	0.332321
890.000000	0.332141
891.000000	0.331899
892.000000	0.331653
893.000000	0.331364
894.000000	0.331131
895.000000	0.330841
896.000000	0.330651
897.000000	0.330469
898.000000	0.330174
899.000000	0.330019
900.000000	0.329892
901.000000	0.329714
902.000000	0.329636
903.000000	0.329513
904.000000	0.329302
905.000000	0.328927
906.000000	0.328681
907.000000	0.328509
908.000000	0.328417
909.000000	0.328292
910.000000	0.328051
911.000000	0.327846
912.000000	0.327800
913.000000	0.327620
914.000000	0.327401
915.000000	0.327288
916.000000	0.327275
917.000000	0.327287
918.000000	0.327233
919.000000	0.327061
920.000000	0.326901
921.000000	0.326747
922.000000	0.326606
923.000000	0.326440
924.000000	0.326085
925.000000	0.325820
926.000000	0.325773
927.000000	0.325590
928.000000	0.325481
929.000000	0.325431
930.000000	0.325366
931.000000	0.325334
932.000000	0.325130
933.000000	0.324895
934.000000	0.325010
935.000000	0.324877
936.000000	0.324703
937.000000	0.324662
938.000000	0.324708
939.000000	0.324806
940.000000	0.324836
941.000000	0.324812
942.000000	0.324737
943.000000	0.324822
944.000000	0.324944
945.000000	0.324796
946.000000	0.324677
947.000000	0.324684
948.000000	0.324705
949.000000	0.324454
950.000000	0.324228
951.000000	0.324095
952.000000	0.324014
953.000000	0.323977
954.000000	0.323890
955.000000	0.323700
956.000000	0.323826
957.000000	0.323862
958.000000	0.323826
959.000000	0.323999
960.000000	0.324114
961.000000	0.324086
962.000000	0.323959
963.000000	0.323974
964.000000	0.324126
965.000000	0.324238
966.000000	0.324091
967.000000	0.324023
968.000000	0.323999
969.000000	0.323931
970.000000	0.323853
971.000000	0.323829
972.000000	0.323728
973.000000	0.323677
974.000000	0.324300
975.000000	0.324508
976.000000	0.324432
977.000000	0.324376
978.000000	0.324288
979.000000	0.324502
980.000000	0.324599
981.000000	0.324478
982.000000	0.324661
983.000000	0.324831
984.000000	0.324929
985.000000	0.325058
986.000000	0.325148
987.000000	0.325383
988.000000	0.325594
989.000000	0.325143
990.000000	0.325379
991.000000	0.325818
992.000000	0.325661
993.000000	0.325701
994.000000	0.325987
995.000000	0.326424
996.000000	0.326452
997.000000	0.326642
998.000000	0.326898
999.000000	0.327154
1000.000000	0.327238
1001.000000	0.327062
1002.000000	0.326975
1003.000000	0.327253
1004.000000	0.327388
1005.000000	0.327440
1006.000000	0.327633
1007.000000	0.328208
1008.000000	0.328053
1009.000000	0.327815
1010.000000	0.327450
1011.000000	0.327261
1012.000000	0.327488
1013.000000	0.327598
1014.000000	0.327884
1015.000000	0.328720
1016.000000	0.329823
1017.000000	0.330858
1018.000000	0.330956
1019.000000	0.331144
1020.000000	0.330902
1021.000000	0.330881
1022.000000	0.331182
1023.000000	0.331526
1024.000000	0.331954
1025.000000	0.331682
1026.000000	0.331773
1027.000000	0.332649
1028.000000	0.333091
1029.000000	0.333383
1030.000000	0.333983
1031.000000	0.333884
1032.000000	0.333683
1033.000000	0.334123
1034.000000	0.334694
1035.000000	0.335348
1036.000000	0.335915
1037.000000	0.337187
1038.000000	0.337528
1039.000000	0.337298
1040.000000	0.337067
1041.000000	0.337107
1042.000000	0.337115
1043.000000	0.337627
1044.000000	0.338490
1045.000000	0.339012
1046.000000	0.339574
1047.000000	0.340037
1048.000000	0.340216
1049.000000	0.340530
1050.000000	0.340921
1051.000000	0.341216
1052.000000	0.341416
1053.000000	0.341689
1054.000000	0.342078
1055.000000	0.342612
1056.000000	0.343443
1057.000000	0.343966
1058.000000	0.344431
1059.000000	0.344781
1060.000000	0.345359
1061.000000	0.345952
1062.000000	0.346229
1063.000000	0.346933
1064.000000	0.347648
1065.000000	0.348377
1066.000000	0.348887
1067.000000	0.349449
1068.000000	0.349893
1069.000000	0.349804
1070.000000	0.350096
1071.000000	0.350911
1072.000000	0.351430
1073.000000	0.351811
1074.000000	0.352383
1075.000000	0.352893
1076.000000	0.353326
1077.000000	0.353869
1078.000000	0.354634
1079.000000	0.355258
1080.000000	0.356036
1081.000000	0.356383
1082.000000	0.356496
1083.000000	0.356863
1084.000000	0.357107
1085.000000	0.357592
1086.000000	0.358383
1087.000000	0.358994
1088.000000	0.359404
1089.000000	0.359907
1090.000000	0.360305
1091.000000	0.360945
1092.000000	0.361658
1093.000000	0.362182
1094.000000	0.362753
1095.000000	0.363188
1096.000000	0.363894
1097.000000	0.364826
1098.000000	0.365418
1099.000000	0.365875
1100.000000	0.366476
1101.000000	0.366828
1102.000000	0.367320
1103.000000	0.367951
1104.000000	0.368654
1105.000000	0.369487
1106.000000	0.370074
1107.000000	0.370429
1108.000000	0.371017
1109.000000	0.371756
1110.000000	0.372227
1111.000000	0.372760
1112.000000	0.373461
1113.000000	0.374197
1114.000000	0.374830
1115.000000	0.375439
1116.000000	0.376345
1117.000000	0.376901
1118.000000	0.377154
1119.000000	0.377358
1120.000000	0.377230
1121.000000	0.377559
1122.000000	0.378148
1123.000000	0.378826
1124.000000	0.379719
1125.000000	0.380362
1126.000000	0.380524
1127.000000	0.380885
1128.000000	0.381281
1129.000000	0.381686
1130.000000	0.382254
1131.000000	0.383061
1132.000000	0.383581
1133.000000	0.384066
1134.000000	0.384680
1135.000000	0.385177
1136.000000	0.385705
1137.000000	0.386505
1138.000000	0.386903
1139.000000	0.387089
1140.000000	0.387464
1141.000000	0.387628
1142.000000	0.387951
1143.000000	0.388232
1144.000000	0.388824
1145.000000	0.389599
1146.000000	0.390020
1147.000000	0.390417
1148.000000	0.390686
1149.000000	0.391113
1150.000000	0.391478
1151.000000	0.391844
1152.000000	0.392366
1153.000000	0.392681
1154.000000	0.392517
1155.000000	0.392860
1156.000000	0.393519
1157.000000	0.393977
1158.000000	0.394542
1159.000000	0.394992
1160.000000	0.395177
1161.000000	0.395504
1162.000000	0.395933
1163.000000	0.396632
1164.000000	0.397093
1165.000000	0.397426
1166.000000	0.397781
1167.000000	0.397918
1168.000000	0.398263
1169.000000	0.398807
1170.000000	0.399151
1171.000000	0.399466
1172.000000	0.399921
1173.000000	0.400364
1174.000000	0.400673
1175.000000	0.401019
1176.000000	0.401275
1177.000000	0.401300
1178.000000	0.401558
1179.000000	0.402037
1180.000000	0.402360
1181.000000	0.402860
1182.000000	0.403170
1183.000000	0.403534
1184.000000	0.403884
1185.000000	0.404175
1186.000000	0.404436
1187.000000	0.404711
1188.000000	0.404917
1189.000000	0.405172
1190.000000	0.405486
1191.000000	0.405834
1192.000000	0.406381
1193.000000	0.406910
1194.000000	0.407370
1195.000000	0.407759
1196.000000	0.407983
1197.000000	0.408250
1198.000000	0.408501
1199.000000	0.408784
1200.000000	0.409125
1201.000000	0.409387
1202.000000	0.409561
1203.000000	0.409814
1204.000000	0.409972
1205.000000	0.410184
1206.000000	0.410365
1207.000000	0.410720
1208.000000	0.410848
1209.000000	0.410912
1210.000000	0.411082
1211.000000	0.411196
1212.000000	0.411387
1213.000000	0.411804
1214.000000	0.412069
1215.000000	0.412212
1216.000000	0.412386
1217.000000	0.412428
1218.000000	0.412603
1219.000000	0.412904
1220.000000	0.413241
1221.000000	0.413530
1222.000000	0.413767
1223.000000	0.413963
1224.000000	0.414133
1225.000000	0.414231
1226.000000	0.414382
1227.000000	0.414495
1228.000000	0.414570
1229.000000	0.414673
1230.000000	0.414809
1231.000000	0.414947
1232.000000	0.415241
1233.000000	0.415590
1234.000000	0.416091
1235.000000	0.416289
1236.000000	0.416140
1237.000000	0.416245
1238.000000	0.416221
1239.000000	0.416273
1240.000000	0.416406
1241.000000	0.416765
1242.000000	0.416871
1243.000000	0.416945
1244.000000	0.417077
1245.000000	0.417209
1246.000000	0.417389
1247.000000	0.417626
1248.000000	0.417830
1249.000000	0.417863
1250.000000	0.417957
1251.000000	0.418174
1252.000000	0.418264
1253.000000	0.418442
1254.000000	0.418511
1255.000000	0.418365
1256.000000	0.418411
1257.000000	0.418588
1258.000000	0.418748
1259.000000	0.418883
1260.000000	0.419047
1261.000000	0.419066
1262.000000	0.419194
1263.000000	0.419456
1264.000000	0.419661
1265.000000	0.419765
1266.000000	0.419885
1267.000000	0.419808
1268.000000	0.419675
1269.000000	0.419780
1270.000000	0.419878
1271.000000	0.419898
1272.000000	0.420151
1273.000000	0.420331
1274.000000	0.420410
1275.000000	0.420506
1276.000000	0.420684
1277.000000	0.420851
1278.000000	0.420899
1279.000000	0.420916
1280.000000	0.420838
1281.000000	0.420755
1282.000000	0.420610
1283.000000	0.420605
1284.000000	0.420601
1285.000000	0.420667
1286.000000	0.420751
1287.000000	0.420842
1288.000000	0.421115
1289.000000	0.421182
1290.000000	0.421010
1291.000000	0.420944
1292.000000	0.420954
1293.000000	0.420894
1294.000000	0.420961
1295.000000	0.421261
1296.000000	0.421290
1297.000000	0.421271
1298.000000	0.421442
1299.000000	0.421386
1300.000000	0.421454
1301.000000	0.421602
1302.000000	0.421554
1303.000000	0.421528
1304.000000	0.421514
1305.000000	0.421537
1306.000000	0.421479
1307.000000	0.421514
1308.000000	0.421498
1309.000000	0.421350
1310.000000	0.421320
1311.000000	0.421395
1312.000000	0.421366
1313.000000	0.421343
1314.000000	0.421344
1315.000000	0.421345
1316.000000	0.421312
1317.000000	0.421321
1318.000000	0.421261
1319.000000	0.420967
1320.000000	0.420765
1321.000000	0.420549
1322.000000	0.420330
1323.000000	0.420338
1324.000000	0.420353
1325.000000	0.420179
1326.000000	0.420027
1327.000000	0.419942
1328.000000	0.419766
1329.000000	0.419579
1330.000000	0.419505
1331.000000	0.419471
1332.000000	0.419420
1333.000000	0.419400
1334.000000	0.419651
1335.000000	0.419630
1336.000000	0.419410
1337.000000	0.419280
1338.000000	0.419014
1339.000000	0.418812
1340.000000	0.418716
1341.000000	0.418684
1342.000000	0.418735
1343.000000	0.418771
1344.000000	0.418686
1345.000000	0.418611
1346.000000	0.418645
1347.000000	0.418293
1348.000000	0.418108
1349.000000	0.418024
1350.000000	0.417742
1351.000000	0.417675
1352.000000	0.417752
1353.000000	0.417636
1354.000000	0.417514
1355.000000	0.417304
1356.000000	0.417030
1357.000000	0.416782
1358.000000	0.416628
1359.000000	0.416601
1360.000000	0.416558
1361.000000	0.416604
1362.000000	0.416491
1363.000000	0.416306
1364.000000	0.416161
1365.000000	0.415912
1366.000000	0.415687
1367.000000	0.415491
1368.000000	0.415291
1369.000000	0.415086
1370.000000	0.414858
1371.000000	0.414661
1372.000000	0.414312
1373.000000	0.413834
1374.000000	0.413369
1375.000000	0.412852
1376.000000	0.412297
1377.000000	0.411867
1378.000000	0.411298
1379.000000	0.410418
1380.000000	0.409675
1381.000000	0.408743
1382.000000	0.407616
1383.000000	0.406668
1384.000000	0.405528
1385.000000	0.404326
1386.000000	0.403158
1387.000000	0.401759
1388.000000	0.400395
1389.000000	0.399087
1390.000000	0.397654
1391.000000	0.396214
1392.000000	0.394735
1393.000000	0.393185
1394.000000	0.391616
1395.000000	0.390100
1396.000000	0.388515
1397.000000	0.386920
1398.000000	0.385357
1399.000000	0.383678
1400.000000	0.381897
1401.000000	0.380193
1402.000000	0.378528
1403.000000	0.376731
1404.000000	0.375199
1405.000000	0.373593
1406.000000	0.371991
1407.000000	0.370496
1408.000000	0.368860
1409.000000	0.367435
1410.000000	0.366099
1411.000000	0.364665
1412.000000	0.363314
1413.000000	0.362181
1414.000000	0.361205
1415.000000	0.360511
1416.000000	0.360095
1417.000000	0.359721
1418.000000	0.359345
1419.000000	0.359136
1420.000000	0.358794
1421.000000	0.358621
1422.000000	0.358583
1423.000000	0.358398
1424.000000	0.358187
1425.000000	0.357872
1426.000000	0.357404
1427.000000	0.356991
1428.000000	0.356487
1429.000000	0.356026
1430.000000	0.355609
1431.000000	0.355200
1432.000000	0.355018
1433.000000	0.355041
1434.000000	0.355205
1435.000000	0.355574
1436.000000	0.356211
1437.000000	0.357027
1438.000000	0.357962
1439.000000	0.359240
1440.000000	0.360558
1441.000000	0.362036
1442.000000	0.363603
1443.000000	0.365279
1444.000000	0.366885
1445.000000	0.368393
1446.000000	0.369780
1447.000000	0.371078
1448.000000	0.372244
1449.000000	0.373363
1450.000000	0.374312
1451.000000	0.374985
1452.000000	0.375589
1453.000000	0.376058
1454.000000	0.376271
1455.000000	0.376515
1456.000000	0.376721
1457.000000	0.376814
1458.000000	0.377052
1459.000000	0.377321
1460.000000	0.377484
1461.000000	0.377645
1462.000000	0.377768
1463.000000	0.377774
1464.000000	0.377830
1465.000000	0.378103
1466.000000	0.378429
1467.000000	0.378832
1468.000000	0.379307
1469.000000	0.379647
1470.000000	0.379884
1471.000000	0.380240
1472.000000	0.380657
1473.000000	0.381219
1474.000000	0.381789
1475.000000	0.382388
1476.000000	0.382856
1477.000000	0.383335
1478.000000	0.383942
1479.000000	0.384497
1480.000000	0.385105
1481.000000	0.385597
1482.000000	0.386071
1483.000000	0.386561
1484.000000	0.386939
1485.000000	0.387388
1486.000000	0.387881
1487.000000	0.388387
1488.000000	0.388987
1489.000000	0.389532
1490.000000	0.389909
1491.000000	0.390339
1492.000000	0.390649
1493.000000	0.391055
1494.000000	0.391475
1495.000000	0.391902
1496.000000	0.392428
1497.000000	0.392808
1498.000000	0.393137
1499.000000	0.393440
1500.000000	0.393753
1501.000000	0.394017
1502.000000	0.394390
1503.000000	0.394843
1504.000000	0.395240
1505.000000	0.395629
1506.000000	0.395987
1507.000000	0.396307
1508.000000	0.396723
1509.000000	0.397043
1510.000000	0.397303
1511.000000	0.397597
1512.000000	0.397698
1513.000000	0.397756
1514.000000	0.398011
1515.000000	0.398309
1516.000000	0.398565
1517.000000	0.398859
1518.000000	0.399127
1519.000000	0.399164
1520.000000	0.399309
1521.000000	0.399510
1522.000000	0.399694
1523.000000	0.400002
1524.000000	0.400205
1525.000000	0.400318
1526.000000	0.400466
1527.000000	0.400597
1528.000000	0.400711
1529.000000	0.400951
1530.000000	0.401156
1531.000000	0.401323
1532.000000	0.401631
1533.000000	0.401856
1534.000000	0.401905
1535.000000	0.402029
1536.000000	0.402104
1537.000000	0.402322
1538.000000	0.402632
1539.000000	0.402721
1540.000000	0.402868
1541.000000	0.403154
1542.000000	0.403348
1543.000000	0.403633
1544.000000	0.403963
1545.000000	0.404245
1546.000000	0.404498
1547.000000	0.404602
1548.000000	0.404680
1549.000000	0.404755
1550.000000	0.404842
1551.000000	0.405059
1552.000000	0.405248
1553.000000	0.405227
1554.000000	0.405162
1555.000000	0.405328
1556.000000	0.405611
1557.000000	0.405816
1558.000000	0.406005
1559.000000	0.406149
1560.000000	0.406219
1561.000000	0.406234
1562.000000	0.406281
1563.000000	0.406389
1564.000000	0.406454
1565.000000	0.406483
1566.000000	0.406472
1567.000000	0.406566
1568.000000	0.406582
1569.000000	0.406637
1570.000000	0.406655
1571.000000	0.406599
1572.000000	0.406606
1573.000000	0.406650
1574.000000	0.406694
1575.000000	0.406784
1576.000000	0.406828
1577.000000	0.406831
1578.000000	0.406890
1579.000000	0.407051
1580.000000	0.407140
1581.000000	0.407319
1582.000000	0.407404
1583.000000	0.407352
1584.000000	0.407394
1585.000000	0.407533
1586.000000	0.407744
1587.000000	0.408085
1588.000000	0.408325
1589.000000	0.408657
1590.000000	0.408808
1591.000000	0.408799
1592.000000	0.408851
1593.000000	0.408915
1594.000000	0.408930
1595.000000	0.408991
1596.000000	0.409051
1597.000000	0.409095
1598.000000	0.409105
1599.000000	0.409167
1600.000000	0.409178
1601.000000	0.409203
1602.000000	0.409223
1603.000000	0.409345
1604.000000	0.409330
1605.000000	0.409275
1606.000000	0.409188
1607.000000	0.409044
1608.000000	0.408981
1609.000000	0.408992
1610.000000	0.408965
1611.000000	0.408981
1612.000000	0.409053
1613.000000	0.409308
1614.000000	0.409454
1615.000000	0.409695
1616.000000	0.409860
1617.000000	0.409865
1618.000000	0.409902
1619.000000	0.409952
1620.000000	0.409968
1621.000000	0.409934
1622.000000	0.409992
1623.000000	0.409990
1624.000000	0.410078
1625.000000	0.410135
1626.000000	0.410104
1627.000000	0.410098
1628.000000	0.410120
1629.000000	0.410037
1630.000000	0.410093
1631.000000	0.410181
1632.000000	0.410173
1633.000000	0.410207
1634.000000	0.410178
1635.000000	0.410132
1636.000000	0.410089
1637.000000	0.409995
1638.000000	0.409952
1639.000000	0.410036
1640.000000	0.409973
1641.000000	0.409975
1642.000000	0.409997
1643.000000	0.409963
1644.000000	0.409955
1645.000000	0.410021
1646.000000	0.409992
1647.000000	0.409931
1648.000000	0.409891
1649.000000	0.409981
1650.000000	0.410037
1651.000000	0.410149
1652.000000	0.410254
1653.000000	0.410261
1654.000000	0.410372
1655.000000	0.410462
1656.000000	0.410407
1657.000000	0.410460
1658.000000	0.410412
1659.000000	0.410310
1660.000000	0.410381
1661.000000	0.410433
1662.000000	0.410492
1663.000000	0.410556
1664.000000	0.410669
1665.000000	0.410763
1666.000000	0.411021
1667.000000	0.411355
1668.000000	0.411507
1669.000000	0.411650
1670.000000	0.411617
1671.000000	0.411488
1672.000000	0.411606
1673.000000	0.411731
1674.000000	0.411819
1675.000000	0.411989
1676.000000	0.412010
1677.000000	0.412069
1678.000000	0.412057
1679.000000	0.412083
1680.000000	0.412126
1681.000000	0.412146
1682.000000	0.412293
1683.000000	0.412456
1684.000000	0.412480
1685.000000	0.412458
1686.000000	0.412534
1687.000000	0.412622
1688.000000	0.412599
1689.000000	0.412718
1690.000000	0.412640
1691.000000	0.412555
1692.000000	0.412548
1693.000000	0.412363
1694.000000	0.412115
1695.000000	0.412038
1696.000000	0.411943
1697.000000	0.411825
1698.000000	0.411903
1699.000000	0.411906
1700.000000	0.411806
1701.000000	0.411891
1702.000000	0.411789
1703.000000	0.411738
1704.000000	0.411923
1705.000000	0.412025
1706.000000	0.412165
1707.000000	0.412284
1708.000000	0.412413
1709.000000	0.412351
1710.000000	0.412301
1711.000000	0.412241
1712.000000	0.412032
1713.000000	0.411919
1714.000000	0.411891
1715.000000	0.411915
1716.000000	0.412134
1717.000000	0.412100
1718.000000	0.411901
1719.000000	0.411780
1720.000000	0.411538
1721.000000	0.411463
1722.000000	0.411577
1723.000000	0.411651
1724.000000	0.411837
1725.000000	0.411898
1726.000000	0.411781
1727.000000	0.411775
1728.000000	0.411633
1729.000000	0.411537
1730.000000	0.411793
1731.000000	0.411739
1732.000000	0.411520
1733.000000	0.411481
1734.000000	0.411176
1735.000000	0.411112
1736.000000	0.411235
1737.000000	0.411171
1738.000000	0.411082
1739.000000	0.411064
1740.000000	0.410987
1741.000000	0.410927
1742.000000	0.410945
1743.000000	0.411030
1744.000000	0.411112
1745.000000	0.411036
1746.000000	0.410999
1747.000000	0.410654
1748.000000	0.410351
1749.000000	0.409986
1750.000000	0.409795
1751.000000	0.409981
1752.000000	0.410129
1753.000000	0.410253
1754.000000	0.410324
1755.000000	0.410136
1756.000000	0.410090
1757.000000	0.410208
1758.000000	0.410222
1759.000000	0.410182
1760.000000	0.410169
1761.000000	0.410066
1762.000000	0.409945
1763.000000	0.409858
1764.000000	0.409796
1765.000000	0.409654
1766.000000	0.409552
1767.000000	0.409440
1768.000000	0.409254
1769.000000	0.409109
1770.000000	0.409021
1771.000000	0.408880
1772.000000	0.408766
1773.000000	0.408596
1774.000000	0.408535
1775.000000	0.408648
1776.000000	0.408619
1777.000000	0.408548
1778.000000	0.408459
1779.000000	0.408215
1780.000000	0.408174
1781.000000	0.408237
1782.000000	0.408149
1783.000000	0.408069
1784.000000	0.408309
1785.000000	0.408225
1786.000000	0.408104
1787.000000	0.408331
1788.000000	0.408420
1789.000000	0.408360
1790.000000	0.408490
1791.000000	0.408549
1792.000000	0.408611
1793.000000	0.408636
1794.000000	0.408812
1795.000000	0.408835
1796.000000	0.408586
1797.000000	0.408457
1798.000000	0.408233
1799.000000	0.408153
1800.000000	0.408321
1801.000000	0.408327
1802.000000	0.408333
1803.000000	0.408047
1804.000000	0.408298
1805.000000	0.408968
1806.000000	0.409333
1807.000000	0.410264
1808.000000	0.410314
1809.000000	0.409552
1810.000000	0.408904
1811.000000	0.408617
1812.000000	0.408140
1813.000000	0.408007
1814.000000	0.408590
1815.000000	0.408549
1816.000000	0.408213
1817.000000	0.407813
1818.000000	0.406473
1819.000000	0.407061
1820.000000	0.407860
1821.000000	0.407347
1822.000000	0.407342
1823.000000	0.407540
1824.000000	0.407167
1825.000000	0.406078
1826.000000	0.405897
1827.000000	0.405664
1828.000000	0.405767
1829.000000	0.406268
1830.000000	0.406522
1831.000000	0.406469
1832.000000	0.405822
1833.000000	0.405894
1834.000000	0.406213
1835.000000	0.406172
1836.000000	0.406487
1837.000000	0.406523
1838.000000	0.406018
1839.000000	0.405211
1840.000000	0.404950
1841.000000	0.404782
1842.000000	0.404475
1843.000000	0.404160
1844.000000	0.403780
1845.000000	0.402785
1846.000000	0.402448
1847.000000	0.401926
1848.000000	0.402340
1849.000000	0.402233
1850.000000	0.402228
1851.000000	0.402404
1852.000000	0.402400
1853.000000	0.402307
1854.000000	0.402288
1855.000000	0.402122
1856.000000	0.401679
1857.000000	0.400812
1858.000000	0.400224
1859.000000	0.400218
1860.000000	0.399271
1861.000000	0.397946
1862.000000	0.396531
1863.000000	0.394312
1864.000000	0.393014
1865.000000	0.392211
1866.000000	0.391268
1867.000000	0.390695
1868.000000	0.390241
1869.000000	0.389152
1870.000000	0.386867
1871.000000	0.384743
1872.000000	0.382951
1873.000000	0.381137
1874.000000	0.379623
1875.000000	0.377857
1876.000000	0.375927
1877.000000	0.373137
1878.000000	0.370683
1879.000000	0.367636
1880.000000	0.364482
1881.000000	0.361601
1882.000000	0.358174
1883.000000	0.354793
1884.000000	0.351562
1885.000000	0.348460
1886.000000	0.344701
1887.000000	0.340864
1888.000000	0.336251
1889.000000	0.331527
1890.000000	0.326784
1891.000000	0.321656
1892.000000	0.316792
1893.000000	0.311600
1894.000000	0.306112
1895.000000	0.300632
1896.000000	0.295171
1897.000000	0.290138
1898.000000	0.284914
1899.000000	0.279987
1900.000000	0.275713
1901.000000	0.270709
1902.000000	0.266237
1903.000000	0.262871
1904.000000	0.259730
1905.000000	0.257581
1906.000000	0.255536
1907.000000	0.254166
1908.000000	0.252409
1909.000000	0.250758
1910.000000	0.249263
1911.000000	0.248749
1912.000000	0.248949
1913.000000	0.250030
1914.000000	0.251699
1915.000000	0.252293
1916.000000	0.252990
1917.000000	0.253619
1918.000000	0.254097
1919.000000	0.254398
1920.000000	0.255563
1921.000000	0.256470
1922.000000	0.256829
1923.000000	0.257572
1924.000000	0.258504
1925.000000	0.259226
1926.000000	0.260215
1927.000000	0.261561
1928.000000	0.262534
1929.000000	0.263303
1930.000000	0.263831
1931.000000	0.264379
1932.000000	0.265076
1933.000000	0.265919
1934.000000	0.266692
1935.000000	0.267400
1936.000000	0.268088
1937.000000	0.268179
1938.000000	0.268283
1939.000000	0.268719
1940.000000	0.269368
1941.000000	0.270018
1942.000000	0.271201
1943.000000	0.272012
1944.000000	0.272968
1945.000000	0.273405
1946.000000	0.273417
1947.000000	0.274185
1948.000000	0.274160
1949.000000	0.274395
1950.000000	0.275107
1951.000000	0.275312
1952.000000	0.275048
1953.000000	0.275325
1954.000000	0.275769
1955.000000	0.276050
1956.000000	0.277079
1957.000000	0.277914
1958.000000	0.278449
1959.000000	0.279069
1960.000000	0.279402
1961.000000	0.279878
1962.000000	0.280518
1963.000000	0.281482
1964.000000	0.282506
1965.000000	0.283289
1966.000000	0.283939
1967.000000	0.284590
1968.000000	0.284960
1969.000000	0.284895
1970.000000	0.284937
1971.000000	0.285332
1972.000000	0.285899
1973.000000	0.286397
1974.000000	0.287651
1975.000000	0.288517
1976.000000	0.289309
1977.000000	0.289489
1978.000000	0.289983
1979.000000	0.289876
1980.000000	0.290007
1981.000000	0.291566
1982.000000	0.293215
1983.000000	0.294988
1984.000000	0.296235
1985.000000	0.296897
1986.000000	0.297699
1987.000000	0.298329
1988.000000	0.299397
1989.000000	0.300086
1990.000000	0.301533
1991.000000	0.302219
1992.000000	0.302606
1993.000000	0.303224
1994.000000	0.303558
1995.000000	0.303794
1996.000000	0.303964
1997.000000	0.304435
1998.000000	0.304983
1999.000000	0.305984
2000.000000	0.307549
2001.000000	0.308627
2002.000000	0.310188
2003.000000	0.312112
2004.000000	0.313471
2005.000000	0.314516
2006.000000	0.314751
2007.000000	0.314474
2008.000000	0.314916
2009.000000	0.315139
2010.000000	0.316058
2011.000000	0.318047
2012.000000	0.319159
2013.000000	0.320018
2014.000000	0.320458
2015.000000	0.321132
2016.000000	0.321455
2017.000000	0.322280
2018.000000	0.323554
2019.000000	0.324401
2020.000000	0.325666
2021.000000	0.326592
2022.000000	0.327049
2023.000000	0.327790
2024.000000	0.328506
2025.000000	0.329385
2026.000000	0.330369
2027.000000	0.331281
2028.000000	0.331904
2029.000000	0.332793
2030.000000	0.333202
2031.000000	0.333744
2032.000000	0.334206
2033.000000	0.334854
2034.000000	0.335493
2035.000000	0.336219
2036.000000	0.336606
2037.000000	0.337151
2038.000000	0.337467
2039.000000	0.337234
2040.000000	0.338022
2041.000000	0.338512
2042.000000	0.339347
2043.000000	0.340515
2044.000000	0.341321
2045.000000	0.341943
2046.000000	0.342873
2047.000000	0.343339
2048.000000	0.343130
2049.000000	0.343657
2050.000000	0.343712
2051.000000	0.343989
2052.000000	0.344921
2053.000000	0.345087
2054.000000	0.344973
2055.000000	0.345346
2056.000000	0.345404
2057.000000	0.346134
2058.000000	0.346630
2059.000000	0.347248
2060.000000	0.347871
2061.000000	0.348246
2062.000000	0.348891
2063.000000	0.350189
2064.000000	0.350611
2065.000000	0.351008
2066.000000	0.351088
2067.000000	0.350902
2068.000000	0.350736
2069.000000	0.351074
2070.000000	0.351628
2071.000000	0.352112
2072.000000	0.352995
2073.000000	0.353220
2074.000000	0.353244
2075.000000	0.353244
2076.000000	0.352616
2077.000000	0.352748
2078.000000	0.353337
2079.000000	0.353707
2080.000000	0.354435
2081.000000	0.355129
2082.000000	0.355848
2083.000000	0.356135
2084.000000	0.357090
2085.000000	0.357817
2086.000000	0.358367
2087.000000	0.359125
2088.000000	0.359567
2089.000000	0.359682
2090.000000	0.359792
2091.000000	0.359547
2092.000000	0.359893
2093.000000	0.360642
2094.000000	0.361244
2095.000000	0.362476
2096.000000	0.362845
2097.000000	0.362768
2098.000000	0.361893
2099.000000	0.361475
2100.000000	0.361491
2101.000000	0.362132
2102.000000	0.363004
2103.000000	0.363409
2104.000000	0.364300
2105.000000	0.364416
2106.000000	0.363854
2107.000000	0.363805
2108.000000	0.362852
2109.000000	0.363221
2110.000000	0.364724
2111.000000	0.365507
2112.000000	0.366385
2113.000000	0.367606
2114.000000	0.367537
2115.000000	0.367176
2116.000000	0.366841
2117.000000	0.366158
2118.000000	0.366578
2119.000000	0.367421
2120.000000	0.367865
2121.000000	0.369135
2122.000000	0.368981
2123.000000	0.367393
2124.000000	0.366858
2125.000000	0.365835
2126.000000	0.365704
2127.000000	0.366888
2128.000000	0.367329
2129.000000	0.367524
2130.000000	0.368209
2131.000000	0.367671
2132.000000	0.367221
2133.000000	0.366832
2134.000000	0.366017
2135.000000	0.366706
2136.000000	0.367198
2137.000000	0.367355
2138.000000	0.367902
2139.000000	0.368171
2140.000000	0.367722
2141.000000	0.367608
2142.000000	0.367532
2143.000000	0.367439
2144.000000	0.367638
2145.000000	0.367912
2146.000000	0.368778
2147.000000	0.369517
2148.000000	0.369414
2149.000000	0.368143
2150.000000	0.366715
2151.000000	0.366035
2152.000000	0.365623
2153.000000	0.365715
2154.000000	0.365352
2155.000000	0.365074
2156.000000	0.364329
2157.000000	0.363001
2158.000000	0.362169
2159.000000	0.361017
2160.000000	0.360811
2161.000000	0.361615
2162.000000	0.362182
2163.000000	0.362993
2164.000000	0.363709
2165.000000	0.364876
2166.000000	0.364744
2167.000000	0.364887
2168.000000	0.364423
2169.000000	0.363667
2170.000000	0.363286
2171.000000	0.362629
2172.000000	0.361702
2173.000000	0.361698
2174.000000	0.361946
2175.000000	0.361974
2176.000000	0.363046
2177.000000	0.363457
2178.000000	0.363045
2179.000000	0.363231
2180.000000	0.363444
2181.000000	0.363881
2182.000000	0.363815
2183.000000	0.364042
2184.000000	0.364580
2185.000000	0.365224
2186.000000	0.365379
2187.000000	0.366147
2188.000000	0.365915
2189.000000	0.365570
2190.000000	0.365689
2191.000000	0.365195
2192.000000	0.364498
2193.000000	0.363398
2194.000000	0.362304
2195.000000	0.360843
2196.000000	0.359994
2197.000000	0.359254
2198.000000	0.358921
2199.000000	0.359101
2200.000000	0.359058
2201.000000	0.360568
2202.000000	0.360372
2203.000000	0.358526
2204.000000	0.356838
2205.000000	0.355304
2206.000000	0.351152
2207.000000	0.352264
2208.000000	0.354473
2209.000000	0.354524
2210.000000	0.356146
2211.000000	0.354200
2212.000000	0.352149
2213.000000	0.352937
2214.000000	0.356901
2215.000000	0.357323
2216.000000	0.357916
2217.000000	0.358150
2218.000000	0.355020
2219.000000	0.354806
2220.000000	0.357042
2221.000000	0.358270
2222.000000	0.359976
2223.000000	0.360844
2224.000000	0.361106
2225.000000	0.362247
2226.000000	0.361192
2227.000000	0.360861
2228.000000	0.360667
2229.000000	0.358158
2230.000000	0.357520
2231.000000	0.357263
2232.000000	0.356697
2233.000000	0.356933
2234.000000	0.356709
2235.000000	0.356134
2236.000000	0.354721
2237.000000	0.352322
2238.000000	0.350851
2239.000000	0.347973
2240.000000	0.347545
2241.000000	0.349845
2242.000000	0.350316
2243.000000	0.350653
2244.000000	0.351521
2245.000000	0.350990
2246.000000	0.352099
2247.000000	0.356635
2248.000000	0.358055
2249.000000	0.358597
2250.000000	0.358250
2251.000000	0.357342
2252.000000	0.354716
2253.000000	0.353407
2254.000000	0.352057
2255.000000	0.349998
2256.000000	0.348865
2257.000000	0.349357
2258.000000	0.351953
2259.000000	0.353391
2260.000000	0.353053
2261.000000	0.352743
2262.000000	0.351306
2263.000000	0.349594
2264.000000	0.347695
2265.000000	0.346721
2266.000000	0.345566
2267.000000	0.344017
2268.000000	0.342804
2269.000000	0.340729
2270.000000	0.338376
2271.000000	0.334668
2272.000000	0.329337
2273.000000	0.326563
2274.000000	0.323946
2275.000000	0.321324
2276.000000	0.320697
2277.000000	0.318796
2278.000000	0.314863
2279.000000	0.309457
2280.000000	0.304454
2281.000000	0.301229
2282.000000	0.300068
2283.000000	0.300072
2284.000000	0.300580
2285.000000	0.300143
2286.000000	0.299528
2287.000000	0.299472
2288.000000	0.299466
2289.000000	0.300175
2290.000000	0.300250
2291.000000	0.299093
2292.000000	0.298508
2293.000000	0.298552
2294.000000	0.299563
2295.000000	0.301449
2296.000000	0.303645
2297.000000	0.307681
2298.000000	0.310059
2299.000000	0.310796
2300.000000	0.313701
2301.000000	0.317216
2302.000000	0.319452
2303.000000	0.324169
2304.000000	0.325428
2305.000000	0.322707
2306.000000	0.322833
2307.000000	0.321909
2308.000000	0.323466
2309.000000	0.326891
2310.000000	0.330458
2311.000000	0.334794
2312.000000	0.334551
2313.000000	0.333465
2314.000000	0.332118
2315.000000	0.328098
2316.000000	0.326167
2317.000000	0.325634
2318.000000	0.325349
2319.000000	0.326791
2320.000000	0.329216
2321.000000	0.332358
2322.000000	0.334444
2323.000000	0.334255
2324.000000	0.333302
2325.000000	0.329823
2326.000000	0.323769
2327.000000	0.320532
2328.000000	0.318651
2329.000000	0.315870
2330.000000	0.315085
2331.000000	0.315527
2332.000000	0.316514
2333.000000	0.318781
2334.000000	0.322261
2335.000000	0.324316
2336.000000	0.323766
2337.000000	0.325059
2338.000000	0.327567
2339.000000	0.327225
2340.000000	0.327699
2341.000000	0.326912
2342.000000	0.321180
2343.000000	0.319105
2344.000000	0.319031
2345.000000	0.317356
2346.000000	0.317006
2347.000000	0.315828
2348.000000	0.313379
2349.000000	0.311497
2350.000000	0.310460
2351.000000	0.309778
2352.000000	0.309296
2353.000000	0.308172
2354.000000	0.309250
2355.000000	0.308871
2356.000000	0.310163
2357.000000	0.313412
2358.000000	0.311202
2359.000000	0.310011
2360.000000	0.307863
2361.000000	0.304081
2362.000000	0.303682
2363.000000	0.302906
2364.000000	0.304230
2365.000000	0.305815
2366.000000	0.305073
2367.000000	0.304425
2368.000000	0.302542
2369.000000	0.299835
2370.000000	0.295566
2371.000000	0.295046
2372.000000	0.295301
2373.000000	0.294089
2374.000000	0.293883
2375.000000	0.291612
2376.000000	0.294078
2377.000000	0.297737
2378.000000	0.302661
2379.000000	0.307325
2380.000000	0.298748
2381.000000	0.290148
2382.000000	0.279960
2383.000000	0.268606
2384.000000	0.268784
2385.000000	0.267510
2386.000000	0.267388
2387.000000	0.271528
2388.000000	0.274348
2389.000000	0.275163
2390.000000	0.275832
2391.000000	0.275588
2392.000000	0.268694
2393.000000	0.267710
2394.000000	0.269171
2395.000000	0.265537
2396.000000	0.265965
2397.000000	0.263581
2398.000000	0.258035
2399.000000	0.255648
2400.000000	0.256271
2401.000000	0.259714
2402.000000	0.267540
2403.000000	0.274800
2404.000000	0.276054
2405.000000	0.274350
2406.000000	0.272375
2407.000000	0.270807
2408.000000	0.265984
2409.000000	0.260587
2410.000000	0.251655
2411.000000	0.239796
2412.000000	0.238014
2413.000000	0.238939
2414.000000	0.245685
2415.000000	0.257379
2416.000000	0.261369
2417.000000	0.267933
2418.000000	0.266585
2419.000000	0.256582
2420.000000	0.246721
2421.000000	0.240580
2422.000000	0.244063
2423.000000	0.248520
2424.000000	0.260427
2425.000000	0.267129
2426.000000	0.256937
2427.000000	0.250893
2428.000000	0.248601
2429.000000	0.250793
2430.000000	0.258754
2431.000000	0.259290
2432.000000	0.258398
2433.000000	0.256106
2434.000000	0.254528
2435.000000	0.254405
2436.000000	0.255861
2437.000000	0.261180
2438.000000	0.258197
2439.000000	0.255859
2440.000000	0.249846
2441.000000	0.235842
2442.000000	0.230778
2443.000000	0.225050
2444.000000	0.221962
2445.000000	0.228164
2446.000000	0.220175
2447.000000	0.221882
2448.000000	0.230272
2449.000000	0.230377
2450.000000	0.243506
2451.000000	0.255015
2452.000000	0.270743
2453.000000	0.276392
2454.000000	0.270358
2455.000000	0.260056
2456.000000	0.233127
2457.000000	0.218187
2458.000000	0.216093
2459.000000	0.225425
2460.000000	0.244437
2461.000000	0.272984
2462.000000	0.295555
2463.000000	0.277178
2464.000000	0.269832
2465.000000	0.262603
2466.000000	0.252406
2467.000000	0.276015
2468.000000	0.287632
2469.000000	0.282941
2470.000000	0.272549
2471.000000	0.244079
2472.000000	0.227374
2473.000000	0.237352
2474.000000	0.243209
2475.000000	0.271751
2476.000000	0.307049
2477.000000	0.308926
2478.000000	0.334885
2479.000000	0.346357
2480.000000	0.308383
2481.000000	0.289519
2482.000000	0.253180
2483.000000	0.213985
2484.000000	0.243317
2485.000000	0.279764
2486.000000	0.309242
2487.000000	0.321945
2488.000000	0.290452
2489.000000	0.265905
2490.000000	0.211241
2491.000000	0.215572
2492.000000	0.215551
2493.000000	0.228872
2494.000000	0.231330
2495.000000	0.224790
2496.000000	0.201114
2497.000000	0.123491
2498.000000	0.100955
2499.000000	0.108090
2500.000000	0.132813
