# Wavelength	NAu-1-30_HEX-50_FV7-20_00000.asd.rts.txt
350.000000	0.194483
351.000000	0.203218
352.000000	0.196943
353.000000	0.185869
354.000000	0.179724
355.000000	0.180870
356.000000	0.188724
357.000000	0.195139
358.000000	0.181953
359.000000	0.177537
360.000000	0.179469
361.000000	0.178692
362.000000	0.182186
363.000000	0.186937
364.000000	0.189558
365.000000	0.189581
366.000000	0.183760
367.000000	0.176249
368.000000	0.178512
369.000000	0.178622
370.000000	0.177536
371.000000	0.179463
372.000000	0.182613
373.000000	0.185746
374.000000	0.188103
375.000000	0.188176
376.000000	0.188588
377.000000	0.188970
378.000000	0.185914
379.000000	0.188996
380.000000	0.192654
381.000000	0.188937
382.000000	0.186746
383.000000	0.187952
384.000000	0.192076
385.000000	0.195213
386.000000	0.195095
387.000000	0.193162
388.000000	0.194620
389.000000	0.196761
390.000000	0.198428
391.000000	0.198782
392.000000	0.199412
393.000000	0.200094
394.000000	0.200764
395.000000	0.202965
396.000000	0.204978
397.000000	0.206088
398.000000	0.206648
399.000000	0.208665
400.000000	0.211366
401.000000	0.212699
402.000000	0.214113
403.000000	0.214840
404.000000	0.214685
405.000000	0.216653
406.000000	0.218371
407.000000	0.219062
408.000000	0.220673
409.000000	0.222257
410.000000	0.223690
411.000000	0.225199
412.000000	0.225949
413.000000	0.226442
414.000000	0.227251
415.000000	0.227141
416.000000	0.227726
417.000000	0.229531
418.000000	0.230521
419.000000	0.230358
420.000000	0.229803
421.000000	0.230717
422.000000	0.231313
423.000000	0.231437
424.000000	0.231533
425.000000	0.231937
426.000000	0.232241
427.000000	0.232251
428.000000	0.232882
429.000000	0.232995
430.000000	0.232473
431.000000	0.232502
432.000000	0.232847
433.000000	0.233301
434.000000	0.233670
435.000000	0.233287
436.000000	0.232636
437.000000	0.232327
438.000000	0.232583
439.000000	0.232553
440.000000	0.232012
441.000000	0.231666
442.000000	0.231358
443.000000	0.231068
444.000000	0.230989
445.000000	0.230872
446.000000	0.231071
447.000000	0.231793
448.000000	0.232205
449.000000	0.233068
450.000000	0.234701
451.000000	0.235671
452.000000	0.237050
453.000000	0.239107
454.000000	0.241486
455.000000	0.243999
456.000000	0.246429
457.000000	0.248437
458.000000	0.250597
459.000000	0.252765
460.000000	0.254787
461.000000	0.256784
462.000000	0.258445
463.000000	0.259655
464.000000	0.261267
465.000000	0.262448
466.000000	0.263161
467.000000	0.263990
468.000000	0.265183
469.000000	0.266334
470.000000	0.267130
471.000000	0.267938
472.000000	0.268602
473.000000	0.269114
474.000000	0.269894
475.000000	0.270455
476.000000	0.270843
477.000000	0.271294
478.000000	0.271809
479.000000	0.272542
480.000000	0.273294
481.000000	0.273676
482.000000	0.274147
483.000000	0.274853
484.000000	0.275315
485.000000	0.275750
486.000000	0.276399
487.000000	0.276879
488.000000	0.277324
489.000000	0.277868
490.000000	0.278647
491.000000	0.279150
492.000000	0.279617
493.000000	0.280279
494.000000	0.280920
495.000000	0.281436
496.000000	0.281856
497.000000	0.282793
498.000000	0.283569
499.000000	0.284101
500.000000	0.284787
501.000000	0.285517
502.000000	0.286247
503.000000	0.286862
504.000000	0.287603
505.000000	0.288322
506.000000	0.288882
507.000000	0.289491
508.000000	0.290295
509.000000	0.291217
510.000000	0.291887
511.000000	0.292488
512.000000	0.293153
513.000000	0.293934
514.000000	0.294810
515.000000	0.295756
516.000000	0.296655
517.000000	0.297383
518.000000	0.298158
519.000000	0.299041
520.000000	0.299878
521.000000	0.300742
522.000000	0.301639
523.000000	0.302426
524.000000	0.303347
525.000000	0.304329
526.000000	0.305184
527.000000	0.306175
528.000000	0.307153
529.000000	0.307996
530.000000	0.308907
531.000000	0.309941
532.000000	0.310981
533.000000	0.311907
534.000000	0.312900
535.000000	0.313958
536.000000	0.314944
537.000000	0.315980
538.000000	0.317058
539.000000	0.318107
540.000000	0.319094
541.000000	0.320067
542.000000	0.321101
543.000000	0.322114
544.000000	0.323085
545.000000	0.323982
546.000000	0.325043
547.000000	0.326104
548.000000	0.327133
549.000000	0.328057
550.000000	0.329063
551.000000	0.330117
552.000000	0.331079
553.000000	0.332127
554.000000	0.333115
555.000000	0.333988
556.000000	0.335057
557.000000	0.335972
558.000000	0.336820
559.000000	0.337824
560.000000	0.338727
561.000000	0.339615
562.000000	0.340546
563.000000	0.341409
564.000000	0.342252
565.000000	0.343022
566.000000	0.343810
567.000000	0.344588
568.000000	0.345321
569.000000	0.346072
570.000000	0.346725
571.000000	0.347304
572.000000	0.347995
573.000000	0.348582
574.000000	0.349080
575.000000	0.349646
576.000000	0.350175
577.000000	0.350718
578.000000	0.351355
579.000000	0.351796
580.000000	0.352283
581.000000	0.352844
582.000000	0.353137
583.000000	0.353504
584.000000	0.353934
585.000000	0.354232
586.000000	0.354593
587.000000	0.354980
588.000000	0.355322
589.000000	0.355695
590.000000	0.355994
591.000000	0.356186
592.000000	0.356455
593.000000	0.356741
594.000000	0.357006
595.000000	0.357236
596.000000	0.357386
597.000000	0.357532
598.000000	0.357680
599.000000	0.357867
600.000000	0.358078
601.000000	0.358202
602.000000	0.358309
603.000000	0.358461
604.000000	0.358673
605.000000	0.358834
606.000000	0.358981
607.000000	0.359109
608.000000	0.359193
609.000000	0.359367
610.000000	0.359560
611.000000	0.359660
612.000000	0.359700
613.000000	0.359712
614.000000	0.359773
615.000000	0.359889
616.000000	0.359964
617.000000	0.359969
618.000000	0.360072
619.000000	0.360146
620.000000	0.360202
621.000000	0.360350
622.000000	0.360407
623.000000	0.360409
624.000000	0.360414
625.000000	0.360421
626.000000	0.360440
627.000000	0.360497
628.000000	0.360651
629.000000	0.360853
630.000000	0.360927
631.000000	0.360972
632.000000	0.361072
633.000000	0.361240
634.000000	0.361441
635.000000	0.361646
636.000000	0.361812
637.000000	0.361918
638.000000	0.362069
639.000000	0.362210
640.000000	0.362381
641.000000	0.362512
642.000000	0.362613
643.000000	0.362731
644.000000	0.362915
645.000000	0.363031
646.000000	0.363189
647.000000	0.363418
648.000000	0.363567
649.000000	0.363700
650.000000	0.363839
651.000000	0.364040
652.000000	0.364227
653.000000	0.364456
654.000000	0.364727
655.000000	0.364974
656.000000	0.365215
657.000000	0.365410
658.000000	0.365578
659.000000	0.365813
660.000000	0.366118
661.000000	0.366406
662.000000	0.366585
663.000000	0.366756
664.000000	0.367014
665.000000	0.367248
666.000000	0.367490
667.000000	0.367750
668.000000	0.367973
669.000000	0.368230
670.000000	0.368549
671.000000	0.368820
672.000000	0.369139
673.000000	0.369454
674.000000	0.369624
675.000000	0.369886
676.000000	0.370226
677.000000	0.370575
678.000000	0.370919
679.000000	0.371231
680.000000	0.371519
681.000000	0.371818
682.000000	0.372173
683.000000	0.372517
684.000000	0.372951
685.000000	0.373295
686.000000	0.373643
687.000000	0.374097
688.000000	0.374517
689.000000	0.374884
690.000000	0.375243
691.000000	0.375601
692.000000	0.375963
693.000000	0.376398
694.000000	0.376820
695.000000	0.377241
696.000000	0.377658
697.000000	0.378065
698.000000	0.378435
699.000000	0.378803
700.000000	0.379210
701.000000	0.379630
702.000000	0.380079
703.000000	0.380519
704.000000	0.380912
705.000000	0.381363
706.000000	0.381814
707.000000	0.382254
708.000000	0.382674
709.000000	0.383071
710.000000	0.383478
711.000000	0.383946
712.000000	0.384430
713.000000	0.384908
714.000000	0.385297
715.000000	0.385701
716.000000	0.386121
717.000000	0.386488
718.000000	0.386886
719.000000	0.387267
720.000000	0.387611
721.000000	0.388000
722.000000	0.388393
723.000000	0.388830
724.000000	0.389239
725.000000	0.389607
726.000000	0.390034
727.000000	0.390457
728.000000	0.390856
729.000000	0.391248
730.000000	0.391586
731.000000	0.391931
732.000000	0.392266
733.000000	0.392623
734.000000	0.392951
735.000000	0.393257
736.000000	0.393651
737.000000	0.393956
738.000000	0.394177
739.000000	0.394471
740.000000	0.394746
741.000000	0.395110
742.000000	0.395432
743.000000	0.395674
744.000000	0.396010
745.000000	0.396219
746.000000	0.396391
747.000000	0.396586
748.000000	0.396880
749.000000	0.397174
750.000000	0.397368
751.000000	0.397588
752.000000	0.397803
753.000000	0.398004
754.000000	0.398164
755.000000	0.398324
756.000000	0.398492
757.000000	0.398611
758.000000	0.398730
759.000000	0.398870
760.000000	0.398953
761.000000	0.399060
762.000000	0.399147
763.000000	0.399181
764.000000	0.399239
765.000000	0.399305
766.000000	0.399370
767.000000	0.399423
768.000000	0.399484
769.000000	0.399520
770.000000	0.399533
771.000000	0.399558
772.000000	0.399638
773.000000	0.399673
774.000000	0.399687
775.000000	0.399718
776.000000	0.399730
777.000000	0.399684
778.000000	0.399669
779.000000	0.399652
780.000000	0.399612
781.000000	0.399513
782.000000	0.399432
783.000000	0.399415
784.000000	0.399273
785.000000	0.399167
786.000000	0.398999
787.000000	0.398760
788.000000	0.398663
789.000000	0.398623
790.000000	0.398552
791.000000	0.398418
792.000000	0.398326
793.000000	0.398244
794.000000	0.398140
795.000000	0.398020
796.000000	0.397873
797.000000	0.397696
798.000000	0.397506
799.000000	0.397317
800.000000	0.397151
801.000000	0.397030
802.000000	0.396951
803.000000	0.396770
804.000000	0.396496
805.000000	0.396278
806.000000	0.395984
807.000000	0.395710
808.000000	0.395450
809.000000	0.395161
810.000000	0.394954
811.000000	0.394855
812.000000	0.394626
813.000000	0.394435
814.000000	0.394296
815.000000	0.394121
816.000000	0.393855
817.000000	0.393531
818.000000	0.393123
819.000000	0.392854
820.000000	0.392696
821.000000	0.392549
822.000000	0.392420
823.000000	0.392306
824.000000	0.392160
825.000000	0.392055
826.000000	0.391741
827.000000	0.391361
828.000000	0.391068
829.000000	0.390745
830.000000	0.390432
831.000000	0.390181
832.000000	0.389841
833.000000	0.389589
834.000000	0.389382
835.000000	0.389201
836.000000	0.389022
837.000000	0.388852
838.000000	0.388658
839.000000	0.388322
840.000000	0.387987
841.000000	0.387705
842.000000	0.387448
843.000000	0.387215
844.000000	0.387041
845.000000	0.386878
846.000000	0.386682
847.000000	0.386397
848.000000	0.386073
849.000000	0.385822
850.000000	0.385644
851.000000	0.385397
852.000000	0.385094
853.000000	0.384833
854.000000	0.384499
855.000000	0.384245
856.000000	0.384032
857.000000	0.383735
858.000000	0.383470
859.000000	0.383217
860.000000	0.383032
861.000000	0.382833
862.000000	0.382601
863.000000	0.382272
864.000000	0.382052
865.000000	0.381913
866.000000	0.381813
867.000000	0.381617
868.000000	0.381362
869.000000	0.381034
870.000000	0.380744
871.000000	0.380423
872.000000	0.380202
873.000000	0.380046
874.000000	0.379830
875.000000	0.379524
876.000000	0.379219
877.000000	0.378968
878.000000	0.378696
879.000000	0.378447
880.000000	0.378111
881.000000	0.377876
882.000000	0.377602
883.000000	0.377371
884.000000	0.377247
885.000000	0.377077
886.000000	0.376861
887.000000	0.376649
888.000000	0.376439
889.000000	0.376371
890.000000	0.376234
891.000000	0.375988
892.000000	0.375677
893.000000	0.375409
894.000000	0.375290
895.000000	0.374925
896.000000	0.374626
897.000000	0.374466
898.000000	0.374402
899.000000	0.374248
900.000000	0.374098
901.000000	0.373950
902.000000	0.373809
903.000000	0.373525
904.000000	0.373286
905.000000	0.373158
906.000000	0.372934
907.000000	0.372778
908.000000	0.372765
909.000000	0.372640
910.000000	0.372495
911.000000	0.372369
912.000000	0.372287
913.000000	0.372140
914.000000	0.371936
915.000000	0.371767
916.000000	0.371581
917.000000	0.371290
918.000000	0.371109
919.000000	0.371134
920.000000	0.371147
921.000000	0.371001
922.000000	0.370750
923.000000	0.370526
924.000000	0.370318
925.000000	0.370180
926.000000	0.370132
927.000000	0.369980
928.000000	0.369672
929.000000	0.369387
930.000000	0.369321
931.000000	0.369253
932.000000	0.369112
933.000000	0.368956
934.000000	0.368835
935.000000	0.368607
936.000000	0.368406
937.000000	0.368223
938.000000	0.367958
939.000000	0.367798
940.000000	0.367742
941.000000	0.367831
942.000000	0.367656
943.000000	0.367460
944.000000	0.367291
945.000000	0.367203
946.000000	0.367217
947.000000	0.367384
948.000000	0.367566
949.000000	0.367219
950.000000	0.366933
951.000000	0.366797
952.000000	0.366537
953.000000	0.366413
954.000000	0.366364
955.000000	0.366199
956.000000	0.365891
957.000000	0.365724
958.000000	0.365684
959.000000	0.365749
960.000000	0.365687
961.000000	0.365659
962.000000	0.365600
963.000000	0.365239
964.000000	0.365073
965.000000	0.365031
966.000000	0.364852
967.000000	0.364777
968.000000	0.364705
969.000000	0.364547
970.000000	0.364400
971.000000	0.364363
972.000000	0.364380
973.000000	0.364362
974.000000	0.364426
975.000000	0.364317
976.000000	0.364245
977.000000	0.364333
978.000000	0.364168
979.000000	0.364208
980.000000	0.364196
981.000000	0.364182
982.000000	0.364190
983.000000	0.363999
984.000000	0.363850
985.000000	0.364223
986.000000	0.364333
987.000000	0.364233
988.000000	0.364023
989.000000	0.364020
990.000000	0.364261
991.000000	0.364524
992.000000	0.364584
993.000000	0.364386
994.000000	0.364230
995.000000	0.364294
996.000000	0.364175
997.000000	0.364144
998.000000	0.364213
999.000000	0.364432
1000.000000	0.364639
1001.000000	0.364676
1002.000000	0.364581
1003.000000	0.364027
1004.000000	0.364207
1005.000000	0.365050
1006.000000	0.364903
1007.000000	0.364522
1008.000000	0.364651
1009.000000	0.364565
1010.000000	0.364338
1011.000000	0.365348
1012.000000	0.366203
1013.000000	0.365401
1014.000000	0.364555
1015.000000	0.364057
1016.000000	0.363891
1017.000000	0.364354
1018.000000	0.365604
1019.000000	0.366402
1020.000000	0.367263
1021.000000	0.367215
1022.000000	0.367246
1023.000000	0.367222
1024.000000	0.366373
1025.000000	0.365462
1026.000000	0.366023
1027.000000	0.366556
1028.000000	0.366895
1029.000000	0.367880
1030.000000	0.368502
1031.000000	0.368620
1032.000000	0.368608
1033.000000	0.368651
1034.000000	0.368757
1035.000000	0.368549
1036.000000	0.368651
1037.000000	0.369135
1038.000000	0.369386
1039.000000	0.369823
1040.000000	0.370085
1041.000000	0.370155
1042.000000	0.370068
1043.000000	0.370188
1044.000000	0.370652
1045.000000	0.371102
1046.000000	0.371659
1047.000000	0.371995
1048.000000	0.372052
1049.000000	0.372197
1050.000000	0.372274
1051.000000	0.372502
1052.000000	0.372838
1053.000000	0.372961
1054.000000	0.373128
1055.000000	0.373471
1056.000000	0.373779
1057.000000	0.374368
1058.000000	0.374855
1059.000000	0.375100
1060.000000	0.375306
1061.000000	0.375357
1062.000000	0.375692
1063.000000	0.376253
1064.000000	0.376745
1065.000000	0.377367
1066.000000	0.377824
1067.000000	0.378111
1068.000000	0.378448
1069.000000	0.378771
1070.000000	0.379001
1071.000000	0.379037
1072.000000	0.379433
1073.000000	0.380013
1074.000000	0.380662
1075.000000	0.381425
1076.000000	0.382057
1077.000000	0.382353
1078.000000	0.382587
1079.000000	0.382844
1080.000000	0.383005
1081.000000	0.383420
1082.000000	0.384136
1083.000000	0.384604
1084.000000	0.385142
1085.000000	0.385698
1086.000000	0.386010
1087.000000	0.386500
1088.000000	0.387384
1089.000000	0.387741
1090.000000	0.387752
1091.000000	0.387684
1092.000000	0.387756
1093.000000	0.387883
1094.000000	0.388242
1095.000000	0.388923
1096.000000	0.389530
1097.000000	0.390284
1098.000000	0.390746
1099.000000	0.391091
1100.000000	0.391545
1101.000000	0.391614
1102.000000	0.392035
1103.000000	0.392855
1104.000000	0.393403
1105.000000	0.393984
1106.000000	0.394407
1107.000000	0.394399
1108.000000	0.394673
1109.000000	0.395034
1110.000000	0.395516
1111.000000	0.395999
1112.000000	0.396740
1113.000000	0.397176
1114.000000	0.397505
1115.000000	0.397803
1116.000000	0.397828
1117.000000	0.398265
1118.000000	0.399026
1119.000000	0.399325
1120.000000	0.399630
1121.000000	0.399884
1122.000000	0.399901
1123.000000	0.400206
1124.000000	0.400318
1125.000000	0.400645
1126.000000	0.401007
1127.000000	0.401255
1128.000000	0.401514
1129.000000	0.401917
1130.000000	0.402361
1131.000000	0.402798
1132.000000	0.403109
1133.000000	0.403610
1134.000000	0.403957
1135.000000	0.403922
1136.000000	0.404172
1137.000000	0.404703
1138.000000	0.404874
1139.000000	0.405036
1140.000000	0.405256
1141.000000	0.405131
1142.000000	0.405271
1143.000000	0.405583
1144.000000	0.405922
1145.000000	0.406214
1146.000000	0.406234
1147.000000	0.406430
1148.000000	0.406415
1149.000000	0.406665
1150.000000	0.407171
1151.000000	0.407478
1152.000000	0.407736
1153.000000	0.407963
1154.000000	0.407970
1155.000000	0.408141
1156.000000	0.408406
1157.000000	0.408633
1158.000000	0.408940
1159.000000	0.409078
1160.000000	0.408935
1161.000000	0.409050
1162.000000	0.409365
1163.000000	0.409701
1164.000000	0.409994
1165.000000	0.410167
1166.000000	0.410237
1167.000000	0.409848
1168.000000	0.409985
1169.000000	0.410442
1170.000000	0.410642
1171.000000	0.410989
1172.000000	0.411287
1173.000000	0.411323
1174.000000	0.411510
1175.000000	0.411865
1176.000000	0.412035
1177.000000	0.412210
1178.000000	0.412365
1179.000000	0.412480
1180.000000	0.412507
1181.000000	0.412539
1182.000000	0.412595
1183.000000	0.412728
1184.000000	0.412880
1185.000000	0.413116
1186.000000	0.413519
1187.000000	0.413685
1188.000000	0.413825
1189.000000	0.413895
1190.000000	0.413867
1191.000000	0.413887
1192.000000	0.414055
1193.000000	0.414230
1194.000000	0.414176
1195.000000	0.414280
1196.000000	0.414348
1197.000000	0.414486
1198.000000	0.414826
1199.000000	0.415025
1200.000000	0.415140
1201.000000	0.415360
1202.000000	0.415351
1203.000000	0.415409
1204.000000	0.415469
1205.000000	0.415422
1206.000000	0.415477
1207.000000	0.415718
1208.000000	0.415789
1209.000000	0.415974
1210.000000	0.416058
1211.000000	0.415990
1212.000000	0.415998
1213.000000	0.416066
1214.000000	0.416142
1215.000000	0.416183
1216.000000	0.416291
1217.000000	0.416415
1218.000000	0.416505
1219.000000	0.416649
1220.000000	0.416836
1221.000000	0.416928
1222.000000	0.417030
1223.000000	0.417036
1224.000000	0.417071
1225.000000	0.417197
1226.000000	0.417264
1227.000000	0.417292
1228.000000	0.417397
1229.000000	0.417533
1230.000000	0.417692
1231.000000	0.417694
1232.000000	0.417903
1233.000000	0.418076
1234.000000	0.418012
1235.000000	0.418106
1236.000000	0.418192
1237.000000	0.418332
1238.000000	0.418545
1239.000000	0.418543
1240.000000	0.418405
1241.000000	0.418366
1242.000000	0.418281
1243.000000	0.418374
1244.000000	0.418733
1245.000000	0.419204
1246.000000	0.419370
1247.000000	0.419443
1248.000000	0.419452
1249.000000	0.419418
1250.000000	0.419532
1251.000000	0.419632
1252.000000	0.419657
1253.000000	0.419636
1254.000000	0.419656
1255.000000	0.419640
1256.000000	0.419711
1257.000000	0.419926
1258.000000	0.420105
1259.000000	0.420262
1260.000000	0.420379
1261.000000	0.420299
1262.000000	0.420333
1263.000000	0.420488
1264.000000	0.420430
1265.000000	0.420334
1266.000000	0.420394
1267.000000	0.420395
1268.000000	0.420252
1269.000000	0.420194
1270.000000	0.420285
1271.000000	0.420367
1272.000000	0.420542
1273.000000	0.420634
1274.000000	0.420634
1275.000000	0.420653
1276.000000	0.420547
1277.000000	0.420631
1278.000000	0.420788
1279.000000	0.420830
1280.000000	0.420732
1281.000000	0.420721
1282.000000	0.420772
1283.000000	0.420916
1284.000000	0.421049
1285.000000	0.421176
1286.000000	0.421360
1287.000000	0.421388
1288.000000	0.421378
1289.000000	0.421380
1290.000000	0.421242
1291.000000	0.421282
1292.000000	0.421455
1293.000000	0.421534
1294.000000	0.421460
1295.000000	0.421411
1296.000000	0.421339
1297.000000	0.421225
1298.000000	0.421375
1299.000000	0.421465
1300.000000	0.421374
1301.000000	0.421275
1302.000000	0.421166
1303.000000	0.421168
1304.000000	0.421040
1305.000000	0.421027
1306.000000	0.420979
1307.000000	0.420891
1308.000000	0.420838
1309.000000	0.420832
1310.000000	0.420794
1311.000000	0.420781
1312.000000	0.420631
1313.000000	0.420616
1314.000000	0.420553
1315.000000	0.420282
1316.000000	0.420200
1317.000000	0.420100
1318.000000	0.419871
1319.000000	0.419623
1320.000000	0.419524
1321.000000	0.419408
1322.000000	0.419190
1323.000000	0.419156
1324.000000	0.419004
1325.000000	0.418640
1326.000000	0.418436
1327.000000	0.418242
1328.000000	0.418187
1329.000000	0.418025
1330.000000	0.417930
1331.000000	0.417766
1332.000000	0.417607
1333.000000	0.417359
1334.000000	0.417117
1335.000000	0.416979
1336.000000	0.416783
1337.000000	0.416611
1338.000000	0.416475
1339.000000	0.416323
1340.000000	0.416043
1341.000000	0.415801
1342.000000	0.415597
1343.000000	0.415332
1344.000000	0.415119
1345.000000	0.414907
1346.000000	0.414665
1347.000000	0.414267
1348.000000	0.413916
1349.000000	0.413622
1350.000000	0.413470
1351.000000	0.413332
1352.000000	0.413057
1353.000000	0.412711
1354.000000	0.412423
1355.000000	0.411983
1356.000000	0.411656
1357.000000	0.411412
1358.000000	0.411022
1359.000000	0.410716
1360.000000	0.410424
1361.000000	0.410142
1362.000000	0.409902
1363.000000	0.409741
1364.000000	0.409510
1365.000000	0.409236
1366.000000	0.409012
1367.000000	0.408742
1368.000000	0.408521
1369.000000	0.408464
1370.000000	0.408143
1371.000000	0.407625
1372.000000	0.407100
1373.000000	0.406582
1374.000000	0.406130
1375.000000	0.405834
1376.000000	0.405557
1377.000000	0.405022
1378.000000	0.404438
1379.000000	0.403687
1380.000000	0.402886
1381.000000	0.402148
1382.000000	0.401390
1383.000000	0.400745
1384.000000	0.399995
1385.000000	0.399155
1386.000000	0.398280
1387.000000	0.397275
1388.000000	0.396111
1389.000000	0.394886
1390.000000	0.393729
1391.000000	0.392604
1392.000000	0.391470
1393.000000	0.390207
1394.000000	0.388908
1395.000000	0.387677
1396.000000	0.386462
1397.000000	0.385045
1398.000000	0.383540
1399.000000	0.382083
1400.000000	0.380452
1401.000000	0.378812
1402.000000	0.377335
1403.000000	0.375650
1404.000000	0.373921
1405.000000	0.372174
1406.000000	0.370490
1407.000000	0.369041
1408.000000	0.367431
1409.000000	0.365843
1410.000000	0.364311
1411.000000	0.362660
1412.000000	0.361108
1413.000000	0.359716
1414.000000	0.358346
1415.000000	0.357080
1416.000000	0.355775
1417.000000	0.354488
1418.000000	0.353307
1419.000000	0.352129
1420.000000	0.350981
1421.000000	0.349959
1422.000000	0.348924
1423.000000	0.347997
1424.000000	0.346908
1425.000000	0.345774
1426.000000	0.344657
1427.000000	0.343539
1428.000000	0.342451
1429.000000	0.341436
1430.000000	0.340485
1431.000000	0.339495
1432.000000	0.338581
1433.000000	0.337763
1434.000000	0.337047
1435.000000	0.336408
1436.000000	0.335958
1437.000000	0.335702
1438.000000	0.335444
1439.000000	0.335369
1440.000000	0.335311
1441.000000	0.335309
1442.000000	0.335375
1443.000000	0.335442
1444.000000	0.335520
1445.000000	0.335770
1446.000000	0.336016
1447.000000	0.336294
1448.000000	0.336565
1449.000000	0.336648
1450.000000	0.336691
1451.000000	0.336662
1452.000000	0.336540
1453.000000	0.336394
1454.000000	0.336067
1455.000000	0.335736
1456.000000	0.335516
1457.000000	0.335405
1458.000000	0.335372
1459.000000	0.335247
1460.000000	0.335145
1461.000000	0.335028
1462.000000	0.334846
1463.000000	0.334738
1464.000000	0.334669
1465.000000	0.334618
1466.000000	0.334526
1467.000000	0.334507
1468.000000	0.334558
1469.000000	0.334546
1470.000000	0.334662
1471.000000	0.334943
1472.000000	0.335126
1473.000000	0.335470
1474.000000	0.335799
1475.000000	0.336018
1476.000000	0.336320
1477.000000	0.336728
1478.000000	0.337110
1479.000000	0.337495
1480.000000	0.337920
1481.000000	0.338291
1482.000000	0.338587
1483.000000	0.339116
1484.000000	0.339793
1485.000000	0.340358
1486.000000	0.340975
1487.000000	0.341543
1488.000000	0.342007
1489.000000	0.342593
1490.000000	0.343222
1491.000000	0.343769
1492.000000	0.344180
1493.000000	0.344690
1494.000000	0.345181
1495.000000	0.345583
1496.000000	0.345959
1497.000000	0.346413
1498.000000	0.346866
1499.000000	0.347259
1500.000000	0.347734
1501.000000	0.348152
1502.000000	0.348434
1503.000000	0.348780
1504.000000	0.349208
1505.000000	0.349645
1506.000000	0.350145
1507.000000	0.350548
1508.000000	0.350938
1509.000000	0.351445
1510.000000	0.351789
1511.000000	0.352138
1512.000000	0.352510
1513.000000	0.352696
1514.000000	0.352923
1515.000000	0.353205
1516.000000	0.353449
1517.000000	0.353568
1518.000000	0.353721
1519.000000	0.353880
1520.000000	0.354138
1521.000000	0.354503
1522.000000	0.354835
1523.000000	0.355096
1524.000000	0.355289
1525.000000	0.355522
1526.000000	0.355730
1527.000000	0.355926
1528.000000	0.356133
1529.000000	0.356287
1530.000000	0.356353
1531.000000	0.356485
1532.000000	0.356636
1533.000000	0.356755
1534.000000	0.356917
1535.000000	0.357091
1536.000000	0.357189
1537.000000	0.357304
1538.000000	0.357364
1539.000000	0.357434
1540.000000	0.357668
1541.000000	0.357884
1542.000000	0.358010
1543.000000	0.358164
1544.000000	0.358182
1545.000000	0.358192
1546.000000	0.358382
1547.000000	0.358555
1548.000000	0.358790
1549.000000	0.358993
1550.000000	0.359056
1551.000000	0.359177
1552.000000	0.359246
1553.000000	0.359229
1554.000000	0.359299
1555.000000	0.359405
1556.000000	0.359421
1557.000000	0.359475
1558.000000	0.359549
1559.000000	0.359513
1560.000000	0.359526
1561.000000	0.359673
1562.000000	0.359680
1563.000000	0.359645
1564.000000	0.359714
1565.000000	0.359800
1566.000000	0.359779
1567.000000	0.359909
1568.000000	0.359889
1569.000000	0.359775
1570.000000	0.359743
1571.000000	0.359701
1572.000000	0.359696
1573.000000	0.359770
1574.000000	0.359737
1575.000000	0.359686
1576.000000	0.359663
1577.000000	0.359574
1578.000000	0.359541
1579.000000	0.359626
1580.000000	0.359593
1581.000000	0.359565
1582.000000	0.359567
1583.000000	0.359591
1584.000000	0.359499
1585.000000	0.359511
1586.000000	0.359453
1587.000000	0.359175
1588.000000	0.359103
1589.000000	0.359105
1590.000000	0.359159
1591.000000	0.359468
1592.000000	0.359558
1593.000000	0.359589
1594.000000	0.359614
1595.000000	0.359525
1596.000000	0.359549
1597.000000	0.359727
1598.000000	0.359829
1599.000000	0.359963
1600.000000	0.360023
1601.000000	0.360113
1602.000000	0.360184
1603.000000	0.360258
1604.000000	0.360317
1605.000000	0.360408
1606.000000	0.360468
1607.000000	0.360547
1608.000000	0.360636
1609.000000	0.360768
1610.000000	0.360882
1611.000000	0.361044
1612.000000	0.361160
1613.000000	0.361372
1614.000000	0.361490
1615.000000	0.361676
1616.000000	0.361787
1617.000000	0.361684
1618.000000	0.361752
1619.000000	0.361846
1620.000000	0.361915
1621.000000	0.362137
1622.000000	0.362327
1623.000000	0.362358
1624.000000	0.362476
1625.000000	0.362488
1626.000000	0.362555
1627.000000	0.362706
1628.000000	0.362892
1629.000000	0.363093
1630.000000	0.363359
1631.000000	0.363588
1632.000000	0.363765
1633.000000	0.364028
1634.000000	0.364213
1635.000000	0.364349
1636.000000	0.364529
1637.000000	0.364696
1638.000000	0.364891
1639.000000	0.365232
1640.000000	0.365398
1641.000000	0.365524
1642.000000	0.365761
1643.000000	0.365971
1644.000000	0.366255
1645.000000	0.366772
1646.000000	0.367018
1647.000000	0.367158
1648.000000	0.367300
1649.000000	0.367385
1650.000000	0.367619
1651.000000	0.368018
1652.000000	0.368301
1653.000000	0.368582
1654.000000	0.368829
1655.000000	0.368854
1656.000000	0.368955
1657.000000	0.369193
1658.000000	0.369343
1659.000000	0.369612
1660.000000	0.369847
1661.000000	0.369954
1662.000000	0.370075
1663.000000	0.370100
1664.000000	0.370294
1665.000000	0.370521
1666.000000	0.370902
1667.000000	0.371412
1668.000000	0.371726
1669.000000	0.371986
1670.000000	0.372143
1671.000000	0.372294
1672.000000	0.372539
1673.000000	0.372742
1674.000000	0.373069
1675.000000	0.373304
1676.000000	0.373355
1677.000000	0.373442
1678.000000	0.373592
1679.000000	0.373773
1680.000000	0.373924
1681.000000	0.374143
1682.000000	0.374338
1683.000000	0.374319
1684.000000	0.374371
1685.000000	0.374552
1686.000000	0.374577
1687.000000	0.374704
1688.000000	0.374883
1689.000000	0.374906
1690.000000	0.374929
1691.000000	0.375075
1692.000000	0.375063
1693.000000	0.375171
1694.000000	0.375195
1695.000000	0.375145
1696.000000	0.375406
1697.000000	0.375473
1698.000000	0.375663
1699.000000	0.375791
1700.000000	0.375655
1701.000000	0.375747
1702.000000	0.375781
1703.000000	0.375786
1704.000000	0.375939
1705.000000	0.376048
1706.000000	0.376195
1707.000000	0.376298
1708.000000	0.376333
1709.000000	0.376339
1710.000000	0.376386
1711.000000	0.376458
1712.000000	0.376615
1713.000000	0.376688
1714.000000	0.376741
1715.000000	0.376876
1716.000000	0.377048
1717.000000	0.377163
1718.000000	0.377266
1719.000000	0.377361
1720.000000	0.377452
1721.000000	0.377565
1722.000000	0.377764
1723.000000	0.377876
1724.000000	0.377928
1725.000000	0.378064
1726.000000	0.378135
1727.000000	0.378178
1728.000000	0.378168
1729.000000	0.378117
1730.000000	0.378126
1731.000000	0.378174
1732.000000	0.378278
1733.000000	0.378437
1734.000000	0.378451
1735.000000	0.378582
1736.000000	0.378743
1737.000000	0.378922
1738.000000	0.379212
1739.000000	0.379370
1740.000000	0.379468
1741.000000	0.379561
1742.000000	0.379600
1743.000000	0.379719
1744.000000	0.379865
1745.000000	0.379911
1746.000000	0.379872
1747.000000	0.380158
1748.000000	0.380189
1749.000000	0.380145
1750.000000	0.380140
1751.000000	0.380016
1752.000000	0.380174
1753.000000	0.380487
1754.000000	0.380730
1755.000000	0.381030
1756.000000	0.381196
1757.000000	0.381256
1758.000000	0.381340
1759.000000	0.381360
1760.000000	0.381343
1761.000000	0.381224
1762.000000	0.381161
1763.000000	0.381077
1764.000000	0.381048
1765.000000	0.381105
1766.000000	0.381072
1767.000000	0.380843
1768.000000	0.380733
1769.000000	0.380716
1770.000000	0.380812
1771.000000	0.381046
1772.000000	0.381142
1773.000000	0.381147
1774.000000	0.381202
1775.000000	0.381276
1776.000000	0.381380
1777.000000	0.381484
1778.000000	0.381588
1779.000000	0.381710
1780.000000	0.381780
1781.000000	0.381785
1782.000000	0.381859
1783.000000	0.381933
1784.000000	0.382103
1785.000000	0.382350
1786.000000	0.382598
1787.000000	0.382841
1788.000000	0.382823
1789.000000	0.382818
1790.000000	0.382811
1791.000000	0.382774
1792.000000	0.382939
1793.000000	0.383082
1794.000000	0.383245
1795.000000	0.383369
1796.000000	0.383520
1797.000000	0.383606
1798.000000	0.383470
1799.000000	0.383525
1800.000000	0.383767
1801.000000	0.383895
1802.000000	0.383992
1803.000000	0.382876
1804.000000	0.383065
1805.000000	0.383584
1806.000000	0.383925
1807.000000	0.385285
1808.000000	0.385582
1809.000000	0.385112
1810.000000	0.384284
1811.000000	0.384234
1812.000000	0.384144
1813.000000	0.384236
1814.000000	0.385116
1815.000000	0.385487
1816.000000	0.385739
1817.000000	0.385470
1818.000000	0.384800
1819.000000	0.384382
1820.000000	0.384151
1821.000000	0.384656
1822.000000	0.384495
1823.000000	0.384434
1824.000000	0.384310
1825.000000	0.383481
1826.000000	0.383150
1827.000000	0.382740
1828.000000	0.383363
1829.000000	0.383852
1830.000000	0.383784
1831.000000	0.383634
1832.000000	0.383483
1833.000000	0.383315
1834.000000	0.382698
1835.000000	0.382444
1836.000000	0.382407
1837.000000	0.382383
1838.000000	0.382272
1839.000000	0.382182
1840.000000	0.381959
1841.000000	0.381289
1842.000000	0.381019
1843.000000	0.380683
1844.000000	0.380234
1845.000000	0.380212
1846.000000	0.379804
1847.000000	0.378666
1848.000000	0.377406
1849.000000	0.377444
1850.000000	0.376807
1851.000000	0.376620
1852.000000	0.377220
1853.000000	0.377203
1854.000000	0.377046
1855.000000	0.376143
1856.000000	0.374382
1857.000000	0.373001
1858.000000	0.372041
1859.000000	0.371128
1860.000000	0.371039
1861.000000	0.370824
1862.000000	0.369868
1863.000000	0.368219
1864.000000	0.366901
1865.000000	0.365573
1866.000000	0.363797
1867.000000	0.361918
1868.000000	0.359209
1869.000000	0.356563
1870.000000	0.354819
1871.000000	0.353413
1872.000000	0.352416
1873.000000	0.350719
1874.000000	0.348938
1875.000000	0.346583
1876.000000	0.343378
1877.000000	0.339831
1878.000000	0.336777
1879.000000	0.333338
1880.000000	0.330151
1881.000000	0.327299
1882.000000	0.323525
1883.000000	0.319941
1884.000000	0.316296
1885.000000	0.312233
1886.000000	0.307934
1887.000000	0.303657
1888.000000	0.298787
1889.000000	0.293685
1890.000000	0.289068
1891.000000	0.284793
1892.000000	0.280719
1893.000000	0.275856
1894.000000	0.270817
1895.000000	0.265810
1896.000000	0.260689
1897.000000	0.255247
1898.000000	0.250076
1899.000000	0.245321
1900.000000	0.240605
1901.000000	0.236172
1902.000000	0.231981
1903.000000	0.228143
1904.000000	0.224883
1905.000000	0.221390
1906.000000	0.218013
1907.000000	0.214977
1908.000000	0.212165
1909.000000	0.209193
1910.000000	0.206810
1911.000000	0.204724
1912.000000	0.202730
1913.000000	0.200580
1914.000000	0.198374
1915.000000	0.196296
1916.000000	0.194465
1917.000000	0.192808
1918.000000	0.191401
1919.000000	0.190296
1920.000000	0.189607
1921.000000	0.188701
1922.000000	0.188060
1923.000000	0.187747
1924.000000	0.187196
1925.000000	0.186764
1926.000000	0.186438
1927.000000	0.186294
1928.000000	0.186187
1929.000000	0.186059
1930.000000	0.186324
1931.000000	0.186948
1932.000000	0.187086
1933.000000	0.187328
1934.000000	0.187696
1935.000000	0.187746
1936.000000	0.188221
1937.000000	0.188770
1938.000000	0.188847
1939.000000	0.188671
1940.000000	0.188213
1941.000000	0.187784
1942.000000	0.187373
1943.000000	0.186493
1944.000000	0.186156
1945.000000	0.185924
1946.000000	0.185646
1947.000000	0.185831
1948.000000	0.185871
1949.000000	0.186164
1950.000000	0.186017
1951.000000	0.185624
1952.000000	0.185053
1953.000000	0.184768
1954.000000	0.184057
1955.000000	0.183473
1956.000000	0.183043
1957.000000	0.182728
1958.000000	0.182366
1959.000000	0.182106
1960.000000	0.182320
1961.000000	0.182352
1962.000000	0.182279
1963.000000	0.182221
1964.000000	0.182264
1965.000000	0.181960
1966.000000	0.181688
1967.000000	0.181917
1968.000000	0.181653
1969.000000	0.181100
1970.000000	0.181287
1971.000000	0.181366
1972.000000	0.181743
1973.000000	0.182412
1974.000000	0.184034
1975.000000	0.184775
1976.000000	0.185476
1977.000000	0.185999
1978.000000	0.185413
1979.000000	0.185208
1980.000000	0.185386
1981.000000	0.185804
1982.000000	0.187509
1983.000000	0.189003
1984.000000	0.189901
1985.000000	0.190698
1986.000000	0.191253
1987.000000	0.191254
1988.000000	0.191412
1989.000000	0.191560
1990.000000	0.191732
1991.000000	0.192274
1992.000000	0.192718
1993.000000	0.193513
1994.000000	0.194660
1995.000000	0.195180
1996.000000	0.195737
1997.000000	0.196589
1998.000000	0.197616
1999.000000	0.198475
2000.000000	0.199592
2001.000000	0.200415
2002.000000	0.201168
2003.000000	0.202617
2004.000000	0.203465
2005.000000	0.204552
2006.000000	0.205753
2007.000000	0.206799
2008.000000	0.207963
2009.000000	0.209403
2010.000000	0.210738
2011.000000	0.211852
2012.000000	0.212952
2013.000000	0.214128
2014.000000	0.215149
2015.000000	0.215867
2016.000000	0.216736
2017.000000	0.217708
2018.000000	0.218903
2019.000000	0.219994
2020.000000	0.221054
2021.000000	0.222061
2022.000000	0.222663
2023.000000	0.223553
2024.000000	0.224623
2025.000000	0.225731
2026.000000	0.226571
2027.000000	0.228066
2028.000000	0.229592
2029.000000	0.231167
2030.000000	0.232672
2031.000000	0.233886
2032.000000	0.235056
2033.000000	0.235715
2034.000000	0.236731
2035.000000	0.238136
2036.000000	0.238855
2037.000000	0.239293
2038.000000	0.240316
2039.000000	0.241305
2040.000000	0.242323
2041.000000	0.243796
2042.000000	0.245287
2043.000000	0.246333
2044.000000	0.247185
2045.000000	0.248170
2046.000000	0.249207
2047.000000	0.249790
2048.000000	0.249762
2049.000000	0.250158
2050.000000	0.249859
2051.000000	0.250439
2052.000000	0.251616
2053.000000	0.252614
2054.000000	0.254454
2055.000000	0.255638
2056.000000	0.256293
2057.000000	0.256964
2058.000000	0.257390
2059.000000	0.257614
2060.000000	0.258008
2061.000000	0.258504
2062.000000	0.258959
2063.000000	0.259348
2064.000000	0.259885
2065.000000	0.260625
2066.000000	0.261260
2067.000000	0.262263
2068.000000	0.263305
2069.000000	0.263854
2070.000000	0.264935
2071.000000	0.265955
2072.000000	0.267343
2073.000000	0.269156
2074.000000	0.270497
2075.000000	0.271683
2076.000000	0.272722
2077.000000	0.273557
2078.000000	0.273905
2079.000000	0.274685
2080.000000	0.275697
2081.000000	0.276469
2082.000000	0.277488
2083.000000	0.278098
2084.000000	0.277939
2085.000000	0.278305
2086.000000	0.278519
2087.000000	0.279031
2088.000000	0.280245
2089.000000	0.281630
2090.000000	0.282983
2091.000000	0.284809
2092.000000	0.286009
2093.000000	0.287007
2094.000000	0.287764
2095.000000	0.288317
2096.000000	0.288865
2097.000000	0.289022
2098.000000	0.289267
2099.000000	0.290054
2100.000000	0.290540
2101.000000	0.291474
2102.000000	0.292586
2103.000000	0.293134
2104.000000	0.293741
2105.000000	0.294287
2106.000000	0.294591
2107.000000	0.295107
2108.000000	0.295566
2109.000000	0.296182
2110.000000	0.297050
2111.000000	0.297646
2112.000000	0.297901
2113.000000	0.298399
2114.000000	0.299396
2115.000000	0.299721
2116.000000	0.300162
2117.000000	0.300744
2118.000000	0.301207
2119.000000	0.301900
2120.000000	0.302261
2121.000000	0.303108
2122.000000	0.303091
2123.000000	0.301500
2124.000000	0.301595
2125.000000	0.302412
2126.000000	0.302931
2127.000000	0.304490
2128.000000	0.305423
2129.000000	0.305799
2130.000000	0.306194
2131.000000	0.305461
2132.000000	0.305609
2133.000000	0.305768
2134.000000	0.304964
2135.000000	0.305491
2136.000000	0.305256
2137.000000	0.305336
2138.000000	0.305557
2139.000000	0.305674
2140.000000	0.305927
2141.000000	0.306086
2142.000000	0.305533
2143.000000	0.305522
2144.000000	0.306340
2145.000000	0.306641
2146.000000	0.306805
2147.000000	0.307856
2148.000000	0.308268
2149.000000	0.308322
2150.000000	0.308919
2151.000000	0.309755
2152.000000	0.310254
2153.000000	0.310820
2154.000000	0.310935
2155.000000	0.310774
2156.000000	0.310487
2157.000000	0.309731
2158.000000	0.309111
2159.000000	0.308408
2160.000000	0.308102
2161.000000	0.307787
2162.000000	0.308017
2163.000000	0.308940
2164.000000	0.309081
2165.000000	0.309152
2166.000000	0.309138
2167.000000	0.308263
2168.000000	0.307429
2169.000000	0.307335
2170.000000	0.307381
2171.000000	0.307739
2172.000000	0.309097
2173.000000	0.309417
2174.000000	0.309221
2175.000000	0.309591
2176.000000	0.309903
2177.000000	0.310299
2178.000000	0.311248
2179.000000	0.311883
2180.000000	0.311957
2181.000000	0.312446
2182.000000	0.312768
2183.000000	0.313104
2184.000000	0.312622
2185.000000	0.311650
2186.000000	0.311223
2187.000000	0.310553
2188.000000	0.310293
2189.000000	0.310704
2190.000000	0.310834
2191.000000	0.312162
2192.000000	0.312494
2193.000000	0.313382
2194.000000	0.312979
2195.000000	0.310340
2196.000000	0.309634
2197.000000	0.308410
2198.000000	0.308747
2199.000000	0.313040
2200.000000	0.314202
2201.000000	0.314940
2202.000000	0.314640
2203.000000	0.311990
2204.000000	0.307807
2205.000000	0.305466
2206.000000	0.303845
2207.000000	0.302596
2208.000000	0.302958
2209.000000	0.302539
2210.000000	0.303192
2211.000000	0.304504
2212.000000	0.306371
2213.000000	0.307819
2214.000000	0.309706
2215.000000	0.310708
2216.000000	0.311404
2217.000000	0.311642
2218.000000	0.311350
2219.000000	0.310955
2220.000000	0.309678
2221.000000	0.309200
2222.000000	0.308594
2223.000000	0.308877
2224.000000	0.310537
2225.000000	0.310686
2226.000000	0.311626
2227.000000	0.312514
2228.000000	0.312258
2229.000000	0.312350
2230.000000	0.312061
2231.000000	0.311906
2232.000000	0.310017
2233.000000	0.307303
2234.000000	0.306220
2235.000000	0.305401
2236.000000	0.305565
2237.000000	0.309053
2238.000000	0.308536
2239.000000	0.304943
2240.000000	0.305121
2241.000000	0.305170
2242.000000	0.306831
2243.000000	0.313513
2244.000000	0.315508
2245.000000	0.314807
2246.000000	0.314732
2247.000000	0.312472
2248.000000	0.311852
2249.000000	0.312858
2250.000000	0.311946
2251.000000	0.313289
2252.000000	0.313840
2253.000000	0.311587
2254.000000	0.312313
2255.000000	0.310848
2256.000000	0.307828
2257.000000	0.306083
2258.000000	0.303505
2259.000000	0.302516
2260.000000	0.302329
2261.000000	0.302354
2262.000000	0.305384
2263.000000	0.304228
2264.000000	0.300737
2265.000000	0.298316
2266.000000	0.292835
2267.000000	0.291130
2268.000000	0.291818
2269.000000	0.292674
2270.000000	0.296751
2271.000000	0.296531
2272.000000	0.294651
2273.000000	0.293002
2274.000000	0.288166
2275.000000	0.286154
2276.000000	0.286236
2277.000000	0.285105
2278.000000	0.284405
2279.000000	0.284065
2280.000000	0.282813
2281.000000	0.281166
2282.000000	0.279802
2283.000000	0.279062
2284.000000	0.278075
2285.000000	0.277958
2286.000000	0.278591
2287.000000	0.277187
2288.000000	0.274750
2289.000000	0.273945
2290.000000	0.273124
2291.000000	0.271795
2292.000000	0.273047
2293.000000	0.274799
2294.000000	0.275845
2295.000000	0.276968
2296.000000	0.278159
2297.000000	0.278988
2298.000000	0.279846
2299.000000	0.280842
2300.000000	0.281737
2301.000000	0.282417
2302.000000	0.282643
2303.000000	0.283967
2304.000000	0.283234
2305.000000	0.280232
2306.000000	0.279182
2307.000000	0.277889
2308.000000	0.275710
2309.000000	0.277533
2310.000000	0.278410
2311.000000	0.279010
2312.000000	0.278680
2313.000000	0.275787
2314.000000	0.273830
2315.000000	0.271660
2316.000000	0.269613
2317.000000	0.267700
2318.000000	0.266087
2319.000000	0.264933
2320.000000	0.264363
2321.000000	0.265607
2322.000000	0.267670
2323.000000	0.269399
2324.000000	0.270198
2325.000000	0.270466
2326.000000	0.270629
2327.000000	0.270305
2328.000000	0.268559
2329.000000	0.267312
2330.000000	0.265244
2331.000000	0.261469
2332.000000	0.261105
2333.000000	0.260840
2334.000000	0.257713
2335.000000	0.256035
2336.000000	0.254233
2337.000000	0.252498
2338.000000	0.251022
2339.000000	0.250682
2340.000000	0.251593
2341.000000	0.250071
2342.000000	0.247552
2343.000000	0.245818
2344.000000	0.242518
2345.000000	0.241433
2346.000000	0.242498
2347.000000	0.242071
2348.000000	0.241561
2349.000000	0.241650
2350.000000	0.239467
2351.000000	0.238841
2352.000000	0.238871
2353.000000	0.236746
2354.000000	0.236334
2355.000000	0.237502
2356.000000	0.234331
2357.000000	0.230383
2358.000000	0.226802
2359.000000	0.222485
2360.000000	0.221820
2361.000000	0.223855
2362.000000	0.222861
2363.000000	0.218182
2364.000000	0.214208
2365.000000	0.211178
2366.000000	0.210927
2367.000000	0.213730
2368.000000	0.216548
2369.000000	0.217825
2370.000000	0.217137
2371.000000	0.220274
2372.000000	0.222204
2373.000000	0.221496
2374.000000	0.224110
2375.000000	0.220157
2376.000000	0.215621
2377.000000	0.213585
2378.000000	0.206937
2379.000000	0.204426
2380.000000	0.201402
2381.000000	0.198347
2382.000000	0.198631
2383.000000	0.196708
2384.000000	0.197057
2385.000000	0.199956
2386.000000	0.206074
2387.000000	0.213294
2388.000000	0.215441
2389.000000	0.215779
2390.000000	0.215325
2391.000000	0.207469
2392.000000	0.199336
2393.000000	0.197928
2394.000000	0.195886
2395.000000	0.193561
2396.000000	0.195780
2397.000000	0.196577
2398.000000	0.190807
2399.000000	0.190367
2400.000000	0.189230
2401.000000	0.185560
2402.000000	0.188562
2403.000000	0.182966
2404.000000	0.176899
2405.000000	0.175094
2406.000000	0.166343
2407.000000	0.170436
2408.000000	0.180485
2409.000000	0.182881
2410.000000	0.186582
2411.000000	0.183320
2412.000000	0.176898
2413.000000	0.171565
2414.000000	0.169900
2415.000000	0.172247
2416.000000	0.177704
2417.000000	0.187160
2418.000000	0.188866
2419.000000	0.194950
2420.000000	0.201435
2421.000000	0.196352
2422.000000	0.201811
2423.000000	0.201620
2424.000000	0.184412
2425.000000	0.180232
2426.000000	0.180772
2427.000000	0.181935
2428.000000	0.185194
2429.000000	0.187369
2430.000000	0.189503
2431.000000	0.187722
2432.000000	0.199082
2433.000000	0.205596
2434.000000	0.199353
2435.000000	0.196442
2436.000000	0.188292
2437.000000	0.180535
2438.000000	0.184851
2439.000000	0.175798
2440.000000	0.168641
2441.000000	0.177489
2442.000000	0.170793
2443.000000	0.182556
2444.000000	0.185007
2445.000000	0.166727
2446.000000	0.169548
2447.000000	0.161618
2448.000000	0.156644
2449.000000	0.165651
2450.000000	0.153536
2451.000000	0.142283
2452.000000	0.146890
2453.000000	0.142426
2454.000000	0.157423
2455.000000	0.179157
2456.000000	0.178146
2457.000000	0.180599
2458.000000	0.174225
2459.000000	0.162916
2460.000000	0.172809
2461.000000	0.187437
2462.000000	0.194994
2463.000000	0.206909
2464.000000	0.211521
2465.000000	0.188394
2466.000000	0.160114
2467.000000	0.148244
2468.000000	0.119365
2469.000000	0.111468
2470.000000	0.141053
2471.000000	0.146314
2472.000000	0.159801
2473.000000	0.183385
2474.000000	0.154818
2475.000000	0.123385
2476.000000	0.111259
2477.000000	0.093930
2478.000000	0.120548
2479.000000	0.135950
2480.000000	0.119533
2481.000000	0.139555
2482.000000	0.172987
2483.000000	0.239193
2484.000000	0.299708
2485.000000	0.295716
2486.000000	0.243206
2487.000000	0.187340
2488.000000	0.157333
2489.000000	0.122675
2490.000000	0.138861
2491.000000	0.189720
2492.000000	0.199198
2493.000000	0.225640
2494.000000	0.225045
2495.000000	0.170215
2496.000000	0.131579
2497.000000	0.091297
2498.000000	0.070308
2499.000000	0.039203
2500.000000	0.030968
