# Wavelength	Nau-2_60_FV7_40_00000.asd.rts.txt
350.000000	0.078511
351.000000	0.098257
352.000000	0.100986
353.000000	0.092734
354.000000	0.085778
355.000000	0.098871
356.000000	0.107638
357.000000	0.106003
358.000000	0.096120
359.000000	0.095346
360.000000	0.100589
361.000000	0.103841
362.000000	0.102317
363.000000	0.106224
364.000000	0.115719
365.000000	0.104226
366.000000	0.098502
367.000000	0.102783
368.000000	0.103129
369.000000	0.105606
370.000000	0.108971
371.000000	0.110229
372.000000	0.106182
373.000000	0.104836
374.000000	0.109794
375.000000	0.111188
376.000000	0.106389
377.000000	0.099909
378.000000	0.103863
379.000000	0.106119
380.000000	0.105317
381.000000	0.104126
382.000000	0.104932
383.000000	0.106895
384.000000	0.108643
385.000000	0.107687
386.000000	0.109057
387.000000	0.112663
388.000000	0.112948
389.000000	0.111517
390.000000	0.109502
391.000000	0.108141
392.000000	0.111553
393.000000	0.113761
394.000000	0.111084
395.000000	0.110862
396.000000	0.111583
397.000000	0.112541
398.000000	0.114689
399.000000	0.114442
400.000000	0.113141
401.000000	0.113964
402.000000	0.112982
403.000000	0.112239
404.000000	0.113561
405.000000	0.113348
406.000000	0.113416
407.000000	0.114298
408.000000	0.113886
409.000000	0.114287
410.000000	0.115437
411.000000	0.116063
412.000000	0.116314
413.000000	0.116312
414.000000	0.116293
415.000000	0.116968
416.000000	0.117135
417.000000	0.116610
418.000000	0.117802
419.000000	0.118790
420.000000	0.119071
421.000000	0.119222
422.000000	0.119263
423.000000	0.119344
424.000000	0.119631
425.000000	0.119786
426.000000	0.120066
427.000000	0.120572
428.000000	0.120739
429.000000	0.121017
430.000000	0.121469
431.000000	0.121615
432.000000	0.121763
433.000000	0.122137
434.000000	0.122938
435.000000	0.123011
436.000000	0.122915
437.000000	0.123251
438.000000	0.123118
439.000000	0.123166
440.000000	0.123731
441.000000	0.124329
442.000000	0.124967
443.000000	0.125328
444.000000	0.124945
445.000000	0.125095
446.000000	0.125795
447.000000	0.126509
448.000000	0.126451
449.000000	0.126543
450.000000	0.127313
451.000000	0.127719
452.000000	0.128200
453.000000	0.128760
454.000000	0.129008
455.000000	0.129400
456.000000	0.129902
457.000000	0.130209
458.000000	0.130483
459.000000	0.130795
460.000000	0.131181
461.000000	0.131456
462.000000	0.131830
463.000000	0.132322
464.000000	0.132937
465.000000	0.133040
466.000000	0.132916
467.000000	0.133540
468.000000	0.133927
469.000000	0.134076
470.000000	0.134320
471.000000	0.134702
472.000000	0.135118
473.000000	0.135471
474.000000	0.135650
475.000000	0.135868
476.000000	0.136235
477.000000	0.136584
478.000000	0.136794
479.000000	0.137017
480.000000	0.137331
481.000000	0.137761
482.000000	0.138236
483.000000	0.138569
484.000000	0.138838
485.000000	0.138986
486.000000	0.139172
487.000000	0.139691
488.000000	0.140127
489.000000	0.140401
490.000000	0.140632
491.000000	0.140892
492.000000	0.141078
493.000000	0.141017
494.000000	0.141008
495.000000	0.141076
496.000000	0.141204
497.000000	0.141489
498.000000	0.141701
499.000000	0.141771
500.000000	0.141687
501.000000	0.141747
502.000000	0.141957
503.000000	0.142137
504.000000	0.142373
505.000000	0.142559
506.000000	0.142647
507.000000	0.143015
508.000000	0.143422
509.000000	0.143712
510.000000	0.144033
511.000000	0.144289
512.000000	0.144552
513.000000	0.145006
514.000000	0.145347
515.000000	0.145651
516.000000	0.146062
517.000000	0.146493
518.000000	0.146957
519.000000	0.147405
520.000000	0.147786
521.000000	0.148052
522.000000	0.148325
523.000000	0.149023
524.000000	0.149680
525.000000	0.150278
526.000000	0.151044
527.000000	0.151895
528.000000	0.152785
529.000000	0.153729
530.000000	0.154856
531.000000	0.155943
532.000000	0.156886
533.000000	0.158129
534.000000	0.159388
535.000000	0.160563
536.000000	0.161742
537.000000	0.162936
538.000000	0.164110
539.000000	0.165208
540.000000	0.166345
541.000000	0.167443
542.000000	0.168449
543.000000	0.169452
544.000000	0.170372
545.000000	0.171199
546.000000	0.172228
547.000000	0.173243
548.000000	0.174256
549.000000	0.175374
550.000000	0.176506
551.000000	0.177713
552.000000	0.179038
553.000000	0.180365
554.000000	0.181764
555.000000	0.183289
556.000000	0.184876
557.000000	0.186437
558.000000	0.188036
559.000000	0.189695
560.000000	0.191360
561.000000	0.193047
562.000000	0.194690
563.000000	0.196251
564.000000	0.197801
565.000000	0.199330
566.000000	0.200764
567.000000	0.202090
568.000000	0.203305
569.000000	0.204473
570.000000	0.205537
571.000000	0.206474
572.000000	0.207310
573.000000	0.208062
574.000000	0.208751
575.000000	0.209424
576.000000	0.209956
577.000000	0.210315
578.000000	0.210578
579.000000	0.210912
580.000000	0.211192
581.000000	0.211373
582.000000	0.211551
583.000000	0.211659
584.000000	0.211733
585.000000	0.211862
586.000000	0.211842
587.000000	0.211715
588.000000	0.211572
589.000000	0.211339
590.000000	0.211066
591.000000	0.210807
592.000000	0.210645
593.000000	0.210384
594.000000	0.209986
595.000000	0.209562
596.000000	0.209165
597.000000	0.208764
598.000000	0.208226
599.000000	0.207687
600.000000	0.207182
601.000000	0.206657
602.000000	0.206104
603.000000	0.205601
604.000000	0.205132
605.000000	0.204478
606.000000	0.203790
607.000000	0.203147
608.000000	0.202598
609.000000	0.202126
610.000000	0.201659
611.000000	0.201135
612.000000	0.200681
613.000000	0.200182
614.000000	0.199633
615.000000	0.199278
616.000000	0.198850
617.000000	0.198295
618.000000	0.197837
619.000000	0.197380
620.000000	0.196940
621.000000	0.196596
622.000000	0.196214
623.000000	0.195787
624.000000	0.195351
625.000000	0.195005
626.000000	0.194650
627.000000	0.194278
628.000000	0.194016
629.000000	0.193876
630.000000	0.193723
631.000000	0.193519
632.000000	0.193314
633.000000	0.193078
634.000000	0.192796
635.000000	0.192670
636.000000	0.192594
637.000000	0.192482
638.000000	0.192373
639.000000	0.192249
640.000000	0.192170
641.000000	0.192169
642.000000	0.192130
643.000000	0.192105
644.000000	0.192180
645.000000	0.192213
646.000000	0.192258
647.000000	0.192357
648.000000	0.192535
649.000000	0.192709
650.000000	0.192863
651.000000	0.193105
652.000000	0.193298
653.000000	0.193482
654.000000	0.193717
655.000000	0.194005
656.000000	0.194308
657.000000	0.194578
658.000000	0.194981
659.000000	0.195362
660.000000	0.195693
661.000000	0.196232
662.000000	0.196778
663.000000	0.197304
664.000000	0.197804
665.000000	0.198390
666.000000	0.198992
667.000000	0.199515
668.000000	0.200123
669.000000	0.200801
670.000000	0.201532
671.000000	0.202335
672.000000	0.203126
673.000000	0.203889
674.000000	0.204679
675.000000	0.205468
676.000000	0.206270
677.000000	0.207117
678.000000	0.207997
679.000000	0.208904
680.000000	0.209840
681.000000	0.210804
682.000000	0.211840
683.000000	0.212920
684.000000	0.214101
685.000000	0.215282
686.000000	0.216486
687.000000	0.217736
688.000000	0.218969
689.000000	0.220229
690.000000	0.221565
691.000000	0.222884
692.000000	0.224221
693.000000	0.225616
694.000000	0.226975
695.000000	0.228379
696.000000	0.229849
697.000000	0.231373
698.000000	0.232879
699.000000	0.234408
700.000000	0.235984
701.000000	0.237450
702.000000	0.238981
703.000000	0.240606
704.000000	0.242211
705.000000	0.243856
706.000000	0.245520
707.000000	0.247228
708.000000	0.248939
709.000000	0.250687
710.000000	0.252511
711.000000	0.254360
712.000000	0.256236
713.000000	0.258144
714.000000	0.260044
715.000000	0.261883
716.000000	0.263713
717.000000	0.265604
718.000000	0.267483
719.000000	0.269354
720.000000	0.271247
721.000000	0.273163
722.000000	0.275015
723.000000	0.276832
724.000000	0.278643
725.000000	0.280440
726.000000	0.282281
727.000000	0.284103
728.000000	0.285955
729.000000	0.287777
730.000000	0.289498
731.000000	0.291325
732.000000	0.293117
733.000000	0.294846
734.000000	0.296517
735.000000	0.298151
736.000000	0.299846
737.000000	0.301476
738.000000	0.303019
739.000000	0.304608
740.000000	0.306175
741.000000	0.307788
742.000000	0.309375
743.000000	0.310891
744.000000	0.312414
745.000000	0.313878
746.000000	0.315288
747.000000	0.316586
748.000000	0.317910
749.000000	0.319192
750.000000	0.320368
751.000000	0.321579
752.000000	0.322762
753.000000	0.323919
754.000000	0.325077
755.000000	0.326189
756.000000	0.327279
757.000000	0.328337
758.000000	0.329349
759.000000	0.330349
760.000000	0.331284
761.000000	0.332216
762.000000	0.333054
763.000000	0.333804
764.000000	0.334614
765.000000	0.335346
766.000000	0.336076
767.000000	0.336865
768.000000	0.337581
769.000000	0.338259
770.000000	0.338894
771.000000	0.339398
772.000000	0.339897
773.000000	0.340378
774.000000	0.340918
775.000000	0.341460
776.000000	0.342023
777.000000	0.342579
778.000000	0.343021
779.000000	0.343438
780.000000	0.343845
781.000000	0.344169
782.000000	0.344498
783.000000	0.344895
784.000000	0.345212
785.000000	0.345539
786.000000	0.345823
787.000000	0.346033
788.000000	0.346206
789.000000	0.346423
790.000000	0.346653
791.000000	0.346859
792.000000	0.347030
793.000000	0.347153
794.000000	0.347232
795.000000	0.347296
796.000000	0.347320
797.000000	0.347320
798.000000	0.347367
799.000000	0.347500
800.000000	0.347640
801.000000	0.347687
802.000000	0.347631
803.000000	0.347594
804.000000	0.347662
805.000000	0.347707
806.000000	0.347734
807.000000	0.347818
808.000000	0.347891
809.000000	0.347904
810.000000	0.347920
811.000000	0.347971
812.000000	0.348000
813.000000	0.348039
814.000000	0.348051
815.000000	0.347965
816.000000	0.347858
817.000000	0.347745
818.000000	0.347559
819.000000	0.347509
820.000000	0.347504
821.000000	0.347421
822.000000	0.347278
823.000000	0.347112
824.000000	0.346925
825.000000	0.346837
826.000000	0.346780
827.000000	0.346648
828.000000	0.346487
829.000000	0.346511
830.000000	0.346411
831.000000	0.346248
832.000000	0.346089
833.000000	0.345914
834.000000	0.345708
835.000000	0.345508
836.000000	0.345353
837.000000	0.345234
838.000000	0.345148
839.000000	0.345045
840.000000	0.344755
841.000000	0.344453
842.000000	0.344279
843.000000	0.344173
844.000000	0.344009
845.000000	0.343728
846.000000	0.343436
847.000000	0.343127
848.000000	0.342859
849.000000	0.342708
850.000000	0.342532
851.000000	0.342314
852.000000	0.342126
853.000000	0.342040
854.000000	0.341786
855.000000	0.341575
856.000000	0.341497
857.000000	0.341266
858.000000	0.340997
859.000000	0.340674
860.000000	0.340285
861.000000	0.340013
862.000000	0.339883
863.000000	0.339758
864.000000	0.339582
865.000000	0.339396
866.000000	0.339254
867.000000	0.339147
868.000000	0.338807
869.000000	0.338328
870.000000	0.338056
871.000000	0.337806
872.000000	0.337533
873.000000	0.337150
874.000000	0.336658
875.000000	0.336355
876.000000	0.336162
877.000000	0.335795
878.000000	0.335529
879.000000	0.335428
880.000000	0.335288
881.000000	0.334984
882.000000	0.334650
883.000000	0.334332
884.000000	0.333987
885.000000	0.333836
886.000000	0.333603
887.000000	0.333192
888.000000	0.332821
889.000000	0.332588
890.000000	0.332355
891.000000	0.332127
892.000000	0.331788
893.000000	0.331390
894.000000	0.331091
895.000000	0.330761
896.000000	0.330491
897.000000	0.330273
898.000000	0.330059
899.000000	0.329782
900.000000	0.329467
901.000000	0.329153
902.000000	0.329028
903.000000	0.328659
904.000000	0.328217
905.000000	0.327859
906.000000	0.327476
907.000000	0.327176
908.000000	0.326986
909.000000	0.326653
910.000000	0.326336
911.000000	0.326002
912.000000	0.325664
913.000000	0.325554
914.000000	0.325341
915.000000	0.325010
916.000000	0.324631
917.000000	0.324377
918.000000	0.324187
919.000000	0.323962
920.000000	0.323730
921.000000	0.323416
922.000000	0.323072
923.000000	0.322775
924.000000	0.322433
925.000000	0.322223
926.000000	0.322144
927.000000	0.321711
928.000000	0.321366
929.000000	0.321098
930.000000	0.320784
931.000000	0.320537
932.000000	0.320114
933.000000	0.319637
934.000000	0.319504
935.000000	0.319093
936.000000	0.318672
937.000000	0.318444
938.000000	0.318245
939.000000	0.318049
940.000000	0.317830
941.000000	0.317727
942.000000	0.317526
943.000000	0.317217
944.000000	0.316804
945.000000	0.316743
946.000000	0.316506
947.000000	0.316168
948.000000	0.315906
949.000000	0.315742
950.000000	0.315525
951.000000	0.315233
952.000000	0.315094
953.000000	0.314981
954.000000	0.314741
955.000000	0.314269
956.000000	0.313845
957.000000	0.313654
958.000000	0.313540
959.000000	0.313338
960.000000	0.312985
961.000000	0.312751
962.000000	0.312623
963.000000	0.312306
964.000000	0.311955
965.000000	0.311725
966.000000	0.311543
967.000000	0.311231
968.000000	0.310972
969.000000	0.310703
970.000000	0.310421
971.000000	0.310356
972.000000	0.310399
973.000000	0.310279
974.000000	0.309789
975.000000	0.309574
976.000000	0.309411
977.000000	0.309077
978.000000	0.308969
979.000000	0.308912
980.000000	0.308597
981.000000	0.308242
982.000000	0.308196
983.000000	0.307898
984.000000	0.307459
985.000000	0.307542
986.000000	0.307277
987.000000	0.307106
988.000000	0.307199
989.000000	0.306966
990.000000	0.307003
991.000000	0.307015
992.000000	0.306696
993.000000	0.307026
994.000000	0.306800
995.000000	0.306391
996.000000	0.306790
997.000000	0.306629
998.000000	0.306431
999.000000	0.306571
1000.000000	0.306584
1001.000000	0.306678
1002.000000	0.306762
1003.000000	0.306146
1004.000000	0.305840
1005.000000	0.306214
1006.000000	0.306274
1007.000000	0.306029
1008.000000	0.306000
1009.000000	0.306435
1010.000000	0.306073
1011.000000	0.305243
1012.000000	0.304777
1013.000000	0.304394
1014.000000	0.304606
1015.000000	0.304840
1016.000000	0.305227
1017.000000	0.305322
1018.000000	0.304603
1019.000000	0.304540
1020.000000	0.304996
1021.000000	0.304674
1022.000000	0.304394
1023.000000	0.304919
1024.000000	0.305619
1025.000000	0.305442
1026.000000	0.306164
1027.000000	0.306362
1028.000000	0.305905
1029.000000	0.306336
1030.000000	0.306254
1031.000000	0.305777
1032.000000	0.305757
1033.000000	0.305487
1034.000000	0.305311
1035.000000	0.305403
1036.000000	0.305619
1037.000000	0.305741
1038.000000	0.305806
1039.000000	0.306082
1040.000000	0.306833
1041.000000	0.307079
1042.000000	0.307264
1043.000000	0.307241
1044.000000	0.306713
1045.000000	0.306823
1046.000000	0.307013
1047.000000	0.307159
1048.000000	0.307958
1049.000000	0.308183
1050.000000	0.307665
1051.000000	0.307646
1052.000000	0.307906
1053.000000	0.307950
1054.000000	0.308023
1055.000000	0.308323
1056.000000	0.308750
1057.000000	0.309177
1058.000000	0.309547
1059.000000	0.309680
1060.000000	0.309686
1061.000000	0.309636
1062.000000	0.309938
1063.000000	0.310801
1064.000000	0.311203
1065.000000	0.311631
1066.000000	0.311970
1067.000000	0.312040
1068.000000	0.311956
1069.000000	0.311810
1070.000000	0.311749
1071.000000	0.311246
1072.000000	0.311304
1073.000000	0.311856
1074.000000	0.312442
1075.000000	0.313014
1076.000000	0.313554
1077.000000	0.313754
1078.000000	0.314005
1079.000000	0.314144
1080.000000	0.313985
1081.000000	0.314290
1082.000000	0.315106
1083.000000	0.315304
1084.000000	0.315317
1085.000000	0.315684
1086.000000	0.315747
1087.000000	0.316039
1088.000000	0.317059
1089.000000	0.317445
1090.000000	0.317602
1091.000000	0.317181
1092.000000	0.316957
1093.000000	0.317039
1094.000000	0.317174
1095.000000	0.317366
1096.000000	0.317857
1097.000000	0.318722
1098.000000	0.319080
1099.000000	0.319389
1100.000000	0.319782
1101.000000	0.319865
1102.000000	0.319985
1103.000000	0.320288
1104.000000	0.320482
1105.000000	0.320329
1106.000000	0.320419
1107.000000	0.320605
1108.000000	0.320808
1109.000000	0.321104
1110.000000	0.321581
1111.000000	0.321693
1112.000000	0.321648
1113.000000	0.321854
1114.000000	0.321913
1115.000000	0.322162
1116.000000	0.322884
1117.000000	0.323091
1118.000000	0.322940
1119.000000	0.322973
1120.000000	0.322750
1121.000000	0.322888
1122.000000	0.323451
1123.000000	0.324013
1124.000000	0.324645
1125.000000	0.325051
1126.000000	0.325177
1127.000000	0.325329
1128.000000	0.325421
1129.000000	0.325396
1130.000000	0.325509
1131.000000	0.325728
1132.000000	0.325791
1133.000000	0.325875
1134.000000	0.325946
1135.000000	0.325890
1136.000000	0.325867
1137.000000	0.325847
1138.000000	0.325805
1139.000000	0.325728
1140.000000	0.325878
1141.000000	0.326164
1142.000000	0.326340
1143.000000	0.326461
1144.000000	0.326759
1145.000000	0.326968
1146.000000	0.327007
1147.000000	0.327090
1148.000000	0.327132
1149.000000	0.327216
1150.000000	0.327143
1151.000000	0.327386
1152.000000	0.327862
1153.000000	0.328125
1154.000000	0.328456
1155.000000	0.328615
1156.000000	0.328531
1157.000000	0.328585
1158.000000	0.328589
1159.000000	0.328624
1160.000000	0.328707
1161.000000	0.328760
1162.000000	0.328842
1163.000000	0.329066
1164.000000	0.329167
1165.000000	0.329136
1166.000000	0.329277
1167.000000	0.329438
1168.000000	0.329470
1169.000000	0.329546
1170.000000	0.329648
1171.000000	0.329627
1172.000000	0.329802
1173.000000	0.330129
1174.000000	0.330356
1175.000000	0.330682
1176.000000	0.330768
1177.000000	0.330679
1178.000000	0.330759
1179.000000	0.330784
1180.000000	0.330790
1181.000000	0.330969
1182.000000	0.331185
1183.000000	0.331314
1184.000000	0.331436
1185.000000	0.331598
1186.000000	0.331828
1187.000000	0.331934
1188.000000	0.332025
1189.000000	0.332016
1190.000000	0.331918
1191.000000	0.331934
1192.000000	0.332092
1193.000000	0.332225
1194.000000	0.332182
1195.000000	0.332280
1196.000000	0.332411
1197.000000	0.332454
1198.000000	0.332548
1199.000000	0.332675
1200.000000	0.332794
1201.000000	0.332722
1202.000000	0.332837
1203.000000	0.333066
1204.000000	0.333114
1205.000000	0.333248
1206.000000	0.333303
1207.000000	0.333375
1208.000000	0.333497
1209.000000	0.333707
1210.000000	0.333879
1211.000000	0.334157
1212.000000	0.334271
1213.000000	0.334261
1214.000000	0.334381
1215.000000	0.334523
1216.000000	0.334577
1217.000000	0.334631
1218.000000	0.334654
1219.000000	0.334575
1220.000000	0.334579
1221.000000	0.334634
1222.000000	0.334769
1223.000000	0.335041
1224.000000	0.335220
1225.000000	0.335205
1226.000000	0.335187
1227.000000	0.335221
1228.000000	0.335222
1229.000000	0.335252
1230.000000	0.335405
1231.000000	0.335510
1232.000000	0.335731
1233.000000	0.335901
1234.000000	0.336122
1235.000000	0.336242
1236.000000	0.336050
1237.000000	0.336065
1238.000000	0.336100
1239.000000	0.336152
1240.000000	0.336193
1241.000000	0.336438
1242.000000	0.336510
1243.000000	0.336641
1244.000000	0.336847
1245.000000	0.336954
1246.000000	0.337162
1247.000000	0.337518
1248.000000	0.337723
1249.000000	0.337741
1250.000000	0.337596
1251.000000	0.337422
1252.000000	0.337371
1253.000000	0.337397
1254.000000	0.337379
1255.000000	0.337425
1256.000000	0.337435
1257.000000	0.337369
1258.000000	0.337446
1259.000000	0.337604
1260.000000	0.337718
1261.000000	0.337726
1262.000000	0.337798
1263.000000	0.337918
1264.000000	0.338005
1265.000000	0.338090
1266.000000	0.338192
1267.000000	0.338281
1268.000000	0.338445
1269.000000	0.338410
1270.000000	0.338450
1271.000000	0.338581
1272.000000	0.338520
1273.000000	0.338664
1274.000000	0.338938
1275.000000	0.339021
1276.000000	0.338995
1277.000000	0.339092
1278.000000	0.339013
1279.000000	0.339012
1280.000000	0.339018
1281.000000	0.339053
1282.000000	0.339323
1283.000000	0.339432
1284.000000	0.339242
1285.000000	0.339274
1286.000000	0.339274
1287.000000	0.339317
1288.000000	0.339575
1289.000000	0.339863
1290.000000	0.339816
1291.000000	0.339748
1292.000000	0.339966
1293.000000	0.340148
1294.000000	0.340283
1295.000000	0.340495
1296.000000	0.340472
1297.000000	0.340348
1298.000000	0.340424
1299.000000	0.340483
1300.000000	0.340505
1301.000000	0.340605
1302.000000	0.340627
1303.000000	0.340797
1304.000000	0.340750
1305.000000	0.340682
1306.000000	0.340640
1307.000000	0.340494
1308.000000	0.340528
1309.000000	0.340669
1310.000000	0.340764
1311.000000	0.340942
1312.000000	0.341130
1313.000000	0.341167
1314.000000	0.341099
1315.000000	0.340954
1316.000000	0.340985
1317.000000	0.340970
1318.000000	0.340974
1319.000000	0.341154
1320.000000	0.341131
1321.000000	0.341052
1322.000000	0.341255
1323.000000	0.341276
1324.000000	0.341159
1325.000000	0.341187
1326.000000	0.341152
1327.000000	0.341080
1328.000000	0.341166
1329.000000	0.341121
1330.000000	0.341021
1331.000000	0.340967
1332.000000	0.340961
1333.000000	0.340897
1334.000000	0.340877
1335.000000	0.340889
1336.000000	0.340883
1337.000000	0.340903
1338.000000	0.340881
1339.000000	0.340950
1340.000000	0.340971
1341.000000	0.340952
1342.000000	0.341094
1343.000000	0.341158
1344.000000	0.341292
1345.000000	0.341305
1346.000000	0.341293
1347.000000	0.341256
1348.000000	0.341073
1349.000000	0.340893
1350.000000	0.340886
1351.000000	0.340917
1352.000000	0.340999
1353.000000	0.341179
1354.000000	0.341203
1355.000000	0.341022
1356.000000	0.341011
1357.000000	0.340923
1358.000000	0.340841
1359.000000	0.340863
1360.000000	0.340829
1361.000000	0.340826
1362.000000	0.340754
1363.000000	0.340568
1364.000000	0.340495
1365.000000	0.340421
1366.000000	0.340398
1367.000000	0.340430
1368.000000	0.340464
1369.000000	0.340582
1370.000000	0.340506
1371.000000	0.340343
1372.000000	0.340116
1373.000000	0.339850
1374.000000	0.339590
1375.000000	0.339421
1376.000000	0.339362
1377.000000	0.339153
1378.000000	0.338933
1379.000000	0.338539
1380.000000	0.338127
1381.000000	0.337827
1382.000000	0.337361
1383.000000	0.336944
1384.000000	0.336421
1385.000000	0.335750
1386.000000	0.335126
1387.000000	0.334389
1388.000000	0.333600
1389.000000	0.332840
1390.000000	0.332124
1391.000000	0.331237
1392.000000	0.330197
1393.000000	0.329157
1394.000000	0.328077
1395.000000	0.326925
1396.000000	0.325772
1397.000000	0.324546
1398.000000	0.323044
1399.000000	0.321743
1400.000000	0.320552
1401.000000	0.319346
1402.000000	0.318203
1403.000000	0.317131
1404.000000	0.316101
1405.000000	0.314784
1406.000000	0.313712
1407.000000	0.312996
1408.000000	0.312184
1409.000000	0.311612
1410.000000	0.311199
1411.000000	0.310721
1412.000000	0.310355
1413.000000	0.310212
1414.000000	0.310119
1415.000000	0.310021
1416.000000	0.310068
1417.000000	0.310150
1418.000000	0.310081
1419.000000	0.310060
1420.000000	0.310038
1421.000000	0.310080
1422.000000	0.310251
1423.000000	0.310499
1424.000000	0.310648
1425.000000	0.310886
1426.000000	0.310965
1427.000000	0.310977
1428.000000	0.311079
1429.000000	0.311049
1430.000000	0.311116
1431.000000	0.311230
1432.000000	0.311264
1433.000000	0.311294
1434.000000	0.311367
1435.000000	0.311429
1436.000000	0.311633
1437.000000	0.311921
1438.000000	0.312176
1439.000000	0.312533
1440.000000	0.312930
1441.000000	0.313387
1442.000000	0.313886
1443.000000	0.314354
1444.000000	0.314883
1445.000000	0.315595
1446.000000	0.316278
1447.000000	0.317027
1448.000000	0.317831
1449.000000	0.318561
1450.000000	0.319231
1451.000000	0.319911
1452.000000	0.320516
1453.000000	0.320951
1454.000000	0.321334
1455.000000	0.321840
1456.000000	0.322414
1457.000000	0.322932
1458.000000	0.323412
1459.000000	0.323795
1460.000000	0.324093
1461.000000	0.324358
1462.000000	0.324643
1463.000000	0.324932
1464.000000	0.325236
1465.000000	0.325534
1466.000000	0.325773
1467.000000	0.326091
1468.000000	0.326404
1469.000000	0.326800
1470.000000	0.327272
1471.000000	0.327701
1472.000000	0.328056
1473.000000	0.328467
1474.000000	0.328834
1475.000000	0.329204
1476.000000	0.329560
1477.000000	0.329933
1478.000000	0.330298
1479.000000	0.330626
1480.000000	0.331005
1481.000000	0.331256
1482.000000	0.331440
1483.000000	0.331723
1484.000000	0.331953
1485.000000	0.332184
1486.000000	0.332454
1487.000000	0.332781
1488.000000	0.333193
1489.000000	0.333530
1490.000000	0.333799
1491.000000	0.334005
1492.000000	0.333937
1493.000000	0.334096
1494.000000	0.334386
1495.000000	0.334531
1496.000000	0.334651
1497.000000	0.334794
1498.000000	0.334854
1499.000000	0.334980
1500.000000	0.335273
1501.000000	0.335556
1502.000000	0.335752
1503.000000	0.335896
1504.000000	0.336003
1505.000000	0.336135
1506.000000	0.336332
1507.000000	0.336561
1508.000000	0.336846
1509.000000	0.337152
1510.000000	0.337355
1511.000000	0.337556
1512.000000	0.337680
1513.000000	0.337711
1514.000000	0.337883
1515.000000	0.338024
1516.000000	0.338205
1517.000000	0.338356
1518.000000	0.338428
1519.000000	0.338435
1520.000000	0.338388
1521.000000	0.338411
1522.000000	0.338560
1523.000000	0.338755
1524.000000	0.338917
1525.000000	0.339065
1526.000000	0.339109
1527.000000	0.339157
1528.000000	0.339306
1529.000000	0.339420
1530.000000	0.339430
1531.000000	0.339507
1532.000000	0.339604
1533.000000	0.339642
1534.000000	0.339714
1535.000000	0.339764
1536.000000	0.339781
1537.000000	0.340009
1538.000000	0.340268
1539.000000	0.340410
1540.000000	0.340478
1541.000000	0.340488
1542.000000	0.340528
1543.000000	0.340659
1544.000000	0.340862
1545.000000	0.341082
1546.000000	0.341292
1547.000000	0.341496
1548.000000	0.341695
1549.000000	0.341788
1550.000000	0.341760
1551.000000	0.341810
1552.000000	0.341861
1553.000000	0.341869
1554.000000	0.342032
1555.000000	0.342216
1556.000000	0.342365
1557.000000	0.342538
1558.000000	0.342666
1559.000000	0.342683
1560.000000	0.342696
1561.000000	0.342706
1562.000000	0.342715
1563.000000	0.342750
1564.000000	0.342797
1565.000000	0.342878
1566.000000	0.342857
1567.000000	0.342909
1568.000000	0.342846
1569.000000	0.342735
1570.000000	0.342701
1571.000000	0.342658
1572.000000	0.342588
1573.000000	0.342590
1574.000000	0.342526
1575.000000	0.342367
1576.000000	0.342318
1577.000000	0.342264
1578.000000	0.342226
1579.000000	0.342337
1580.000000	0.342381
1581.000000	0.342506
1582.000000	0.342570
1583.000000	0.342523
1584.000000	0.342481
1585.000000	0.342584
1586.000000	0.342616
1587.000000	0.342590
1588.000000	0.342611
1589.000000	0.342589
1590.000000	0.342608
1591.000000	0.342763
1592.000000	0.342771
1593.000000	0.342767
1594.000000	0.342698
1595.000000	0.342504
1596.000000	0.342506
1597.000000	0.342570
1598.000000	0.342661
1599.000000	0.343015
1600.000000	0.343068
1601.000000	0.343094
1602.000000	0.343113
1603.000000	0.342925
1604.000000	0.342878
1605.000000	0.342988
1606.000000	0.343021
1607.000000	0.343191
1608.000000	0.343200
1609.000000	0.343049
1610.000000	0.343000
1611.000000	0.342962
1612.000000	0.342936
1613.000000	0.343156
1614.000000	0.343208
1615.000000	0.343185
1616.000000	0.343248
1617.000000	0.343239
1618.000000	0.343312
1619.000000	0.343475
1620.000000	0.343531
1621.000000	0.343559
1622.000000	0.343713
1623.000000	0.343859
1624.000000	0.343969
1625.000000	0.344037
1626.000000	0.343965
1627.000000	0.343765
1628.000000	0.343668
1629.000000	0.343509
1630.000000	0.343523
1631.000000	0.343576
1632.000000	0.343565
1633.000000	0.343665
1634.000000	0.343675
1635.000000	0.343633
1636.000000	0.343597
1637.000000	0.343538
1638.000000	0.343521
1639.000000	0.343643
1640.000000	0.343584
1641.000000	0.343514
1642.000000	0.343494
1643.000000	0.343390
1644.000000	0.343374
1645.000000	0.343508
1646.000000	0.343496
1647.000000	0.343453
1648.000000	0.343362
1649.000000	0.343329
1650.000000	0.343292
1651.000000	0.343275
1652.000000	0.343208
1653.000000	0.343008
1654.000000	0.343003
1655.000000	0.342944
1656.000000	0.342921
1657.000000	0.343155
1658.000000	0.343235
1659.000000	0.343372
1660.000000	0.343485
1661.000000	0.343456
1662.000000	0.343527
1663.000000	0.343616
1664.000000	0.343622
1665.000000	0.343622
1666.000000	0.343712
1667.000000	0.343658
1668.000000	0.343636
1669.000000	0.343727
1670.000000	0.343625
1671.000000	0.343472
1672.000000	0.343487
1673.000000	0.343485
1674.000000	0.343477
1675.000000	0.343521
1676.000000	0.343396
1677.000000	0.343186
1678.000000	0.342996
1679.000000	0.342902
1680.000000	0.342787
1681.000000	0.342754
1682.000000	0.342788
1683.000000	0.342841
1684.000000	0.342777
1685.000000	0.342672
1686.000000	0.342729
1687.000000	0.342869
1688.000000	0.342996
1689.000000	0.343250
1690.000000	0.343318
1691.000000	0.343247
1692.000000	0.343160
1693.000000	0.343051
1694.000000	0.343027
1695.000000	0.342999
1696.000000	0.342824
1697.000000	0.342710
1698.000000	0.342650
1699.000000	0.342530
1700.000000	0.342391
1701.000000	0.342433
1702.000000	0.342262
1703.000000	0.342155
1704.000000	0.342336
1705.000000	0.342434
1706.000000	0.342538
1707.000000	0.342634
1708.000000	0.342755
1709.000000	0.342736
1710.000000	0.342797
1711.000000	0.342709
1712.000000	0.342386
1713.000000	0.342255
1714.000000	0.342141
1715.000000	0.342111
1716.000000	0.342371
1717.000000	0.342367
1718.000000	0.342160
1719.000000	0.342063
1720.000000	0.341976
1721.000000	0.341885
1722.000000	0.341903
1723.000000	0.341819
1724.000000	0.341593
1725.000000	0.341543
1726.000000	0.341500
1727.000000	0.341430
1728.000000	0.341375
1729.000000	0.341211
1730.000000	0.341022
1731.000000	0.341012
1732.000000	0.341164
1733.000000	0.341195
1734.000000	0.341094
1735.000000	0.341100
1736.000000	0.340998
1737.000000	0.340956
1738.000000	0.341094
1739.000000	0.341094
1740.000000	0.340979
1741.000000	0.340855
1742.000000	0.340740
1743.000000	0.340669
1744.000000	0.340547
1745.000000	0.340356
1746.000000	0.340160
1747.000000	0.339915
1748.000000	0.339738
1749.000000	0.339771
1750.000000	0.339714
1751.000000	0.339753
1752.000000	0.339894
1753.000000	0.339947
1754.000000	0.339976
1755.000000	0.340020
1756.000000	0.339974
1757.000000	0.339836
1758.000000	0.339713
1759.000000	0.339436
1760.000000	0.339348
1761.000000	0.339308
1762.000000	0.339296
1763.000000	0.339572
1764.000000	0.339559
1765.000000	0.339299
1766.000000	0.339205
1767.000000	0.338939
1768.000000	0.338765
1769.000000	0.338859
1770.000000	0.338861
1771.000000	0.338719
1772.000000	0.338720
1773.000000	0.338756
1774.000000	0.338775
1775.000000	0.338980
1776.000000	0.338943
1777.000000	0.338705
1778.000000	0.338588
1779.000000	0.338363
1780.000000	0.338285
1781.000000	0.338284
1782.000000	0.338312
1783.000000	0.338454
1784.000000	0.338525
1785.000000	0.338534
1786.000000	0.338606
1787.000000	0.338620
1788.000000	0.338591
1789.000000	0.338460
1790.000000	0.338137
1791.000000	0.337879
1792.000000	0.337697
1793.000000	0.337621
1794.000000	0.337737
1795.000000	0.337758
1796.000000	0.337796
1797.000000	0.337800
1798.000000	0.337604
1799.000000	0.337603
1800.000000	0.337837
1801.000000	0.337193
1802.000000	0.337789
1803.000000	0.338062
1804.000000	0.338269
1805.000000	0.337746
1806.000000	0.337903
1807.000000	0.338548
1808.000000	0.338719
1809.000000	0.338687
1810.000000	0.339048
1811.000000	0.339190
1812.000000	0.338945
1813.000000	0.338978
1814.000000	0.339764
1815.000000	0.339534
1816.000000	0.338555
1817.000000	0.337870
1818.000000	0.336801
1819.000000	0.335960
1820.000000	0.335746
1821.000000	0.335701
1822.000000	0.335766
1823.000000	0.336204
1824.000000	0.336062
1825.000000	0.335634
1826.000000	0.335557
1827.000000	0.335217
1828.000000	0.335141
1829.000000	0.334772
1830.000000	0.334371
1831.000000	0.334206
1832.000000	0.333640
1833.000000	0.333697
1834.000000	0.334708
1835.000000	0.334819
1836.000000	0.334209
1837.000000	0.334315
1838.000000	0.334355
1839.000000	0.334325
1840.000000	0.335426
1841.000000	0.336407
1842.000000	0.336121
1843.000000	0.334932
1844.000000	0.334064
1845.000000	0.331372
1846.000000	0.330574
1847.000000	0.330271
1848.000000	0.331042
1849.000000	0.331916
1850.000000	0.332680
1851.000000	0.333061
1852.000000	0.332872
1853.000000	0.332922
1854.000000	0.332859
1855.000000	0.332699
1856.000000	0.332284
1857.000000	0.332249
1858.000000	0.331741
1859.000000	0.330814
1860.000000	0.330256
1861.000000	0.329196
1862.000000	0.328564
1863.000000	0.328536
1864.000000	0.328087
1865.000000	0.327509
1866.000000	0.326915
1867.000000	0.326133
1868.000000	0.325050
1869.000000	0.324535
1870.000000	0.324531
1871.000000	0.323868
1872.000000	0.322877
1873.000000	0.321540
1874.000000	0.318750
1875.000000	0.317404
1876.000000	0.316494
1877.000000	0.315110
1878.000000	0.313783
1879.000000	0.312767
1880.000000	0.310683
1881.000000	0.308495
1882.000000	0.306344
1883.000000	0.303289
1884.000000	0.300188
1885.000000	0.296317
1886.000000	0.292673
1887.000000	0.288688
1888.000000	0.285099
1889.000000	0.281417
1890.000000	0.277486
1891.000000	0.274096
1892.000000	0.270398
1893.000000	0.266396
1894.000000	0.262908
1895.000000	0.259191
1896.000000	0.255304
1897.000000	0.251662
1898.000000	0.248473
1899.000000	0.245143
1900.000000	0.242182
1901.000000	0.239864
1902.000000	0.238075
1903.000000	0.236489
1904.000000	0.235238
1905.000000	0.234456
1906.000000	0.234023
1907.000000	0.233799
1908.000000	0.234294
1909.000000	0.235446
1910.000000	0.236679
1911.000000	0.237634
1912.000000	0.238852
1913.000000	0.240569
1914.000000	0.241821
1915.000000	0.243068
1916.000000	0.245034
1917.000000	0.246548
1918.000000	0.247777
1919.000000	0.249318
1920.000000	0.251162
1921.000000	0.252093
1922.000000	0.253064
1923.000000	0.254280
1924.000000	0.255285
1925.000000	0.256886
1926.000000	0.258955
1927.000000	0.260589
1928.000000	0.261746
1929.000000	0.262631
1930.000000	0.263429
1931.000000	0.263794
1932.000000	0.264255
1933.000000	0.265328
1934.000000	0.265426
1935.000000	0.265732
1936.000000	0.266633
1937.000000	0.266778
1938.000000	0.267560
1939.000000	0.268141
1940.000000	0.268732
1941.000000	0.268529
1942.000000	0.268964
1943.000000	0.269308
1944.000000	0.269455
1945.000000	0.270173
1946.000000	0.270631
1947.000000	0.270622
1948.000000	0.271083
1949.000000	0.271391
1950.000000	0.271413
1951.000000	0.271662
1952.000000	0.272340
1953.000000	0.272586
1954.000000	0.272814
1955.000000	0.273183
1956.000000	0.272792
1957.000000	0.272655
1958.000000	0.272668
1959.000000	0.272926
1960.000000	0.273924
1961.000000	0.274653
1962.000000	0.275380
1963.000000	0.276338
1964.000000	0.276971
1965.000000	0.276841
1966.000000	0.277079
1967.000000	0.276874
1968.000000	0.276733
1969.000000	0.277211
1970.000000	0.277662
1971.000000	0.278091
1972.000000	0.278298
1973.000000	0.278496
1974.000000	0.278643
1975.000000	0.278855
1976.000000	0.278979
1977.000000	0.279745
1978.000000	0.279939
1979.000000	0.280480
1980.000000	0.281451
1981.000000	0.281948
1982.000000	0.283096
1983.000000	0.284481
1984.000000	0.285403
1985.000000	0.286392
1986.000000	0.286874
1987.000000	0.286919
1988.000000	0.287141
1989.000000	0.286919
1990.000000	0.287176
1991.000000	0.287281
1992.000000	0.286849
1993.000000	0.287276
1994.000000	0.287557
1995.000000	0.287864
1996.000000	0.288451
1997.000000	0.289000
1998.000000	0.289232
1999.000000	0.289982
2000.000000	0.291064
2001.000000	0.292573
2002.000000	0.293498
2003.000000	0.294230
2004.000000	0.294548
2005.000000	0.294284
2006.000000	0.294583
2007.000000	0.294910
2008.000000	0.295227
2009.000000	0.295723
2010.000000	0.296196
2011.000000	0.296131
2012.000000	0.296608
2013.000000	0.297435
2014.000000	0.298078
2015.000000	0.298742
2016.000000	0.300099
2017.000000	0.301093
2018.000000	0.301370
2019.000000	0.301041
2020.000000	0.300573
2021.000000	0.300449
2022.000000	0.299822
2023.000000	0.300098
2024.000000	0.301381
2025.000000	0.302081
2026.000000	0.302811
2027.000000	0.303296
2028.000000	0.303654
2029.000000	0.303682
2030.000000	0.303499
2031.000000	0.303572
2032.000000	0.303388
2033.000000	0.303864
2034.000000	0.304142
2035.000000	0.304760
2036.000000	0.304978
2037.000000	0.305167
2038.000000	0.305188
2039.000000	0.305039
2040.000000	0.305133
2041.000000	0.305229
2042.000000	0.305312
2043.000000	0.305869
2044.000000	0.306612
2045.000000	0.306988
2046.000000	0.307996
2047.000000	0.308551
2048.000000	0.308677
2049.000000	0.309251
2050.000000	0.309647
2051.000000	0.309614
2052.000000	0.309549
2053.000000	0.309306
2054.000000	0.308543
2055.000000	0.308560
2056.000000	0.308807
2057.000000	0.308954
2058.000000	0.309483
2059.000000	0.310330
2060.000000	0.310794
2061.000000	0.311479
2062.000000	0.311368
2063.000000	0.310503
2064.000000	0.309858
2065.000000	0.308980
2066.000000	0.308592
2067.000000	0.308602
2068.000000	0.309143
2069.000000	0.309831
2070.000000	0.310401
2071.000000	0.310560
2072.000000	0.311296
2073.000000	0.311637
2074.000000	0.311442
2075.000000	0.311592
2076.000000	0.311825
2077.000000	0.311723
2078.000000	0.311625
2079.000000	0.311464
2080.000000	0.310889
2081.000000	0.310862
2082.000000	0.311195
2083.000000	0.311320
2084.000000	0.311730
2085.000000	0.311868
2086.000000	0.311765
2087.000000	0.311603
2088.000000	0.311191
2089.000000	0.311251
2090.000000	0.311480
2091.000000	0.312056
2092.000000	0.312439
2093.000000	0.313392
2094.000000	0.313497
2095.000000	0.312884
2096.000000	0.312723
2097.000000	0.312426
2098.000000	0.311791
2099.000000	0.311523
2100.000000	0.312198
2101.000000	0.312364
2102.000000	0.312985
2103.000000	0.314245
2104.000000	0.314627
2105.000000	0.315062
2106.000000	0.315604
2107.000000	0.315605
2108.000000	0.315101
2109.000000	0.314744
2110.000000	0.313629
2111.000000	0.313123
2112.000000	0.312704
2113.000000	0.312330
2114.000000	0.312039
2115.000000	0.312594
2116.000000	0.313210
2117.000000	0.313278
2118.000000	0.313725
2119.000000	0.313931
2120.000000	0.314166
2121.000000	0.314375
2122.000000	0.314492
2123.000000	0.314545
2124.000000	0.314735
2125.000000	0.314872
2126.000000	0.314880
2127.000000	0.314695
2128.000000	0.314821
2129.000000	0.314951
2130.000000	0.315187
2131.000000	0.315191
2132.000000	0.316133
2133.000000	0.316003
2134.000000	0.315513
2135.000000	0.315479
2136.000000	0.314920
2137.000000	0.314663
2138.000000	0.314767
2139.000000	0.314671
2140.000000	0.314302
2141.000000	0.314359
2142.000000	0.314706
2143.000000	0.314461
2144.000000	0.314445
2145.000000	0.314298
2146.000000	0.313601
2147.000000	0.313513
2148.000000	0.314075
2149.000000	0.315214
2150.000000	0.316135
2151.000000	0.317292
2152.000000	0.318330
2153.000000	0.318611
2154.000000	0.318706
2155.000000	0.318632
2156.000000	0.318472
2157.000000	0.317753
2158.000000	0.317368
2159.000000	0.317331
2160.000000	0.316981
2161.000000	0.316162
2162.000000	0.315887
2163.000000	0.315214
2164.000000	0.315273
2165.000000	0.316157
2166.000000	0.317070
2167.000000	0.317908
2168.000000	0.318997
2169.000000	0.318880
2170.000000	0.318772
2171.000000	0.318775
2172.000000	0.318519
2173.000000	0.318237
2174.000000	0.317959
2175.000000	0.317722
2176.000000	0.317446
2177.000000	0.317335
2178.000000	0.318074
2179.000000	0.317741
2180.000000	0.315929
2181.000000	0.315513
2182.000000	0.314465
2183.000000	0.313965
2184.000000	0.314343
2185.000000	0.315260
2186.000000	0.316271
2187.000000	0.316048
2188.000000	0.316812
2189.000000	0.317250
2190.000000	0.316173
2191.000000	0.316265
2192.000000	0.315469
2193.000000	0.313307
2194.000000	0.312843
2195.000000	0.313150
2196.000000	0.313252
2197.000000	0.314290
2198.000000	0.314534
2199.000000	0.313974
2200.000000	0.314636
2201.000000	0.317022
2202.000000	0.317567
2203.000000	0.318643
2204.000000	0.316586
2205.000000	0.312307
2206.000000	0.309738
2207.000000	0.307459
2208.000000	0.308106
2209.000000	0.311350
2210.000000	0.312692
2211.000000	0.313855
2212.000000	0.313706
2213.000000	0.312756
2214.000000	0.309755
2215.000000	0.307822
2216.000000	0.304677
2217.000000	0.304472
2218.000000	0.305748
2219.000000	0.306085
2220.000000	0.308758
2221.000000	0.309584
2222.000000	0.307890
2223.000000	0.308381
2224.000000	0.310371
2225.000000	0.310693
2226.000000	0.310505
2227.000000	0.311385
2228.000000	0.312031
2229.000000	0.311108
2230.000000	0.309419
2231.000000	0.306776
2232.000000	0.303506
2233.000000	0.301931
2234.000000	0.303414
2235.000000	0.305114
2236.000000	0.305684
2237.000000	0.305955
2238.000000	0.305438
2239.000000	0.303636
2240.000000	0.303585
2241.000000	0.305014
2242.000000	0.304960
2243.000000	0.304720
2244.000000	0.303667
2245.000000	0.300800
2246.000000	0.299277
2247.000000	0.297262
2248.000000	0.296649
2249.000000	0.298223
2250.000000	0.297321
2251.000000	0.297134
2252.000000	0.298755
2253.000000	0.299356
2254.000000	0.298059
2255.000000	0.297186
2256.000000	0.298006
2257.000000	0.296846
2258.000000	0.297330
2259.000000	0.299169
2260.000000	0.298444
2261.000000	0.298777
2262.000000	0.300626
2263.000000	0.300524
2264.000000	0.299165
2265.000000	0.299628
2266.000000	0.299538
2267.000000	0.299107
2268.000000	0.300314
2269.000000	0.298953
2270.000000	0.295787
2271.000000	0.294272
2272.000000	0.291611
2273.000000	0.290776
2274.000000	0.291954
2275.000000	0.291421
2276.000000	0.290802
2277.000000	0.290608
2278.000000	0.288545
2279.000000	0.286086
2280.000000	0.283538
2281.000000	0.281195
2282.000000	0.280413
2283.000000	0.280480
2284.000000	0.279749
2285.000000	0.277400
2286.000000	0.274387
2287.000000	0.269810
2288.000000	0.267182
2289.000000	0.267396
2290.000000	0.266681
2291.000000	0.267336
2292.000000	0.268264
2293.000000	0.268156
2294.000000	0.267557
2295.000000	0.266247
2296.000000	0.265162
2297.000000	0.263165
2298.000000	0.261565
2299.000000	0.260123
2300.000000	0.260262
2301.000000	0.261085
2302.000000	0.262690
2303.000000	0.265792
2304.000000	0.267766
2305.000000	0.269113
2306.000000	0.270439
2307.000000	0.271491
2308.000000	0.273983
2309.000000	0.274616
2310.000000	0.276679
2311.000000	0.278784
2312.000000	0.279261
2313.000000	0.279971
2314.000000	0.279823
2315.000000	0.277655
2316.000000	0.276679
2317.000000	0.277545
2318.000000	0.280349
2319.000000	0.283777
2320.000000	0.287212
2321.000000	0.289717
2322.000000	0.289296
2323.000000	0.288872
2324.000000	0.287037
2325.000000	0.285290
2326.000000	0.285622
2327.000000	0.285867
2328.000000	0.287913
2329.000000	0.289570
2330.000000	0.288676
2331.000000	0.284764
2332.000000	0.280289
2333.000000	0.279467
2334.000000	0.279502
2335.000000	0.281914
2336.000000	0.290578
2337.000000	0.294138
2338.000000	0.296740
2339.000000	0.297477
2340.000000	0.294640
2341.000000	0.293793
2342.000000	0.292934
2343.000000	0.291735
2344.000000	0.292044
2345.000000	0.291622
2346.000000	0.288847
2347.000000	0.286178
2348.000000	0.284895
2349.000000	0.280102
2350.000000	0.273633
2351.000000	0.272759
2352.000000	0.271049
2353.000000	0.271940
2354.000000	0.272920
2355.000000	0.272687
2356.000000	0.277578
2357.000000	0.277790
2358.000000	0.275302
2359.000000	0.276345
2360.000000	0.271860
2361.000000	0.268951
2362.000000	0.271743
2363.000000	0.274625
2364.000000	0.276449
2365.000000	0.276314
2366.000000	0.278305
2367.000000	0.277537
2368.000000	0.276218
2369.000000	0.278527
2370.000000	0.277742
2371.000000	0.277325
2372.000000	0.277490
2373.000000	0.274626
2374.000000	0.269794
2375.000000	0.267742
2376.000000	0.268183
2377.000000	0.270530
2378.000000	0.273145
2379.000000	0.273717
2380.000000	0.271478
2381.000000	0.265169
2382.000000	0.260928
2383.000000	0.255890
2384.000000	0.254271
2385.000000	0.258564
2386.000000	0.258340
2387.000000	0.257658
2388.000000	0.255057
2389.000000	0.249870
2390.000000	0.243314
2391.000000	0.239758
2392.000000	0.247410
2393.000000	0.248715
2394.000000	0.254152
2395.000000	0.271818
2396.000000	0.272075
2397.000000	0.272781
2398.000000	0.276401
2399.000000	0.260884
2400.000000	0.251392
2401.000000	0.245355
2402.000000	0.236265
2403.000000	0.238381
2404.000000	0.243150
2405.000000	0.248894
2406.000000	0.256565
2407.000000	0.259378
2408.000000	0.257592
2409.000000	0.254511
2410.000000	0.248690
2411.000000	0.244547
2412.000000	0.242541
2413.000000	0.245817
2414.000000	0.251432
2415.000000	0.252361
2416.000000	0.255078
2417.000000	0.250727
2418.000000	0.251796
2419.000000	0.252905
2420.000000	0.248974
2421.000000	0.245054
2422.000000	0.227261
2423.000000	0.220993
2424.000000	0.216599
2425.000000	0.214474
2426.000000	0.230409
2427.000000	0.239318
2428.000000	0.243867
2429.000000	0.251275
2430.000000	0.254552
2431.000000	0.251607
2432.000000	0.252946
2433.000000	0.257680
2434.000000	0.254189
2435.000000	0.250991
2436.000000	0.252638
2437.000000	0.248901
2438.000000	0.244271
2439.000000	0.241968
2440.000000	0.239741
2441.000000	0.252886
2442.000000	0.266922
2443.000000	0.267215
2444.000000	0.271183
2445.000000	0.261938
2446.000000	0.244121
2447.000000	0.240730
2448.000000	0.236837
2449.000000	0.230826
2450.000000	0.226792
2451.000000	0.225436
2452.000000	0.216056
2453.000000	0.217380
2454.000000	0.228249
2455.000000	0.230063
2456.000000	0.245485
2457.000000	0.241379
2458.000000	0.226610
2459.000000	0.225338
2460.000000	0.226978
2461.000000	0.242281
2462.000000	0.242619
2463.000000	0.236236
2464.000000	0.244910
2465.000000	0.232457
2466.000000	0.224593
2467.000000	0.236109
2468.000000	0.224508
2469.000000	0.232245
2470.000000	0.268293
2471.000000	0.286728
2472.000000	0.292997
2473.000000	0.284418
2474.000000	0.253991
2475.000000	0.224352
2476.000000	0.191724
2477.000000	0.169751
2478.000000	0.173825
2479.000000	0.158040
2480.000000	0.159955
2481.000000	0.192526
2482.000000	0.209486
2483.000000	0.226431
2484.000000	0.244510
2485.000000	0.249613
2486.000000	0.219701
2487.000000	0.236022
2488.000000	0.274603
2489.000000	0.224229
2490.000000	0.202761
2491.000000	0.191819
2492.000000	0.176334
2493.000000	0.207800
2494.000000	0.216547
2495.000000	0.188804
2496.000000	0.165756
2497.000000	0.134463
2498.000000	0.127593
2499.000000	0.134724
2500.000000	0.143714
