# Wavelength	NAu-1-60_HEX-10_FV7-30_00002.asd.rts.txt
350.000000	0.128104
351.000000	0.128977
352.000000	0.116614
353.000000	0.101388
354.000000	0.092232
355.000000	0.093358
356.000000	0.099073
357.000000	0.105997
358.000000	0.109956
359.000000	0.114929
360.000000	0.115641
361.000000	0.107738
362.000000	0.111653
363.000000	0.120321
364.000000	0.124201
365.000000	0.111331
366.000000	0.110177
367.000000	0.120647
368.000000	0.118858
369.000000	0.113761
370.000000	0.111706
371.000000	0.116808
372.000000	0.115450
373.000000	0.114268
374.000000	0.117029
375.000000	0.112393
376.000000	0.111870
377.000000	0.115603
378.000000	0.113083
379.000000	0.114326
380.000000	0.117483
381.000000	0.118270
382.000000	0.121566
383.000000	0.123510
384.000000	0.122336
385.000000	0.123367
386.000000	0.125020
387.000000	0.126848
388.000000	0.129422
389.000000	0.131885
390.000000	0.133388
391.000000	0.133313
392.000000	0.135540
393.000000	0.137881
394.000000	0.138448
395.000000	0.138912
396.000000	0.139930
397.000000	0.141354
398.000000	0.141965
399.000000	0.143582
400.000000	0.145796
401.000000	0.147203
402.000000	0.148574
403.000000	0.150251
404.000000	0.152352
405.000000	0.154179
406.000000	0.155143
407.000000	0.155582
408.000000	0.157392
409.000000	0.158610
410.000000	0.159246
411.000000	0.160359
412.000000	0.161685
413.000000	0.162995
414.000000	0.164119
415.000000	0.165214
416.000000	0.165980
417.000000	0.166308
418.000000	0.166386
419.000000	0.167088
420.000000	0.168166
421.000000	0.168350
422.000000	0.169016
423.000000	0.169676
424.000000	0.169499
425.000000	0.169572
426.000000	0.169276
427.000000	0.168375
428.000000	0.168504
429.000000	0.168921
430.000000	0.169164
431.000000	0.169041
432.000000	0.169116
433.000000	0.169233
434.000000	0.169003
435.000000	0.169096
436.000000	0.168915
437.000000	0.168051
438.000000	0.168118
439.000000	0.168408
440.000000	0.168347
441.000000	0.167388
442.000000	0.166978
443.000000	0.167060
444.000000	0.166625
445.000000	0.166141
446.000000	0.166003
447.000000	0.166423
448.000000	0.167293
449.000000	0.168165
450.000000	0.168927
451.000000	0.170367
452.000000	0.172354
453.000000	0.174553
454.000000	0.176471
455.000000	0.178761
456.000000	0.181546
457.000000	0.184563
458.000000	0.187243
459.000000	0.189577
460.000000	0.191685
461.000000	0.193407
462.000000	0.195273
463.000000	0.197271
464.000000	0.198811
465.000000	0.200129
466.000000	0.201329
467.000000	0.202576
468.000000	0.203435
469.000000	0.204141
470.000000	0.205125
471.000000	0.205730
472.000000	0.206358
473.000000	0.207258
474.000000	0.207963
475.000000	0.208429
476.000000	0.208894
477.000000	0.209679
478.000000	0.210164
479.000000	0.210564
480.000000	0.211126
481.000000	0.211760
482.000000	0.212469
483.000000	0.213085
484.000000	0.213699
485.000000	0.214266
486.000000	0.214885
487.000000	0.215418
488.000000	0.215950
489.000000	0.216515
490.000000	0.217105
491.000000	0.217724
492.000000	0.218334
493.000000	0.218801
494.000000	0.219410
495.000000	0.220099
496.000000	0.220764
497.000000	0.221465
498.000000	0.222159
499.000000	0.222860
500.000000	0.223462
501.000000	0.224202
502.000000	0.225018
503.000000	0.225649
504.000000	0.226308
505.000000	0.227050
506.000000	0.227863
507.000000	0.228539
508.000000	0.229352
509.000000	0.230325
510.000000	0.231041
511.000000	0.231799
512.000000	0.232681
513.000000	0.233572
514.000000	0.234430
515.000000	0.235307
516.000000	0.236204
517.000000	0.236935
518.000000	0.237730
519.000000	0.238687
520.000000	0.239655
521.000000	0.240612
522.000000	0.241560
523.000000	0.242516
524.000000	0.243464
525.000000	0.244425
526.000000	0.245480
527.000000	0.246513
528.000000	0.247510
529.000000	0.248545
530.000000	0.249695
531.000000	0.250867
532.000000	0.251943
533.000000	0.253113
534.000000	0.254241
535.000000	0.255328
536.000000	0.256565
537.000000	0.257739
538.000000	0.258865
539.000000	0.260026
540.000000	0.261106
541.000000	0.262196
542.000000	0.263409
543.000000	0.264605
544.000000	0.265848
545.000000	0.267059
546.000000	0.268085
547.000000	0.269170
548.000000	0.270346
549.000000	0.271419
550.000000	0.272555
551.000000	0.273725
552.000000	0.274804
553.000000	0.275897
554.000000	0.277013
555.000000	0.278147
556.000000	0.279276
557.000000	0.280310
558.000000	0.281349
559.000000	0.282365
560.000000	0.283317
561.000000	0.284300
562.000000	0.285315
563.000000	0.286175
564.000000	0.287063
565.000000	0.288058
566.000000	0.289019
567.000000	0.289871
568.000000	0.290598
569.000000	0.291398
570.000000	0.292157
571.000000	0.292859
572.000000	0.293592
573.000000	0.294276
574.000000	0.294905
575.000000	0.295555
576.000000	0.296162
577.000000	0.296751
578.000000	0.297384
579.000000	0.297910
580.000000	0.298406
581.000000	0.298898
582.000000	0.299348
583.000000	0.299696
584.000000	0.300000
585.000000	0.300396
586.000000	0.300801
587.000000	0.301151
588.000000	0.301419
589.000000	0.301805
590.000000	0.302153
591.000000	0.302379
592.000000	0.302646
593.000000	0.302903
594.000000	0.303110
595.000000	0.303231
596.000000	0.303398
597.000000	0.303622
598.000000	0.303766
599.000000	0.303866
600.000000	0.303970
601.000000	0.304043
602.000000	0.304179
603.000000	0.304279
604.000000	0.304316
605.000000	0.304345
606.000000	0.304396
607.000000	0.304451
608.000000	0.304451
609.000000	0.304515
610.000000	0.304587
611.000000	0.304590
612.000000	0.304633
613.000000	0.304711
614.000000	0.304832
615.000000	0.304917
616.000000	0.304945
617.000000	0.304918
618.000000	0.304974
619.000000	0.305042
620.000000	0.305053
621.000000	0.305007
622.000000	0.304978
623.000000	0.304981
624.000000	0.305013
625.000000	0.305073
626.000000	0.305126
627.000000	0.305177
628.000000	0.305284
629.000000	0.305461
630.000000	0.305594
631.000000	0.305781
632.000000	0.305859
633.000000	0.305939
634.000000	0.306124
635.000000	0.306246
636.000000	0.306352
637.000000	0.306465
638.000000	0.306595
639.000000	0.306675
640.000000	0.306763
641.000000	0.306854
642.000000	0.307052
643.000000	0.307261
644.000000	0.307361
645.000000	0.307575
646.000000	0.307776
647.000000	0.307861
648.000000	0.308078
649.000000	0.308318
650.000000	0.308502
651.000000	0.308640
652.000000	0.308762
653.000000	0.308928
654.000000	0.309117
655.000000	0.309317
656.000000	0.309571
657.000000	0.309848
658.000000	0.310101
659.000000	0.310358
660.000000	0.310628
661.000000	0.310956
662.000000	0.311155
663.000000	0.311314
664.000000	0.311588
665.000000	0.311919
666.000000	0.312254
667.000000	0.312523
668.000000	0.312828
669.000000	0.313129
670.000000	0.313425
671.000000	0.313808
672.000000	0.314163
673.000000	0.314463
674.000000	0.314776
675.000000	0.315061
676.000000	0.315349
677.000000	0.315697
678.000000	0.316041
679.000000	0.316370
680.000000	0.316702
681.000000	0.317062
682.000000	0.317492
683.000000	0.317903
684.000000	0.318304
685.000000	0.318735
686.000000	0.319195
687.000000	0.319612
688.000000	0.319985
689.000000	0.320368
690.000000	0.320830
691.000000	0.321309
692.000000	0.321750
693.000000	0.322194
694.000000	0.322605
695.000000	0.323022
696.000000	0.323452
697.000000	0.323893
698.000000	0.324294
699.000000	0.324730
700.000000	0.325250
701.000000	0.325712
702.000000	0.326186
703.000000	0.326672
704.000000	0.327135
705.000000	0.327660
706.000000	0.328194
707.000000	0.328722
708.000000	0.329228
709.000000	0.329705
710.000000	0.330179
711.000000	0.330683
712.000000	0.331191
713.000000	0.331703
714.000000	0.332181
715.000000	0.332701
716.000000	0.333253
717.000000	0.333756
718.000000	0.334223
719.000000	0.334691
720.000000	0.335202
721.000000	0.335755
722.000000	0.336232
723.000000	0.336680
724.000000	0.337175
725.000000	0.337630
726.000000	0.338118
727.000000	0.338593
728.000000	0.339072
729.000000	0.339536
730.000000	0.339924
731.000000	0.340337
732.000000	0.340743
733.000000	0.341169
734.000000	0.341592
735.000000	0.341902
736.000000	0.342244
737.000000	0.342584
738.000000	0.342963
739.000000	0.343375
740.000000	0.343648
741.000000	0.344008
742.000000	0.344306
743.000000	0.344525
744.000000	0.344892
745.000000	0.345114
746.000000	0.345316
747.000000	0.345623
748.000000	0.345937
749.000000	0.346273
750.000000	0.346585
751.000000	0.346804
752.000000	0.346968
753.000000	0.347133
754.000000	0.347344
755.000000	0.347557
756.000000	0.347801
757.000000	0.348054
758.000000	0.348243
759.000000	0.348459
760.000000	0.348648
761.000000	0.348749
762.000000	0.348819
763.000000	0.348897
764.000000	0.349100
765.000000	0.349155
766.000000	0.349147
767.000000	0.349187
768.000000	0.349174
769.000000	0.349192
770.000000	0.349236
771.000000	0.349137
772.000000	0.349129
773.000000	0.349117
774.000000	0.349034
775.000000	0.348931
776.000000	0.348887
777.000000	0.348905
778.000000	0.348866
779.000000	0.348747
780.000000	0.348600
781.000000	0.348526
782.000000	0.348406
783.000000	0.348309
784.000000	0.348144
785.000000	0.347993
786.000000	0.347861
787.000000	0.347733
788.000000	0.347574
789.000000	0.347458
790.000000	0.347337
791.000000	0.347167
792.000000	0.347048
793.000000	0.346899
794.000000	0.346654
795.000000	0.346361
796.000000	0.346062
797.000000	0.345773
798.000000	0.345497
799.000000	0.345218
800.000000	0.344962
801.000000	0.344756
802.000000	0.344477
803.000000	0.344260
804.000000	0.344136
805.000000	0.343735
806.000000	0.343333
807.000000	0.343085
808.000000	0.342906
809.000000	0.342604
810.000000	0.342331
811.000000	0.342158
812.000000	0.341793
813.000000	0.341445
814.000000	0.341186
815.000000	0.340990
816.000000	0.340669
817.000000	0.340265
818.000000	0.339796
819.000000	0.339403
820.000000	0.339098
821.000000	0.338802
822.000000	0.338490
823.000000	0.338198
824.000000	0.337844
825.000000	0.337465
826.000000	0.337211
827.000000	0.336996
828.000000	0.336779
829.000000	0.336500
830.000000	0.336193
831.000000	0.335919
832.000000	0.335580
833.000000	0.335283
834.000000	0.334965
835.000000	0.334638
836.000000	0.334464
837.000000	0.334224
838.000000	0.333875
839.000000	0.333471
840.000000	0.333109
841.000000	0.332779
842.000000	0.332423
843.000000	0.332155
844.000000	0.331832
845.000000	0.331394
846.000000	0.330963
847.000000	0.330580
848.000000	0.330258
849.000000	0.330011
850.000000	0.329744
851.000000	0.329445
852.000000	0.329161
853.000000	0.328888
854.000000	0.328650
855.000000	0.328441
856.000000	0.328065
857.000000	0.327694
858.000000	0.327466
859.000000	0.327269
860.000000	0.326844
861.000000	0.326527
862.000000	0.326327
863.000000	0.326055
864.000000	0.325763
865.000000	0.325431
866.000000	0.325101
867.000000	0.324852
868.000000	0.324632
869.000000	0.324352
870.000000	0.324042
871.000000	0.323762
872.000000	0.323503
873.000000	0.323211
874.000000	0.322993
875.000000	0.322784
876.000000	0.322567
877.000000	0.322267
878.000000	0.321871
879.000000	0.321500
880.000000	0.321126
881.000000	0.320945
882.000000	0.320862
883.000000	0.320738
884.000000	0.320362
885.000000	0.319859
886.000000	0.319461
887.000000	0.319289
888.000000	0.319185
889.000000	0.319069
890.000000	0.318784
891.000000	0.318435
892.000000	0.318242
893.000000	0.318091
894.000000	0.317969
895.000000	0.317648
896.000000	0.317386
897.000000	0.317201
898.000000	0.317026
899.000000	0.316823
900.000000	0.316629
901.000000	0.316447
902.000000	0.316373
903.000000	0.316218
904.000000	0.315970
905.000000	0.315605
906.000000	0.315445
907.000000	0.315259
908.000000	0.315058
909.000000	0.314944
910.000000	0.314809
911.000000	0.314633
912.000000	0.314444
913.000000	0.314242
914.000000	0.314232
915.000000	0.314367
916.000000	0.314243
917.000000	0.314075
918.000000	0.313789
919.000000	0.313376
920.000000	0.313202
921.000000	0.313125
922.000000	0.313045
923.000000	0.312880
924.000000	0.312834
925.000000	0.312803
926.000000	0.312694
927.000000	0.312367
928.000000	0.312133
929.000000	0.311981
930.000000	0.311807
931.000000	0.311646
932.000000	0.311559
933.000000	0.311520
934.000000	0.311307
935.000000	0.311154
936.000000	0.311084
937.000000	0.310973
938.000000	0.310891
939.000000	0.310827
940.000000	0.310663
941.000000	0.310409
942.000000	0.310240
943.000000	0.310188
944.000000	0.310119
945.000000	0.310094
946.000000	0.310100
947.000000	0.310164
948.000000	0.310208
949.000000	0.309998
950.000000	0.309893
951.000000	0.309898
952.000000	0.309794
953.000000	0.309784
954.000000	0.309723
955.000000	0.309482
956.000000	0.309426
957.000000	0.309328
958.000000	0.309256
959.000000	0.309430
960.000000	0.309246
961.000000	0.309115
962.000000	0.309172
963.000000	0.309208
964.000000	0.309223
965.000000	0.309176
966.000000	0.308995
967.000000	0.309091
968.000000	0.308950
969.000000	0.308687
970.000000	0.308797
971.000000	0.308904
972.000000	0.308922
973.000000	0.308776
974.000000	0.308588
975.000000	0.308757
976.000000	0.308890
977.000000	0.308701
978.000000	0.308753
979.000000	0.308923
980.000000	0.308981
981.000000	0.309140
982.000000	0.309221
983.000000	0.309205
984.000000	0.309194
985.000000	0.309234
986.000000	0.309396
987.000000	0.309518
988.000000	0.309415
989.000000	0.309373
990.000000	0.309635
991.000000	0.309716
992.000000	0.309266
993.000000	0.309632
994.000000	0.309722
995.000000	0.309645
996.000000	0.309955
997.000000	0.310038
998.000000	0.310004
999.000000	0.310162
1000.000000	0.310676
1001.000000	0.310278
1002.000000	0.310373
1003.000000	0.310192
1004.000000	0.310172
1005.000000	0.309895
1006.000000	0.309653
1007.000000	0.309485
1008.000000	0.309707
1009.000000	0.310069
1010.000000	0.310508
1011.000000	0.311593
1012.000000	0.312369
1013.000000	0.311963
1014.000000	0.311683
1015.000000	0.311901
1016.000000	0.312097
1017.000000	0.312323
1018.000000	0.313136
1019.000000	0.313573
1020.000000	0.313828
1021.000000	0.313604
1022.000000	0.313422
1023.000000	0.313289
1024.000000	0.312512
1025.000000	0.312190
1026.000000	0.312478
1027.000000	0.312791
1028.000000	0.313889
1029.000000	0.315271
1030.000000	0.315435
1031.000000	0.315650
1032.000000	0.315679
1033.000000	0.315225
1034.000000	0.315364
1035.000000	0.316220
1036.000000	0.316717
1037.000000	0.317300
1038.000000	0.317608
1039.000000	0.317911
1040.000000	0.318331
1041.000000	0.318165
1042.000000	0.317883
1043.000000	0.318249
1044.000000	0.318549
1045.000000	0.318644
1046.000000	0.318556
1047.000000	0.318719
1048.000000	0.318446
1049.000000	0.318797
1050.000000	0.319724
1051.000000	0.320458
1052.000000	0.321396
1053.000000	0.321967
1054.000000	0.322888
1055.000000	0.323334
1056.000000	0.323497
1057.000000	0.323164
1058.000000	0.323235
1059.000000	0.323348
1060.000000	0.323699
1061.000000	0.324583
1062.000000	0.325654
1063.000000	0.326535
1064.000000	0.327119
1065.000000	0.327607
1066.000000	0.328116
1067.000000	0.328118
1068.000000	0.328390
1069.000000	0.328923
1070.000000	0.329367
1071.000000	0.329908
1072.000000	0.330309
1073.000000	0.330875
1074.000000	0.331038
1075.000000	0.331122
1076.000000	0.331404
1077.000000	0.332169
1078.000000	0.332754
1079.000000	0.333358
1080.000000	0.334291
1081.000000	0.334763
1082.000000	0.334903
1083.000000	0.335408
1084.000000	0.335850
1085.000000	0.336528
1086.000000	0.337780
1087.000000	0.338398
1088.000000	0.338706
1089.000000	0.339012
1090.000000	0.338930
1091.000000	0.338733
1092.000000	0.339090
1093.000000	0.339563
1094.000000	0.340069
1095.000000	0.340789
1096.000000	0.341192
1097.000000	0.341450
1098.000000	0.341899
1099.000000	0.342263
1100.000000	0.342604
1101.000000	0.342930
1102.000000	0.343361
1103.000000	0.343561
1104.000000	0.344107
1105.000000	0.345264
1106.000000	0.345893
1107.000000	0.346209
1108.000000	0.346629
1109.000000	0.346997
1110.000000	0.347150
1111.000000	0.347552
1112.000000	0.348136
1113.000000	0.348683
1114.000000	0.349199
1115.000000	0.349855
1116.000000	0.350841
1117.000000	0.351340
1118.000000	0.351565
1119.000000	0.351928
1120.000000	0.352056
1121.000000	0.352343
1122.000000	0.352922
1123.000000	0.353624
1124.000000	0.354105
1125.000000	0.354642
1126.000000	0.355197
1127.000000	0.355723
1128.000000	0.356223
1129.000000	0.356745
1130.000000	0.357165
1131.000000	0.357583
1132.000000	0.357917
1133.000000	0.358168
1134.000000	0.358504
1135.000000	0.358738
1136.000000	0.359101
1137.000000	0.359606
1138.000000	0.359903
1139.000000	0.360307
1140.000000	0.360687
1141.000000	0.360758
1142.000000	0.361063
1143.000000	0.361542
1144.000000	0.361951
1145.000000	0.362151
1146.000000	0.362264
1147.000000	0.362662
1148.000000	0.362989
1149.000000	0.363331
1150.000000	0.363937
1151.000000	0.364381
1152.000000	0.364529
1153.000000	0.364898
1154.000000	0.365434
1155.000000	0.365783
1156.000000	0.366061
1157.000000	0.366379
1158.000000	0.366590
1159.000000	0.366821
1160.000000	0.367051
1161.000000	0.367284
1162.000000	0.367519
1163.000000	0.367971
1164.000000	0.368365
1165.000000	0.368675
1166.000000	0.368995
1167.000000	0.369197
1168.000000	0.369503
1169.000000	0.369937
1170.000000	0.370224
1171.000000	0.370504
1172.000000	0.370851
1173.000000	0.371078
1174.000000	0.371358
1175.000000	0.371731
1176.000000	0.372011
1177.000000	0.372336
1178.000000	0.372592
1179.000000	0.372776
1180.000000	0.372946
1181.000000	0.373111
1182.000000	0.373363
1183.000000	0.373726
1184.000000	0.374162
1185.000000	0.374383
1186.000000	0.374498
1187.000000	0.374711
1188.000000	0.374826
1189.000000	0.374991
1190.000000	0.375305
1191.000000	0.375606
1192.000000	0.376012
1193.000000	0.376403
1194.000000	0.376777
1195.000000	0.377044
1196.000000	0.377063
1197.000000	0.377212
1198.000000	0.377394
1199.000000	0.377582
1200.000000	0.377764
1201.000000	0.378006
1202.000000	0.378251
1203.000000	0.378506
1204.000000	0.378865
1205.000000	0.379266
1206.000000	0.379355
1207.000000	0.379393
1208.000000	0.379456
1209.000000	0.379312
1210.000000	0.379400
1211.000000	0.379753
1212.000000	0.379880
1213.000000	0.379921
1214.000000	0.380111
1215.000000	0.380324
1216.000000	0.380462
1217.000000	0.380650
1218.000000	0.380794
1219.000000	0.380897
1220.000000	0.380938
1221.000000	0.381110
1222.000000	0.381174
1223.000000	0.381235
1224.000000	0.381409
1225.000000	0.381622
1226.000000	0.381762
1227.000000	0.381702
1228.000000	0.381776
1229.000000	0.381789
1230.000000	0.381618
1231.000000	0.381634
1232.000000	0.381937
1233.000000	0.382213
1234.000000	0.382568
1235.000000	0.382772
1236.000000	0.382817
1237.000000	0.382970
1238.000000	0.383001
1239.000000	0.383071
1240.000000	0.383257
1241.000000	0.383309
1242.000000	0.383228
1243.000000	0.383468
1244.000000	0.383826
1245.000000	0.384066
1246.000000	0.384280
1247.000000	0.384620
1248.000000	0.384819
1249.000000	0.384905
1250.000000	0.385127
1251.000000	0.385262
1252.000000	0.385355
1253.000000	0.385531
1254.000000	0.385538
1255.000000	0.385303
1256.000000	0.385281
1257.000000	0.385267
1258.000000	0.385374
1259.000000	0.385639
1260.000000	0.385810
1261.000000	0.385862
1262.000000	0.385915
1263.000000	0.385948
1264.000000	0.386037
1265.000000	0.386065
1266.000000	0.386003
1267.000000	0.385984
1268.000000	0.386023
1269.000000	0.385962
1270.000000	0.385979
1271.000000	0.385996
1272.000000	0.385990
1273.000000	0.386113
1274.000000	0.386151
1275.000000	0.386140
1276.000000	0.386064
1277.000000	0.386149
1278.000000	0.386176
1279.000000	0.386213
1280.000000	0.386254
1281.000000	0.386237
1282.000000	0.386198
1283.000000	0.386297
1284.000000	0.386385
1285.000000	0.386417
1286.000000	0.386426
1287.000000	0.386482
1288.000000	0.386403
1289.000000	0.386369
1290.000000	0.386515
1291.000000	0.386586
1292.000000	0.386640
1293.000000	0.386907
1294.000000	0.386895
1295.000000	0.386842
1296.000000	0.387045
1297.000000	0.387004
1298.000000	0.386967
1299.000000	0.387021
1300.000000	0.387032
1301.000000	0.387073
1302.000000	0.387043
1303.000000	0.387228
1304.000000	0.387242
1305.000000	0.387325
1306.000000	0.387168
1307.000000	0.386816
1308.000000	0.386750
1309.000000	0.386636
1310.000000	0.386572
1311.000000	0.386842
1312.000000	0.386794
1313.000000	0.386642
1314.000000	0.386586
1315.000000	0.386374
1316.000000	0.386569
1317.000000	0.386730
1318.000000	0.386543
1319.000000	0.386464
1320.000000	0.386344
1321.000000	0.386109
1322.000000	0.386002
1323.000000	0.385997
1324.000000	0.386049
1325.000000	0.386167
1326.000000	0.386140
1327.000000	0.385957
1328.000000	0.385949
1329.000000	0.385837
1330.000000	0.385645
1331.000000	0.385521
1332.000000	0.385517
1333.000000	0.385403
1334.000000	0.385321
1335.000000	0.385266
1336.000000	0.385143
1337.000000	0.385062
1338.000000	0.384945
1339.000000	0.384880
1340.000000	0.384650
1341.000000	0.384442
1342.000000	0.384265
1343.000000	0.383935
1344.000000	0.383864
1345.000000	0.383960
1346.000000	0.383994
1347.000000	0.383871
1348.000000	0.383822
1349.000000	0.383701
1350.000000	0.383519
1351.000000	0.383391
1352.000000	0.383174
1353.000000	0.382868
1354.000000	0.382649
1355.000000	0.382510
1356.000000	0.382574
1357.000000	0.382660
1358.000000	0.382715
1359.000000	0.382707
1360.000000	0.382664
1361.000000	0.382541
1362.000000	0.382413
1363.000000	0.382311
1364.000000	0.382187
1365.000000	0.381926
1366.000000	0.381723
1367.000000	0.381546
1368.000000	0.381285
1369.000000	0.381182
1370.000000	0.380970
1371.000000	0.380659
1372.000000	0.380292
1373.000000	0.379895
1374.000000	0.379535
1375.000000	0.379143
1376.000000	0.378930
1377.000000	0.378537
1378.000000	0.377886
1379.000000	0.377210
1380.000000	0.376562
1381.000000	0.375815
1382.000000	0.375112
1383.000000	0.374493
1384.000000	0.373465
1385.000000	0.372386
1386.000000	0.371502
1387.000000	0.370581
1388.000000	0.369600
1389.000000	0.368529
1390.000000	0.367361
1391.000000	0.366077
1392.000000	0.364892
1393.000000	0.363705
1394.000000	0.362662
1395.000000	0.361500
1396.000000	0.360293
1397.000000	0.359001
1398.000000	0.357506
1399.000000	0.356247
1400.000000	0.355114
1401.000000	0.353814
1402.000000	0.352606
1403.000000	0.351296
1404.000000	0.349950
1405.000000	0.348471
1406.000000	0.346988
1407.000000	0.345593
1408.000000	0.344054
1409.000000	0.342725
1410.000000	0.341744
1411.000000	0.340855
1412.000000	0.339898
1413.000000	0.338991
1414.000000	0.338191
1415.000000	0.337463
1416.000000	0.336935
1417.000000	0.336700
1418.000000	0.336428
1419.000000	0.336152
1420.000000	0.335891
1421.000000	0.335695
1422.000000	0.335616
1423.000000	0.335519
1424.000000	0.335227
1425.000000	0.334904
1426.000000	0.334388
1427.000000	0.333956
1428.000000	0.333722
1429.000000	0.333456
1430.000000	0.333142
1431.000000	0.332733
1432.000000	0.332465
1433.000000	0.332123
1434.000000	0.332126
1435.000000	0.332450
1436.000000	0.332896
1437.000000	0.333534
1438.000000	0.334240
1439.000000	0.335123
1440.000000	0.336103
1441.000000	0.337258
1442.000000	0.338465
1443.000000	0.339719
1444.000000	0.341047
1445.000000	0.342291
1446.000000	0.343402
1447.000000	0.344368
1448.000000	0.345166
1449.000000	0.345920
1450.000000	0.346530
1451.000000	0.347082
1452.000000	0.347579
1453.000000	0.347975
1454.000000	0.348318
1455.000000	0.348632
1456.000000	0.348935
1457.000000	0.349174
1458.000000	0.349382
1459.000000	0.349565
1460.000000	0.349624
1461.000000	0.349669
1462.000000	0.349880
1463.000000	0.349998
1464.000000	0.350144
1465.000000	0.350454
1466.000000	0.350571
1467.000000	0.350654
1468.000000	0.350932
1469.000000	0.351289
1470.000000	0.351505
1471.000000	0.351861
1472.000000	0.352205
1473.000000	0.352496
1474.000000	0.352901
1475.000000	0.353257
1476.000000	0.353546
1477.000000	0.353875
1478.000000	0.354249
1479.000000	0.354679
1480.000000	0.355055
1481.000000	0.355376
1482.000000	0.355668
1483.000000	0.356068
1484.000000	0.356487
1485.000000	0.356896
1486.000000	0.357380
1487.000000	0.357793
1488.000000	0.358128
1489.000000	0.358559
1490.000000	0.358908
1491.000000	0.359292
1492.000000	0.359668
1493.000000	0.360034
1494.000000	0.360352
1495.000000	0.360665
1496.000000	0.360919
1497.000000	0.361219
1498.000000	0.361544
1499.000000	0.361918
1500.000000	0.362249
1501.000000	0.362545
1502.000000	0.362805
1503.000000	0.363048
1504.000000	0.363273
1505.000000	0.363562
1506.000000	0.363872
1507.000000	0.364024
1508.000000	0.364290
1509.000000	0.364598
1510.000000	0.364681
1511.000000	0.364879
1512.000000	0.365091
1513.000000	0.365176
1514.000000	0.365472
1515.000000	0.365748
1516.000000	0.365890
1517.000000	0.366013
1518.000000	0.366211
1519.000000	0.366270
1520.000000	0.366305
1521.000000	0.366451
1522.000000	0.366513
1523.000000	0.366591
1524.000000	0.366693
1525.000000	0.366815
1526.000000	0.366958
1527.000000	0.367107
1528.000000	0.367364
1529.000000	0.367569
1530.000000	0.367527
1531.000000	0.367647
1532.000000	0.367891
1533.000000	0.367968
1534.000000	0.368225
1535.000000	0.368604
1536.000000	0.368731
1537.000000	0.369005
1538.000000	0.369282
1539.000000	0.369224
1540.000000	0.369232
1541.000000	0.369400
1542.000000	0.369559
1543.000000	0.369782
1544.000000	0.369935
1545.000000	0.370067
1546.000000	0.370209
1547.000000	0.370368
1548.000000	0.370696
1549.000000	0.370880
1550.000000	0.370929
1551.000000	0.370998
1552.000000	0.371067
1553.000000	0.371231
1554.000000	0.371343
1555.000000	0.371496
1556.000000	0.371650
1557.000000	0.371614
1558.000000	0.371648
1559.000000	0.371619
1560.000000	0.371658
1561.000000	0.371736
1562.000000	0.371836
1563.000000	0.372121
1564.000000	0.372220
1565.000000	0.372238
1566.000000	0.372153
1567.000000	0.372018
1568.000000	0.371990
1569.000000	0.372060
1570.000000	0.372062
1571.000000	0.372056
1572.000000	0.372066
1573.000000	0.372031
1574.000000	0.372057
1575.000000	0.372204
1576.000000	0.372314
1577.000000	0.372417
1578.000000	0.372449
1579.000000	0.372504
1580.000000	0.372508
1581.000000	0.372493
1582.000000	0.372531
1583.000000	0.372605
1584.000000	0.372613
1585.000000	0.372701
1586.000000	0.372777
1587.000000	0.372786
1588.000000	0.372864
1589.000000	0.373099
1590.000000	0.373095
1591.000000	0.372988
1592.000000	0.372906
1593.000000	0.372667
1594.000000	0.372630
1595.000000	0.372836
1596.000000	0.372937
1597.000000	0.373125
1598.000000	0.373115
1599.000000	0.372952
1600.000000	0.372912
1601.000000	0.372963
1602.000000	0.373021
1603.000000	0.373211
1604.000000	0.373310
1605.000000	0.373342
1606.000000	0.373400
1607.000000	0.373593
1608.000000	0.373666
1609.000000	0.373752
1610.000000	0.373735
1611.000000	0.373593
1612.000000	0.373542
1613.000000	0.373629
1614.000000	0.373665
1615.000000	0.373777
1616.000000	0.373861
1617.000000	0.373861
1618.000000	0.373815
1619.000000	0.373763
1620.000000	0.373752
1621.000000	0.373712
1622.000000	0.373755
1623.000000	0.373774
1624.000000	0.373831
1625.000000	0.373742
1626.000000	0.373772
1627.000000	0.373989
1628.000000	0.374109
1629.000000	0.374244
1630.000000	0.374324
1631.000000	0.374237
1632.000000	0.374169
1633.000000	0.374079
1634.000000	0.373996
1635.000000	0.373910
1636.000000	0.373920
1637.000000	0.374050
1638.000000	0.374049
1639.000000	0.374120
1640.000000	0.374125
1641.000000	0.374077
1642.000000	0.374092
1643.000000	0.374195
1644.000000	0.374227
1645.000000	0.374223
1646.000000	0.374214
1647.000000	0.374269
1648.000000	0.374188
1649.000000	0.374119
1650.000000	0.374127
1651.000000	0.374121
1652.000000	0.374178
1653.000000	0.374255
1654.000000	0.374379
1655.000000	0.374494
1656.000000	0.374489
1657.000000	0.374559
1658.000000	0.374591
1659.000000	0.374631
1660.000000	0.374722
1661.000000	0.374817
1662.000000	0.374878
1663.000000	0.374801
1664.000000	0.374893
1665.000000	0.375099
1666.000000	0.375195
1667.000000	0.375209
1668.000000	0.375322
1669.000000	0.375328
1670.000000	0.375384
1671.000000	0.375754
1672.000000	0.375882
1673.000000	0.375827
1674.000000	0.375841
1675.000000	0.375810
1676.000000	0.375945
1677.000000	0.375990
1678.000000	0.375945
1679.000000	0.376093
1680.000000	0.375959
1681.000000	0.375798
1682.000000	0.375860
1683.000000	0.375848
1684.000000	0.375879
1685.000000	0.376073
1686.000000	0.376160
1687.000000	0.376168
1688.000000	0.376189
1689.000000	0.376224
1690.000000	0.376223
1691.000000	0.376221
1692.000000	0.376010
1693.000000	0.375840
1694.000000	0.375746
1695.000000	0.375708
1696.000000	0.376027
1697.000000	0.375992
1698.000000	0.375737
1699.000000	0.375623
1700.000000	0.375234
1701.000000	0.375240
1702.000000	0.375440
1703.000000	0.375530
1704.000000	0.375931
1705.000000	0.376099
1706.000000	0.376083
1707.000000	0.376160
1708.000000	0.376178
1709.000000	0.376114
1710.000000	0.376173
1711.000000	0.376215
1712.000000	0.376191
1713.000000	0.376180
1714.000000	0.376255
1715.000000	0.376296
1716.000000	0.376400
1717.000000	0.376361
1718.000000	0.376183
1719.000000	0.376036
1720.000000	0.375863
1721.000000	0.375671
1722.000000	0.375457
1723.000000	0.375362
1724.000000	0.375373
1725.000000	0.375261
1726.000000	0.375055
1727.000000	0.374942
1728.000000	0.374568
1729.000000	0.374481
1730.000000	0.374901
1731.000000	0.374973
1732.000000	0.375044
1733.000000	0.375099
1734.000000	0.374794
1735.000000	0.374755
1736.000000	0.374826
1737.000000	0.374801
1738.000000	0.374808
1739.000000	0.374828
1740.000000	0.374755
1741.000000	0.374835
1742.000000	0.375062
1743.000000	0.375206
1744.000000	0.375406
1745.000000	0.375343
1746.000000	0.375094
1747.000000	0.374905
1748.000000	0.374821
1749.000000	0.375094
1750.000000	0.375112
1751.000000	0.375187
1752.000000	0.375311
1753.000000	0.375126
1754.000000	0.375009
1755.000000	0.374902
1756.000000	0.374761
1757.000000	0.374534
1758.000000	0.374426
1759.000000	0.374358
1760.000000	0.374297
1761.000000	0.374261
1762.000000	0.374219
1763.000000	0.374236
1764.000000	0.374180
1765.000000	0.373981
1766.000000	0.373965
1767.000000	0.373933
1768.000000	0.373823
1769.000000	0.373897
1770.000000	0.373976
1771.000000	0.373950
1772.000000	0.373887
1773.000000	0.373756
1774.000000	0.373779
1775.000000	0.373828
1776.000000	0.373946
1777.000000	0.374343
1778.000000	0.374280
1779.000000	0.373858
1780.000000	0.373832
1781.000000	0.373784
1782.000000	0.373694
1783.000000	0.373880
1784.000000	0.373830
1785.000000	0.373458
1786.000000	0.373333
1787.000000	0.373566
1788.000000	0.373711
1789.000000	0.373814
1790.000000	0.373873
1791.000000	0.373757
1792.000000	0.373497
1793.000000	0.373314
1794.000000	0.373054
1795.000000	0.372973
1796.000000	0.373040
1797.000000	0.373043
1798.000000	0.373119
1799.000000	0.373133
1800.000000	0.373174
1801.000000	0.373220
1802.000000	0.372915
1803.000000	0.373291
1804.000000	0.373721
1805.000000	0.374539
1806.000000	0.375008
1807.000000	0.376226
1808.000000	0.376344
1809.000000	0.375377
1810.000000	0.374692
1811.000000	0.374404
1812.000000	0.373778
1813.000000	0.374007
1814.000000	0.375381
1815.000000	0.375801
1816.000000	0.376511
1817.000000	0.376293
1818.000000	0.375209
1819.000000	0.374470
1820.000000	0.373746
1821.000000	0.372787
1822.000000	0.372630
1823.000000	0.373309
1824.000000	0.373152
1825.000000	0.372835
1826.000000	0.373022
1827.000000	0.372962
1828.000000	0.373055
1829.000000	0.373898
1830.000000	0.373470
1831.000000	0.373016
1832.000000	0.371768
1833.000000	0.371010
1834.000000	0.370068
1835.000000	0.369601
1836.000000	0.369042
1837.000000	0.369017
1838.000000	0.369454
1839.000000	0.369753
1840.000000	0.370371
1841.000000	0.371474
1842.000000	0.371727
1843.000000	0.371536
1844.000000	0.371469
1845.000000	0.370756
1846.000000	0.370320
1847.000000	0.369670
1848.000000	0.369376
1849.000000	0.369776
1850.000000	0.370400
1851.000000	0.370521
1852.000000	0.371306
1853.000000	0.371089
1854.000000	0.369372
1855.000000	0.368375
1856.000000	0.367250
1857.000000	0.366157
1858.000000	0.365452
1859.000000	0.364909
1860.000000	0.364177
1861.000000	0.363913
1862.000000	0.363501
1863.000000	0.363322
1864.000000	0.362803
1865.000000	0.362251
1866.000000	0.361318
1867.000000	0.359826
1868.000000	0.358799
1869.000000	0.357163
1870.000000	0.355955
1871.000000	0.355153
1872.000000	0.353384
1873.000000	0.351877
1874.000000	0.350627
1875.000000	0.348973
1876.000000	0.346617
1877.000000	0.344488
1878.000000	0.342395
1879.000000	0.339868
1880.000000	0.337340
1881.000000	0.334329
1882.000000	0.331719
1883.000000	0.329063
1884.000000	0.326079
1885.000000	0.323087
1886.000000	0.319985
1887.000000	0.316492
1888.000000	0.312431
1889.000000	0.308935
1890.000000	0.304793
1891.000000	0.300652
1892.000000	0.296507
1893.000000	0.292426
1894.000000	0.288432
1895.000000	0.284300
1896.000000	0.280177
1897.000000	0.276256
1898.000000	0.272375
1899.000000	0.268754
1900.000000	0.264723
1901.000000	0.261052
1902.000000	0.257398
1903.000000	0.253623
1904.000000	0.251140
1905.000000	0.248627
1906.000000	0.246550
1907.000000	0.244855
1908.000000	0.244061
1909.000000	0.243045
1910.000000	0.242515
1911.000000	0.242044
1912.000000	0.241312
1913.000000	0.241048
1914.000000	0.241304
1915.000000	0.241832
1916.000000	0.242624
1917.000000	0.243112
1918.000000	0.243905
1919.000000	0.243911
1920.000000	0.243513
1921.000000	0.243810
1922.000000	0.244334
1923.000000	0.245152
1924.000000	0.246543
1925.000000	0.247809
1926.000000	0.248867
1927.000000	0.250181
1928.000000	0.251022
1929.000000	0.251706
1930.000000	0.252210
1931.000000	0.252224
1932.000000	0.251991
1933.000000	0.252975
1934.000000	0.253544
1935.000000	0.254207
1936.000000	0.255358
1937.000000	0.255800
1938.000000	0.256289
1939.000000	0.256622
1940.000000	0.256912
1941.000000	0.257140
1942.000000	0.257328
1943.000000	0.257250
1944.000000	0.257717
1945.000000	0.258182
1946.000000	0.258736
1947.000000	0.259261
1948.000000	0.259507
1949.000000	0.260028
1950.000000	0.259646
1951.000000	0.259863
1952.000000	0.260443
1953.000000	0.261379
1954.000000	0.261501
1955.000000	0.262694
1956.000000	0.263071
1957.000000	0.262698
1958.000000	0.263507
1959.000000	0.264042
1960.000000	0.263967
1961.000000	0.264216
1962.000000	0.264669
1963.000000	0.265099
1964.000000	0.265483
1965.000000	0.265823
1966.000000	0.266175
1967.000000	0.266317
1968.000000	0.266213
1969.000000	0.266669
1970.000000	0.268037
1971.000000	0.268764
1972.000000	0.269029
1973.000000	0.269547
1974.000000	0.270149
1975.000000	0.270506
1976.000000	0.270686
1977.000000	0.271694
1978.000000	0.272118
1979.000000	0.272870
1980.000000	0.274077
1981.000000	0.275290
1982.000000	0.276371
1983.000000	0.277246
1984.000000	0.277857
1985.000000	0.278046
1986.000000	0.278272
1987.000000	0.278267
1988.000000	0.278616
1989.000000	0.279213
1990.000000	0.280257
1991.000000	0.281064
1992.000000	0.281965
1993.000000	0.282920
1994.000000	0.282777
1995.000000	0.282688
1996.000000	0.282998
1997.000000	0.283488
1998.000000	0.284086
1999.000000	0.285008
2000.000000	0.286346
2001.000000	0.287868
2002.000000	0.288963
2003.000000	0.289871
2004.000000	0.290759
2005.000000	0.291076
2006.000000	0.291345
2007.000000	0.291824
2008.000000	0.292349
2009.000000	0.292671
2010.000000	0.293422
2011.000000	0.294432
2012.000000	0.295189
2013.000000	0.296037
2014.000000	0.296807
2015.000000	0.296851
2016.000000	0.297542
2017.000000	0.298661
2018.000000	0.299412
2019.000000	0.300892
2020.000000	0.301750
2021.000000	0.302403
2022.000000	0.302861
2023.000000	0.303220
2024.000000	0.302982
2025.000000	0.303391
2026.000000	0.303937
2027.000000	0.303924
2028.000000	0.304771
2029.000000	0.305969
2030.000000	0.306728
2031.000000	0.307389
2032.000000	0.307601
2033.000000	0.307803
2034.000000	0.308074
2035.000000	0.308365
2036.000000	0.308706
2037.000000	0.309075
2038.000000	0.309688
2039.000000	0.310814
2040.000000	0.311562
2041.000000	0.311425
2042.000000	0.312064
2043.000000	0.312435
2044.000000	0.312915
2045.000000	0.314417
2046.000000	0.315571
2047.000000	0.316328
2048.000000	0.316588
2049.000000	0.317021
2050.000000	0.316816
2051.000000	0.316979
2052.000000	0.317192
2053.000000	0.317330
2054.000000	0.317915
2055.000000	0.317988
2056.000000	0.318119
2057.000000	0.318458
2058.000000	0.318742
2059.000000	0.319598
2060.000000	0.320320
2061.000000	0.321325
2062.000000	0.321863
2063.000000	0.322568
2064.000000	0.322571
2065.000000	0.322100
2066.000000	0.322045
2067.000000	0.322245
2068.000000	0.321993
2069.000000	0.322578
2070.000000	0.322789
2071.000000	0.322085
2072.000000	0.322195
2073.000000	0.322676
2074.000000	0.322965
2075.000000	0.323332
2076.000000	0.324174
2077.000000	0.324587
2078.000000	0.324530
2079.000000	0.324847
2080.000000	0.325620
2081.000000	0.326001
2082.000000	0.326179
2083.000000	0.326487
2084.000000	0.326755
2085.000000	0.326766
2086.000000	0.327021
2087.000000	0.327215
2088.000000	0.326877
2089.000000	0.327263
2090.000000	0.327610
2091.000000	0.328034
2092.000000	0.328463
2093.000000	0.329062
2094.000000	0.329618
2095.000000	0.330567
2096.000000	0.331313
2097.000000	0.331995
2098.000000	0.332450
2099.000000	0.332705
2100.000000	0.332299
2101.000000	0.332440
2102.000000	0.332651
2103.000000	0.333473
2104.000000	0.334533
2105.000000	0.334888
2106.000000	0.335107
2107.000000	0.335283
2108.000000	0.334445
2109.000000	0.334371
2110.000000	0.334550
2111.000000	0.334649
2112.000000	0.334312
2113.000000	0.335376
2114.000000	0.335678
2115.000000	0.335596
2116.000000	0.335664
2117.000000	0.335053
2118.000000	0.335027
2119.000000	0.335130
2120.000000	0.335272
2121.000000	0.335479
2122.000000	0.335929
2123.000000	0.336755
2124.000000	0.337140
2125.000000	0.337935
2126.000000	0.337986
2127.000000	0.336598
2128.000000	0.336695
2129.000000	0.337283
2130.000000	0.337824
2131.000000	0.338571
2132.000000	0.338819
2133.000000	0.338427
2134.000000	0.337797
2135.000000	0.337244
2136.000000	0.336871
2137.000000	0.336560
2138.000000	0.336211
2139.000000	0.336010
2140.000000	0.336005
2141.000000	0.335921
2142.000000	0.335701
2143.000000	0.335336
2144.000000	0.335536
2145.000000	0.335381
2146.000000	0.335058
2147.000000	0.334867
2148.000000	0.334174
2149.000000	0.333735
2150.000000	0.334727
2151.000000	0.334739
2152.000000	0.334660
2153.000000	0.335491
2154.000000	0.335586
2155.000000	0.334861
2156.000000	0.334984
2157.000000	0.335898
2158.000000	0.335551
2159.000000	0.334681
2160.000000	0.334352
2161.000000	0.333240
2162.000000	0.333011
2163.000000	0.333811
2164.000000	0.333918
2165.000000	0.333866
2166.000000	0.333936
2167.000000	0.333251
2168.000000	0.332686
2169.000000	0.333427
2170.000000	0.334055
2171.000000	0.334562
2172.000000	0.336000
2173.000000	0.336399
2174.000000	0.335655
2175.000000	0.335675
2176.000000	0.335967
2177.000000	0.335968
2178.000000	0.336201
2179.000000	0.336329
2180.000000	0.335986
2181.000000	0.336267
2182.000000	0.336474
2183.000000	0.335931
2184.000000	0.336319
2185.000000	0.336254
2186.000000	0.335977
2187.000000	0.336319
2188.000000	0.335382
2189.000000	0.333805
2190.000000	0.331949
2191.000000	0.330411
2192.000000	0.329356
2193.000000	0.328783
2194.000000	0.328252
2195.000000	0.328231
2196.000000	0.328078
2197.000000	0.328181
2198.000000	0.328274
2199.000000	0.328853
2200.000000	0.329094
2201.000000	0.329103
2202.000000	0.328897
2203.000000	0.327824
2204.000000	0.327444
2205.000000	0.327044
2206.000000	0.326557
2207.000000	0.325638
2208.000000	0.323420
2209.000000	0.320462
2210.000000	0.318738
2211.000000	0.318796
2212.000000	0.321714
2213.000000	0.324516
2214.000000	0.330350
2215.000000	0.332505
2216.000000	0.332862
2217.000000	0.333792
2218.000000	0.333856
2219.000000	0.334146
2220.000000	0.335415
2221.000000	0.335870
2222.000000	0.334104
2223.000000	0.333942
2224.000000	0.334477
2225.000000	0.335714
2226.000000	0.334745
2227.000000	0.334198
2228.000000	0.333723
2229.000000	0.330492
2230.000000	0.328995
2231.000000	0.329129
2232.000000	0.327686
2233.000000	0.326947
2234.000000	0.325544
2235.000000	0.324872
2236.000000	0.324527
2237.000000	0.323745
2238.000000	0.323794
2239.000000	0.325248
2240.000000	0.325943
2241.000000	0.327183
2242.000000	0.328215
2243.000000	0.329023
2244.000000	0.329046
2245.000000	0.328279
2246.000000	0.327662
2247.000000	0.326113
2248.000000	0.325542
2249.000000	0.325199
2250.000000	0.325958
2251.000000	0.326834
2252.000000	0.328605
2253.000000	0.331054
2254.000000	0.331828
2255.000000	0.330197
2256.000000	0.328262
2257.000000	0.326157
2258.000000	0.324367
2259.000000	0.322710
2260.000000	0.321647
2261.000000	0.320462
2262.000000	0.318546
2263.000000	0.316757
2264.000000	0.314750
2265.000000	0.314222
2266.000000	0.315020
2267.000000	0.314474
2268.000000	0.315746
2269.000000	0.314337
2270.000000	0.309533
2271.000000	0.306447
2272.000000	0.302610
2273.000000	0.300508
2274.000000	0.300014
2275.000000	0.298003
2276.000000	0.296636
2277.000000	0.293746
2278.000000	0.290768
2279.000000	0.288319
2280.000000	0.285761
2281.000000	0.285237
2282.000000	0.282153
2283.000000	0.279954
2284.000000	0.279786
2285.000000	0.278122
2286.000000	0.278668
2287.000000	0.281836
2288.000000	0.282070
2289.000000	0.281338
2290.000000	0.281788
2291.000000	0.281519
2292.000000	0.282474
2293.000000	0.283782
2294.000000	0.284973
2295.000000	0.285312
2296.000000	0.287002
2297.000000	0.290036
2298.000000	0.292247
2299.000000	0.295409
2300.000000	0.296964
2301.000000	0.296521
2302.000000	0.297191
2303.000000	0.298081
2304.000000	0.298868
2305.000000	0.299132
2306.000000	0.300132
2307.000000	0.301888
2308.000000	0.302764
2309.000000	0.302792
2310.000000	0.307217
2311.000000	0.309596
2312.000000	0.308005
2313.000000	0.307670
2314.000000	0.305719
2315.000000	0.303749
2316.000000	0.304761
2317.000000	0.304717
2318.000000	0.305362
2319.000000	0.305783
2320.000000	0.303484
2321.000000	0.303395
2322.000000	0.302584
2323.000000	0.301714
2324.000000	0.303384
2325.000000	0.303160
2326.000000	0.302837
2327.000000	0.302178
2328.000000	0.301292
2329.000000	0.299826
2330.000000	0.296850
2331.000000	0.297388
2332.000000	0.296660
2333.000000	0.294255
2334.000000	0.296602
2335.000000	0.296555
2336.000000	0.292917
2337.000000	0.292028
2338.000000	0.291955
2339.000000	0.291333
2340.000000	0.292759
2341.000000	0.292102
2342.000000	0.289559
2343.000000	0.288988
2344.000000	0.287615
2345.000000	0.286804
2346.000000	0.288763
2347.000000	0.290209
2348.000000	0.291475
2349.000000	0.290583
2350.000000	0.292932
2351.000000	0.291425
2352.000000	0.288465
2353.000000	0.290947
2354.000000	0.290229
2355.000000	0.289419
2356.000000	0.288230
2357.000000	0.284070
2358.000000	0.281186
2359.000000	0.279075
2360.000000	0.279297
2361.000000	0.277260
2362.000000	0.273712
2363.000000	0.273248
2364.000000	0.271201
2365.000000	0.272416
2366.000000	0.276550
2367.000000	0.275864
2368.000000	0.274783
2369.000000	0.272956
2370.000000	0.267249
2371.000000	0.266663
2372.000000	0.268442
2373.000000	0.268416
2374.000000	0.270555
2375.000000	0.270909
2376.000000	0.271022
2377.000000	0.270493
2378.000000	0.270701
2379.000000	0.272887
2380.000000	0.270070
2381.000000	0.265797
2382.000000	0.261548
2383.000000	0.256926
2384.000000	0.257298
2385.000000	0.258590
2386.000000	0.260332
2387.000000	0.264415
2388.000000	0.264168
2389.000000	0.261516
2390.000000	0.260283
2391.000000	0.257212
2392.000000	0.252911
2393.000000	0.249653
2394.000000	0.250108
2395.000000	0.252438
2396.000000	0.250431
2397.000000	0.252882
2398.000000	0.255973
2399.000000	0.253092
2400.000000	0.257793
2401.000000	0.261393
2402.000000	0.260471
2403.000000	0.261594
2404.000000	0.255134
2405.000000	0.247725
2406.000000	0.246009
2407.000000	0.245601
2408.000000	0.249673
2409.000000	0.256256
2410.000000	0.254986
2411.000000	0.253546
2412.000000	0.253163
2413.000000	0.241239
2414.000000	0.236360
2415.000000	0.234250
2416.000000	0.227456
2417.000000	0.230378
2418.000000	0.228333
2419.000000	0.221445
2420.000000	0.220091
2421.000000	0.221150
2422.000000	0.223888
2423.000000	0.229272
2424.000000	0.237279
2425.000000	0.237897
2426.000000	0.236629
2427.000000	0.240987
2428.000000	0.242787
2429.000000	0.239894
2430.000000	0.234548
2431.000000	0.236693
2432.000000	0.241562
2433.000000	0.243850
2434.000000	0.254856
2435.000000	0.253484
2436.000000	0.237195
2437.000000	0.233940
2438.000000	0.233407
2439.000000	0.227169
2440.000000	0.232736
2441.000000	0.235760
2442.000000	0.227853
2443.000000	0.224895
2444.000000	0.221614
2445.000000	0.215048
2446.000000	0.215432
2447.000000	0.222774
2448.000000	0.225658
2449.000000	0.231457
2450.000000	0.232070
2451.000000	0.227562
2452.000000	0.233488
2453.000000	0.236994
2454.000000	0.244700
2455.000000	0.260256
2456.000000	0.258987
2457.000000	0.249457
2458.000000	0.237346
2459.000000	0.225733
2460.000000	0.223073
2461.000000	0.213035
2462.000000	0.223302
2463.000000	0.232284
2464.000000	0.225527
2465.000000	0.228575
2466.000000	0.221842
2467.000000	0.205108
2468.000000	0.198057
2469.000000	0.212715
2470.000000	0.236268
2471.000000	0.252786
2472.000000	0.243531
2473.000000	0.220744
2474.000000	0.190563
2475.000000	0.173161
2476.000000	0.192649
2477.000000	0.205127
2478.000000	0.214077
2479.000000	0.222496
2480.000000	0.212285
2481.000000	0.226120
2482.000000	0.210215
2483.000000	0.172734
2484.000000	0.182215
2485.000000	0.163249
2486.000000	0.172641
2487.000000	0.197779
2488.000000	0.214698
2489.000000	0.238172
2490.000000	0.213618
2491.000000	0.194778
2492.000000	0.175254
2493.000000	0.146291
2494.000000	0.153656
2495.000000	0.178802
2496.000000	0.205516
2497.000000	0.283267
2498.000000	0.293064
2499.000000	0.275585
2500.000000	0.263886
