# Wavelength	NAu-2-40_HEX-10_FV7-50_00001.asd.rts.txt
350.000000	0.123363
351.000000	0.129066
352.000000	0.140233
353.000000	0.146259
354.000000	0.145565
355.000000	0.144754
356.000000	0.132685
357.000000	0.118265
358.000000	0.124555
359.000000	0.127062
360.000000	0.127734
361.000000	0.132659
362.000000	0.132370
363.000000	0.126740
364.000000	0.120374
365.000000	0.129703
366.000000	0.136001
367.000000	0.133778
368.000000	0.127431
369.000000	0.131662
370.000000	0.139234
371.000000	0.138057
372.000000	0.134950
373.000000	0.133784
374.000000	0.135486
375.000000	0.133553
376.000000	0.129447
377.000000	0.126091
378.000000	0.128488
379.000000	0.130230
380.000000	0.131211
381.000000	0.133242
382.000000	0.132088
383.000000	0.129776
384.000000	0.128857
385.000000	0.131008
386.000000	0.133995
387.000000	0.136381
388.000000	0.137014
389.000000	0.137326
390.000000	0.137554
391.000000	0.137468
392.000000	0.138429
393.000000	0.139409
394.000000	0.139676
395.000000	0.140858
396.000000	0.139980
397.000000	0.137339
398.000000	0.137946
399.000000	0.137200
400.000000	0.136222
401.000000	0.138088
402.000000	0.138706
403.000000	0.138550
404.000000	0.138581
405.000000	0.137487
406.000000	0.137467
407.000000	0.138920
408.000000	0.139112
409.000000	0.139344
410.000000	0.140061
411.000000	0.141296
412.000000	0.142150
413.000000	0.142448
414.000000	0.142381
415.000000	0.143013
416.000000	0.143165
417.000000	0.142528
418.000000	0.143034
419.000000	0.143706
420.000000	0.143937
421.000000	0.143276
422.000000	0.143109
423.000000	0.143448
424.000000	0.143901
425.000000	0.144446
426.000000	0.145029
427.000000	0.145487
428.000000	0.145221
429.000000	0.145384
430.000000	0.146198
431.000000	0.146735
432.000000	0.146737
433.000000	0.146671
434.000000	0.147402
435.000000	0.147744
436.000000	0.147816
437.000000	0.147972
438.000000	0.148460
439.000000	0.148978
440.000000	0.149308
441.000000	0.149119
442.000000	0.149392
443.000000	0.149862
444.000000	0.149455
445.000000	0.149649
446.000000	0.150210
447.000000	0.150429
448.000000	0.150916
449.000000	0.151381
450.000000	0.151660
451.000000	0.152181
452.000000	0.152415
453.000000	0.152438
454.000000	0.153211
455.000000	0.153724
456.000000	0.153913
457.000000	0.154005
458.000000	0.154475
459.000000	0.154801
460.000000	0.154669
461.000000	0.155233
462.000000	0.155665
463.000000	0.155595
464.000000	0.155845
465.000000	0.156266
466.000000	0.156691
467.000000	0.156970
468.000000	0.157076
469.000000	0.157267
470.000000	0.157880
471.000000	0.158467
472.000000	0.158572
473.000000	0.158251
474.000000	0.158802
475.000000	0.159374
476.000000	0.159698
477.000000	0.159834
478.000000	0.160287
479.000000	0.160811
480.000000	0.160685
481.000000	0.160696
482.000000	0.160891
483.000000	0.161094
484.000000	0.161603
485.000000	0.162017
486.000000	0.162221
487.000000	0.162194
488.000000	0.162367
489.000000	0.162740
490.000000	0.162996
491.000000	0.163383
492.000000	0.163867
493.000000	0.164227
494.000000	0.164187
495.000000	0.164158
496.000000	0.164347
497.000000	0.164279
498.000000	0.164312
499.000000	0.164579
500.000000	0.164851
501.000000	0.165051
502.000000	0.165182
503.000000	0.165251
504.000000	0.165509
505.000000	0.165786
506.000000	0.165906
507.000000	0.166039
508.000000	0.166238
509.000000	0.166518
510.000000	0.166974
511.000000	0.167335
512.000000	0.167605
513.000000	0.167976
514.000000	0.168309
515.000000	0.168611
516.000000	0.168900
517.000000	0.169300
518.000000	0.169706
519.000000	0.169999
520.000000	0.170368
521.000000	0.170771
522.000000	0.171194
523.000000	0.171667
524.000000	0.172112
525.000000	0.172591
526.000000	0.173272
527.000000	0.173969
528.000000	0.174624
529.000000	0.175277
530.000000	0.176081
531.000000	0.176987
532.000000	0.177891
533.000000	0.178826
534.000000	0.179816
535.000000	0.180827
536.000000	0.181783
537.000000	0.182771
538.000000	0.183717
539.000000	0.184502
540.000000	0.185373
541.000000	0.186230
542.000000	0.186987
543.000000	0.187723
544.000000	0.188510
545.000000	0.189322
546.000000	0.190116
547.000000	0.190880
548.000000	0.191656
549.000000	0.192466
550.000000	0.193368
551.000000	0.194344
552.000000	0.195319
553.000000	0.196276
554.000000	0.197326
555.000000	0.198522
556.000000	0.199678
557.000000	0.200862
558.000000	0.202156
559.000000	0.203404
560.000000	0.204611
561.000000	0.205859
562.000000	0.207151
563.000000	0.208373
564.000000	0.209531
565.000000	0.210592
566.000000	0.211677
567.000000	0.212742
568.000000	0.213716
569.000000	0.214545
570.000000	0.215286
571.000000	0.215984
572.000000	0.216696
573.000000	0.217339
574.000000	0.217899
575.000000	0.218432
576.000000	0.218889
577.000000	0.219297
578.000000	0.219720
579.000000	0.220086
580.000000	0.220368
581.000000	0.220589
582.000000	0.220876
583.000000	0.221025
584.000000	0.221057
585.000000	0.221127
586.000000	0.221248
587.000000	0.221330
588.000000	0.221283
589.000000	0.221199
590.000000	0.221106
591.000000	0.221008
592.000000	0.220849
593.000000	0.220668
594.000000	0.220483
595.000000	0.220300
596.000000	0.220060
597.000000	0.219816
598.000000	0.219577
599.000000	0.219232
600.000000	0.218905
601.000000	0.218633
602.000000	0.218284
603.000000	0.217907
604.000000	0.217565
605.000000	0.217324
606.000000	0.217023
607.000000	0.216641
608.000000	0.216249
609.000000	0.215967
610.000000	0.215690
611.000000	0.215291
612.000000	0.214936
613.000000	0.214644
614.000000	0.214421
615.000000	0.214184
616.000000	0.213911
617.000000	0.213602
618.000000	0.213371
619.000000	0.213091
620.000000	0.212774
621.000000	0.212526
622.000000	0.212284
623.000000	0.212047
624.000000	0.211832
625.000000	0.211692
626.000000	0.211554
627.000000	0.211375
628.000000	0.211141
629.000000	0.210944
630.000000	0.210710
631.000000	0.210483
632.000000	0.210381
633.000000	0.210298
634.000000	0.210123
635.000000	0.210081
636.000000	0.210059
637.000000	0.209993
638.000000	0.210024
639.000000	0.209994
640.000000	0.209951
641.000000	0.209999
642.000000	0.210044
643.000000	0.210066
644.000000	0.210077
645.000000	0.210154
646.000000	0.210253
647.000000	0.210327
648.000000	0.210461
649.000000	0.210617
650.000000	0.210779
651.000000	0.211007
652.000000	0.211221
653.000000	0.211457
654.000000	0.211739
655.000000	0.211950
656.000000	0.212171
657.000000	0.212452
658.000000	0.212785
659.000000	0.213137
660.000000	0.213487
661.000000	0.213874
662.000000	0.214255
663.000000	0.214647
664.000000	0.215029
665.000000	0.215506
666.000000	0.216021
667.000000	0.216478
668.000000	0.216973
669.000000	0.217497
670.000000	0.218043
671.000000	0.218607
672.000000	0.219224
673.000000	0.219872
674.000000	0.220495
675.000000	0.221090
676.000000	0.221693
677.000000	0.222364
678.000000	0.223085
679.000000	0.223789
680.000000	0.224467
681.000000	0.225240
682.000000	0.226062
683.000000	0.226854
684.000000	0.227671
685.000000	0.228500
686.000000	0.229358
687.000000	0.230228
688.000000	0.231088
689.000000	0.231968
690.000000	0.232921
691.000000	0.233914
692.000000	0.234899
693.000000	0.235901
694.000000	0.236887
695.000000	0.237927
696.000000	0.238981
697.000000	0.239978
698.000000	0.241022
699.000000	0.242105
700.000000	0.243208
701.000000	0.244321
702.000000	0.245418
703.000000	0.246518
704.000000	0.247760
705.000000	0.249044
706.000000	0.250314
707.000000	0.251605
708.000000	0.252866
709.000000	0.254101
710.000000	0.255346
711.000000	0.256646
712.000000	0.257937
713.000000	0.259199
714.000000	0.260402
715.000000	0.261655
716.000000	0.262954
717.000000	0.264230
718.000000	0.265553
719.000000	0.266860
720.000000	0.268113
721.000000	0.269378
722.000000	0.270575
723.000000	0.271749
724.000000	0.272966
725.000000	0.274242
726.000000	0.275585
727.000000	0.276844
728.000000	0.278099
729.000000	0.279318
730.000000	0.280436
731.000000	0.281561
732.000000	0.282722
733.000000	0.283945
734.000000	0.285152
735.000000	0.286263
736.000000	0.287387
737.000000	0.288462
738.000000	0.289424
739.000000	0.290433
740.000000	0.291441
741.000000	0.292427
742.000000	0.293428
743.000000	0.294415
744.000000	0.295376
745.000000	0.296304
746.000000	0.297216
747.000000	0.298061
748.000000	0.299030
749.000000	0.299913
750.000000	0.300582
751.000000	0.301349
752.000000	0.302167
753.000000	0.302969
754.000000	0.303630
755.000000	0.304346
756.000000	0.305079
757.000000	0.305706
758.000000	0.306359
759.000000	0.307022
760.000000	0.307624
761.000000	0.308277
762.000000	0.308864
763.000000	0.309372
764.000000	0.309930
765.000000	0.310376
766.000000	0.310803
767.000000	0.311296
768.000000	0.311737
769.000000	0.312074
770.000000	0.312362
771.000000	0.312818
772.000000	0.313210
773.000000	0.313481
774.000000	0.313781
775.000000	0.314066
776.000000	0.314348
777.000000	0.314620
778.000000	0.314901
779.000000	0.315158
780.000000	0.315415
781.000000	0.315726
782.000000	0.315944
783.000000	0.316208
784.000000	0.316488
785.000000	0.316558
786.000000	0.316630
787.000000	0.316786
788.000000	0.316823
789.000000	0.316914
790.000000	0.317056
791.000000	0.317210
792.000000	0.317318
793.000000	0.317403
794.000000	0.317505
795.000000	0.317635
796.000000	0.317787
797.000000	0.317929
798.000000	0.318013
799.000000	0.318073
800.000000	0.318129
801.000000	0.318200
802.000000	0.318289
803.000000	0.318278
804.000000	0.318203
805.000000	0.318273
806.000000	0.318253
807.000000	0.318225
808.000000	0.318251
809.000000	0.318215
810.000000	0.318239
811.000000	0.318362
812.000000	0.318334
813.000000	0.318312
814.000000	0.318309
815.000000	0.318239
816.000000	0.318169
817.000000	0.318143
818.000000	0.318093
819.000000	0.318002
820.000000	0.317983
821.000000	0.317990
822.000000	0.317903
823.000000	0.317876
824.000000	0.317815
825.000000	0.317686
826.000000	0.317559
827.000000	0.317397
828.000000	0.317249
829.000000	0.317216
830.000000	0.317164
831.000000	0.317067
832.000000	0.316807
833.000000	0.316748
834.000000	0.316721
835.000000	0.316590
836.000000	0.316422
837.000000	0.316297
838.000000	0.316214
839.000000	0.316055
840.000000	0.315980
841.000000	0.315894
842.000000	0.315684
843.000000	0.315616
844.000000	0.315579
845.000000	0.315488
846.000000	0.315382
847.000000	0.315271
848.000000	0.315148
849.000000	0.315030
850.000000	0.314870
851.000000	0.314644
852.000000	0.314435
853.000000	0.314358
854.000000	0.314201
855.000000	0.314049
856.000000	0.313889
857.000000	0.313809
858.000000	0.313724
859.000000	0.313513
860.000000	0.313264
861.000000	0.313065
862.000000	0.312909
863.000000	0.312699
864.000000	0.312701
865.000000	0.312655
866.000000	0.312425
867.000000	0.312075
868.000000	0.311905
869.000000	0.311760
870.000000	0.311445
871.000000	0.311143
872.000000	0.310900
873.000000	0.310669
874.000000	0.310463
875.000000	0.310301
876.000000	0.310149
877.000000	0.309896
878.000000	0.309660
879.000000	0.309509
880.000000	0.309326
881.000000	0.309165
882.000000	0.308935
883.000000	0.308733
884.000000	0.308631
885.000000	0.308386
886.000000	0.308140
887.000000	0.307988
888.000000	0.307787
889.000000	0.307479
890.000000	0.307032
891.000000	0.306681
892.000000	0.306507
893.000000	0.306313
894.000000	0.306124
895.000000	0.305968
896.000000	0.305629
897.000000	0.305264
898.000000	0.305089
899.000000	0.304781
900.000000	0.304534
901.000000	0.304384
902.000000	0.304248
903.000000	0.303974
904.000000	0.303732
905.000000	0.303598
906.000000	0.303374
907.000000	0.302990
908.000000	0.302621
909.000000	0.302511
910.000000	0.302372
911.000000	0.302147
912.000000	0.301867
913.000000	0.301552
914.000000	0.301306
915.000000	0.301171
916.000000	0.300959
917.000000	0.300666
918.000000	0.300315
919.000000	0.299940
920.000000	0.299651
921.000000	0.299508
922.000000	0.299361
923.000000	0.298967
924.000000	0.298680
925.000000	0.298360
926.000000	0.298017
927.000000	0.297920
928.000000	0.297680
929.000000	0.297342
930.000000	0.297067
931.000000	0.296708
932.000000	0.296368
933.000000	0.296102
934.000000	0.295807
935.000000	0.295656
936.000000	0.295574
937.000000	0.295323
938.000000	0.294776
939.000000	0.294387
940.000000	0.294155
941.000000	0.293948
942.000000	0.293773
943.000000	0.293543
944.000000	0.293200
945.000000	0.293174
946.000000	0.293053
947.000000	0.292893
948.000000	0.292756
949.000000	0.292331
950.000000	0.291868
951.000000	0.291481
952.000000	0.291243
953.000000	0.291063
954.000000	0.290964
955.000000	0.290834
956.000000	0.290435
957.000000	0.290080
958.000000	0.289751
959.000000	0.289472
960.000000	0.289622
961.000000	0.289609
962.000000	0.289211
963.000000	0.288784
964.000000	0.288683
965.000000	0.288533
966.000000	0.287991
967.000000	0.287854
968.000000	0.287658
969.000000	0.287407
970.000000	0.287371
971.000000	0.286985
972.000000	0.286722
973.000000	0.286693
974.000000	0.286645
975.000000	0.286443
976.000000	0.286232
977.000000	0.286090
978.000000	0.285700
979.000000	0.285573
980.000000	0.285452
981.000000	0.285263
982.000000	0.285235
983.000000	0.284916
984.000000	0.284397
985.000000	0.284225
986.000000	0.284402
987.000000	0.284491
988.000000	0.284180
989.000000	0.284053
990.000000	0.283799
991.000000	0.283537
992.000000	0.283483
993.000000	0.283316
994.000000	0.283385
995.000000	0.283588
996.000000	0.283184
997.000000	0.282871
998.000000	0.282670
999.000000	0.282635
1000.000000	0.282740
1001.000000	0.282915
1002.000000	0.282920
1003.000000	0.282210
1004.000000	0.282228
1005.000000	0.283073
1006.000000	0.282915
1007.000000	0.282289
1008.000000	0.282574
1009.000000	0.282595
1010.000000	0.281309
1011.000000	0.281562
1012.000000	0.282486
1013.000000	0.282381
1014.000000	0.282541
1015.000000	0.282606
1016.000000	0.282623
1017.000000	0.282844
1018.000000	0.282724
1019.000000	0.282742
1020.000000	0.282747
1021.000000	0.282562
1022.000000	0.282583
1023.000000	0.282725
1024.000000	0.282938
1025.000000	0.282612
1026.000000	0.281908
1027.000000	0.281649
1028.000000	0.281357
1029.000000	0.281183
1030.000000	0.281856
1031.000000	0.282376
1032.000000	0.282435
1033.000000	0.282535
1034.000000	0.282546
1035.000000	0.282012
1036.000000	0.282130
1037.000000	0.282857
1038.000000	0.282954
1039.000000	0.282987
1040.000000	0.283299
1041.000000	0.283076
1042.000000	0.282706
1043.000000	0.282916
1044.000000	0.282767
1045.000000	0.282882
1046.000000	0.283380
1047.000000	0.283519
1048.000000	0.283520
1049.000000	0.283641
1050.000000	0.283576
1051.000000	0.283773
1052.000000	0.284361
1053.000000	0.284438
1054.000000	0.284441
1055.000000	0.284530
1056.000000	0.284398
1057.000000	0.284434
1058.000000	0.284523
1059.000000	0.284446
1060.000000	0.284901
1061.000000	0.285349
1062.000000	0.285684
1063.000000	0.286318
1064.000000	0.286624
1065.000000	0.286431
1066.000000	0.286573
1067.000000	0.286797
1068.000000	0.286990
1069.000000	0.287178
1070.000000	0.287256
1071.000000	0.287279
1072.000000	0.287441
1073.000000	0.287551
1074.000000	0.287990
1075.000000	0.288253
1076.000000	0.288382
1077.000000	0.288426
1078.000000	0.288410
1079.000000	0.288649
1080.000000	0.289333
1081.000000	0.289537
1082.000000	0.289531
1083.000000	0.289796
1084.000000	0.290048
1085.000000	0.290282
1086.000000	0.290737
1087.000000	0.291198
1088.000000	0.291520
1089.000000	0.291684
1090.000000	0.291838
1091.000000	0.291929
1092.000000	0.291874
1093.000000	0.292192
1094.000000	0.292387
1095.000000	0.292681
1096.000000	0.292992
1097.000000	0.293287
1098.000000	0.293544
1099.000000	0.293936
1100.000000	0.294151
1101.000000	0.294068
1102.000000	0.294156
1103.000000	0.294061
1104.000000	0.294363
1105.000000	0.295120
1106.000000	0.295482
1107.000000	0.295770
1108.000000	0.296113
1109.000000	0.296322
1110.000000	0.296476
1111.000000	0.296707
1112.000000	0.297166
1113.000000	0.297406
1114.000000	0.297527
1115.000000	0.297624
1116.000000	0.297605
1117.000000	0.297776
1118.000000	0.297996
1119.000000	0.298072
1120.000000	0.298213
1121.000000	0.298343
1122.000000	0.298417
1123.000000	0.298657
1124.000000	0.298765
1125.000000	0.298991
1126.000000	0.299264
1127.000000	0.299388
1128.000000	0.299478
1129.000000	0.299636
1130.000000	0.299772
1131.000000	0.299746
1132.000000	0.299899
1133.000000	0.300312
1134.000000	0.300500
1135.000000	0.300590
1136.000000	0.300661
1137.000000	0.300518
1138.000000	0.300599
1139.000000	0.300936
1140.000000	0.301161
1141.000000	0.301437
1142.000000	0.301614
1143.000000	0.301609
1144.000000	0.301703
1145.000000	0.301735
1146.000000	0.301506
1147.000000	0.301455
1148.000000	0.301184
1149.000000	0.301348
1150.000000	0.301848
1151.000000	0.302076
1152.000000	0.302389
1153.000000	0.302541
1154.000000	0.302383
1155.000000	0.302383
1156.000000	0.302506
1157.000000	0.302534
1158.000000	0.302354
1159.000000	0.302397
1160.000000	0.302612
1161.000000	0.302654
1162.000000	0.302731
1163.000000	0.302954
1164.000000	0.303146
1165.000000	0.303050
1166.000000	0.303138
1167.000000	0.303306
1168.000000	0.303405
1169.000000	0.303444
1170.000000	0.303608
1171.000000	0.303943
1172.000000	0.304138
1173.000000	0.304275
1174.000000	0.304402
1175.000000	0.304477
1176.000000	0.304449
1177.000000	0.304400
1178.000000	0.304420
1179.000000	0.304423
1180.000000	0.304319
1181.000000	0.304331
1182.000000	0.304247
1183.000000	0.304033
1184.000000	0.304090
1185.000000	0.304203
1186.000000	0.304514
1187.000000	0.304610
1188.000000	0.304705
1189.000000	0.304750
1190.000000	0.304733
1191.000000	0.304735
1192.000000	0.304839
1193.000000	0.305009
1194.000000	0.305024
1195.000000	0.305139
1196.000000	0.305404
1197.000000	0.305465
1198.000000	0.305428
1199.000000	0.305436
1200.000000	0.305319
1201.000000	0.305269
1202.000000	0.305297
1203.000000	0.305356
1204.000000	0.305494
1205.000000	0.305635
1206.000000	0.305680
1207.000000	0.305779
1208.000000	0.305871
1209.000000	0.305990
1210.000000	0.306069
1211.000000	0.306206
1212.000000	0.306251
1213.000000	0.306181
1214.000000	0.306200
1215.000000	0.306263
1216.000000	0.306271
1217.000000	0.306243
1218.000000	0.306207
1219.000000	0.306145
1220.000000	0.306118
1221.000000	0.306142
1222.000000	0.306232
1223.000000	0.306221
1224.000000	0.306315
1225.000000	0.306418
1226.000000	0.306365
1227.000000	0.306375
1228.000000	0.306422
1229.000000	0.306448
1230.000000	0.306441
1231.000000	0.306428
1232.000000	0.306545
1233.000000	0.306688
1234.000000	0.306848
1235.000000	0.306927
1236.000000	0.306867
1237.000000	0.306930
1238.000000	0.306896
1239.000000	0.306931
1240.000000	0.307017
1241.000000	0.307287
1242.000000	0.307410
1243.000000	0.307433
1244.000000	0.307507
1245.000000	0.307503
1246.000000	0.307385
1247.000000	0.307553
1248.000000	0.307799
1249.000000	0.307917
1250.000000	0.308016
1251.000000	0.308012
1252.000000	0.308068
1253.000000	0.308066
1254.000000	0.308118
1255.000000	0.308310
1256.000000	0.308347
1257.000000	0.308320
1258.000000	0.308317
1259.000000	0.308108
1260.000000	0.308146
1261.000000	0.308272
1262.000000	0.308303
1263.000000	0.308349
1264.000000	0.308573
1265.000000	0.308697
1266.000000	0.308663
1267.000000	0.308836
1268.000000	0.308917
1269.000000	0.308855
1270.000000	0.309121
1271.000000	0.309281
1272.000000	0.309286
1273.000000	0.309354
1274.000000	0.309283
1275.000000	0.309333
1276.000000	0.309507
1277.000000	0.309666
1278.000000	0.309810
1279.000000	0.309825
1280.000000	0.309676
1281.000000	0.309548
1282.000000	0.309379
1283.000000	0.309383
1284.000000	0.309416
1285.000000	0.309423
1286.000000	0.309418
1287.000000	0.309430
1288.000000	0.309688
1289.000000	0.309801
1290.000000	0.309804
1291.000000	0.309958
1292.000000	0.309972
1293.000000	0.309807
1294.000000	0.309713
1295.000000	0.309757
1296.000000	0.309780
1297.000000	0.309842
1298.000000	0.309927
1299.000000	0.309849
1300.000000	0.309721
1301.000000	0.309616
1302.000000	0.309565
1303.000000	0.309817
1304.000000	0.309779
1305.000000	0.309729
1306.000000	0.309641
1307.000000	0.309358
1308.000000	0.309355
1309.000000	0.309546
1310.000000	0.309648
1311.000000	0.309852
1312.000000	0.310010
1313.000000	0.310037
1314.000000	0.309915
1315.000000	0.309724
1316.000000	0.309586
1317.000000	0.309584
1318.000000	0.309645
1319.000000	0.309697
1320.000000	0.309835
1321.000000	0.309852
1322.000000	0.309798
1323.000000	0.309843
1324.000000	0.309942
1325.000000	0.310096
1326.000000	0.310230
1327.000000	0.310296
1328.000000	0.310355
1329.000000	0.310311
1330.000000	0.310106
1331.000000	0.310035
1332.000000	0.310126
1333.000000	0.310024
1334.000000	0.309825
1335.000000	0.309817
1336.000000	0.309789
1337.000000	0.309734
1338.000000	0.309739
1339.000000	0.309759
1340.000000	0.309642
1341.000000	0.309642
1342.000000	0.309726
1343.000000	0.309825
1344.000000	0.309857
1345.000000	0.309754
1346.000000	0.309771
1347.000000	0.309776
1348.000000	0.309824
1349.000000	0.309884
1350.000000	0.310028
1351.000000	0.310084
1352.000000	0.309953
1353.000000	0.309828
1354.000000	0.309684
1355.000000	0.309496
1356.000000	0.309479
1357.000000	0.309529
1358.000000	0.309578
1359.000000	0.309537
1360.000000	0.309494
1361.000000	0.309472
1362.000000	0.309416
1363.000000	0.309282
1364.000000	0.309223
1365.000000	0.309218
1366.000000	0.309136
1367.000000	0.309010
1368.000000	0.308878
1369.000000	0.308879
1370.000000	0.308648
1371.000000	0.308341
1372.000000	0.308196
1373.000000	0.308087
1374.000000	0.307920
1375.000000	0.307835
1376.000000	0.307938
1377.000000	0.307835
1378.000000	0.307622
1379.000000	0.307507
1380.000000	0.307237
1381.000000	0.306862
1382.000000	0.306543
1383.000000	0.306255
1384.000000	0.305835
1385.000000	0.305325
1386.000000	0.305065
1387.000000	0.304831
1388.000000	0.304351
1389.000000	0.303887
1390.000000	0.303355
1391.000000	0.302618
1392.000000	0.302010
1393.000000	0.301336
1394.000000	0.300664
1395.000000	0.300027
1396.000000	0.299383
1397.000000	0.298650
1398.000000	0.297929
1399.000000	0.297142
1400.000000	0.296191
1401.000000	0.295365
1402.000000	0.294638
1403.000000	0.293798
1404.000000	0.293134
1405.000000	0.292519
1406.000000	0.291805
1407.000000	0.291283
1408.000000	0.290759
1409.000000	0.290238
1410.000000	0.289935
1411.000000	0.289695
1412.000000	0.289397
1413.000000	0.289228
1414.000000	0.289155
1415.000000	0.288944
1416.000000	0.288707
1417.000000	0.288593
1418.000000	0.288353
1419.000000	0.288206
1420.000000	0.288216
1421.000000	0.288184
1422.000000	0.288073
1423.000000	0.288094
1424.000000	0.287993
1425.000000	0.287833
1426.000000	0.287823
1427.000000	0.287866
1428.000000	0.287891
1429.000000	0.287990
1430.000000	0.288064
1431.000000	0.287974
1432.000000	0.287880
1433.000000	0.287729
1434.000000	0.287709
1435.000000	0.287822
1436.000000	0.287866
1437.000000	0.287949
1438.000000	0.287945
1439.000000	0.287821
1440.000000	0.287868
1441.000000	0.287998
1442.000000	0.288227
1443.000000	0.288505
1444.000000	0.288828
1445.000000	0.289153
1446.000000	0.289501
1447.000000	0.289877
1448.000000	0.290216
1449.000000	0.290564
1450.000000	0.291039
1451.000000	0.291454
1452.000000	0.291691
1453.000000	0.292002
1454.000000	0.292181
1455.000000	0.292204
1456.000000	0.292418
1457.000000	0.292787
1458.000000	0.293099
1459.000000	0.293398
1460.000000	0.293739
1461.000000	0.293948
1462.000000	0.294036
1463.000000	0.294126
1464.000000	0.294349
1465.000000	0.294546
1466.000000	0.294683
1467.000000	0.294882
1468.000000	0.295018
1469.000000	0.295223
1470.000000	0.295423
1471.000000	0.295717
1472.000000	0.295956
1473.000000	0.296248
1474.000000	0.296532
1475.000000	0.296645
1476.000000	0.296851
1477.000000	0.296990
1478.000000	0.297052
1479.000000	0.297217
1480.000000	0.297318
1481.000000	0.297457
1482.000000	0.297663
1483.000000	0.297881
1484.000000	0.298170
1485.000000	0.298397
1486.000000	0.298585
1487.000000	0.298773
1488.000000	0.298882
1489.000000	0.299131
1490.000000	0.299352
1491.000000	0.299601
1492.000000	0.299947
1493.000000	0.300166
1494.000000	0.300231
1495.000000	0.300368
1496.000000	0.300498
1497.000000	0.300663
1498.000000	0.300926
1499.000000	0.301029
1500.000000	0.301107
1501.000000	0.301169
1502.000000	0.301218
1503.000000	0.301379
1504.000000	0.301638
1505.000000	0.301781
1506.000000	0.301754
1507.000000	0.301798
1508.000000	0.301913
1509.000000	0.301903
1510.000000	0.301881
1511.000000	0.302013
1512.000000	0.302114
1513.000000	0.302195
1514.000000	0.302423
1515.000000	0.302479
1516.000000	0.302475
1517.000000	0.302538
1518.000000	0.302492
1519.000000	0.302471
1520.000000	0.302560
1521.000000	0.302527
1522.000000	0.302558
1523.000000	0.302688
1524.000000	0.302698
1525.000000	0.302728
1526.000000	0.302752
1527.000000	0.302835
1528.000000	0.302927
1529.000000	0.302856
1530.000000	0.302727
1531.000000	0.302633
1532.000000	0.302616
1533.000000	0.302630
1534.000000	0.302703
1535.000000	0.302888
1536.000000	0.302881
1537.000000	0.302986
1538.000000	0.303232
1539.000000	0.303283
1540.000000	0.303421
1541.000000	0.303634
1542.000000	0.303676
1543.000000	0.303728
1544.000000	0.303760
1545.000000	0.303821
1546.000000	0.304078
1547.000000	0.304209
1548.000000	0.304259
1549.000000	0.304358
1550.000000	0.304267
1551.000000	0.304298
1552.000000	0.304470
1553.000000	0.304430
1554.000000	0.304428
1555.000000	0.304565
1556.000000	0.304669
1557.000000	0.304765
1558.000000	0.304867
1559.000000	0.304902
1560.000000	0.304915
1561.000000	0.304982
1562.000000	0.305008
1563.000000	0.305061
1564.000000	0.305042
1565.000000	0.304924
1566.000000	0.304819
1567.000000	0.304760
1568.000000	0.304749
1569.000000	0.304853
1570.000000	0.304913
1571.000000	0.304965
1572.000000	0.305015
1573.000000	0.305096
1574.000000	0.305122
1575.000000	0.305126
1576.000000	0.305196
1577.000000	0.305257
1578.000000	0.305266
1579.000000	0.305357
1580.000000	0.305416
1581.000000	0.305435
1582.000000	0.305482
1583.000000	0.305627
1584.000000	0.305605
1585.000000	0.305564
1586.000000	0.305594
1587.000000	0.305562
1588.000000	0.305524
1589.000000	0.305519
1590.000000	0.305537
1591.000000	0.305608
1592.000000	0.305612
1593.000000	0.305664
1594.000000	0.305640
1595.000000	0.305520
1596.000000	0.305471
1597.000000	0.305484
1598.000000	0.305474
1599.000000	0.305538
1600.000000	0.305494
1601.000000	0.305426
1602.000000	0.305411
1603.000000	0.305405
1604.000000	0.305384
1605.000000	0.305467
1606.000000	0.305428
1607.000000	0.305346
1608.000000	0.305299
1609.000000	0.305234
1610.000000	0.305232
1611.000000	0.305339
1612.000000	0.305272
1613.000000	0.305248
1614.000000	0.305229
1615.000000	0.305181
1616.000000	0.305199
1617.000000	0.305259
1618.000000	0.305221
1619.000000	0.305048
1620.000000	0.305027
1621.000000	0.305111
1622.000000	0.305190
1623.000000	0.305306
1624.000000	0.305366
1625.000000	0.305229
1626.000000	0.305175
1627.000000	0.305148
1628.000000	0.305250
1629.000000	0.305476
1630.000000	0.305582
1631.000000	0.305695
1632.000000	0.305652
1633.000000	0.305364
1634.000000	0.305331
1635.000000	0.305413
1636.000000	0.305441
1637.000000	0.305628
1638.000000	0.305678
1639.000000	0.305635
1640.000000	0.305668
1641.000000	0.305822
1642.000000	0.305829
1643.000000	0.305813
1644.000000	0.305808
1645.000000	0.305733
1646.000000	0.305639
1647.000000	0.305616
1648.000000	0.305538
1649.000000	0.305392
1650.000000	0.305421
1651.000000	0.305626
1652.000000	0.305696
1653.000000	0.305733
1654.000000	0.305826
1655.000000	0.305807
1656.000000	0.305755
1657.000000	0.305849
1658.000000	0.305845
1659.000000	0.305781
1660.000000	0.305874
1661.000000	0.306013
1662.000000	0.306011
1663.000000	0.306015
1664.000000	0.305950
1665.000000	0.305676
1666.000000	0.305715
1667.000000	0.305774
1668.000000	0.305859
1669.000000	0.306144
1670.000000	0.306088
1671.000000	0.305992
1672.000000	0.305980
1673.000000	0.305774
1674.000000	0.305811
1675.000000	0.305914
1676.000000	0.305881
1677.000000	0.305795
1678.000000	0.305707
1679.000000	0.305682
1680.000000	0.305688
1681.000000	0.305729
1682.000000	0.305824
1683.000000	0.305910
1684.000000	0.305895
1685.000000	0.305897
1686.000000	0.305745
1687.000000	0.305594
1688.000000	0.305659
1689.000000	0.305752
1690.000000	0.305707
1691.000000	0.305734
1692.000000	0.305691
1693.000000	0.305627
1694.000000	0.305733
1695.000000	0.305869
1696.000000	0.305801
1697.000000	0.305721
1698.000000	0.305633
1699.000000	0.305621
1700.000000	0.305641
1701.000000	0.305717
1702.000000	0.305733
1703.000000	0.305679
1704.000000	0.305628
1705.000000	0.305639
1706.000000	0.305712
1707.000000	0.305744
1708.000000	0.305748
1709.000000	0.305719
1710.000000	0.305712
1711.000000	0.305771
1712.000000	0.306022
1713.000000	0.306039
1714.000000	0.305924
1715.000000	0.305923
1716.000000	0.305833
1717.000000	0.305819
1718.000000	0.305904
1719.000000	0.305972
1720.000000	0.306094
1721.000000	0.306154
1722.000000	0.306267
1723.000000	0.306315
1724.000000	0.306262
1725.000000	0.306310
1726.000000	0.306292
1727.000000	0.306354
1728.000000	0.306427
1729.000000	0.306439
1730.000000	0.306640
1731.000000	0.306679
1732.000000	0.306590
1733.000000	0.306693
1734.000000	0.306728
1735.000000	0.306694
1736.000000	0.306684
1737.000000	0.306644
1738.000000	0.306473
1739.000000	0.306455
1740.000000	0.306524
1741.000000	0.306565
1742.000000	0.306631
1743.000000	0.306736
1744.000000	0.306909
1745.000000	0.306862
1746.000000	0.306718
1747.000000	0.306555
1748.000000	0.306387
1749.000000	0.306282
1750.000000	0.306176
1751.000000	0.306171
1752.000000	0.306238
1753.000000	0.306316
1754.000000	0.306288
1755.000000	0.306125
1756.000000	0.305992
1757.000000	0.305749
1758.000000	0.305639
1759.000000	0.305670
1760.000000	0.305592
1761.000000	0.305496
1762.000000	0.305345
1763.000000	0.305061
1764.000000	0.304911
1765.000000	0.304739
1766.000000	0.304688
1767.000000	0.304670
1768.000000	0.304660
1769.000000	0.304819
1770.000000	0.304976
1771.000000	0.305145
1772.000000	0.305259
1773.000000	0.305389
1774.000000	0.305353
1775.000000	0.305218
1776.000000	0.305149
1777.000000	0.305007
1778.000000	0.304789
1779.000000	0.304524
1780.000000	0.304373
1781.000000	0.304059
1782.000000	0.304030
1783.000000	0.304291
1784.000000	0.304561
1785.000000	0.304734
1786.000000	0.304875
1787.000000	0.304991
1788.000000	0.304803
1789.000000	0.304644
1790.000000	0.304699
1791.000000	0.304605
1792.000000	0.304671
1793.000000	0.304675
1794.000000	0.304491
1795.000000	0.304459
1796.000000	0.304590
1797.000000	0.304581
1798.000000	0.304455
1799.000000	0.304430
1800.000000	0.304473
1801.000000	0.304288
1802.000000	0.304439
1803.000000	0.304632
1804.000000	0.304470
1805.000000	0.303039
1806.000000	0.302429
1807.000000	0.301994
1808.000000	0.301909
1809.000000	0.301935
1810.000000	0.302333
1811.000000	0.302481
1812.000000	0.303031
1813.000000	0.303235
1814.000000	0.303194
1815.000000	0.303111
1816.000000	0.303052
1817.000000	0.302815
1818.000000	0.302056
1819.000000	0.301947
1820.000000	0.302652
1821.000000	0.302580
1822.000000	0.302603
1823.000000	0.303007
1824.000000	0.302718
1825.000000	0.301079
1826.000000	0.301083
1827.000000	0.302131
1828.000000	0.301972
1829.000000	0.302353
1830.000000	0.302983
1831.000000	0.302816
1832.000000	0.301478
1833.000000	0.301107
1834.000000	0.300697
1835.000000	0.300672
1836.000000	0.300944
1837.000000	0.301136
1838.000000	0.301783
1839.000000	0.302227
1840.000000	0.300918
1841.000000	0.301055
1842.000000	0.300877
1843.000000	0.300044
1844.000000	0.300001
1845.000000	0.300658
1846.000000	0.300802
1847.000000	0.300720
1848.000000	0.300930
1849.000000	0.300550
1850.000000	0.300633
1851.000000	0.300787
1852.000000	0.300977
1853.000000	0.301082
1854.000000	0.301490
1855.000000	0.301245
1856.000000	0.300497
1857.000000	0.299553
1858.000000	0.299280
1859.000000	0.298553
1860.000000	0.297391
1861.000000	0.296871
1862.000000	0.296434
1863.000000	0.295793
1864.000000	0.295565
1865.000000	0.296479
1866.000000	0.296240
1867.000000	0.295445
1868.000000	0.294207
1869.000000	0.293679
1870.000000	0.293042
1871.000000	0.292546
1872.000000	0.292905
1873.000000	0.292352
1874.000000	0.290843
1875.000000	0.289919
1876.000000	0.288969
1877.000000	0.287524
1878.000000	0.285962
1879.000000	0.284692
1880.000000	0.283231
1881.000000	0.281280
1882.000000	0.279467
1883.000000	0.277463
1884.000000	0.275438
1885.000000	0.273072
1886.000000	0.270768
1887.000000	0.268420
1888.000000	0.265862
1889.000000	0.263218
1890.000000	0.260793
1891.000000	0.258581
1892.000000	0.256226
1893.000000	0.253391
1894.000000	0.250472
1895.000000	0.247713
1896.000000	0.244732
1897.000000	0.242107
1898.000000	0.240300
1899.000000	0.238479
1900.000000	0.236002
1901.000000	0.234109
1902.000000	0.232343
1903.000000	0.230549
1904.000000	0.230104
1905.000000	0.229558
1906.000000	0.229027
1907.000000	0.228680
1908.000000	0.228722
1909.000000	0.228261
1910.000000	0.228461
1911.000000	0.228957
1912.000000	0.229216
1913.000000	0.229936
1914.000000	0.230775
1915.000000	0.231286
1916.000000	0.232347
1917.000000	0.233254
1918.000000	0.234324
1919.000000	0.235377
1920.000000	0.236572
1921.000000	0.236961
1922.000000	0.237377
1923.000000	0.237144
1924.000000	0.236667
1925.000000	0.237154
1926.000000	0.237147
1927.000000	0.237666
1928.000000	0.238275
1929.000000	0.239221
1930.000000	0.239350
1931.000000	0.240086
1932.000000	0.240792
1933.000000	0.240919
1934.000000	0.241268
1935.000000	0.241600
1936.000000	0.241881
1937.000000	0.242749
1938.000000	0.243256
1939.000000	0.243545
1940.000000	0.243734
1941.000000	0.244135
1942.000000	0.243896
1943.000000	0.243822
1944.000000	0.244013
1945.000000	0.243891
1946.000000	0.243779
1947.000000	0.243554
1948.000000	0.243272
1949.000000	0.243142
1950.000000	0.243547
1951.000000	0.243791
1952.000000	0.244392
1953.000000	0.244638
1954.000000	0.245017
1955.000000	0.245089
1956.000000	0.244894
1957.000000	0.245011
1958.000000	0.245072
1959.000000	0.245090
1960.000000	0.245081
1961.000000	0.245151
1962.000000	0.245330
1963.000000	0.245655
1964.000000	0.245921
1965.000000	0.246288
1966.000000	0.246730
1967.000000	0.246636
1968.000000	0.246077
1969.000000	0.245623
1970.000000	0.245334
1971.000000	0.245289
1972.000000	0.246129
1973.000000	0.246630
1974.000000	0.247427
1975.000000	0.247854
1976.000000	0.248315
1977.000000	0.248199
1978.000000	0.248307
1979.000000	0.248787
1980.000000	0.249313
1981.000000	0.249858
1982.000000	0.249869
1983.000000	0.250384
1984.000000	0.250571
1985.000000	0.250448
1986.000000	0.250590
1987.000000	0.250978
1988.000000	0.250822
1989.000000	0.251485
1990.000000	0.252831
1991.000000	0.254082
1992.000000	0.254814
1993.000000	0.254891
1994.000000	0.254579
1995.000000	0.253903
1996.000000	0.254099
1997.000000	0.254312
1998.000000	0.254852
1999.000000	0.255412
2000.000000	0.256314
2001.000000	0.256854
2002.000000	0.257486
2003.000000	0.257751
2004.000000	0.257772
2005.000000	0.257392
2006.000000	0.257186
2007.000000	0.257600
2008.000000	0.257978
2009.000000	0.258570
2010.000000	0.259255
2011.000000	0.259976
2012.000000	0.260540
2013.000000	0.260992
2014.000000	0.261793
2015.000000	0.262477
2016.000000	0.262933
2017.000000	0.263221
2018.000000	0.263777
2019.000000	0.264264
2020.000000	0.264486
2021.000000	0.264621
2022.000000	0.264586
2023.000000	0.264612
2024.000000	0.264566
2025.000000	0.264518
2026.000000	0.264303
2027.000000	0.264378
2028.000000	0.264456
2029.000000	0.264617
2030.000000	0.265390
2031.000000	0.266201
2032.000000	0.266591
2033.000000	0.266972
2034.000000	0.267030
2035.000000	0.266387
2036.000000	0.266471
2037.000000	0.266813
2038.000000	0.267396
2039.000000	0.268616
2040.000000	0.269760
2041.000000	0.270570
2042.000000	0.270913
2043.000000	0.270552
2044.000000	0.270704
2045.000000	0.270976
2046.000000	0.271139
2047.000000	0.271335
2048.000000	0.271643
2049.000000	0.271973
2050.000000	0.272025
2051.000000	0.272031
2052.000000	0.271921
2053.000000	0.271728
2054.000000	0.271697
2055.000000	0.271219
2056.000000	0.271101
2057.000000	0.271734
2058.000000	0.272472
2059.000000	0.273883
2060.000000	0.274523
2061.000000	0.275232
2062.000000	0.275302
2063.000000	0.274370
2064.000000	0.274063
2065.000000	0.274115
2066.000000	0.274008
2067.000000	0.274199
2068.000000	0.274508
2069.000000	0.274997
2070.000000	0.275204
2071.000000	0.275473
2072.000000	0.275730
2073.000000	0.275704
2074.000000	0.275631
2075.000000	0.275820
2076.000000	0.276428
2077.000000	0.276532
2078.000000	0.276557
2079.000000	0.276505
2080.000000	0.275933
2081.000000	0.276079
2082.000000	0.276820
2083.000000	0.276949
2084.000000	0.277519
2085.000000	0.277907
2086.000000	0.277953
2087.000000	0.278040
2088.000000	0.277491
2089.000000	0.276517
2090.000000	0.276316
2091.000000	0.276248
2092.000000	0.276273
2093.000000	0.276975
2094.000000	0.277520
2095.000000	0.277930
2096.000000	0.278302
2097.000000	0.278952
2098.000000	0.279343
2099.000000	0.278924
2100.000000	0.278352
2101.000000	0.278230
2102.000000	0.278568
2103.000000	0.278869
2104.000000	0.279306
2105.000000	0.279654
2106.000000	0.279513
2107.000000	0.279889
2108.000000	0.281024
2109.000000	0.281337
2110.000000	0.281354
2111.000000	0.281107
2112.000000	0.279918
2113.000000	0.279071
2114.000000	0.279233
2115.000000	0.279193
2116.000000	0.279920
2117.000000	0.280751
2118.000000	0.280953
2119.000000	0.281493
2120.000000	0.281883
2121.000000	0.282237
2122.000000	0.282390
2123.000000	0.282522
2124.000000	0.282491
2125.000000	0.282134
2126.000000	0.282090
2127.000000	0.281785
2128.000000	0.281933
2129.000000	0.282436
2130.000000	0.283119
2131.000000	0.282945
2132.000000	0.283935
2133.000000	0.284128
2134.000000	0.283302
2135.000000	0.283668
2136.000000	0.283137
2137.000000	0.282547
2138.000000	0.281761
2139.000000	0.281406
2140.000000	0.280416
2141.000000	0.280587
2142.000000	0.282049
2143.000000	0.282557
2144.000000	0.283545
2145.000000	0.283928
2146.000000	0.283767
2147.000000	0.283701
2148.000000	0.283382
2149.000000	0.284115
2150.000000	0.284195
2151.000000	0.284066
2152.000000	0.284339
2153.000000	0.283448
2154.000000	0.283020
2155.000000	0.282930
2156.000000	0.282479
2157.000000	0.281647
2158.000000	0.281136
2159.000000	0.280660
2160.000000	0.280283
2161.000000	0.279512
2162.000000	0.279923
2163.000000	0.281031
2164.000000	0.281787
2165.000000	0.283286
2166.000000	0.285027
2167.000000	0.284560
2168.000000	0.284663
2169.000000	0.284747
2170.000000	0.283812
2171.000000	0.283645
2172.000000	0.284014
2173.000000	0.284184
2174.000000	0.284596
2175.000000	0.284355
2176.000000	0.283792
2177.000000	0.283194
2178.000000	0.281762
2179.000000	0.281574
2180.000000	0.282175
2181.000000	0.282636
2182.000000	0.283395
2183.000000	0.283321
2184.000000	0.282823
2185.000000	0.283063
2186.000000	0.283960
2187.000000	0.285614
2188.000000	0.287744
2189.000000	0.288864
2190.000000	0.287873
2191.000000	0.286139
2192.000000	0.284580
2193.000000	0.280737
2194.000000	0.279700
2195.000000	0.280853
2196.000000	0.281098
2197.000000	0.282195
2198.000000	0.282799
2199.000000	0.283800
2200.000000	0.283693
2201.000000	0.282799
2202.000000	0.282266
2203.000000	0.281198
2204.000000	0.277960
2205.000000	0.277887
2206.000000	0.279056
2207.000000	0.279440
2208.000000	0.282115
2209.000000	0.282662
2210.000000	0.282864
2211.000000	0.284809
2212.000000	0.284424
2213.000000	0.284440
2214.000000	0.284543
2215.000000	0.283971
2216.000000	0.282684
2217.000000	0.281599
2218.000000	0.280139
2219.000000	0.279771
2220.000000	0.279520
2221.000000	0.279503
2222.000000	0.280194
2223.000000	0.280136
2224.000000	0.279481
2225.000000	0.279664
2226.000000	0.279381
2227.000000	0.281026
2228.000000	0.283231
2229.000000	0.285461
2230.000000	0.288023
2231.000000	0.289583
2232.000000	0.287638
2233.000000	0.285320
2234.000000	0.282059
2235.000000	0.277250
2236.000000	0.275913
2237.000000	0.277114
2238.000000	0.276738
2239.000000	0.277669
2240.000000	0.278130
2241.000000	0.277383
2242.000000	0.278217
2243.000000	0.281692
2244.000000	0.282259
2245.000000	0.280794
2246.000000	0.279829
2247.000000	0.276931
2248.000000	0.275573
2249.000000	0.274828
2250.000000	0.276494
2251.000000	0.277150
2252.000000	0.276295
2253.000000	0.275160
2254.000000	0.275128
2255.000000	0.274799
2256.000000	0.274186
2257.000000	0.275738
2258.000000	0.277982
2259.000000	0.279018
2260.000000	0.278603
2261.000000	0.277679
2262.000000	0.274034
2263.000000	0.273070
2264.000000	0.272943
2265.000000	0.273753
2266.000000	0.276718
2267.000000	0.276524
2268.000000	0.275252
2269.000000	0.274670
2270.000000	0.272835
2271.000000	0.271267
2272.000000	0.270545
2273.000000	0.269336
2274.000000	0.265895
2275.000000	0.265198
2276.000000	0.266200
2277.000000	0.268110
2278.000000	0.267726
2279.000000	0.267015
2280.000000	0.264949
2281.000000	0.261050
2282.000000	0.260076
2283.000000	0.260839
2284.000000	0.260907
2285.000000	0.261047
2286.000000	0.260358
2287.000000	0.258439
2288.000000	0.255924
2289.000000	0.252477
2290.000000	0.251205
2291.000000	0.250796
2292.000000	0.250444
2293.000000	0.252084
2294.000000	0.252052
2295.000000	0.250196
2296.000000	0.250410
2297.000000	0.250845
2298.000000	0.251897
2299.000000	0.255645
2300.000000	0.256002
2301.000000	0.254006
2302.000000	0.253321
2303.000000	0.251483
2304.000000	0.250791
2305.000000	0.251536
2306.000000	0.252622
2307.000000	0.254475
2308.000000	0.254584
2309.000000	0.254871
2310.000000	0.257235
2311.000000	0.260286
2312.000000	0.261919
2313.000000	0.264236
2314.000000	0.266413
2315.000000	0.265016
2316.000000	0.264413
2317.000000	0.264705
2318.000000	0.262678
2319.000000	0.262736
2320.000000	0.263181
2321.000000	0.263042
2322.000000	0.264146
2323.000000	0.264343
2324.000000	0.264777
2325.000000	0.264165
2326.000000	0.263301
2327.000000	0.263058
2328.000000	0.261272
2329.000000	0.260221
2330.000000	0.260872
2331.000000	0.261831
2332.000000	0.262146
2333.000000	0.262817
2334.000000	0.261691
2335.000000	0.260993
2336.000000	0.259368
2337.000000	0.258162
2338.000000	0.256163
2339.000000	0.255746
2340.000000	0.255721
2341.000000	0.255961
2342.000000	0.258555
2343.000000	0.259373
2344.000000	0.258850
2345.000000	0.259003
2346.000000	0.257170
2347.000000	0.258340
2348.000000	0.262357
2349.000000	0.265048
2350.000000	0.265410
2351.000000	0.266950
2352.000000	0.264706
2353.000000	0.260647
2354.000000	0.260073
2355.000000	0.259930
2356.000000	0.256364
2357.000000	0.254378
2358.000000	0.253358
2359.000000	0.252947
2360.000000	0.256107
2361.000000	0.256546
2362.000000	0.256161
2363.000000	0.254739
2364.000000	0.251654
2365.000000	0.253685
2366.000000	0.253346
2367.000000	0.254709
2368.000000	0.259108
2369.000000	0.257305
2370.000000	0.252770
2371.000000	0.245893
2372.000000	0.239893
2373.000000	0.238790
2374.000000	0.239957
2375.000000	0.243673
2376.000000	0.244416
2377.000000	0.244001
2378.000000	0.249423
2379.000000	0.249332
2380.000000	0.246640
2381.000000	0.244493
2382.000000	0.236075
2383.000000	0.231055
2384.000000	0.231468
2385.000000	0.236708
2386.000000	0.243165
2387.000000	0.249789
2388.000000	0.257072
2389.000000	0.254758
2390.000000	0.250645
2391.000000	0.242681
2392.000000	0.230361
2393.000000	0.229127
2394.000000	0.230496
2395.000000	0.233776
2396.000000	0.244724
2397.000000	0.246646
2398.000000	0.240876
2399.000000	0.242022
2400.000000	0.241077
2401.000000	0.239422
2402.000000	0.241430
2403.000000	0.239974
2404.000000	0.235300
2405.000000	0.232644
2406.000000	0.230239
2407.000000	0.229590
2408.000000	0.234214
2409.000000	0.230902
2410.000000	0.233846
2411.000000	0.236089
2412.000000	0.230537
2413.000000	0.236383
2414.000000	0.228947
2415.000000	0.215316
2416.000000	0.216499
2417.000000	0.213086
2418.000000	0.210060
2419.000000	0.219252
2420.000000	0.220426
2421.000000	0.220887
2422.000000	0.236818
2423.000000	0.245973
2424.000000	0.249328
2425.000000	0.245485
2426.000000	0.231690
2427.000000	0.224671
2428.000000	0.216641
2429.000000	0.219747
2430.000000	0.230115
2431.000000	0.223962
2432.000000	0.218183
2433.000000	0.217423
2434.000000	0.216419
2435.000000	0.219954
2436.000000	0.231525
2437.000000	0.238726
2438.000000	0.239988
2439.000000	0.241924
2440.000000	0.236349
2441.000000	0.236043
2442.000000	0.232210
2443.000000	0.225129
2444.000000	0.222688
2445.000000	0.213222
2446.000000	0.206740
2447.000000	0.203136
2448.000000	0.214998
2449.000000	0.226373
2450.000000	0.226474
2451.000000	0.239230
2452.000000	0.232859
2453.000000	0.211227
2454.000000	0.202162
2455.000000	0.181536
2456.000000	0.174662
2457.000000	0.199526
2458.000000	0.217721
2459.000000	0.237673
2460.000000	0.248292
2461.000000	0.241254
2462.000000	0.245705
2463.000000	0.242922
2464.000000	0.233182
2465.000000	0.234891
2466.000000	0.217794
2467.000000	0.197165
2468.000000	0.211873
2469.000000	0.207103
2470.000000	0.206284
2471.000000	0.230403
2472.000000	0.224827
2473.000000	0.234527
2474.000000	0.243443
2475.000000	0.234201
2476.000000	0.236002
2477.000000	0.230428
2478.000000	0.222478
2479.000000	0.211481
2480.000000	0.186740
2481.000000	0.153750
2482.000000	0.146901
2483.000000	0.147567
2484.000000	0.174979
2485.000000	0.228744
2486.000000	0.231162
2487.000000	0.249131
2488.000000	0.254889
2489.000000	0.226300
2490.000000	0.258448
2491.000000	0.271415
2492.000000	0.250301
2493.000000	0.200860
2494.000000	0.170653
2495.000000	0.134295
2496.000000	0.112878
2497.000000	0.115857
2498.000000	0.110728
2499.000000	0.085536
2500.000000	0.091731
