# Wavelength	Nau-1_90_FV7_10_00001.asd.rts.txt
350.000000	0.070165
351.000000	0.073832
352.000000	0.085742
353.000000	0.084657
354.000000	0.071219
355.000000	0.082905
356.000000	0.092643
357.000000	0.093104
358.000000	0.087487
359.000000	0.094582
360.000000	0.100287
361.000000	0.088059
362.000000	0.081708
363.000000	0.083758
364.000000	0.090573
365.000000	0.090999
366.000000	0.090405
367.000000	0.088556
368.000000	0.080320
369.000000	0.083621
370.000000	0.089166
371.000000	0.083070
372.000000	0.082960
373.000000	0.086308
374.000000	0.088410
375.000000	0.083001
376.000000	0.083294
377.000000	0.089358
378.000000	0.088985
379.000000	0.088912
380.000000	0.090158
381.000000	0.091959
382.000000	0.089250
383.000000	0.086819
384.000000	0.088235
385.000000	0.090876
386.000000	0.093960
387.000000	0.096186
388.000000	0.094995
389.000000	0.096015
390.000000	0.098510
391.000000	0.099554
392.000000	0.099319
393.000000	0.100589
394.000000	0.104687
395.000000	0.107801
396.000000	0.109586
397.000000	0.110436
398.000000	0.111450
399.000000	0.114001
400.000000	0.116826
401.000000	0.117569
402.000000	0.119278
403.000000	0.121669
404.000000	0.123939
405.000000	0.125370
406.000000	0.126313
407.000000	0.127162
408.000000	0.128038
409.000000	0.130673
410.000000	0.133896
411.000000	0.134818
412.000000	0.135241
413.000000	0.136044
414.000000	0.137583
415.000000	0.138382
416.000000	0.138746
417.000000	0.139184
418.000000	0.140465
419.000000	0.141568
420.000000	0.142141
421.000000	0.142325
422.000000	0.142721
423.000000	0.142915
424.000000	0.142395
425.000000	0.142538
426.000000	0.143033
427.000000	0.143264
428.000000	0.142206
429.000000	0.141974
430.000000	0.142639
431.000000	0.141371
432.000000	0.141406
433.000000	0.142306
434.000000	0.142123
435.000000	0.142046
436.000000	0.141824
437.000000	0.141197
438.000000	0.141199
439.000000	0.140631
440.000000	0.139250
441.000000	0.138593
442.000000	0.138195
443.000000	0.137757
444.000000	0.137092
445.000000	0.136734
446.000000	0.136848
447.000000	0.137370
448.000000	0.138335
449.000000	0.139565
450.000000	0.140990
451.000000	0.142852
452.000000	0.144933
453.000000	0.147298
454.000000	0.150497
455.000000	0.154218
456.000000	0.157912
457.000000	0.160903
458.000000	0.164467
459.000000	0.167978
460.000000	0.170822
461.000000	0.173630
462.000000	0.176188
463.000000	0.178345
464.000000	0.180445
465.000000	0.182495
466.000000	0.184269
467.000000	0.185478
468.000000	0.186889
469.000000	0.188370
470.000000	0.189647
471.000000	0.190271
472.000000	0.190854
473.000000	0.191852
474.000000	0.193092
475.000000	0.193929
476.000000	0.194454
477.000000	0.195327
478.000000	0.195885
479.000000	0.196421
480.000000	0.197282
481.000000	0.197922
482.000000	0.198617
483.000000	0.199520
484.000000	0.200705
485.000000	0.201585
486.000000	0.202106
487.000000	0.202681
488.000000	0.203323
489.000000	0.204057
490.000000	0.204877
491.000000	0.205564
492.000000	0.206283
493.000000	0.207159
494.000000	0.208125
495.000000	0.208904
496.000000	0.209434
497.000000	0.210473
498.000000	0.211328
499.000000	0.212001
500.000000	0.213211
501.000000	0.214177
502.000000	0.214964
503.000000	0.215907
504.000000	0.216730
505.000000	0.217620
506.000000	0.218743
507.000000	0.219691
508.000000	0.220730
509.000000	0.221917
510.000000	0.222917
511.000000	0.224031
512.000000	0.225263
513.000000	0.226338
514.000000	0.227499
515.000000	0.228774
516.000000	0.230048
517.000000	0.231144
518.000000	0.232290
519.000000	0.233555
520.000000	0.234614
521.000000	0.235834
522.000000	0.237308
523.000000	0.238728
524.000000	0.240087
525.000000	0.241409
526.000000	0.242803
527.000000	0.244343
528.000000	0.245872
529.000000	0.247285
530.000000	0.248787
531.000000	0.250405
532.000000	0.252038
533.000000	0.253626
534.000000	0.255234
535.000000	0.256892
536.000000	0.258652
537.000000	0.260280
538.000000	0.261897
539.000000	0.263729
540.000000	0.265462
541.000000	0.267143
542.000000	0.268877
543.000000	0.270565
544.000000	0.272253
545.000000	0.273925
546.000000	0.275701
547.000000	0.277489
548.000000	0.279235
549.000000	0.280806
550.000000	0.282450
551.000000	0.284195
552.000000	0.285943
553.000000	0.287706
554.000000	0.289396
555.000000	0.291003
556.000000	0.292771
557.000000	0.294391
558.000000	0.295919
559.000000	0.297498
560.000000	0.299062
561.000000	0.300647
562.000000	0.302158
563.000000	0.303537
564.000000	0.304911
565.000000	0.306280
566.000000	0.307499
567.000000	0.308678
568.000000	0.309866
569.000000	0.311034
570.000000	0.312191
571.000000	0.313308
572.000000	0.314347
573.000000	0.315359
574.000000	0.316304
575.000000	0.317186
576.000000	0.318081
577.000000	0.318866
578.000000	0.319532
579.000000	0.320204
580.000000	0.320853
581.000000	0.321463
582.000000	0.322064
583.000000	0.322576
584.000000	0.323025
585.000000	0.323496
586.000000	0.323843
587.000000	0.324126
588.000000	0.324447
589.000000	0.324810
590.000000	0.325120
591.000000	0.325350
592.000000	0.325657
593.000000	0.325948
594.000000	0.326179
595.000000	0.326352
596.000000	0.326384
597.000000	0.326405
598.000000	0.326505
599.000000	0.326512
600.000000	0.326514
601.000000	0.326532
602.000000	0.326624
603.000000	0.326684
604.000000	0.326694
605.000000	0.326760
606.000000	0.326745
607.000000	0.326659
608.000000	0.326602
609.000000	0.326586
610.000000	0.326572
611.000000	0.326515
612.000000	0.326431
613.000000	0.326341
614.000000	0.326301
615.000000	0.326317
616.000000	0.326276
617.000000	0.326173
618.000000	0.326233
619.000000	0.326264
620.000000	0.326214
621.000000	0.326159
622.000000	0.326138
623.000000	0.326122
624.000000	0.326096
625.000000	0.326164
626.000000	0.326207
627.000000	0.326187
628.000000	0.326194
629.000000	0.326229
630.000000	0.326196
631.000000	0.326251
632.000000	0.326308
633.000000	0.326369
634.000000	0.326430
635.000000	0.326486
636.000000	0.326562
637.000000	0.326668
638.000000	0.326880
639.000000	0.326959
640.000000	0.326981
641.000000	0.327107
642.000000	0.327198
643.000000	0.327260
644.000000	0.327346
645.000000	0.327439
646.000000	0.327586
647.000000	0.327772
648.000000	0.327906
649.000000	0.328116
650.000000	0.328393
651.000000	0.328619
652.000000	0.328811
653.000000	0.329030
654.000000	0.329267
655.000000	0.329467
656.000000	0.329694
657.000000	0.329951
658.000000	0.330234
659.000000	0.330516
660.000000	0.330779
661.000000	0.331077
662.000000	0.331396
663.000000	0.331768
664.000000	0.332133
665.000000	0.332535
666.000000	0.332920
667.000000	0.333207
668.000000	0.333523
669.000000	0.333896
670.000000	0.334319
671.000000	0.334716
672.000000	0.335145
673.000000	0.335604
674.000000	0.336072
675.000000	0.336502
676.000000	0.336953
677.000000	0.337505
678.000000	0.337999
679.000000	0.338495
680.000000	0.339047
681.000000	0.339590
682.000000	0.340175
683.000000	0.340735
684.000000	0.341342
685.000000	0.341932
686.000000	0.342531
687.000000	0.343125
688.000000	0.343640
689.000000	0.344158
690.000000	0.344781
691.000000	0.345431
692.000000	0.346062
693.000000	0.346736
694.000000	0.347450
695.000000	0.348188
696.000000	0.348928
697.000000	0.349650
698.000000	0.350370
699.000000	0.351106
700.000000	0.351868
701.000000	0.352576
702.000000	0.353329
703.000000	0.354114
704.000000	0.354811
705.000000	0.355620
706.000000	0.356486
707.000000	0.357351
708.000000	0.358116
709.000000	0.358846
710.000000	0.359627
711.000000	0.360368
712.000000	0.361192
713.000000	0.362106
714.000000	0.362862
715.000000	0.363588
716.000000	0.364348
717.000000	0.365149
718.000000	0.365886
719.000000	0.366606
720.000000	0.367378
721.000000	0.368178
722.000000	0.368933
723.000000	0.369685
724.000000	0.370408
725.000000	0.371113
726.000000	0.371895
727.000000	0.372673
728.000000	0.373366
729.000000	0.374068
730.000000	0.374804
731.000000	0.375588
732.000000	0.376379
733.000000	0.377159
734.000000	0.377800
735.000000	0.378406
736.000000	0.379088
737.000000	0.379664
738.000000	0.380330
739.000000	0.381026
740.000000	0.381508
741.000000	0.382084
742.000000	0.382639
743.000000	0.383109
744.000000	0.383583
745.000000	0.384035
746.000000	0.384513
747.000000	0.384955
748.000000	0.385348
749.000000	0.385704
750.000000	0.386022
751.000000	0.386442
752.000000	0.386799
753.000000	0.387093
754.000000	0.387430
755.000000	0.387762
756.000000	0.388061
757.000000	0.388257
758.000000	0.388446
759.000000	0.388665
760.000000	0.388832
761.000000	0.388955
762.000000	0.389072
763.000000	0.389168
764.000000	0.389298
765.000000	0.389441
766.000000	0.389516
767.000000	0.389479
768.000000	0.389530
769.000000	0.389512
770.000000	0.389380
771.000000	0.389242
772.000000	0.389207
773.000000	0.389149
774.000000	0.389014
775.000000	0.388839
776.000000	0.388671
777.000000	0.388517
778.000000	0.388367
779.000000	0.388183
780.000000	0.387937
781.000000	0.387587
782.000000	0.387203
783.000000	0.386917
784.000000	0.386618
785.000000	0.386268
786.000000	0.385937
787.000000	0.385653
788.000000	0.385374
789.000000	0.385048
790.000000	0.384651
791.000000	0.384246
792.000000	0.383929
793.000000	0.383588
794.000000	0.383147
795.000000	0.382767
796.000000	0.382304
797.000000	0.381773
798.000000	0.381381
799.000000	0.380948
800.000000	0.380441
801.000000	0.379900
802.000000	0.379473
803.000000	0.379018
804.000000	0.378482
805.000000	0.377833
806.000000	0.377152
807.000000	0.376574
808.000000	0.376066
809.000000	0.375566
810.000000	0.375062
811.000000	0.374546
812.000000	0.374074
813.000000	0.373520
814.000000	0.372874
815.000000	0.372254
816.000000	0.371552
817.000000	0.370881
818.000000	0.370277
819.000000	0.369792
820.000000	0.369326
821.000000	0.368790
822.000000	0.368318
823.000000	0.367770
824.000000	0.367068
825.000000	0.366338
826.000000	0.365769
827.000000	0.365188
828.000000	0.364564
829.000000	0.364070
830.000000	0.363517
831.000000	0.362940
832.000000	0.362300
833.000000	0.361748
834.000000	0.361244
835.000000	0.360755
836.000000	0.360203
837.000000	0.359595
838.000000	0.358993
839.000000	0.358448
840.000000	0.357818
841.000000	0.357202
842.000000	0.356645
843.000000	0.356042
844.000000	0.355493
845.000000	0.354983
846.000000	0.354462
847.000000	0.354037
848.000000	0.353566
849.000000	0.352940
850.000000	0.352332
851.000000	0.351762
852.000000	0.351270
853.000000	0.350813
854.000000	0.350290
855.000000	0.349857
856.000000	0.349487
857.000000	0.349017
858.000000	0.348550
859.000000	0.348064
860.000000	0.347588
861.000000	0.347106
862.000000	0.346709
863.000000	0.346392
864.000000	0.345930
865.000000	0.345425
866.000000	0.344950
867.000000	0.344356
868.000000	0.343972
869.000000	0.343657
870.000000	0.343231
871.000000	0.342811
872.000000	0.342373
873.000000	0.341857
874.000000	0.341392
875.000000	0.340959
876.000000	0.340569
877.000000	0.340160
878.000000	0.339735
879.000000	0.339370
880.000000	0.338984
881.000000	0.338769
882.000000	0.338433
883.000000	0.338056
884.000000	0.337761
885.000000	0.337332
886.000000	0.336962
887.000000	0.336767
888.000000	0.336574
889.000000	0.336306
890.000000	0.335916
891.000000	0.335632
892.000000	0.335397
893.000000	0.335127
894.000000	0.334921
895.000000	0.334749
896.000000	0.334590
897.000000	0.334423
898.000000	0.334212
899.000000	0.333841
900.000000	0.333572
901.000000	0.333417
902.000000	0.333167
903.000000	0.332951
904.000000	0.332845
905.000000	0.332783
906.000000	0.332867
907.000000	0.332800
908.000000	0.332593
909.000000	0.332404
910.000000	0.332136
911.000000	0.331874
912.000000	0.331701
913.000000	0.331470
914.000000	0.331109
915.000000	0.330837
916.000000	0.330879
917.000000	0.330884
918.000000	0.330861
919.000000	0.330845
920.000000	0.330859
921.000000	0.330862
922.000000	0.330801
923.000000	0.330618
924.000000	0.330618
925.000000	0.330626
926.000000	0.330536
927.000000	0.330320
928.000000	0.330141
929.000000	0.330025
930.000000	0.329968
931.000000	0.330052
932.000000	0.330079
933.000000	0.330031
934.000000	0.329982
935.000000	0.329808
936.000000	0.329751
937.000000	0.329847
938.000000	0.329717
939.000000	0.329771
940.000000	0.329943
941.000000	0.330039
942.000000	0.329836
943.000000	0.329823
944.000000	0.330064
945.000000	0.330172
946.000000	0.330069
947.000000	0.330083
948.000000	0.330399
949.000000	0.330203
950.000000	0.330129
951.000000	0.330292
952.000000	0.330392
953.000000	0.330531
954.000000	0.330605
955.000000	0.330526
956.000000	0.330640
957.000000	0.330784
958.000000	0.330868
959.000000	0.330967
960.000000	0.330989
961.000000	0.331114
962.000000	0.331329
963.000000	0.331459
964.000000	0.331622
965.000000	0.331875
966.000000	0.332028
967.000000	0.331734
968.000000	0.331842
969.000000	0.332103
970.000000	0.331998
971.000000	0.332220
972.000000	0.332718
973.000000	0.333082
974.000000	0.332812
975.000000	0.332923
976.000000	0.333226
977.000000	0.333350
978.000000	0.333234
979.000000	0.333474
980.000000	0.333655
981.000000	0.333581
982.000000	0.333768
983.000000	0.334120
984.000000	0.334544
985.000000	0.334829
986.000000	0.334962
987.000000	0.335190
988.000000	0.335549
989.000000	0.335974
990.000000	0.336406
991.000000	0.336685
992.000000	0.336816
993.000000	0.337409
994.000000	0.337833
995.000000	0.338088
996.000000	0.338264
997.000000	0.338798
998.000000	0.339368
999.000000	0.339809
1000.000000	0.340053
1001.000000	0.339820
1002.000000	0.339698
1003.000000	0.339711
1004.000000	0.340194
1005.000000	0.341117
1006.000000	0.341622
1007.000000	0.342470
1008.000000	0.343068
1009.000000	0.342825
1010.000000	0.342931
1011.000000	0.342987
1012.000000	0.343092
1013.000000	0.343235
1014.000000	0.343489
1015.000000	0.344448
1016.000000	0.345418
1017.000000	0.346062
1018.000000	0.346468
1019.000000	0.346720
1020.000000	0.346321
1021.000000	0.346285
1022.000000	0.346754
1023.000000	0.347327
1024.000000	0.347893
1025.000000	0.348433
1026.000000	0.348952
1027.000000	0.349190
1028.000000	0.349865
1029.000000	0.350385
1030.000000	0.350928
1031.000000	0.351536
1032.000000	0.351433
1033.000000	0.351964
1034.000000	0.352575
1035.000000	0.353386
1036.000000	0.353981
1037.000000	0.354546
1038.000000	0.355117
1039.000000	0.355499
1040.000000	0.356693
1041.000000	0.357609
1042.000000	0.358412
1043.000000	0.359120
1044.000000	0.359385
1045.000000	0.359444
1046.000000	0.359874
1047.000000	0.360811
1048.000000	0.362382
1049.000000	0.362892
1050.000000	0.363321
1051.000000	0.363844
1052.000000	0.363609
1053.000000	0.363701
1054.000000	0.364531
1055.000000	0.365168
1056.000000	0.365597
1057.000000	0.365962
1058.000000	0.366775
1059.000000	0.367341
1060.000000	0.368200
1061.000000	0.369390
1062.000000	0.370430
1063.000000	0.371555
1064.000000	0.372216
1065.000000	0.372265
1066.000000	0.372802
1067.000000	0.373167
1068.000000	0.373676
1069.000000	0.374422
1070.000000	0.375112
1071.000000	0.375891
1072.000000	0.376654
1073.000000	0.377557
1074.000000	0.378428
1075.000000	0.379194
1076.000000	0.380067
1077.000000	0.380891
1078.000000	0.381501
1079.000000	0.382445
1080.000000	0.383726
1081.000000	0.384433
1082.000000	0.385185
1083.000000	0.385881
1084.000000	0.386057
1085.000000	0.386665
1086.000000	0.387612
1087.000000	0.388448
1088.000000	0.389461
1089.000000	0.389955
1090.000000	0.389828
1091.000000	0.390134
1092.000000	0.390814
1093.000000	0.391416
1094.000000	0.392293
1095.000000	0.393808
1096.000000	0.394920
1097.000000	0.395872
1098.000000	0.396791
1099.000000	0.397684
1100.000000	0.398589
1101.000000	0.399323
1102.000000	0.399960
1103.000000	0.400505
1104.000000	0.401232
1105.000000	0.401709
1106.000000	0.402513
1107.000000	0.403744
1108.000000	0.404682
1109.000000	0.405690
1110.000000	0.406545
1111.000000	0.407470
1112.000000	0.408335
1113.000000	0.409193
1114.000000	0.410156
1115.000000	0.410922
1116.000000	0.411368
1117.000000	0.412211
1118.000000	0.413316
1119.000000	0.414028
1120.000000	0.414740
1121.000000	0.415436
1122.000000	0.415850
1123.000000	0.416729
1124.000000	0.417729
1125.000000	0.418587
1126.000000	0.419350
1127.000000	0.420051
1128.000000	0.420681
1129.000000	0.421171
1130.000000	0.421929
1131.000000	0.422777
1132.000000	0.423578
1133.000000	0.424626
1134.000000	0.425447
1135.000000	0.426105
1136.000000	0.426726
1137.000000	0.427161
1138.000000	0.427731
1139.000000	0.428364
1140.000000	0.429161
1141.000000	0.430210
1142.000000	0.430984
1143.000000	0.431575
1144.000000	0.432312
1145.000000	0.432639
1146.000000	0.432937
1147.000000	0.433634
1148.000000	0.434539
1149.000000	0.435149
1150.000000	0.435903
1151.000000	0.436525
1152.000000	0.436709
1153.000000	0.437281
1154.000000	0.437979
1155.000000	0.438690
1156.000000	0.439587
1157.000000	0.440319
1158.000000	0.440908
1159.000000	0.441608
1160.000000	0.442236
1161.000000	0.442906
1162.000000	0.443689
1163.000000	0.444810
1164.000000	0.445497
1165.000000	0.446146
1166.000000	0.446852
1167.000000	0.447360
1168.000000	0.448030
1169.000000	0.448892
1170.000000	0.449661
1171.000000	0.450595
1172.000000	0.451304
1173.000000	0.451748
1174.000000	0.452374
1175.000000	0.452918
1176.000000	0.453480
1177.000000	0.454433
1178.000000	0.455022
1179.000000	0.455349
1180.000000	0.455668
1181.000000	0.455784
1182.000000	0.456072
1183.000000	0.457041
1184.000000	0.458021
1185.000000	0.458715
1186.000000	0.459668
1187.000000	0.460167
1188.000000	0.459998
1189.000000	0.460409
1190.000000	0.461147
1191.000000	0.461669
1192.000000	0.462391
1193.000000	0.463171
1194.000000	0.463664
1195.000000	0.464307
1196.000000	0.465091
1197.000000	0.465708
1198.000000	0.466288
1199.000000	0.466818
1200.000000	0.467188
1201.000000	0.467700
1202.000000	0.468144
1203.000000	0.468602
1204.000000	0.469014
1205.000000	0.469356
1206.000000	0.469654
1207.000000	0.469986
1208.000000	0.470327
1209.000000	0.470747
1210.000000	0.471144
1211.000000	0.471596
1212.000000	0.471947
1213.000000	0.472259
1214.000000	0.472682
1215.000000	0.473160
1216.000000	0.473502
1217.000000	0.473753
1218.000000	0.474033
1219.000000	0.474234
1220.000000	0.474528
1221.000000	0.474985
1222.000000	0.475560
1223.000000	0.475941
1224.000000	0.476257
1225.000000	0.476625
1226.000000	0.476893
1227.000000	0.477292
1228.000000	0.477832
1229.000000	0.478186
1230.000000	0.478437
1231.000000	0.478674
1232.000000	0.478954
1233.000000	0.479414
1234.000000	0.480034
1235.000000	0.480335
1236.000000	0.480300
1237.000000	0.480648
1238.000000	0.480930
1239.000000	0.481199
1240.000000	0.481681
1241.000000	0.482179
1242.000000	0.482402
1243.000000	0.482632
1244.000000	0.483026
1245.000000	0.483407
1246.000000	0.483608
1247.000000	0.483920
1248.000000	0.484299
1249.000000	0.484793
1250.000000	0.485163
1251.000000	0.485326
1252.000000	0.485589
1253.000000	0.485801
1254.000000	0.485975
1255.000000	0.486221
1256.000000	0.486415
1257.000000	0.486390
1258.000000	0.486663
1259.000000	0.487107
1260.000000	0.487468
1261.000000	0.487832
1262.000000	0.488116
1263.000000	0.488350
1264.000000	0.488461
1265.000000	0.488705
1266.000000	0.488968
1267.000000	0.489303
1268.000000	0.489663
1269.000000	0.489734
1270.000000	0.489835
1271.000000	0.489908
1272.000000	0.489991
1273.000000	0.490222
1274.000000	0.490448
1275.000000	0.490550
1276.000000	0.490538
1277.000000	0.490668
1278.000000	0.490674
1279.000000	0.490722
1280.000000	0.490742
1281.000000	0.490706
1282.000000	0.490705
1283.000000	0.490826
1284.000000	0.490814
1285.000000	0.490954
1286.000000	0.491201
1287.000000	0.491369
1288.000000	0.491672
1289.000000	0.491919
1290.000000	0.491961
1291.000000	0.492023
1292.000000	0.492115
1293.000000	0.492124
1294.000000	0.492089
1295.000000	0.492190
1296.000000	0.492175
1297.000000	0.492212
1298.000000	0.492446
1299.000000	0.492444
1300.000000	0.492563
1301.000000	0.492638
1302.000000	0.492559
1303.000000	0.492575
1304.000000	0.492540
1305.000000	0.492488
1306.000000	0.492481
1307.000000	0.492577
1308.000000	0.492690
1309.000000	0.492870
1310.000000	0.492926
1311.000000	0.493034
1312.000000	0.492971
1313.000000	0.492702
1314.000000	0.492659
1315.000000	0.492512
1316.000000	0.492386
1317.000000	0.492515
1318.000000	0.492503
1319.000000	0.492223
1320.000000	0.492038
1321.000000	0.491900
1322.000000	0.491684
1323.000000	0.491614
1324.000000	0.491691
1325.000000	0.491512
1326.000000	0.491154
1327.000000	0.491015
1328.000000	0.490984
1329.000000	0.490772
1330.000000	0.490548
1331.000000	0.490412
1332.000000	0.490269
1333.000000	0.490139
1334.000000	0.490249
1335.000000	0.490268
1336.000000	0.490216
1337.000000	0.490132
1338.000000	0.489932
1339.000000	0.489739
1340.000000	0.489689
1341.000000	0.489499
1342.000000	0.489417
1343.000000	0.489486
1344.000000	0.489399
1345.000000	0.489287
1346.000000	0.489205
1347.000000	0.488944
1348.000000	0.488801
1349.000000	0.488558
1350.000000	0.488354
1351.000000	0.488169
1352.000000	0.487874
1353.000000	0.487662
1354.000000	0.487573
1355.000000	0.487349
1356.000000	0.487238
1357.000000	0.486971
1358.000000	0.486599
1359.000000	0.486443
1360.000000	0.486275
1361.000000	0.486167
1362.000000	0.486007
1363.000000	0.485854
1364.000000	0.485714
1365.000000	0.485559
1366.000000	0.485381
1367.000000	0.485264
1368.000000	0.484919
1369.000000	0.484622
1370.000000	0.484112
1371.000000	0.483459
1372.000000	0.482845
1373.000000	0.482217
1374.000000	0.481362
1375.000000	0.480455
1376.000000	0.479668
1377.000000	0.478776
1378.000000	0.477759
1379.000000	0.476390
1380.000000	0.474959
1381.000000	0.473437
1382.000000	0.471603
1383.000000	0.469951
1384.000000	0.468132
1385.000000	0.465868
1386.000000	0.463742
1387.000000	0.461660
1388.000000	0.459436
1389.000000	0.457192
1390.000000	0.454737
1391.000000	0.451988
1392.000000	0.449234
1393.000000	0.446579
1394.000000	0.444092
1395.000000	0.441490
1396.000000	0.438929
1397.000000	0.436199
1398.000000	0.433154
1399.000000	0.430425
1400.000000	0.427802
1401.000000	0.425135
1402.000000	0.422647
1403.000000	0.420030
1404.000000	0.417475
1405.000000	0.414928
1406.000000	0.412321
1407.000000	0.409853
1408.000000	0.407480
1409.000000	0.405325
1410.000000	0.403330
1411.000000	0.401512
1412.000000	0.399801
1413.000000	0.398200
1414.000000	0.397034
1415.000000	0.396258
1416.000000	0.395639
1417.000000	0.395264
1418.000000	0.395092
1419.000000	0.395120
1420.000000	0.395157
1421.000000	0.395365
1422.000000	0.395579
1423.000000	0.395643
1424.000000	0.395408
1425.000000	0.395132
1426.000000	0.394637
1427.000000	0.394003
1428.000000	0.393473
1429.000000	0.392783
1430.000000	0.392214
1431.000000	0.391880
1432.000000	0.391697
1433.000000	0.391629
1434.000000	0.391999
1435.000000	0.392672
1436.000000	0.393743
1437.000000	0.395165
1438.000000	0.396992
1439.000000	0.399278
1440.000000	0.401788
1441.000000	0.404897
1442.000000	0.407896
1443.000000	0.411009
1444.000000	0.414114
1445.000000	0.417038
1446.000000	0.419812
1447.000000	0.422437
1448.000000	0.424780
1449.000000	0.426934
1450.000000	0.428806
1451.000000	0.430358
1452.000000	0.431701
1453.000000	0.432785
1454.000000	0.433619
1455.000000	0.434311
1456.000000	0.434918
1457.000000	0.435543
1458.000000	0.436023
1459.000000	0.436407
1460.000000	0.436770
1461.000000	0.436885
1462.000000	0.437102
1463.000000	0.437431
1464.000000	0.437686
1465.000000	0.438201
1466.000000	0.438728
1467.000000	0.439240
1468.000000	0.439889
1469.000000	0.440502
1470.000000	0.441154
1471.000000	0.441886
1472.000000	0.442653
1473.000000	0.443709
1474.000000	0.444541
1475.000000	0.445358
1476.000000	0.446280
1477.000000	0.447080
1478.000000	0.448071
1479.000000	0.448915
1480.000000	0.449667
1481.000000	0.450504
1482.000000	0.451351
1483.000000	0.452182
1484.000000	0.453171
1485.000000	0.453985
1486.000000	0.454608
1487.000000	0.455357
1488.000000	0.456146
1489.000000	0.456955
1490.000000	0.457620
1491.000000	0.458410
1492.000000	0.459211
1493.000000	0.459957
1494.000000	0.460669
1495.000000	0.461305
1496.000000	0.461895
1497.000000	0.462450
1498.000000	0.462996
1499.000000	0.463473
1500.000000	0.463882
1501.000000	0.464248
1502.000000	0.464733
1503.000000	0.465270
1504.000000	0.465814
1505.000000	0.466288
1506.000000	0.466578
1507.000000	0.466962
1508.000000	0.467590
1509.000000	0.468199
1510.000000	0.468820
1511.000000	0.469422
1512.000000	0.469798
1513.000000	0.470110
1514.000000	0.470516
1515.000000	0.470923
1516.000000	0.471421
1517.000000	0.471933
1518.000000	0.472419
1519.000000	0.472789
1520.000000	0.473185
1521.000000	0.473527
1522.000000	0.473966
1523.000000	0.474560
1524.000000	0.474999
1525.000000	0.475488
1526.000000	0.475979
1527.000000	0.476367
1528.000000	0.476704
1529.000000	0.477074
1530.000000	0.477336
1531.000000	0.477660
1532.000000	0.478264
1533.000000	0.478709
1534.000000	0.479061
1535.000000	0.479512
1536.000000	0.479666
1537.000000	0.479954
1538.000000	0.480468
1539.000000	0.480777
1540.000000	0.481071
1541.000000	0.481398
1542.000000	0.481567
1543.000000	0.481753
1544.000000	0.482035
1545.000000	0.482363
1546.000000	0.482662
1547.000000	0.482952
1548.000000	0.483247
1549.000000	0.483514
1550.000000	0.483739
1551.000000	0.483908
1552.000000	0.484105
1553.000000	0.484250
1554.000000	0.484528
1555.000000	0.484994
1556.000000	0.485201
1557.000000	0.485328
1558.000000	0.485515
1559.000000	0.485421
1560.000000	0.485518
1561.000000	0.485841
1562.000000	0.486054
1563.000000	0.486374
1564.000000	0.486583
1565.000000	0.486741
1566.000000	0.486793
1567.000000	0.486845
1568.000000	0.486957
1569.000000	0.487157
1570.000000	0.487320
1571.000000	0.487540
1572.000000	0.487607
1573.000000	0.487597
1574.000000	0.487655
1575.000000	0.487624
1576.000000	0.487770
1577.000000	0.488045
1578.000000	0.488202
1579.000000	0.488505
1580.000000	0.488661
1581.000000	0.488748
1582.000000	0.488926
1583.000000	0.489126
1584.000000	0.489279
1585.000000	0.489588
1586.000000	0.489827
1587.000000	0.489988
1588.000000	0.490173
1589.000000	0.490482
1590.000000	0.490628
1591.000000	0.490658
1592.000000	0.490719
1593.000000	0.490727
1594.000000	0.490725
1595.000000	0.490864
1596.000000	0.490989
1597.000000	0.491111
1598.000000	0.491187
1599.000000	0.491306
1600.000000	0.491333
1601.000000	0.491403
1602.000000	0.491453
1603.000000	0.491561
1604.000000	0.491583
1605.000000	0.491573
1606.000000	0.491554
1607.000000	0.491527
1608.000000	0.491533
1609.000000	0.491703
1610.000000	0.491720
1611.000000	0.491752
1612.000000	0.491699
1613.000000	0.491603
1614.000000	0.491549
1615.000000	0.491576
1616.000000	0.491695
1617.000000	0.491837
1618.000000	0.491908
1619.000000	0.491973
1620.000000	0.492014
1621.000000	0.491998
1622.000000	0.492201
1623.000000	0.492439
1624.000000	0.492648
1625.000000	0.492806
1626.000000	0.492841
1627.000000	0.492853
1628.000000	0.492906
1629.000000	0.492803
1630.000000	0.492897
1631.000000	0.492993
1632.000000	0.493004
1633.000000	0.493143
1634.000000	0.493169
1635.000000	0.493131
1636.000000	0.493153
1637.000000	0.493223
1638.000000	0.493166
1639.000000	0.493188
1640.000000	0.493065
1641.000000	0.492912
1642.000000	0.492780
1643.000000	0.492612
1644.000000	0.492461
1645.000000	0.492275
1646.000000	0.492130
1647.000000	0.492068
1648.000000	0.492000
1649.000000	0.492134
1650.000000	0.492224
1651.000000	0.492329
1652.000000	0.492497
1653.000000	0.492603
1654.000000	0.492807
1655.000000	0.493077
1656.000000	0.493128
1657.000000	0.493217
1658.000000	0.493291
1659.000000	0.493388
1660.000000	0.493521
1661.000000	0.493648
1662.000000	0.493653
1663.000000	0.493499
1664.000000	0.493452
1665.000000	0.493379
1666.000000	0.493422
1667.000000	0.493429
1668.000000	0.493345
1669.000000	0.493194
1670.000000	0.493035
1671.000000	0.492967
1672.000000	0.493021
1673.000000	0.493092
1674.000000	0.493113
1675.000000	0.493350
1676.000000	0.493416
1677.000000	0.493298
1678.000000	0.493185
1679.000000	0.493119
1680.000000	0.493113
1681.000000	0.493208
1682.000000	0.493390
1683.000000	0.493493
1684.000000	0.493613
1685.000000	0.493785
1686.000000	0.493713
1687.000000	0.493724
1688.000000	0.493613
1689.000000	0.493437
1690.000000	0.493488
1691.000000	0.493513
1692.000000	0.493302
1693.000000	0.493268
1694.000000	0.493252
1695.000000	0.493249
1696.000000	0.493450
1697.000000	0.493461
1698.000000	0.493519
1699.000000	0.493445
1700.000000	0.493113
1701.000000	0.493080
1702.000000	0.492783
1703.000000	0.492553
1704.000000	0.492688
1705.000000	0.492708
1706.000000	0.492734
1707.000000	0.492742
1708.000000	0.492791
1709.000000	0.492590
1710.000000	0.492303
1711.000000	0.492155
1712.000000	0.491950
1713.000000	0.491814
1714.000000	0.491904
1715.000000	0.491911
1716.000000	0.491939
1717.000000	0.491874
1718.000000	0.491682
1719.000000	0.491561
1720.000000	0.491483
1721.000000	0.491396
1722.000000	0.491391
1723.000000	0.491310
1724.000000	0.491229
1725.000000	0.491132
1726.000000	0.490830
1727.000000	0.490698
1728.000000	0.490551
1729.000000	0.490263
1730.000000	0.490181
1731.000000	0.490055
1732.000000	0.489831
1733.000000	0.489755
1734.000000	0.489578
1735.000000	0.489481
1736.000000	0.489394
1737.000000	0.489201
1738.000000	0.489053
1739.000000	0.488871
1740.000000	0.488527
1741.000000	0.488294
1742.000000	0.488129
1743.000000	0.488110
1744.000000	0.488160
1745.000000	0.488006
1746.000000	0.487883
1747.000000	0.487631
1748.000000	0.487310
1749.000000	0.487086
1750.000000	0.486781
1751.000000	0.486503
1752.000000	0.486393
1753.000000	0.486136
1754.000000	0.485957
1755.000000	0.485821
1756.000000	0.485616
1757.000000	0.485417
1758.000000	0.485238
1759.000000	0.484925
1760.000000	0.484759
1761.000000	0.484712
1762.000000	0.484520
1763.000000	0.484430
1764.000000	0.484173
1765.000000	0.483537
1766.000000	0.483259
1767.000000	0.482888
1768.000000	0.482700
1769.000000	0.483036
1770.000000	0.483109
1771.000000	0.483118
1772.000000	0.483023
1773.000000	0.482642
1774.000000	0.482493
1775.000000	0.482472
1776.000000	0.482460
1777.000000	0.482557
1778.000000	0.482430
1779.000000	0.482224
1780.000000	0.481943
1781.000000	0.481437
1782.000000	0.481087
1783.000000	0.480765
1784.000000	0.480665
1785.000000	0.480420
1786.000000	0.480320
1787.000000	0.480554
1788.000000	0.480676
1789.000000	0.480729
1790.000000	0.480985
1791.000000	0.480954
1792.000000	0.480953
1793.000000	0.480904
1794.000000	0.480537
1795.000000	0.480455
1796.000000	0.480559
1797.000000	0.480597
1798.000000	0.480679
1799.000000	0.480791
1800.000000	0.481137
1801.000000	0.481058
1802.000000	0.481055
1803.000000	0.480495
1804.000000	0.480622
1805.000000	0.480692
1806.000000	0.480553
1807.000000	0.480806
1808.000000	0.480792
1809.000000	0.480575
1810.000000	0.479587
1811.000000	0.479084
1812.000000	0.478508
1813.000000	0.478824
1814.000000	0.479718
1815.000000	0.480153
1816.000000	0.481655
1817.000000	0.481835
1818.000000	0.480776
1819.000000	0.480458
1820.000000	0.480212
1821.000000	0.479154
1822.000000	0.478817
1823.000000	0.478564
1824.000000	0.478351
1825.000000	0.478192
1826.000000	0.478462
1827.000000	0.479052
1828.000000	0.479256
1829.000000	0.479674
1830.000000	0.480360
1831.000000	0.480182
1832.000000	0.479057
1833.000000	0.478997
1834.000000	0.479093
1835.000000	0.478930
1836.000000	0.479441
1837.000000	0.479119
1838.000000	0.477898
1839.000000	0.476279
1840.000000	0.475037
1841.000000	0.475476
1842.000000	0.475540
1843.000000	0.476405
1844.000000	0.476461
1845.000000	0.475931
1846.000000	0.475889
1847.000000	0.475480
1848.000000	0.475616
1849.000000	0.475815
1850.000000	0.475535
1851.000000	0.475003
1852.000000	0.473448
1853.000000	0.473096
1854.000000	0.473009
1855.000000	0.472412
1856.000000	0.471932
1857.000000	0.471424
1858.000000	0.470303
1859.000000	0.469016
1860.000000	0.467058
1861.000000	0.465833
1862.000000	0.464470
1863.000000	0.463055
1864.000000	0.461681
1865.000000	0.460737
1866.000000	0.459146
1867.000000	0.457292
1868.000000	0.454980
1869.000000	0.452364
1870.000000	0.450070
1871.000000	0.447304
1872.000000	0.444641
1873.000000	0.442125
1874.000000	0.439781
1875.000000	0.436830
1876.000000	0.433422
1877.000000	0.429946
1878.000000	0.425840
1879.000000	0.421887
1880.000000	0.418239
1881.000000	0.413841
1882.000000	0.408908
1883.000000	0.403598
1884.000000	0.397837
1885.000000	0.390898
1886.000000	0.384416
1887.000000	0.377703
1888.000000	0.370669
1889.000000	0.363805
1890.000000	0.356877
1891.000000	0.349779
1892.000000	0.342137
1893.000000	0.335032
1894.000000	0.328459
1895.000000	0.321422
1896.000000	0.314389
1897.000000	0.307745
1898.000000	0.301004
1899.000000	0.294922
1900.000000	0.289211
1901.000000	0.283654
1902.000000	0.278687
1903.000000	0.273690
1904.000000	0.269633
1905.000000	0.266393
1906.000000	0.263458
1907.000000	0.260943
1908.000000	0.259358
1909.000000	0.258330
1910.000000	0.258100
1911.000000	0.258929
1912.000000	0.259563
1913.000000	0.260542
1914.000000	0.261936
1915.000000	0.263140
1916.000000	0.264952
1917.000000	0.266478
1918.000000	0.268034
1919.000000	0.269535
1920.000000	0.271282
1921.000000	0.273164
1922.000000	0.275805
1923.000000	0.278738
1924.000000	0.281104
1925.000000	0.282871
1926.000000	0.284065
1927.000000	0.284949
1928.000000	0.286015
1929.000000	0.287153
1930.000000	0.288386
1931.000000	0.289913
1932.000000	0.291184
1933.000000	0.292537
1934.000000	0.294423
1935.000000	0.295756
1936.000000	0.297460
1937.000000	0.299148
1938.000000	0.300329
1939.000000	0.301534
1940.000000	0.302815
1941.000000	0.303698
1942.000000	0.304417
1943.000000	0.304910
1944.000000	0.305326
1945.000000	0.305931
1946.000000	0.306567
1947.000000	0.307451
1948.000000	0.308273
1949.000000	0.309563
1950.000000	0.310870
1951.000000	0.311553
1952.000000	0.311947
1953.000000	0.312396
1954.000000	0.312949
1955.000000	0.313831
1956.000000	0.315170
1957.000000	0.316850
1958.000000	0.317885
1959.000000	0.318502
1960.000000	0.319488
1961.000000	0.320433
1962.000000	0.321227
1963.000000	0.322059
1964.000000	0.322826
1965.000000	0.323635
1966.000000	0.324942
1967.000000	0.326577
1968.000000	0.328365
1969.000000	0.330067
1970.000000	0.331130
1971.000000	0.331531
1972.000000	0.331836
1973.000000	0.332352
1974.000000	0.332839
1975.000000	0.333550
1976.000000	0.334607
1977.000000	0.335617
1978.000000	0.336718
1979.000000	0.338305
1980.000000	0.339200
1981.000000	0.340844
1982.000000	0.342899
1983.000000	0.343894
1984.000000	0.345122
1985.000000	0.346922
1986.000000	0.347945
1987.000000	0.348470
1988.000000	0.349121
1989.000000	0.349426
1990.000000	0.350448
1991.000000	0.351109
1992.000000	0.351823
1993.000000	0.353529
1994.000000	0.355090
1995.000000	0.356539
1996.000000	0.358526
1997.000000	0.360034
1998.000000	0.361156
1999.000000	0.362345
2000.000000	0.363621
2001.000000	0.364382
2002.000000	0.365130
2003.000000	0.366579
2004.000000	0.367937
2005.000000	0.369347
2006.000000	0.370948
2007.000000	0.371767
2008.000000	0.372711
2009.000000	0.373209
2010.000000	0.374240
2011.000000	0.375337
2012.000000	0.376550
2013.000000	0.377852
2014.000000	0.379156
2015.000000	0.380746
2016.000000	0.381769
2017.000000	0.382870
2018.000000	0.383854
2019.000000	0.384510
2020.000000	0.385209
2021.000000	0.385901
2022.000000	0.386322
2023.000000	0.387111
2024.000000	0.388011
2025.000000	0.389206
2026.000000	0.390546
2027.000000	0.392136
2028.000000	0.393520
2029.000000	0.394231
2030.000000	0.394754
2031.000000	0.395518
2032.000000	0.396181
2033.000000	0.397166
2034.000000	0.397833
2035.000000	0.398519
2036.000000	0.398836
2037.000000	0.398681
2038.000000	0.399260
2039.000000	0.400170
2040.000000	0.401422
2041.000000	0.401988
2042.000000	0.403169
2043.000000	0.404027
2044.000000	0.404199
2045.000000	0.405091
2046.000000	0.405520
2047.000000	0.406157
2048.000000	0.406597
2049.000000	0.407331
2050.000000	0.407774
2051.000000	0.408463
2052.000000	0.409095
2053.000000	0.409699
2054.000000	0.410741
2055.000000	0.412040
2056.000000	0.412840
2057.000000	0.413197
2058.000000	0.413375
2059.000000	0.412877
2060.000000	0.412856
2061.000000	0.412721
2062.000000	0.413072
2063.000000	0.413922
2064.000000	0.414522
2065.000000	0.415909
2066.000000	0.416350
2067.000000	0.416760
2068.000000	0.417037
2069.000000	0.416724
2070.000000	0.416883
2071.000000	0.416708
2072.000000	0.417144
2073.000000	0.417694
2074.000000	0.417331
2075.000000	0.417506
2076.000000	0.417732
2077.000000	0.418117
2078.000000	0.418743
2079.000000	0.419177
2080.000000	0.419620
2081.000000	0.420261
2082.000000	0.420738
2083.000000	0.421910
2084.000000	0.422757
2085.000000	0.423143
2086.000000	0.423447
2087.000000	0.423465
2088.000000	0.423768
2089.000000	0.424125
2090.000000	0.424351
2091.000000	0.424492
2092.000000	0.424616
2093.000000	0.424878
2094.000000	0.424949
2095.000000	0.424611
2096.000000	0.424836
2097.000000	0.425308
2098.000000	0.425405
2099.000000	0.425837
2100.000000	0.426429
2101.000000	0.426252
2102.000000	0.426046
2103.000000	0.425983
2104.000000	0.425722
2105.000000	0.425668
2106.000000	0.425544
2107.000000	0.425908
2108.000000	0.426687
2109.000000	0.427369
2110.000000	0.428362
2111.000000	0.429007
2112.000000	0.429727
2113.000000	0.428919
2114.000000	0.428783
2115.000000	0.429051
2116.000000	0.428176
2117.000000	0.427757
2118.000000	0.428463
2119.000000	0.428156
2120.000000	0.428658
2121.000000	0.430543
2122.000000	0.431333
2123.000000	0.431666
2124.000000	0.432035
2125.000000	0.432111
2126.000000	0.432112
2127.000000	0.432200
2128.000000	0.431977
2129.000000	0.431206
2130.000000	0.430674
2131.000000	0.430190
2132.000000	0.429705
2133.000000	0.429972
2134.000000	0.430504
2135.000000	0.430224
2136.000000	0.429566
2137.000000	0.429270
2138.000000	0.428834
2139.000000	0.428661
2140.000000	0.428932
2141.000000	0.428891
2142.000000	0.428389
2143.000000	0.428168
2144.000000	0.428971
2145.000000	0.428840
2146.000000	0.428746
2147.000000	0.428415
2148.000000	0.427033
2149.000000	0.425812
2150.000000	0.425628
2151.000000	0.425185
2152.000000	0.424830
2153.000000	0.424327
2154.000000	0.423408
2155.000000	0.421591
2156.000000	0.421281
2157.000000	0.421572
2158.000000	0.421507
2159.000000	0.422620
2160.000000	0.422520
2161.000000	0.421192
2162.000000	0.420763
2163.000000	0.419854
2164.000000	0.419687
2165.000000	0.420359
2166.000000	0.420683
2167.000000	0.421800
2168.000000	0.422495
2169.000000	0.421985
2170.000000	0.420682
2171.000000	0.420185
2172.000000	0.419118
2173.000000	0.418891
2174.000000	0.420232
2175.000000	0.420063
2176.000000	0.418791
2177.000000	0.418452
2178.000000	0.417772
2179.000000	0.417854
2180.000000	0.419459
2181.000000	0.420312
2182.000000	0.420617
2183.000000	0.420068
2184.000000	0.418949
2185.000000	0.416368
2186.000000	0.414591
2187.000000	0.413376
2188.000000	0.411305
2189.000000	0.409839
2190.000000	0.408702
2191.000000	0.408119
2192.000000	0.407926
2193.000000	0.410060
2194.000000	0.409723
2195.000000	0.407989
2196.000000	0.407192
2197.000000	0.405000
2198.000000	0.404732
2199.000000	0.406704
2200.000000	0.407403
2201.000000	0.409648
2202.000000	0.409790
2203.000000	0.407755
2204.000000	0.405557
2205.000000	0.401929
2206.000000	0.398920
2207.000000	0.397399
2208.000000	0.395773
2209.000000	0.395666
2210.000000	0.397019
2211.000000	0.397582
2212.000000	0.396347
2213.000000	0.397159
2214.000000	0.398152
2215.000000	0.399232
2216.000000	0.401975
2217.000000	0.404571
2218.000000	0.407151
2219.000000	0.408837
2220.000000	0.410585
2221.000000	0.412266
2222.000000	0.412024
2223.000000	0.413002
2224.000000	0.416097
2225.000000	0.417105
2226.000000	0.416614
2227.000000	0.416758
2228.000000	0.413300
2229.000000	0.410649
2230.000000	0.408456
2231.000000	0.407513
2232.000000	0.407860
2233.000000	0.407990
2234.000000	0.407458
2235.000000	0.406336
2236.000000	0.404426
2237.000000	0.399903
2238.000000	0.398900
2239.000000	0.399047
2240.000000	0.399198
2241.000000	0.402529
2242.000000	0.403553
2243.000000	0.402273
2244.000000	0.402123
2245.000000	0.402410
2246.000000	0.402180
2247.000000	0.402469
2248.000000	0.402079
2249.000000	0.401851
2250.000000	0.398751
2251.000000	0.396549
2252.000000	0.396516
2253.000000	0.397178
2254.000000	0.397645
2255.000000	0.398544
2256.000000	0.398400
2257.000000	0.397118
2258.000000	0.397594
2259.000000	0.396637
2260.000000	0.395067
2261.000000	0.392786
2262.000000	0.389745
2263.000000	0.385770
2264.000000	0.380325
2265.000000	0.376393
2266.000000	0.372055
2267.000000	0.368451
2268.000000	0.366048
2269.000000	0.363194
2270.000000	0.361377
2271.000000	0.356868
2272.000000	0.351835
2273.000000	0.346079
2274.000000	0.336025
2275.000000	0.330070
2276.000000	0.324999
2277.000000	0.321333
2278.000000	0.322369
2279.000000	0.323617
2280.000000	0.324616
2281.000000	0.324601
2282.000000	0.321570
2283.000000	0.318226
2284.000000	0.314689
2285.000000	0.310379
2286.000000	0.308017
2287.000000	0.306253
2288.000000	0.306576
2289.000000	0.308923
2290.000000	0.311657
2291.000000	0.314966
2292.000000	0.317248
2293.000000	0.319731
2294.000000	0.321488
2295.000000	0.321149
2296.000000	0.323562
2297.000000	0.326459
2298.000000	0.330353
2299.000000	0.337879
2300.000000	0.341752
2301.000000	0.344569
2302.000000	0.346519
2303.000000	0.345484
2304.000000	0.346246
2305.000000	0.346496
2306.000000	0.348318
2307.000000	0.351644
2308.000000	0.355088
2309.000000	0.358266
2310.000000	0.363272
2311.000000	0.365744
2312.000000	0.365916
2313.000000	0.363654
2314.000000	0.360878
2315.000000	0.360094
2316.000000	0.360267
2317.000000	0.361855
2318.000000	0.363394
2319.000000	0.363691
2320.000000	0.364107
2321.000000	0.364866
2322.000000	0.364757
2323.000000	0.366615
2324.000000	0.367744
2325.000000	0.365649
2326.000000	0.364691
2327.000000	0.362737
2328.000000	0.359861
2329.000000	0.360460
2330.000000	0.363416
2331.000000	0.365002
2332.000000	0.365781
2333.000000	0.364987
2334.000000	0.362977
2335.000000	0.362132
2336.000000	0.360619
2337.000000	0.359340
2338.000000	0.359056
2339.000000	0.357086
2340.000000	0.354484
2341.000000	0.352267
2342.000000	0.348513
2343.000000	0.347892
2344.000000	0.348904
2345.000000	0.350265
2346.000000	0.354257
2347.000000	0.354718
2348.000000	0.354924
2349.000000	0.351730
2350.000000	0.346950
2351.000000	0.346178
2352.000000	0.344479
2353.000000	0.346652
2354.000000	0.347409
2355.000000	0.345672
2356.000000	0.345817
2357.000000	0.339280
2358.000000	0.333132
2359.000000	0.332419
2360.000000	0.328979
2361.000000	0.327875
2362.000000	0.329526
2363.000000	0.327720
2364.000000	0.326968
2365.000000	0.328971
2366.000000	0.329620
2367.000000	0.330401
2368.000000	0.330525
2369.000000	0.327086
2370.000000	0.323439
2371.000000	0.321082
2372.000000	0.318955
2373.000000	0.317935
2374.000000	0.312305
2375.000000	0.307039
2376.000000	0.305170
2377.000000	0.304777
2378.000000	0.312400
2379.000000	0.317825
2380.000000	0.317223
2381.000000	0.310277
2382.000000	0.297001
2383.000000	0.292952
2384.000000	0.288554
2385.000000	0.286734
2386.000000	0.294418
2387.000000	0.290279
2388.000000	0.288397
2389.000000	0.290964
2390.000000	0.288293
2391.000000	0.290718
2392.000000	0.287612
2393.000000	0.284202
2394.000000	0.282497
2395.000000	0.278561
2396.000000	0.282026
2397.000000	0.281267
2398.000000	0.275220
2399.000000	0.274899
2400.000000	0.267535
2401.000000	0.257650
2402.000000	0.261320
2403.000000	0.267952
2404.000000	0.272340
2405.000000	0.279938
2406.000000	0.285001
2407.000000	0.280763
2408.000000	0.278694
2409.000000	0.286728
2410.000000	0.289808
2411.000000	0.291666
2412.000000	0.297612
2413.000000	0.291892
2414.000000	0.286616
2415.000000	0.281961
2416.000000	0.272883
2417.000000	0.267058
2418.000000	0.261443
2419.000000	0.263090
2420.000000	0.261808
2421.000000	0.264821
2422.000000	0.275579
2423.000000	0.273547
2424.000000	0.272873
2425.000000	0.275847
2426.000000	0.268331
2427.000000	0.258385
2428.000000	0.255354
2429.000000	0.256199
2430.000000	0.262125
2431.000000	0.268245
2432.000000	0.268714
2433.000000	0.263472
2434.000000	0.255676
2435.000000	0.251412
2436.000000	0.253390
2437.000000	0.259125
2438.000000	0.264276
2439.000000	0.265627
2440.000000	0.255563
2441.000000	0.240719
2442.000000	0.227123
2443.000000	0.227371
2444.000000	0.234458
2445.000000	0.231505
2446.000000	0.231013
2447.000000	0.225629
2448.000000	0.209576
2449.000000	0.209845
2450.000000	0.222869
2451.000000	0.235625
2452.000000	0.255983
2453.000000	0.265376
2454.000000	0.268925
2455.000000	0.259961
2456.000000	0.247194
2457.000000	0.267738
2458.000000	0.280536
2459.000000	0.271950
2460.000000	0.264503
2461.000000	0.241394
2462.000000	0.212850
2463.000000	0.207851
2464.000000	0.214645
2465.000000	0.207113
2466.000000	0.212595
2467.000000	0.217405
2468.000000	0.202666
2469.000000	0.195999
2470.000000	0.182901
2471.000000	0.185737
2472.000000	0.202289
2473.000000	0.221143
2474.000000	0.250225
2475.000000	0.253449
2476.000000	0.245043
2477.000000	0.265235
2478.000000	0.276258
2479.000000	0.262989
2480.000000	0.282368
2481.000000	0.283199
2482.000000	0.251321
2483.000000	0.271633
2484.000000	0.260176
2485.000000	0.206831
2486.000000	0.186859
2487.000000	0.130066
2488.000000	0.091355
2489.000000	0.134284
2490.000000	0.156793
2491.000000	0.196611
2492.000000	0.202329
2493.000000	0.142957
2494.000000	0.140548
2495.000000	0.181034
2496.000000	0.185354
2497.000000	0.209416
2498.000000	0.206920
2499.000000	0.163691
2500.000000	0.082794
