# Wavelength	NAu-2-60_HEX-30_FV7-10_00000.asd.rts.txt
350.000000	0.095983
351.000000	0.097738
352.000000	0.099496
353.000000	0.100033
354.000000	0.101813
355.000000	0.112099
356.000000	0.105566
357.000000	0.091531
358.000000	0.104739
359.000000	0.112238
360.000000	0.111110
361.000000	0.106139
362.000000	0.103678
363.000000	0.104526
364.000000	0.108446
365.000000	0.118394
366.000000	0.113898
367.000000	0.099837
368.000000	0.102845
369.000000	0.107842
370.000000	0.109826
371.000000	0.106981
372.000000	0.101269
373.000000	0.101702
374.000000	0.110486
375.000000	0.111536
376.000000	0.107168
377.000000	0.101623
378.000000	0.101556
379.000000	0.103663
380.000000	0.104454
381.000000	0.101539
382.000000	0.100958
383.000000	0.102386
384.000000	0.104871
385.000000	0.108488
386.000000	0.108659
387.000000	0.106032
388.000000	0.106865
389.000000	0.105301
390.000000	0.103068
391.000000	0.104078
392.000000	0.107932
393.000000	0.110524
394.000000	0.109306
395.000000	0.107217
396.000000	0.106391
397.000000	0.107186
398.000000	0.108115
399.000000	0.108044
400.000000	0.107413
401.000000	0.107363
402.000000	0.108051
403.000000	0.108298
404.000000	0.107421
405.000000	0.107085
406.000000	0.108071
407.000000	0.109695
408.000000	0.108643
409.000000	0.108117
410.000000	0.108556
411.000000	0.108913
412.000000	0.109241
413.000000	0.109515
414.000000	0.109834
415.000000	0.111037
416.000000	0.111436
417.000000	0.110541
418.000000	0.110647
419.000000	0.111452
420.000000	0.112469
421.000000	0.112939
422.000000	0.113035
423.000000	0.113070
424.000000	0.113412
425.000000	0.113806
426.000000	0.114040
427.000000	0.114054
428.000000	0.114168
429.000000	0.114769
430.000000	0.115678
431.000000	0.115929
432.000000	0.116142
433.000000	0.116224
434.000000	0.115906
435.000000	0.116338
436.000000	0.116759
437.000000	0.116530
438.000000	0.117512
439.000000	0.118316
440.000000	0.118331
441.000000	0.118438
442.000000	0.118750
443.000000	0.119265
444.000000	0.119936
445.000000	0.120093
446.000000	0.120240
447.000000	0.120934
448.000000	0.121102
449.000000	0.121282
450.000000	0.121890
451.000000	0.122619
452.000000	0.123012
453.000000	0.123153
454.000000	0.123918
455.000000	0.124145
456.000000	0.124238
457.000000	0.125058
458.000000	0.125404
459.000000	0.125783
460.000000	0.126635
461.000000	0.126726
462.000000	0.126796
463.000000	0.127174
464.000000	0.127673
465.000000	0.128083
466.000000	0.128432
467.000000	0.128986
468.000000	0.129176
469.000000	0.129339
470.000000	0.129980
471.000000	0.130309
472.000000	0.130511
473.000000	0.130799
474.000000	0.131171
475.000000	0.131403
476.000000	0.131629
477.000000	0.132240
478.000000	0.132821
479.000000	0.133244
480.000000	0.133355
481.000000	0.133772
482.000000	0.134273
483.000000	0.134503
484.000000	0.134866
485.000000	0.135032
486.000000	0.135054
487.000000	0.135463
488.000000	0.135722
489.000000	0.135893
490.000000	0.136413
491.000000	0.136560
492.000000	0.136565
493.000000	0.136770
494.000000	0.136861
495.000000	0.136901
496.000000	0.136928
497.000000	0.136855
498.000000	0.136968
499.000000	0.137264
500.000000	0.137271
501.000000	0.137255
502.000000	0.137337
503.000000	0.137540
504.000000	0.137733
505.000000	0.137897
506.000000	0.138062
507.000000	0.138343
508.000000	0.138671
509.000000	0.138992
510.000000	0.139387
511.000000	0.139740
512.000000	0.140058
513.000000	0.140413
514.000000	0.140862
515.000000	0.141335
516.000000	0.141704
517.000000	0.142095
518.000000	0.142553
519.000000	0.143036
520.000000	0.143472
521.000000	0.143950
522.000000	0.144521
523.000000	0.145180
524.000000	0.145843
525.000000	0.146576
526.000000	0.147548
527.000000	0.148588
528.000000	0.149652
529.000000	0.150769
530.000000	0.151997
531.000000	0.153342
532.000000	0.154762
533.000000	0.156317
534.000000	0.157909
535.000000	0.159467
536.000000	0.160949
537.000000	0.162503
538.000000	0.164059
539.000000	0.165460
540.000000	0.166823
541.000000	0.168126
542.000000	0.169364
543.000000	0.170584
544.000000	0.171798
545.000000	0.172984
546.000000	0.174215
547.000000	0.175457
548.000000	0.176759
549.000000	0.178164
550.000000	0.179606
551.000000	0.181161
552.000000	0.182884
553.000000	0.184668
554.000000	0.186507
555.000000	0.188415
556.000000	0.190415
557.000000	0.192466
558.000000	0.194649
559.000000	0.196967
560.000000	0.199281
561.000000	0.201535
562.000000	0.203614
563.000000	0.205726
564.000000	0.207795
565.000000	0.209662
566.000000	0.211605
567.000000	0.213471
568.000000	0.215144
569.000000	0.216694
570.000000	0.218104
571.000000	0.219356
572.000000	0.220450
573.000000	0.221442
574.000000	0.222358
575.000000	0.223238
576.000000	0.223901
577.000000	0.224470
578.000000	0.225065
579.000000	0.225403
580.000000	0.225664
581.000000	0.225904
582.000000	0.225979
583.000000	0.226017
584.000000	0.226012
585.000000	0.225891
586.000000	0.225730
587.000000	0.225525
588.000000	0.225250
589.000000	0.224804
590.000000	0.224315
591.000000	0.223846
592.000000	0.223268
593.000000	0.222617
594.000000	0.221926
595.000000	0.221241
596.000000	0.220466
597.000000	0.219662
598.000000	0.218871
599.000000	0.218051
600.000000	0.217218
601.000000	0.216350
602.000000	0.215547
603.000000	0.214766
604.000000	0.213980
605.000000	0.213152
606.000000	0.212365
607.000000	0.211610
608.000000	0.210821
609.000000	0.210004
610.000000	0.209207
611.000000	0.208469
612.000000	0.207703
613.000000	0.206903
614.000000	0.206104
615.000000	0.205307
616.000000	0.204610
617.000000	0.203975
618.000000	0.203280
619.000000	0.202621
620.000000	0.201967
621.000000	0.201295
622.000000	0.200738
623.000000	0.200180
624.000000	0.199534
625.000000	0.198970
626.000000	0.198439
627.000000	0.197929
628.000000	0.197497
629.000000	0.197141
630.000000	0.196728
631.000000	0.196239
632.000000	0.195906
633.000000	0.195671
634.000000	0.195402
635.000000	0.195048
636.000000	0.194767
637.000000	0.194611
638.000000	0.194437
639.000000	0.194294
640.000000	0.194224
641.000000	0.194164
642.000000	0.194129
643.000000	0.194107
644.000000	0.194085
645.000000	0.194090
646.000000	0.194147
647.000000	0.194247
648.000000	0.194355
649.000000	0.194478
650.000000	0.194646
651.000000	0.194969
652.000000	0.195254
653.000000	0.195478
654.000000	0.195658
655.000000	0.196008
656.000000	0.196421
657.000000	0.196752
658.000000	0.197194
659.000000	0.197691
660.000000	0.198205
661.000000	0.198786
662.000000	0.199361
663.000000	0.199986
664.000000	0.200722
665.000000	0.201460
666.000000	0.202177
667.000000	0.202870
668.000000	0.203693
669.000000	0.204566
670.000000	0.205445
671.000000	0.206391
672.000000	0.207335
673.000000	0.208294
674.000000	0.209374
675.000000	0.210553
676.000000	0.211765
677.000000	0.212956
678.000000	0.214186
679.000000	0.215469
680.000000	0.216815
681.000000	0.218217
682.000000	0.219650
683.000000	0.221078
684.000000	0.222617
685.000000	0.224189
686.000000	0.225808
687.000000	0.227481
688.000000	0.229212
689.000000	0.230938
690.000000	0.232673
691.000000	0.234557
692.000000	0.236451
693.000000	0.238369
694.000000	0.240358
695.000000	0.242392
696.000000	0.244474
697.000000	0.246606
698.000000	0.248764
699.000000	0.250977
700.000000	0.253262
701.000000	0.255557
702.000000	0.257894
703.000000	0.260290
704.000000	0.262784
705.000000	0.265336
706.000000	0.267918
707.000000	0.270581
708.000000	0.273251
709.000000	0.275954
710.000000	0.278714
711.000000	0.281422
712.000000	0.284142
713.000000	0.286922
714.000000	0.289738
715.000000	0.292610
716.000000	0.295546
717.000000	0.298524
718.000000	0.301526
719.000000	0.304538
720.000000	0.307565
721.000000	0.310594
722.000000	0.313590
723.000000	0.316611
724.000000	0.319673
725.000000	0.322751
726.000000	0.325859
727.000000	0.328865
728.000000	0.331926
729.000000	0.335038
730.000000	0.338120
731.000000	0.341239
732.000000	0.344321
733.000000	0.347371
734.000000	0.350357
735.000000	0.353349
736.000000	0.356448
737.000000	0.359463
738.000000	0.362367
739.000000	0.365315
740.000000	0.368194
741.000000	0.370946
742.000000	0.373761
743.000000	0.376605
744.000000	0.379307
745.000000	0.381961
746.000000	0.384594
747.000000	0.387104
748.000000	0.389643
749.000000	0.392158
750.000000	0.394564
751.000000	0.396932
752.000000	0.399254
753.000000	0.401536
754.000000	0.403758
755.000000	0.405979
756.000000	0.408151
757.000000	0.410166
758.000000	0.412219
759.000000	0.414175
760.000000	0.415900
761.000000	0.417670
762.000000	0.419404
763.000000	0.421064
764.000000	0.422733
765.000000	0.424307
766.000000	0.425834
767.000000	0.427350
768.000000	0.428715
769.000000	0.430029
770.000000	0.431346
771.000000	0.432638
772.000000	0.433897
773.000000	0.435029
774.000000	0.436102
775.000000	0.437099
776.000000	0.438046
777.000000	0.438939
778.000000	0.439788
779.000000	0.440605
780.000000	0.441391
781.000000	0.442103
782.000000	0.442778
783.000000	0.443532
784.000000	0.444231
785.000000	0.444958
786.000000	0.445583
787.000000	0.446050
788.000000	0.446469
789.000000	0.446921
790.000000	0.447383
791.000000	0.447832
792.000000	0.448154
793.000000	0.448421
794.000000	0.448714
795.000000	0.449002
796.000000	0.449288
797.000000	0.449533
798.000000	0.449670
799.000000	0.449840
800.000000	0.450019
801.000000	0.450144
802.000000	0.450259
803.000000	0.450374
804.000000	0.450511
805.000000	0.450523
806.000000	0.450509
807.000000	0.450579
808.000000	0.450625
809.000000	0.450679
810.000000	0.450711
811.000000	0.450663
812.000000	0.450474
813.000000	0.450348
814.000000	0.450316
815.000000	0.450282
816.000000	0.450112
817.000000	0.449935
818.000000	0.449793
819.000000	0.449739
820.000000	0.449628
821.000000	0.449348
822.000000	0.449061
823.000000	0.448834
824.000000	0.448597
825.000000	0.448403
826.000000	0.448220
827.000000	0.448006
828.000000	0.447814
829.000000	0.447673
830.000000	0.447445
831.000000	0.447164
832.000000	0.446736
833.000000	0.446371
834.000000	0.446102
835.000000	0.445943
836.000000	0.445755
837.000000	0.445467
838.000000	0.445118
839.000000	0.444772
840.000000	0.444403
841.000000	0.444011
842.000000	0.443584
843.000000	0.443364
844.000000	0.443134
845.000000	0.442795
846.000000	0.442495
847.000000	0.442143
848.000000	0.441730
849.000000	0.441332
850.000000	0.441036
851.000000	0.440675
852.000000	0.440281
853.000000	0.440023
854.000000	0.439688
855.000000	0.439394
856.000000	0.439056
857.000000	0.438531
858.000000	0.438133
859.000000	0.437833
860.000000	0.437352
861.000000	0.436869
862.000000	0.436490
863.000000	0.436162
864.000000	0.435780
865.000000	0.435381
866.000000	0.435012
867.000000	0.434575
868.000000	0.434165
869.000000	0.433667
870.000000	0.433091
871.000000	0.432692
872.000000	0.432336
873.000000	0.431887
874.000000	0.431580
875.000000	0.431179
876.000000	0.430711
877.000000	0.430205
878.000000	0.429546
879.000000	0.429040
880.000000	0.428677
881.000000	0.428485
882.000000	0.428191
883.000000	0.427783
884.000000	0.427296
885.000000	0.426976
886.000000	0.426602
887.000000	0.426094
888.000000	0.425570
889.000000	0.425183
890.000000	0.424723
891.000000	0.424184
892.000000	0.423701
893.000000	0.423232
894.000000	0.422904
895.000000	0.422597
896.000000	0.422238
897.000000	0.421808
898.000000	0.421313
899.000000	0.420743
900.000000	0.420340
901.000000	0.420086
902.000000	0.419777
903.000000	0.419360
904.000000	0.418989
905.000000	0.418689
906.000000	0.418443
907.000000	0.418107
908.000000	0.417751
909.000000	0.417432
910.000000	0.417068
911.000000	0.416708
912.000000	0.416414
913.000000	0.416090
914.000000	0.415750
915.000000	0.415495
916.000000	0.415247
917.000000	0.414772
918.000000	0.414269
919.000000	0.413883
920.000000	0.413561
921.000000	0.413202
922.000000	0.412879
923.000000	0.412674
924.000000	0.412291
925.000000	0.411810
926.000000	0.411413
927.000000	0.411229
928.000000	0.410909
929.000000	0.410444
930.000000	0.409983
931.000000	0.409721
932.000000	0.409446
933.000000	0.409168
934.000000	0.409004
935.000000	0.408677
936.000000	0.408392
937.000000	0.408179
938.000000	0.407792
939.000000	0.407388
940.000000	0.406985
941.000000	0.406717
942.000000	0.406336
943.000000	0.406189
944.000000	0.406204
945.000000	0.406022
946.000000	0.405610
947.000000	0.405241
948.000000	0.405100
949.000000	0.404927
950.000000	0.404632
951.000000	0.404244
952.000000	0.404052
953.000000	0.403735
954.000000	0.403400
955.000000	0.403034
956.000000	0.402463
957.000000	0.402182
958.000000	0.402033
959.000000	0.401784
960.000000	0.401553
961.000000	0.401363
962.000000	0.401200
963.000000	0.401092
964.000000	0.400881
965.000000	0.400762
966.000000	0.400669
967.000000	0.400189
968.000000	0.400109
969.000000	0.400203
970.000000	0.399999
971.000000	0.399890
972.000000	0.399639
973.000000	0.399270
974.000000	0.399415
975.000000	0.399287
976.000000	0.399009
977.000000	0.398819
978.000000	0.398709
979.000000	0.398689
980.000000	0.398446
981.000000	0.398231
982.000000	0.398180
983.000000	0.397985
984.000000	0.397768
985.000000	0.397893
986.000000	0.397840
987.000000	0.397661
988.000000	0.397416
989.000000	0.397500
990.000000	0.397576
991.000000	0.397762
992.000000	0.398206
993.000000	0.398103
994.000000	0.397799
995.000000	0.397662
996.000000	0.397518
997.000000	0.397655
998.000000	0.397877
999.000000	0.398068
1000.000000	0.397989
1001.000000	0.398098
1002.000000	0.398182
1003.000000	0.397653
1004.000000	0.397284
1005.000000	0.396642
1006.000000	0.396644
1007.000000	0.397065
1008.000000	0.397338
1009.000000	0.397436
1010.000000	0.396966
1011.000000	0.397301
1012.000000	0.397812
1013.000000	0.397978
1014.000000	0.398353
1015.000000	0.397597
1016.000000	0.396871
1017.000000	0.397025
1018.000000	0.397482
1019.000000	0.397837
1020.000000	0.398896
1021.000000	0.398887
1022.000000	0.398318
1023.000000	0.398625
1024.000000	0.398910
1025.000000	0.399336
1026.000000	0.399919
1027.000000	0.399965
1028.000000	0.400084
1029.000000	0.400174
1030.000000	0.399867
1031.000000	0.399734
1032.000000	0.399028
1033.000000	0.398767
1034.000000	0.399074
1035.000000	0.400244
1036.000000	0.400616
1037.000000	0.401141
1038.000000	0.401435
1039.000000	0.401505
1040.000000	0.401365
1041.000000	0.401587
1042.000000	0.401927
1043.000000	0.401558
1044.000000	0.402126
1045.000000	0.402670
1046.000000	0.402542
1047.000000	0.402752
1048.000000	0.402827
1049.000000	0.402942
1050.000000	0.403188
1051.000000	0.403429
1052.000000	0.403699
1053.000000	0.403901
1054.000000	0.404305
1055.000000	0.404647
1056.000000	0.405046
1057.000000	0.405220
1058.000000	0.405584
1059.000000	0.405504
1060.000000	0.405402
1061.000000	0.405787
1062.000000	0.405725
1063.000000	0.406196
1064.000000	0.406764
1065.000000	0.407665
1066.000000	0.408013
1067.000000	0.408250
1068.000000	0.408470
1069.000000	0.408173
1070.000000	0.408317
1071.000000	0.409126
1072.000000	0.409334
1073.000000	0.409228
1074.000000	0.409377
1075.000000	0.409349
1076.000000	0.409472
1077.000000	0.410647
1078.000000	0.411767
1079.000000	0.412247
1080.000000	0.412631
1081.000000	0.412934
1082.000000	0.412738
1083.000000	0.412791
1084.000000	0.413329
1085.000000	0.413383
1086.000000	0.412550
1087.000000	0.412639
1088.000000	0.413052
1089.000000	0.413324
1090.000000	0.413717
1091.000000	0.414701
1092.000000	0.415147
1093.000000	0.415241
1094.000000	0.415446
1095.000000	0.415463
1096.000000	0.415768
1097.000000	0.416199
1098.000000	0.416468
1099.000000	0.416739
1100.000000	0.417105
1101.000000	0.417284
1102.000000	0.417495
1103.000000	0.417884
1104.000000	0.418190
1105.000000	0.418162
1106.000000	0.418474
1107.000000	0.419211
1108.000000	0.419467
1109.000000	0.419648
1110.000000	0.419778
1111.000000	0.420013
1112.000000	0.419976
1113.000000	0.420217
1114.000000	0.420850
1115.000000	0.421143
1116.000000	0.421170
1117.000000	0.421460
1118.000000	0.421742
1119.000000	0.422100
1120.000000	0.422882
1121.000000	0.423124
1122.000000	0.423076
1123.000000	0.423519
1124.000000	0.423585
1125.000000	0.423783
1126.000000	0.424220
1127.000000	0.424552
1128.000000	0.424819
1129.000000	0.424978
1130.000000	0.425217
1131.000000	0.425564
1132.000000	0.425742
1133.000000	0.425927
1134.000000	0.426048
1135.000000	0.425976
1136.000000	0.426017
1137.000000	0.426085
1138.000000	0.426044
1139.000000	0.426049
1140.000000	0.426220
1141.000000	0.426277
1142.000000	0.426442
1143.000000	0.426977
1144.000000	0.427200
1145.000000	0.426893
1146.000000	0.426616
1147.000000	0.426544
1148.000000	0.426132
1149.000000	0.426165
1150.000000	0.426651
1151.000000	0.426927
1152.000000	0.427161
1153.000000	0.427368
1154.000000	0.427510
1155.000000	0.427673
1156.000000	0.427797
1157.000000	0.427963
1158.000000	0.428157
1159.000000	0.428290
1160.000000	0.428380
1161.000000	0.428423
1162.000000	0.428385
1163.000000	0.428626
1164.000000	0.428830
1165.000000	0.429142
1166.000000	0.429482
1167.000000	0.429944
1168.000000	0.430175
1169.000000	0.430361
1170.000000	0.430570
1171.000000	0.430802
1172.000000	0.430991
1173.000000	0.431051
1174.000000	0.431245
1175.000000	0.431404
1176.000000	0.431535
1177.000000	0.431962
1178.000000	0.432154
1179.000000	0.432136
1180.000000	0.432143
1181.000000	0.432252
1182.000000	0.432156
1183.000000	0.432307
1184.000000	0.432692
1185.000000	0.432874
1186.000000	0.433080
1187.000000	0.433239
1188.000000	0.433266
1189.000000	0.433333
1190.000000	0.433484
1191.000000	0.433637
1192.000000	0.433909
1193.000000	0.434273
1194.000000	0.434603
1195.000000	0.434842
1196.000000	0.434947
1197.000000	0.435105
1198.000000	0.435182
1199.000000	0.435402
1200.000000	0.435778
1201.000000	0.436044
1202.000000	0.436316
1203.000000	0.436566
1204.000000	0.436629
1205.000000	0.436833
1206.000000	0.436956
1207.000000	0.437176
1208.000000	0.437321
1209.000000	0.437519
1210.000000	0.437690
1211.000000	0.437787
1212.000000	0.438012
1213.000000	0.438448
1214.000000	0.438680
1215.000000	0.438807
1216.000000	0.439026
1217.000000	0.439153
1218.000000	0.439241
1219.000000	0.439386
1220.000000	0.439654
1221.000000	0.439788
1222.000000	0.439809
1223.000000	0.440025
1224.000000	0.440370
1225.000000	0.440679
1226.000000	0.441116
1227.000000	0.441505
1228.000000	0.441847
1229.000000	0.442041
1230.000000	0.442035
1231.000000	0.442092
1232.000000	0.442259
1233.000000	0.442491
1234.000000	0.442709
1235.000000	0.442939
1236.000000	0.442976
1237.000000	0.443298
1238.000000	0.443829
1239.000000	0.444165
1240.000000	0.444529
1241.000000	0.444914
1242.000000	0.445091
1243.000000	0.445088
1244.000000	0.445236
1245.000000	0.445316
1246.000000	0.445341
1247.000000	0.445763
1248.000000	0.446108
1249.000000	0.446331
1250.000000	0.446662
1251.000000	0.446852
1252.000000	0.447035
1253.000000	0.447289
1254.000000	0.447511
1255.000000	0.447641
1256.000000	0.447818
1257.000000	0.448003
1258.000000	0.448261
1259.000000	0.448415
1260.000000	0.448770
1261.000000	0.449330
1262.000000	0.449639
1263.000000	0.449927
1264.000000	0.450164
1265.000000	0.450225
1266.000000	0.450335
1267.000000	0.450641
1268.000000	0.450904
1269.000000	0.451189
1270.000000	0.451438
1271.000000	0.451635
1272.000000	0.451917
1273.000000	0.452118
1274.000000	0.452307
1275.000000	0.452499
1276.000000	0.452742
1277.000000	0.453036
1278.000000	0.453249
1279.000000	0.453374
1280.000000	0.453331
1281.000000	0.453414
1282.000000	0.453516
1283.000000	0.453808
1284.000000	0.454244
1285.000000	0.454554
1286.000000	0.454825
1287.000000	0.455076
1288.000000	0.455229
1289.000000	0.455320
1290.000000	0.455432
1291.000000	0.455610
1292.000000	0.455805
1293.000000	0.456083
1294.000000	0.456229
1295.000000	0.456237
1296.000000	0.456346
1297.000000	0.456474
1298.000000	0.456637
1299.000000	0.456834
1300.000000	0.457050
1301.000000	0.457129
1302.000000	0.457161
1303.000000	0.457313
1304.000000	0.457396
1305.000000	0.457585
1306.000000	0.457651
1307.000000	0.457689
1308.000000	0.457758
1309.000000	0.457803
1310.000000	0.457804
1311.000000	0.457826
1312.000000	0.457865
1313.000000	0.457795
1314.000000	0.457636
1315.000000	0.457426
1316.000000	0.457274
1317.000000	0.457314
1318.000000	0.457325
1319.000000	0.457300
1320.000000	0.457433
1321.000000	0.457367
1322.000000	0.457222
1323.000000	0.457270
1324.000000	0.457233
1325.000000	0.457154
1326.000000	0.457202
1327.000000	0.457138
1328.000000	0.457181
1329.000000	0.457127
1330.000000	0.456982
1331.000000	0.456975
1332.000000	0.457118
1333.000000	0.457157
1334.000000	0.457366
1335.000000	0.457456
1336.000000	0.457446
1337.000000	0.457384
1338.000000	0.457192
1339.000000	0.456972
1340.000000	0.456739
1341.000000	0.456542
1342.000000	0.456466
1343.000000	0.456392
1344.000000	0.456309
1345.000000	0.456265
1346.000000	0.456275
1347.000000	0.456051
1348.000000	0.455919
1349.000000	0.455775
1350.000000	0.455601
1351.000000	0.455473
1352.000000	0.455330
1353.000000	0.455114
1354.000000	0.454831
1355.000000	0.454570
1356.000000	0.454514
1357.000000	0.454152
1358.000000	0.453709
1359.000000	0.453459
1360.000000	0.453219
1361.000000	0.452999
1362.000000	0.452810
1363.000000	0.452750
1364.000000	0.452581
1365.000000	0.452259
1366.000000	0.451998
1367.000000	0.451790
1368.000000	0.451449
1369.000000	0.451202
1370.000000	0.450827
1371.000000	0.450381
1372.000000	0.449975
1373.000000	0.449449
1374.000000	0.448939
1375.000000	0.448375
1376.000000	0.447801
1377.000000	0.447198
1378.000000	0.446392
1379.000000	0.445354
1380.000000	0.444375
1381.000000	0.443229
1382.000000	0.441849
1383.000000	0.440715
1384.000000	0.439256
1385.000000	0.437444
1386.000000	0.435892
1387.000000	0.434162
1388.000000	0.432057
1389.000000	0.429970
1390.000000	0.427784
1391.000000	0.425282
1392.000000	0.422741
1393.000000	0.420053
1394.000000	0.417319
1395.000000	0.414429
1396.000000	0.411369
1397.000000	0.408158
1398.000000	0.404706
1399.000000	0.401416
1400.000000	0.397926
1401.000000	0.394713
1402.000000	0.391766
1403.000000	0.388737
1404.000000	0.385825
1405.000000	0.383226
1406.000000	0.380604
1407.000000	0.378137
1408.000000	0.375904
1409.000000	0.373863
1410.000000	0.372169
1411.000000	0.370531
1412.000000	0.368949
1413.000000	0.367636
1414.000000	0.366282
1415.000000	0.365123
1416.000000	0.364123
1417.000000	0.363162
1418.000000	0.362321
1419.000000	0.361489
1420.000000	0.360693
1421.000000	0.360010
1422.000000	0.359243
1423.000000	0.358560
1424.000000	0.357798
1425.000000	0.357070
1426.000000	0.356405
1427.000000	0.355838
1428.000000	0.355268
1429.000000	0.354645
1430.000000	0.354141
1431.000000	0.353647
1432.000000	0.353130
1433.000000	0.352691
1434.000000	0.352260
1435.000000	0.351841
1436.000000	0.351520
1437.000000	0.351263
1438.000000	0.351036
1439.000000	0.350849
1440.000000	0.350874
1441.000000	0.350969
1442.000000	0.351328
1443.000000	0.351847
1444.000000	0.352510
1445.000000	0.353253
1446.000000	0.354081
1447.000000	0.354936
1448.000000	0.355791
1449.000000	0.356778
1450.000000	0.357824
1451.000000	0.358774
1452.000000	0.359576
1453.000000	0.360213
1454.000000	0.360710
1455.000000	0.361261
1456.000000	0.361914
1457.000000	0.362597
1458.000000	0.363198
1459.000000	0.363736
1460.000000	0.364219
1461.000000	0.364581
1462.000000	0.364981
1463.000000	0.365309
1464.000000	0.365660
1465.000000	0.366261
1466.000000	0.366835
1467.000000	0.367469
1468.000000	0.368154
1469.000000	0.368714
1470.000000	0.369200
1471.000000	0.369740
1472.000000	0.370286
1473.000000	0.371062
1474.000000	0.371868
1475.000000	0.372587
1476.000000	0.373321
1477.000000	0.373923
1478.000000	0.374515
1479.000000	0.375312
1480.000000	0.376133
1481.000000	0.376912
1482.000000	0.377780
1483.000000	0.378674
1484.000000	0.379581
1485.000000	0.380435
1486.000000	0.381268
1487.000000	0.382129
1488.000000	0.382962
1489.000000	0.383815
1490.000000	0.384612
1491.000000	0.385426
1492.000000	0.386167
1493.000000	0.386923
1494.000000	0.387596
1495.000000	0.388316
1496.000000	0.389059
1497.000000	0.389728
1498.000000	0.390375
1499.000000	0.391148
1500.000000	0.391789
1501.000000	0.392404
1502.000000	0.393119
1503.000000	0.393738
1504.000000	0.394334
1505.000000	0.394998
1506.000000	0.395620
1507.000000	0.396148
1508.000000	0.396728
1509.000000	0.397156
1510.000000	0.397503
1511.000000	0.398134
1512.000000	0.398736
1513.000000	0.399239
1514.000000	0.399782
1515.000000	0.400130
1516.000000	0.400479
1517.000000	0.400920
1518.000000	0.401377
1519.000000	0.401740
1520.000000	0.402154
1521.000000	0.402545
1522.000000	0.402900
1523.000000	0.403321
1524.000000	0.403636
1525.000000	0.403995
1526.000000	0.404354
1527.000000	0.404680
1528.000000	0.405089
1529.000000	0.405330
1530.000000	0.405425
1531.000000	0.405652
1532.000000	0.405785
1533.000000	0.405966
1534.000000	0.406325
1535.000000	0.406618
1536.000000	0.406947
1537.000000	0.407392
1538.000000	0.407694
1539.000000	0.407983
1540.000000	0.408315
1541.000000	0.408617
1542.000000	0.408969
1543.000000	0.409280
1544.000000	0.409511
1545.000000	0.409772
1546.000000	0.410051
1547.000000	0.410295
1548.000000	0.410398
1549.000000	0.410479
1550.000000	0.410548
1551.000000	0.410560
1552.000000	0.410765
1553.000000	0.411021
1554.000000	0.411231
1555.000000	0.411548
1556.000000	0.411770
1557.000000	0.411806
1558.000000	0.411955
1559.000000	0.412006
1560.000000	0.412100
1561.000000	0.412352
1562.000000	0.412428
1563.000000	0.412435
1564.000000	0.412483
1565.000000	0.412463
1566.000000	0.412444
1567.000000	0.412592
1568.000000	0.412698
1569.000000	0.412862
1570.000000	0.412982
1571.000000	0.413035
1572.000000	0.413166
1573.000000	0.413387
1574.000000	0.413498
1575.000000	0.413678
1576.000000	0.413808
1577.000000	0.413704
1578.000000	0.413764
1579.000000	0.414020
1580.000000	0.414180
1581.000000	0.414484
1582.000000	0.414659
1583.000000	0.414748
1584.000000	0.414758
1585.000000	0.414767
1586.000000	0.414824
1587.000000	0.414823
1588.000000	0.414933
1589.000000	0.415180
1590.000000	0.415285
1591.000000	0.415377
1592.000000	0.415494
1593.000000	0.415626
1594.000000	0.415685
1595.000000	0.415785
1596.000000	0.415954
1597.000000	0.416137
1598.000000	0.416207
1599.000000	0.416409
1600.000000	0.416408
1601.000000	0.416249
1602.000000	0.416254
1603.000000	0.416325
1604.000000	0.416372
1605.000000	0.416484
1606.000000	0.416578
1607.000000	0.416687
1608.000000	0.416846
1609.000000	0.417178
1610.000000	0.417337
1611.000000	0.417480
1612.000000	0.417628
1613.000000	0.417803
1614.000000	0.417974
1615.000000	0.418274
1616.000000	0.418496
1617.000000	0.418571
1618.000000	0.418713
1619.000000	0.418816
1620.000000	0.418988
1621.000000	0.419281
1622.000000	0.419594
1623.000000	0.419935
1624.000000	0.420125
1625.000000	0.420064
1626.000000	0.420110
1627.000000	0.420083
1628.000000	0.420216
1629.000000	0.420485
1630.000000	0.420711
1631.000000	0.420906
1632.000000	0.421054
1633.000000	0.421151
1634.000000	0.421366
1635.000000	0.421679
1636.000000	0.421889
1637.000000	0.422162
1638.000000	0.422388
1639.000000	0.422596
1640.000000	0.422811
1641.000000	0.423138
1642.000000	0.423431
1643.000000	0.423757
1644.000000	0.423986
1645.000000	0.424184
1646.000000	0.424335
1647.000000	0.424398
1648.000000	0.424551
1649.000000	0.424951
1650.000000	0.425140
1651.000000	0.425234
1652.000000	0.425500
1653.000000	0.425682
1654.000000	0.425949
1655.000000	0.426318
1656.000000	0.426515
1657.000000	0.426683
1658.000000	0.426901
1659.000000	0.427292
1660.000000	0.427641
1661.000000	0.427877
1662.000000	0.428140
1663.000000	0.428383
1664.000000	0.428562
1665.000000	0.428659
1666.000000	0.428973
1667.000000	0.429243
1668.000000	0.429530
1669.000000	0.429883
1670.000000	0.430128
1671.000000	0.430474
1672.000000	0.430755
1673.000000	0.430994
1674.000000	0.431225
1675.000000	0.431339
1676.000000	0.431665
1677.000000	0.431956
1678.000000	0.432049
1679.000000	0.432262
1680.000000	0.432243
1681.000000	0.432176
1682.000000	0.432332
1683.000000	0.432421
1684.000000	0.432503
1685.000000	0.432711
1686.000000	0.432737
1687.000000	0.432711
1688.000000	0.432676
1689.000000	0.432658
1690.000000	0.432775
1691.000000	0.433015
1692.000000	0.433123
1693.000000	0.433163
1694.000000	0.433150
1695.000000	0.433163
1696.000000	0.433318
1697.000000	0.433350
1698.000000	0.433386
1699.000000	0.433438
1700.000000	0.433382
1701.000000	0.433563
1702.000000	0.433650
1703.000000	0.433725
1704.000000	0.434092
1705.000000	0.434245
1706.000000	0.434254
1707.000000	0.434391
1708.000000	0.434463
1709.000000	0.434511
1710.000000	0.434838
1711.000000	0.434996
1712.000000	0.435069
1713.000000	0.435115
1714.000000	0.435062
1715.000000	0.435165
1716.000000	0.435410
1717.000000	0.435512
1718.000000	0.435528
1719.000000	0.435638
1720.000000	0.435805
1721.000000	0.435914
1722.000000	0.436212
1723.000000	0.436245
1724.000000	0.436015
1725.000000	0.436002
1726.000000	0.435828
1727.000000	0.435821
1728.000000	0.435933
1729.000000	0.435869
1730.000000	0.435937
1731.000000	0.435997
1732.000000	0.436041
1733.000000	0.436135
1734.000000	0.436072
1735.000000	0.436138
1736.000000	0.436192
1737.000000	0.436244
1738.000000	0.436383
1739.000000	0.436521
1740.000000	0.436616
1741.000000	0.436677
1742.000000	0.436828
1743.000000	0.436888
1744.000000	0.436819
1745.000000	0.436741
1746.000000	0.436597
1747.000000	0.436679
1748.000000	0.436585
1749.000000	0.436473
1750.000000	0.436386
1751.000000	0.436391
1752.000000	0.436458
1753.000000	0.436409
1754.000000	0.436424
1755.000000	0.436431
1756.000000	0.436305
1757.000000	0.436090
1758.000000	0.436032
1759.000000	0.435890
1760.000000	0.435815
1761.000000	0.435866
1762.000000	0.435911
1763.000000	0.436026
1764.000000	0.436006
1765.000000	0.435906
1766.000000	0.435871
1767.000000	0.435563
1768.000000	0.435439
1769.000000	0.435713
1770.000000	0.435748
1771.000000	0.435600
1772.000000	0.435578
1773.000000	0.435338
1774.000000	0.435440
1775.000000	0.436038
1776.000000	0.436110
1777.000000	0.436048
1778.000000	0.435950
1779.000000	0.435485
1780.000000	0.435292
1781.000000	0.435148
1782.000000	0.435206
1783.000000	0.435412
1784.000000	0.435812
1785.000000	0.436097
1786.000000	0.436163
1787.000000	0.436236
1788.000000	0.436419
1789.000000	0.436508
1790.000000	0.436685
1791.000000	0.436668
1792.000000	0.436491
1793.000000	0.436446
1794.000000	0.436375
1795.000000	0.436433
1796.000000	0.436698
1797.000000	0.436797
1798.000000	0.436829
1799.000000	0.436940
1800.000000	0.437090
1801.000000	0.436569
1802.000000	0.437213
1803.000000	0.437077
1804.000000	0.437213
1805.000000	0.437224
1806.000000	0.437205
1807.000000	0.437186
1808.000000	0.436905
1809.000000	0.436106
1810.000000	0.435641
1811.000000	0.435663
1812.000000	0.435924
1813.000000	0.435956
1814.000000	0.436606
1815.000000	0.436633
1816.000000	0.436036
1817.000000	0.435625
1818.000000	0.434555
1819.000000	0.435366
1820.000000	0.435706
1821.000000	0.434837
1822.000000	0.434642
1823.000000	0.434297
1824.000000	0.434138
1825.000000	0.433989
1826.000000	0.434198
1827.000000	0.435160
1828.000000	0.434913
1829.000000	0.434320
1830.000000	0.434044
1831.000000	0.433618
1832.000000	0.432410
1833.000000	0.432252
1834.000000	0.432815
1835.000000	0.433142
1836.000000	0.433932
1837.000000	0.434031
1838.000000	0.434189
1839.000000	0.433374
1840.000000	0.431458
1841.000000	0.429596
1842.000000	0.428567
1843.000000	0.427471
1844.000000	0.426872
1845.000000	0.427398
1846.000000	0.427250
1847.000000	0.427007
1848.000000	0.425751
1849.000000	0.424694
1850.000000	0.424069
1851.000000	0.423861
1852.000000	0.424064
1853.000000	0.423974
1854.000000	0.424440
1855.000000	0.423868
1856.000000	0.422448
1857.000000	0.421006
1858.000000	0.419609
1859.000000	0.417581
1860.000000	0.415763
1861.000000	0.414111
1862.000000	0.412208
1863.000000	0.410324
1864.000000	0.408179
1865.000000	0.405690
1866.000000	0.403331
1867.000000	0.400977
1868.000000	0.398445
1869.000000	0.395390
1870.000000	0.392521
1871.000000	0.388482
1872.000000	0.384576
1873.000000	0.380974
1874.000000	0.377367
1875.000000	0.373751
1876.000000	0.370664
1877.000000	0.366111
1878.000000	0.360645
1879.000000	0.355208
1880.000000	0.349114
1881.000000	0.343494
1882.000000	0.338093
1883.000000	0.332526
1884.000000	0.326338
1885.000000	0.319121
1886.000000	0.311847
1887.000000	0.304099
1888.000000	0.296197
1889.000000	0.288323
1890.000000	0.281600
1891.000000	0.274678
1892.000000	0.267545
1893.000000	0.260398
1894.000000	0.252328
1895.000000	0.244819
1896.000000	0.237444
1897.000000	0.230490
1898.000000	0.223796
1899.000000	0.218285
1900.000000	0.213114
1901.000000	0.208121
1902.000000	0.203447
1903.000000	0.198975
1904.000000	0.195795
1905.000000	0.193394
1906.000000	0.191014
1907.000000	0.189143
1908.000000	0.188166
1909.000000	0.186884
1910.000000	0.185783
1911.000000	0.185283
1912.000000	0.184568
1913.000000	0.184189
1914.000000	0.184184
1915.000000	0.184424
1916.000000	0.185027
1917.000000	0.185514
1918.000000	0.186282
1919.000000	0.186746
1920.000000	0.186959
1921.000000	0.187233
1922.000000	0.187969
1923.000000	0.188724
1924.000000	0.189600
1925.000000	0.190789
1926.000000	0.191463
1927.000000	0.191999
1928.000000	0.192733
1929.000000	0.193513
1930.000000	0.194559
1931.000000	0.195432
1932.000000	0.196533
1933.000000	0.197982
1934.000000	0.198204
1935.000000	0.198646
1936.000000	0.199463
1937.000000	0.199014
1938.000000	0.199061
1939.000000	0.199280
1940.000000	0.199567
1941.000000	0.199630
1942.000000	0.200508
1943.000000	0.200620
1944.000000	0.200557
1945.000000	0.200372
1946.000000	0.199871
1947.000000	0.200197
1948.000000	0.200532
1949.000000	0.200889
1950.000000	0.201393
1951.000000	0.201539
1952.000000	0.201443
1953.000000	0.201524
1954.000000	0.201299
1955.000000	0.200888
1956.000000	0.200465
1957.000000	0.200203
1958.000000	0.200574
1959.000000	0.200553
1960.000000	0.200236
1961.000000	0.199933
1962.000000	0.199660
1963.000000	0.199037
1964.000000	0.198660
1965.000000	0.199123
1966.000000	0.199822
1967.000000	0.200636
1968.000000	0.201816
1969.000000	0.202069
1970.000000	0.202059
1971.000000	0.201927
1972.000000	0.201573
1973.000000	0.201608
1974.000000	0.202092
1975.000000	0.202757
1976.000000	0.203483
1977.000000	0.204791
1978.000000	0.206661
1979.000000	0.207916
1980.000000	0.209325
1981.000000	0.210127
1982.000000	0.210200
1983.000000	0.210435
1984.000000	0.210715
1985.000000	0.210782
1986.000000	0.211372
1987.000000	0.212160
1988.000000	0.213264
1989.000000	0.214942
1990.000000	0.216318
1991.000000	0.217607
1992.000000	0.218997
1993.000000	0.219721
1994.000000	0.220171
1995.000000	0.220659
1996.000000	0.221173
1997.000000	0.222067
1998.000000	0.223554
1999.000000	0.224925
2000.000000	0.226601
2001.000000	0.227821
2002.000000	0.229249
2003.000000	0.230057
2004.000000	0.230878
2005.000000	0.231728
2006.000000	0.232498
2007.000000	0.233347
2008.000000	0.234360
2009.000000	0.235593
2010.000000	0.236688
2011.000000	0.237421
2012.000000	0.238829
2013.000000	0.240411
2014.000000	0.241971
2015.000000	0.244063
2016.000000	0.246147
2017.000000	0.247957
2018.000000	0.249841
2019.000000	0.251383
2020.000000	0.252679
2021.000000	0.254063
2022.000000	0.255049
2023.000000	0.256069
2024.000000	0.257337
2025.000000	0.258551
2026.000000	0.259452
2027.000000	0.260442
2028.000000	0.261333
2029.000000	0.262177
2030.000000	0.263085
2031.000000	0.264064
2032.000000	0.265785
2033.000000	0.267587
2034.000000	0.268932
2035.000000	0.270446
2036.000000	0.271458
2037.000000	0.271963
2038.000000	0.272549
2039.000000	0.272938
2040.000000	0.273426
2041.000000	0.274284
2042.000000	0.275661
2043.000000	0.276744
2044.000000	0.278149
2045.000000	0.279650
2046.000000	0.280376
2047.000000	0.281563
2048.000000	0.283121
2049.000000	0.284573
2050.000000	0.285904
2051.000000	0.286925
2052.000000	0.287732
2053.000000	0.288277
2054.000000	0.288547
2055.000000	0.288749
2056.000000	0.289485
2057.000000	0.290565
2058.000000	0.291585
2059.000000	0.293006
2060.000000	0.293782
2061.000000	0.294040
2062.000000	0.294725
2063.000000	0.295224
2064.000000	0.295822
2065.000000	0.297081
2066.000000	0.297885
2067.000000	0.298809
2068.000000	0.299584
2069.000000	0.300159
2070.000000	0.301409
2071.000000	0.302629
2072.000000	0.303799
2073.000000	0.305258
2074.000000	0.306553
2075.000000	0.307572
2076.000000	0.308332
2077.000000	0.309122
2078.000000	0.309753
2079.000000	0.310234
2080.000000	0.310570
2081.000000	0.311159
2082.000000	0.311687
2083.000000	0.312230
2084.000000	0.313289
2085.000000	0.314429
2086.000000	0.315501
2087.000000	0.316397
2088.000000	0.317099
2089.000000	0.318079
2090.000000	0.319111
2091.000000	0.320516
2092.000000	0.321508
2093.000000	0.322380
2094.000000	0.323231
2095.000000	0.323967
2096.000000	0.324598
2097.000000	0.325135
2098.000000	0.325753
2099.000000	0.325522
2100.000000	0.325766
2101.000000	0.326374
2102.000000	0.326492
2103.000000	0.327050
2104.000000	0.328117
2105.000000	0.328849
2106.000000	0.329527
2107.000000	0.330108
2108.000000	0.330276
2109.000000	0.330961
2110.000000	0.331659
2111.000000	0.332536
2112.000000	0.333817
2113.000000	0.334773
2114.000000	0.335539
2115.000000	0.336324
2116.000000	0.336644
2117.000000	0.337104
2118.000000	0.337842
2119.000000	0.337714
2120.000000	0.338020
2121.000000	0.338419
2122.000000	0.338948
2123.000000	0.339911
2124.000000	0.340352
2125.000000	0.340489
2126.000000	0.340650
2127.000000	0.339882
2128.000000	0.340163
2129.000000	0.340638
2130.000000	0.342494
2131.000000	0.343592
2132.000000	0.344860
2133.000000	0.345726
2134.000000	0.345564
2135.000000	0.345160
2136.000000	0.345072
2137.000000	0.345478
2138.000000	0.346168
2139.000000	0.346733
2140.000000	0.348168
2141.000000	0.348549
2142.000000	0.348386
2143.000000	0.347782
2144.000000	0.346282
2145.000000	0.345812
2146.000000	0.345451
2147.000000	0.345359
2148.000000	0.346437
2149.000000	0.348342
2150.000000	0.349726
2151.000000	0.350346
2152.000000	0.350704
2153.000000	0.350266
2154.000000	0.350282
2155.000000	0.350524
2156.000000	0.350307
2157.000000	0.349459
2158.000000	0.349624
2159.000000	0.350245
2160.000000	0.350822
2161.000000	0.352447
2162.000000	0.353163
2163.000000	0.353117
2164.000000	0.352819
2165.000000	0.351814
2166.000000	0.351328
2167.000000	0.351007
2168.000000	0.350184
2169.000000	0.350035
2170.000000	0.351262
2171.000000	0.351947
2172.000000	0.352976
2173.000000	0.353426
2174.000000	0.353526
2175.000000	0.353773
2176.000000	0.354167
2177.000000	0.354359
2178.000000	0.354554
2179.000000	0.354809
2180.000000	0.354622
2181.000000	0.354753
2182.000000	0.354753
2183.000000	0.354264
2184.000000	0.353471
2185.000000	0.352655
2186.000000	0.351654
2187.000000	0.350831
2188.000000	0.350431
2189.000000	0.350302
2190.000000	0.350131
2191.000000	0.350807
2192.000000	0.350417
2193.000000	0.349256
2194.000000	0.348371
2195.000000	0.346679
2196.000000	0.346282
2197.000000	0.347131
2198.000000	0.347093
2199.000000	0.347500
2200.000000	0.347455
2201.000000	0.346082
2202.000000	0.345695
2203.000000	0.346186
2204.000000	0.345712
2205.000000	0.344625
2206.000000	0.345556
2207.000000	0.344115
2208.000000	0.343600
2209.000000	0.343881
2210.000000	0.342092
2211.000000	0.340030
2212.000000	0.339294
2213.000000	0.339019
2214.000000	0.339136
2215.000000	0.339143
2216.000000	0.339429
2217.000000	0.340560
2218.000000	0.343080
2219.000000	0.342896
2220.000000	0.341751
2221.000000	0.342193
2222.000000	0.339968
2223.000000	0.340497
2224.000000	0.344729
2225.000000	0.348104
2226.000000	0.348198
2227.000000	0.347480
2228.000000	0.345132
2229.000000	0.341940
2230.000000	0.340551
2231.000000	0.341191
2232.000000	0.339315
2233.000000	0.338105
2234.000000	0.337611
2235.000000	0.335944
2236.000000	0.335091
2237.000000	0.335267
2238.000000	0.335199
2239.000000	0.335357
2240.000000	0.334608
2241.000000	0.334099
2242.000000	0.333589
2243.000000	0.331609
2244.000000	0.330672
2245.000000	0.330693
2246.000000	0.330224
2247.000000	0.329232
2248.000000	0.328714
2249.000000	0.329049
2250.000000	0.328247
2251.000000	0.328282
2252.000000	0.328325
2253.000000	0.325658
2254.000000	0.326013
2255.000000	0.327014
2256.000000	0.328352
2257.000000	0.331146
2258.000000	0.333095
2259.000000	0.333983
2260.000000	0.333245
2261.000000	0.331838
2262.000000	0.329516
2263.000000	0.326745
2264.000000	0.321519
2265.000000	0.319941
2266.000000	0.320343
2267.000000	0.320270
2268.000000	0.322016
2269.000000	0.321974
2270.000000	0.321464
2271.000000	0.319387
2272.000000	0.315652
2273.000000	0.313149
2274.000000	0.309327
2275.000000	0.306386
2276.000000	0.303842
2277.000000	0.303811
2278.000000	0.301119
2279.000000	0.297642
2280.000000	0.295110
2281.000000	0.289228
2282.000000	0.284998
2283.000000	0.282184
2284.000000	0.278485
2285.000000	0.277434
2286.000000	0.277071
2287.000000	0.276643
2288.000000	0.276191
2289.000000	0.275773
2290.000000	0.273042
2291.000000	0.269420
2292.000000	0.268832
2293.000000	0.265004
2294.000000	0.262125
2295.000000	0.260645
2296.000000	0.259051
2297.000000	0.255637
2298.000000	0.254671
2299.000000	0.255072
2300.000000	0.256070
2301.000000	0.258454
2302.000000	0.260126
2303.000000	0.263248
2304.000000	0.264292
2305.000000	0.264103
2306.000000	0.264126
2307.000000	0.262962
2308.000000	0.262650
2309.000000	0.262855
2310.000000	0.264851
2311.000000	0.270029
2312.000000	0.272982
2313.000000	0.276908
2314.000000	0.280002
2315.000000	0.281341
2316.000000	0.282877
2317.000000	0.281859
2318.000000	0.280436
2319.000000	0.279390
2320.000000	0.280406
2321.000000	0.282817
2322.000000	0.283662
2323.000000	0.284400
2324.000000	0.282858
2325.000000	0.280645
2326.000000	0.281041
2327.000000	0.279777
2328.000000	0.279208
2329.000000	0.279174
2330.000000	0.276777
2331.000000	0.275536
2332.000000	0.273997
2333.000000	0.271764
2334.000000	0.271592
2335.000000	0.272118
2336.000000	0.273052
2337.000000	0.273827
2338.000000	0.276925
2339.000000	0.276322
2340.000000	0.274269
2341.000000	0.272613
2342.000000	0.267564
2343.000000	0.264730
2344.000000	0.264167
2345.000000	0.260709
2346.000000	0.255423
2347.000000	0.253373
2348.000000	0.251956
2349.000000	0.249357
2350.000000	0.249727
2351.000000	0.250160
2352.000000	0.245827
2353.000000	0.244231
2354.000000	0.244044
2355.000000	0.243364
2356.000000	0.245820
2357.000000	0.247436
2358.000000	0.246030
2359.000000	0.245450
2360.000000	0.244943
2361.000000	0.241152
2362.000000	0.239887
2363.000000	0.238736
2364.000000	0.234603
2365.000000	0.234322
2366.000000	0.232312
2367.000000	0.229619
2368.000000	0.231823
2369.000000	0.232626
2370.000000	0.230565
2371.000000	0.229034
2372.000000	0.225118
2373.000000	0.217715
2374.000000	0.213930
2375.000000	0.212517
2376.000000	0.212344
2377.000000	0.214729
2378.000000	0.217200
2379.000000	0.217520
2380.000000	0.214930
2381.000000	0.213863
2382.000000	0.209937
2383.000000	0.205637
2384.000000	0.203961
2385.000000	0.200050
2386.000000	0.199108
2387.000000	0.200476
2388.000000	0.201532
2389.000000	0.200410
2390.000000	0.196008
2391.000000	0.191245
2392.000000	0.189411
2393.000000	0.191898
2394.000000	0.197635
2395.000000	0.205942
2396.000000	0.208407
2397.000000	0.206210
2398.000000	0.201215
2399.000000	0.190121
2400.000000	0.181302
2401.000000	0.177594
2402.000000	0.176893
2403.000000	0.178025
2404.000000	0.177273
2405.000000	0.173408
2406.000000	0.167485
2407.000000	0.160283
2408.000000	0.166179
2409.000000	0.179475
2410.000000	0.188454
2411.000000	0.200647
2412.000000	0.200956
2413.000000	0.191182
2414.000000	0.183625
2415.000000	0.181497
2416.000000	0.186099
2417.000000	0.182344
2418.000000	0.179678
2419.000000	0.178748
2420.000000	0.168422
2421.000000	0.171718
2422.000000	0.182307
2423.000000	0.184487
2424.000000	0.185567
2425.000000	0.186222
2426.000000	0.183928
2427.000000	0.182904
2428.000000	0.190735
2429.000000	0.194638
2430.000000	0.191561
2431.000000	0.188688
2432.000000	0.181712
2433.000000	0.172026
2434.000000	0.165807
2435.000000	0.163779
2436.000000	0.159291
2437.000000	0.161481
2438.000000	0.166935
2439.000000	0.164716
2440.000000	0.166070
2441.000000	0.164948
2442.000000	0.169894
2443.000000	0.183012
2444.000000	0.190241
2445.000000	0.193453
2446.000000	0.184796
2447.000000	0.176660
2448.000000	0.169562
2449.000000	0.171145
2450.000000	0.176633
2451.000000	0.168432
2452.000000	0.175452
2453.000000	0.171502
2454.000000	0.163939
2455.000000	0.176796
2456.000000	0.171859
2457.000000	0.164497
2458.000000	0.167696
2459.000000	0.161973
2460.000000	0.146177
2461.000000	0.130051
2462.000000	0.125367
2463.000000	0.118038
2464.000000	0.120136
2465.000000	0.150924
2466.000000	0.175976
2467.000000	0.195755
2468.000000	0.207317
2469.000000	0.192388
2470.000000	0.172632
2471.000000	0.154565
2472.000000	0.147281
2473.000000	0.135248
2474.000000	0.117877
2475.000000	0.123499
2476.000000	0.131010
2477.000000	0.128743
2478.000000	0.150957
2479.000000	0.143654
2480.000000	0.107605
2481.000000	0.113766
2482.000000	0.111284
2483.000000	0.089729
2484.000000	0.095502
2485.000000	0.111362
2486.000000	0.111448
2487.000000	0.096819
2488.000000	0.096721
2489.000000	0.083678
2490.000000	0.053709
2491.000000	0.033051
2492.000000	0.033778
2493.000000	0.017638
2494.000000	0.027593
2495.000000	0.117126
2496.000000	0.147444
2497.000000	0.159452
2498.000000	0.146832
2499.000000	0.088220
2500.000000	0.022508
