# Wavelength	NAu-1-30_HEX-30_FV7-40_00002.asd.rts.txt
350.000000	0.180685
351.000000	0.171869
352.000000	0.161159
353.000000	0.155008
354.000000	0.156588
355.000000	0.166260
356.000000	0.171566
357.000000	0.169601
358.000000	0.160318
359.000000	0.154625
360.000000	0.156246
361.000000	0.164481
362.000000	0.169143
363.000000	0.165572
364.000000	0.156313
365.000000	0.161003
366.000000	0.164381
367.000000	0.162912
368.000000	0.162607
369.000000	0.165634
370.000000	0.169340
371.000000	0.169608
372.000000	0.165959
373.000000	0.163586
374.000000	0.165179
375.000000	0.164091
376.000000	0.166048
377.000000	0.169351
378.000000	0.164819
379.000000	0.167250
380.000000	0.171717
381.000000	0.169253
382.000000	0.167019
383.000000	0.168240
384.000000	0.172723
385.000000	0.172286
386.000000	0.171118
387.000000	0.171670
388.000000	0.174775
389.000000	0.176872
390.000000	0.177722
391.000000	0.178216
392.000000	0.180589
393.000000	0.182677
394.000000	0.182785
395.000000	0.182294
396.000000	0.183381
397.000000	0.185924
398.000000	0.187070
399.000000	0.187065
400.000000	0.186962
401.000000	0.188082
402.000000	0.188784
403.000000	0.189998
404.000000	0.192281
405.000000	0.192081
406.000000	0.193126
407.000000	0.196108
408.000000	0.196079
409.000000	0.196926
410.000000	0.198773
411.000000	0.199710
412.000000	0.199474
413.000000	0.199672
414.000000	0.201602
415.000000	0.201972
416.000000	0.202258
417.000000	0.203244
418.000000	0.203391
419.000000	0.203753
420.000000	0.204424
421.000000	0.204713
422.000000	0.205079
423.000000	0.205176
424.000000	0.204650
425.000000	0.204654
426.000000	0.205089
427.000000	0.205678
428.000000	0.206327
429.000000	0.206339
430.000000	0.205835
431.000000	0.206026
432.000000	0.206253
433.000000	0.206425
434.000000	0.206728
435.000000	0.206740
436.000000	0.206666
437.000000	0.206724
438.000000	0.206669
439.000000	0.206612
440.000000	0.206593
441.000000	0.206168
442.000000	0.205792
443.000000	0.205628
444.000000	0.205798
445.000000	0.205643
446.000000	0.205495
447.000000	0.205788
448.000000	0.206636
449.000000	0.207592
450.000000	0.208359
451.000000	0.209028
452.000000	0.210258
453.000000	0.212008
454.000000	0.213631
455.000000	0.215406
456.000000	0.217178
457.000000	0.218555
458.000000	0.220451
459.000000	0.222253
460.000000	0.223456
461.000000	0.224877
462.000000	0.226263
463.000000	0.227352
464.000000	0.228384
465.000000	0.229239
466.000000	0.229983
467.000000	0.230917
468.000000	0.231639
469.000000	0.232015
470.000000	0.232243
471.000000	0.232920
472.000000	0.233560
473.000000	0.233960
474.000000	0.234875
475.000000	0.235609
476.000000	0.236044
477.000000	0.236300
478.000000	0.236777
479.000000	0.237446
480.000000	0.237777
481.000000	0.237964
482.000000	0.238308
483.000000	0.238796
484.000000	0.239181
485.000000	0.239648
486.000000	0.240343
487.000000	0.240779
488.000000	0.241095
489.000000	0.241461
490.000000	0.242080
491.000000	0.242568
492.000000	0.242931
493.000000	0.243200
494.000000	0.243833
495.000000	0.244494
496.000000	0.244939
497.000000	0.245612
498.000000	0.246084
499.000000	0.246417
500.000000	0.247120
501.000000	0.247703
502.000000	0.248212
503.000000	0.248823
504.000000	0.249418
505.000000	0.250061
506.000000	0.250769
507.000000	0.251123
508.000000	0.251571
509.000000	0.252263
510.000000	0.252819
511.000000	0.253368
512.000000	0.253998
513.000000	0.254736
514.000000	0.255364
515.000000	0.256003
516.000000	0.256773
517.000000	0.257322
518.000000	0.257881
519.000000	0.258568
520.000000	0.259288
521.000000	0.260012
522.000000	0.260736
523.000000	0.261478
524.000000	0.262062
525.000000	0.262623
526.000000	0.263508
527.000000	0.264220
528.000000	0.264817
529.000000	0.265518
530.000000	0.266276
531.000000	0.267030
532.000000	0.267701
533.000000	0.268520
534.000000	0.269334
535.000000	0.270092
536.000000	0.270879
537.000000	0.271667
538.000000	0.272453
539.000000	0.273225
540.000000	0.273988
541.000000	0.274725
542.000000	0.275468
543.000000	0.276268
544.000000	0.277065
545.000000	0.277771
546.000000	0.278473
547.000000	0.279263
548.000000	0.280127
549.000000	0.280875
550.000000	0.281606
551.000000	0.282356
552.000000	0.283089
553.000000	0.283794
554.000000	0.284505
555.000000	0.285259
556.000000	0.286066
557.000000	0.286804
558.000000	0.287552
559.000000	0.288258
560.000000	0.288957
561.000000	0.289711
562.000000	0.290430
563.000000	0.291050
564.000000	0.291696
565.000000	0.292373
566.000000	0.292958
567.000000	0.293549
568.000000	0.294171
569.000000	0.294736
570.000000	0.295322
571.000000	0.295907
572.000000	0.296405
573.000000	0.296863
574.000000	0.297277
575.000000	0.297700
576.000000	0.298189
577.000000	0.298700
578.000000	0.299227
579.000000	0.299624
580.000000	0.299969
581.000000	0.300317
582.000000	0.300691
583.000000	0.301092
584.000000	0.301484
585.000000	0.301809
586.000000	0.302113
587.000000	0.302435
588.000000	0.302790
589.000000	0.303047
590.000000	0.303302
591.000000	0.303606
592.000000	0.303842
593.000000	0.304069
594.000000	0.304299
595.000000	0.304509
596.000000	0.304705
597.000000	0.304904
598.000000	0.305030
599.000000	0.305182
600.000000	0.305399
601.000000	0.305605
602.000000	0.305780
603.000000	0.305916
604.000000	0.306044
605.000000	0.306258
606.000000	0.306357
607.000000	0.306377
608.000000	0.306502
609.000000	0.306570
610.000000	0.306663
611.000000	0.306883
612.000000	0.307042
613.000000	0.307151
614.000000	0.307266
615.000000	0.307362
616.000000	0.307469
617.000000	0.307555
618.000000	0.307628
619.000000	0.307786
620.000000	0.307929
621.000000	0.307965
622.000000	0.308038
623.000000	0.308087
624.000000	0.308059
625.000000	0.308069
626.000000	0.308172
627.000000	0.308351
628.000000	0.308457
629.000000	0.308671
630.000000	0.308865
631.000000	0.309045
632.000000	0.309206
633.000000	0.309330
634.000000	0.309395
635.000000	0.309462
636.000000	0.309635
637.000000	0.309887
638.000000	0.309976
639.000000	0.310084
640.000000	0.310281
641.000000	0.310390
642.000000	0.310482
643.000000	0.310632
644.000000	0.310895
645.000000	0.311082
646.000000	0.311216
647.000000	0.311318
648.000000	0.311420
649.000000	0.311662
650.000000	0.311998
651.000000	0.312200
652.000000	0.312366
653.000000	0.312537
654.000000	0.312656
655.000000	0.312807
656.000000	0.313050
657.000000	0.313329
658.000000	0.313455
659.000000	0.313599
660.000000	0.313826
661.000000	0.314078
662.000000	0.314273
663.000000	0.314477
664.000000	0.314741
665.000000	0.314941
666.000000	0.315118
667.000000	0.315304
668.000000	0.315483
669.000000	0.315715
670.000000	0.316011
671.000000	0.316251
672.000000	0.316507
673.000000	0.316797
674.000000	0.317133
675.000000	0.317358
676.000000	0.317549
677.000000	0.317846
678.000000	0.318151
679.000000	0.318411
680.000000	0.318628
681.000000	0.318886
682.000000	0.319146
683.000000	0.319374
684.000000	0.319791
685.000000	0.320126
686.000000	0.320425
687.000000	0.320762
688.000000	0.320978
689.000000	0.321179
690.000000	0.321481
691.000000	0.321791
692.000000	0.322090
693.000000	0.322431
694.000000	0.322762
695.000000	0.323093
696.000000	0.323377
697.000000	0.323574
698.000000	0.323930
699.000000	0.324366
700.000000	0.324767
701.000000	0.325042
702.000000	0.325393
703.000000	0.325803
704.000000	0.326004
705.000000	0.326250
706.000000	0.326578
707.000000	0.327010
708.000000	0.327232
709.000000	0.327455
710.000000	0.327886
711.000000	0.328285
712.000000	0.328614
713.000000	0.328924
714.000000	0.329332
715.000000	0.329602
716.000000	0.329824
717.000000	0.330196
718.000000	0.330553
719.000000	0.330890
720.000000	0.331236
721.000000	0.331599
722.000000	0.331890
723.000000	0.332173
724.000000	0.332543
725.000000	0.332815
726.000000	0.333077
727.000000	0.333348
728.000000	0.333570
729.000000	0.333792
730.000000	0.334022
731.000000	0.334394
732.000000	0.334696
733.000000	0.334941
734.000000	0.335305
735.000000	0.335539
736.000000	0.335754
737.000000	0.335921
738.000000	0.336098
739.000000	0.336336
740.000000	0.336491
741.000000	0.336703
742.000000	0.336980
743.000000	0.337248
744.000000	0.337431
745.000000	0.337628
746.000000	0.337857
747.000000	0.338015
748.000000	0.338271
749.000000	0.338522
750.000000	0.338648
751.000000	0.338667
752.000000	0.338844
753.000000	0.339144
754.000000	0.339239
755.000000	0.339301
756.000000	0.339360
757.000000	0.339379
758.000000	0.339545
759.000000	0.339714
760.000000	0.339759
761.000000	0.339956
762.000000	0.340058
763.000000	0.340056
764.000000	0.340165
765.000000	0.340241
766.000000	0.340300
767.000000	0.340377
768.000000	0.340493
769.000000	0.340531
770.000000	0.340509
771.000000	0.340648
772.000000	0.340789
773.000000	0.340816
774.000000	0.340782
775.000000	0.340693
776.000000	0.340704
777.000000	0.340847
778.000000	0.340829
779.000000	0.340807
780.000000	0.340830
781.000000	0.340831
782.000000	0.340755
783.000000	0.340710
784.000000	0.340638
785.000000	0.340599
786.000000	0.340549
787.000000	0.340490
788.000000	0.340560
789.000000	0.340525
790.000000	0.340385
791.000000	0.340305
792.000000	0.340212
793.000000	0.340085
794.000000	0.339945
795.000000	0.339887
796.000000	0.339785
797.000000	0.339606
798.000000	0.339426
799.000000	0.339366
800.000000	0.339324
801.000000	0.339170
802.000000	0.339043
803.000000	0.338972
804.000000	0.338949
805.000000	0.338761
806.000000	0.338527
807.000000	0.338412
808.000000	0.338419
809.000000	0.338339
810.000000	0.338165
811.000000	0.337920
812.000000	0.337641
813.000000	0.337453
814.000000	0.337342
815.000000	0.337205
816.000000	0.336995
817.000000	0.336794
818.000000	0.336605
819.000000	0.336464
820.000000	0.336440
821.000000	0.336391
822.000000	0.336024
823.000000	0.335845
824.000000	0.335735
825.000000	0.335515
826.000000	0.335354
827.000000	0.335228
828.000000	0.335149
829.000000	0.335094
830.000000	0.334903
831.000000	0.334688
832.000000	0.334526
833.000000	0.334345
834.000000	0.334132
835.000000	0.333924
836.000000	0.333699
837.000000	0.333566
838.000000	0.333497
839.000000	0.333314
840.000000	0.333142
841.000000	0.332988
842.000000	0.332787
843.000000	0.332540
844.000000	0.332324
845.000000	0.332165
846.000000	0.332108
847.000000	0.331960
848.000000	0.331743
849.000000	0.331548
850.000000	0.331203
851.000000	0.330923
852.000000	0.330795
853.000000	0.330582
854.000000	0.330404
855.000000	0.330307
856.000000	0.330129
857.000000	0.329991
858.000000	0.329897
859.000000	0.329757
860.000000	0.329624
861.000000	0.329288
862.000000	0.328954
863.000000	0.328834
864.000000	0.328669
865.000000	0.328465
866.000000	0.328279
867.000000	0.328132
868.000000	0.328011
869.000000	0.327768
870.000000	0.327397
871.000000	0.327415
872.000000	0.327413
873.000000	0.327111
874.000000	0.326884
875.000000	0.326499
876.000000	0.326100
877.000000	0.325874
878.000000	0.325614
879.000000	0.325441
880.000000	0.325286
881.000000	0.325193
882.000000	0.324949
883.000000	0.324700
884.000000	0.324624
885.000000	0.324491
886.000000	0.324242
887.000000	0.323958
888.000000	0.323848
889.000000	0.323728
890.000000	0.323581
891.000000	0.323643
892.000000	0.323530
893.000000	0.323325
894.000000	0.323176
895.000000	0.322836
896.000000	0.322490
897.000000	0.322242
898.000000	0.322112
899.000000	0.321794
900.000000	0.321563
901.000000	0.321504
902.000000	0.321534
903.000000	0.321390
904.000000	0.321117
905.000000	0.320778
906.000000	0.320644
907.000000	0.320523
908.000000	0.320402
909.000000	0.320297
910.000000	0.320069
911.000000	0.319837
912.000000	0.319718
913.000000	0.319507
914.000000	0.319232
915.000000	0.318999
916.000000	0.318794
917.000000	0.318644
918.000000	0.318491
919.000000	0.318270
920.000000	0.318025
921.000000	0.317793
922.000000	0.317678
923.000000	0.317728
924.000000	0.317565
925.000000	0.317395
926.000000	0.317318
927.000000	0.316999
928.000000	0.316798
929.000000	0.316662
930.000000	0.316441
931.000000	0.316236
932.000000	0.316131
933.000000	0.316048
934.000000	0.315633
935.000000	0.315403
936.000000	0.315410
937.000000	0.315425
938.000000	0.315213
939.000000	0.315062
940.000000	0.314937
941.000000	0.314782
942.000000	0.314521
943.000000	0.314366
944.000000	0.314257
945.000000	0.314033
946.000000	0.313711
947.000000	0.313581
948.000000	0.313755
949.000000	0.313423
950.000000	0.313202
951.000000	0.313152
952.000000	0.312897
953.000000	0.312965
954.000000	0.312999
955.000000	0.312694
956.000000	0.312627
957.000000	0.312137
958.000000	0.311622
959.000000	0.311820
960.000000	0.311512
961.000000	0.311217
962.000000	0.311156
963.000000	0.311106
964.000000	0.310951
965.000000	0.310798
966.000000	0.310662
967.000000	0.310692
968.000000	0.310603
969.000000	0.310367
970.000000	0.310205
971.000000	0.309959
972.000000	0.309936
973.000000	0.310017
974.000000	0.309744
975.000000	0.309768
976.000000	0.309828
977.000000	0.309655
978.000000	0.309581
979.000000	0.309655
980.000000	0.309628
981.000000	0.309596
982.000000	0.309199
983.000000	0.308789
984.000000	0.308652
985.000000	0.308761
986.000000	0.308953
987.000000	0.308894
988.000000	0.308416
989.000000	0.308175
990.000000	0.308315
991.000000	0.308463
992.000000	0.308297
993.000000	0.308532
994.000000	0.308594
995.000000	0.308556
996.000000	0.308596
997.000000	0.308936
998.000000	0.309010
999.000000	0.308732
1000.000000	0.308591
1001.000000	0.309137
1002.000000	0.309088
1003.000000	0.308108
1004.000000	0.307622
1005.000000	0.307257
1006.000000	0.306929
1007.000000	0.306739
1008.000000	0.306469
1009.000000	0.306750
1010.000000	0.307112
1011.000000	0.306789
1012.000000	0.306710
1013.000000	0.306458
1014.000000	0.306282
1015.000000	0.306847
1016.000000	0.307377
1017.000000	0.307515
1018.000000	0.307335
1019.000000	0.307336
1020.000000	0.307461
1021.000000	0.307490
1022.000000	0.307759
1023.000000	0.307948
1024.000000	0.307902
1025.000000	0.308155
1026.000000	0.307894
1027.000000	0.307577
1028.000000	0.308322
1029.000000	0.308883
1030.000000	0.309159
1031.000000	0.309586
1032.000000	0.309690
1033.000000	0.309753
1034.000000	0.309817
1035.000000	0.310124
1036.000000	0.310529
1037.000000	0.310974
1038.000000	0.310829
1039.000000	0.310569
1040.000000	0.310653
1041.000000	0.310229
1042.000000	0.310352
1043.000000	0.311309
1044.000000	0.311619
1045.000000	0.311391
1046.000000	0.311294
1047.000000	0.311515
1048.000000	0.311778
1049.000000	0.311808
1050.000000	0.312146
1051.000000	0.312189
1052.000000	0.311398
1053.000000	0.311407
1054.000000	0.312144
1055.000000	0.312605
1056.000000	0.313125
1057.000000	0.313993
1058.000000	0.314481
1059.000000	0.314427
1060.000000	0.314773
1061.000000	0.315143
1062.000000	0.315181
1063.000000	0.315685
1064.000000	0.316022
1065.000000	0.316086
1066.000000	0.316340
1067.000000	0.316746
1068.000000	0.317136
1069.000000	0.317640
1070.000000	0.317992
1071.000000	0.318233
1072.000000	0.318535
1073.000000	0.318770
1074.000000	0.319225
1075.000000	0.319436
1076.000000	0.319863
1077.000000	0.320291
1078.000000	0.320381
1079.000000	0.320708
1080.000000	0.321359
1081.000000	0.321625
1082.000000	0.321818
1083.000000	0.322007
1084.000000	0.321837
1085.000000	0.322223
1086.000000	0.323156
1087.000000	0.323471
1088.000000	0.323564
1089.000000	0.323810
1090.000000	0.323568
1091.000000	0.323575
1092.000000	0.324372
1093.000000	0.325130
1094.000000	0.325425
1095.000000	0.325415
1096.000000	0.325736
1097.000000	0.325798
1098.000000	0.326207
1099.000000	0.327154
1100.000000	0.327589
1101.000000	0.327764
1102.000000	0.327942
1103.000000	0.327629
1104.000000	0.327918
1105.000000	0.328704
1106.000000	0.329112
1107.000000	0.329632
1108.000000	0.330006
1109.000000	0.330074
1110.000000	0.330093
1111.000000	0.330433
1112.000000	0.331053
1113.000000	0.331414
1114.000000	0.331765
1115.000000	0.332194
1116.000000	0.332608
1117.000000	0.332951
1118.000000	0.333447
1119.000000	0.333658
1120.000000	0.333507
1121.000000	0.333617
1122.000000	0.333861
1123.000000	0.334244
1124.000000	0.334546
1125.000000	0.334878
1126.000000	0.335107
1127.000000	0.335359
1128.000000	0.335627
1129.000000	0.335964
1130.000000	0.336310
1131.000000	0.336807
1132.000000	0.336941
1133.000000	0.336940
1134.000000	0.337081
1135.000000	0.337011
1136.000000	0.337042
1137.000000	0.337068
1138.000000	0.337316
1139.000000	0.337898
1140.000000	0.338216
1141.000000	0.338550
1142.000000	0.338863
1143.000000	0.338781
1144.000000	0.338992
1145.000000	0.339224
1146.000000	0.339459
1147.000000	0.339714
1148.000000	0.339872
1149.000000	0.340076
1150.000000	0.340403
1151.000000	0.340595
1152.000000	0.340660
1153.000000	0.340772
1154.000000	0.340740
1155.000000	0.340847
1156.000000	0.341140
1157.000000	0.341210
1158.000000	0.341098
1159.000000	0.341127
1160.000000	0.341034
1161.000000	0.341041
1162.000000	0.341162
1163.000000	0.341632
1164.000000	0.341927
1165.000000	0.342073
1166.000000	0.342197
1167.000000	0.342239
1168.000000	0.342196
1169.000000	0.341972
1170.000000	0.342057
1171.000000	0.342317
1172.000000	0.342532
1173.000000	0.342896
1174.000000	0.343062
1175.000000	0.343017
1176.000000	0.343061
1177.000000	0.343129
1178.000000	0.343286
1179.000000	0.343612
1180.000000	0.343718
1181.000000	0.343776
1182.000000	0.343962
1183.000000	0.344128
1184.000000	0.344151
1185.000000	0.344283
1186.000000	0.344506
1187.000000	0.344659
1188.000000	0.344771
1189.000000	0.344886
1190.000000	0.345083
1191.000000	0.345212
1192.000000	0.345467
1193.000000	0.345672
1194.000000	0.345654
1195.000000	0.345720
1196.000000	0.345725
1197.000000	0.345708
1198.000000	0.345712
1199.000000	0.345753
1200.000000	0.345731
1201.000000	0.345726
1202.000000	0.345985
1203.000000	0.346243
1204.000000	0.346275
1205.000000	0.346333
1206.000000	0.346293
1207.000000	0.346087
1208.000000	0.346094
1209.000000	0.346299
1210.000000	0.346385
1211.000000	0.346484
1212.000000	0.346568
1213.000000	0.346685
1214.000000	0.346779
1215.000000	0.346851
1216.000000	0.346913
1217.000000	0.346833
1218.000000	0.346879
1219.000000	0.347060
1220.000000	0.347233
1221.000000	0.347373
1222.000000	0.347435
1223.000000	0.347311
1224.000000	0.347363
1225.000000	0.347434
1226.000000	0.347442
1227.000000	0.347395
1228.000000	0.347218
1229.000000	0.347196
1230.000000	0.347168
1231.000000	0.347133
1232.000000	0.347386
1233.000000	0.347550
1234.000000	0.347560
1235.000000	0.347620
1236.000000	0.347629
1237.000000	0.347706
1238.000000	0.347761
1239.000000	0.347782
1240.000000	0.347765
1241.000000	0.347897
1242.000000	0.347935
1243.000000	0.347762
1244.000000	0.347770
1245.000000	0.347865
1246.000000	0.347908
1247.000000	0.348134
1248.000000	0.348198
1249.000000	0.348100
1250.000000	0.347997
1251.000000	0.347891
1252.000000	0.347848
1253.000000	0.347922
1254.000000	0.347997
1255.000000	0.348109
1256.000000	0.348159
1257.000000	0.348243
1258.000000	0.348323
1259.000000	0.348271
1260.000000	0.348353
1261.000000	0.348473
1262.000000	0.348538
1263.000000	0.348669
1264.000000	0.348654
1265.000000	0.348536
1266.000000	0.348507
1267.000000	0.348603
1268.000000	0.348688
1269.000000	0.348694
1270.000000	0.348742
1271.000000	0.348628
1272.000000	0.348455
1273.000000	0.348519
1274.000000	0.348607
1275.000000	0.348607
1276.000000	0.348607
1277.000000	0.348660
1278.000000	0.348627
1279.000000	0.348591
1280.000000	0.348468
1281.000000	0.348395
1282.000000	0.348310
1283.000000	0.348393
1284.000000	0.348574
1285.000000	0.348673
1286.000000	0.348800
1287.000000	0.348854
1288.000000	0.348886
1289.000000	0.348979
1290.000000	0.348970
1291.000000	0.348866
1292.000000	0.348858
1293.000000	0.348850
1294.000000	0.348797
1295.000000	0.348848
1296.000000	0.348777
1297.000000	0.348560
1298.000000	0.348557
1299.000000	0.348693
1300.000000	0.348766
1301.000000	0.348789
1302.000000	0.348711
1303.000000	0.348565
1304.000000	0.348517
1305.000000	0.348609
1306.000000	0.348587
1307.000000	0.348664
1308.000000	0.348705
1309.000000	0.348636
1310.000000	0.348611
1311.000000	0.348657
1312.000000	0.348646
1313.000000	0.348582
1314.000000	0.348472
1315.000000	0.348400
1316.000000	0.348435
1317.000000	0.348497
1318.000000	0.348529
1319.000000	0.348520
1320.000000	0.348409
1321.000000	0.348078
1322.000000	0.347841
1323.000000	0.347893
1324.000000	0.347974
1325.000000	0.348037
1326.000000	0.348046
1327.000000	0.347922
1328.000000	0.347989
1329.000000	0.347865
1330.000000	0.347651
1331.000000	0.347572
1332.000000	0.347551
1333.000000	0.347374
1334.000000	0.347344
1335.000000	0.347330
1336.000000	0.347094
1337.000000	0.346988
1338.000000	0.346943
1339.000000	0.346943
1340.000000	0.346856
1341.000000	0.346779
1342.000000	0.346643
1343.000000	0.346347
1344.000000	0.345973
1345.000000	0.345712
1346.000000	0.345639
1347.000000	0.345480
1348.000000	0.345528
1349.000000	0.345442
1350.000000	0.345176
1351.000000	0.344989
1352.000000	0.344715
1353.000000	0.344413
1354.000000	0.344282
1355.000000	0.344110
1356.000000	0.343978
1357.000000	0.343890
1358.000000	0.343738
1359.000000	0.343522
1360.000000	0.343430
1361.000000	0.343451
1362.000000	0.343432
1363.000000	0.343505
1364.000000	0.343494
1365.000000	0.343401
1366.000000	0.343261
1367.000000	0.343017
1368.000000	0.342858
1369.000000	0.342875
1370.000000	0.342673
1371.000000	0.342600
1372.000000	0.342502
1373.000000	0.342165
1374.000000	0.341928
1375.000000	0.341688
1376.000000	0.341498
1377.000000	0.341247
1378.000000	0.340893
1379.000000	0.340528
1380.000000	0.340103
1381.000000	0.339670
1382.000000	0.339270
1383.000000	0.338771
1384.000000	0.338117
1385.000000	0.337477
1386.000000	0.336984
1387.000000	0.336476
1388.000000	0.335787
1389.000000	0.335170
1390.000000	0.334571
1391.000000	0.333813
1392.000000	0.333248
1393.000000	0.332579
1394.000000	0.331837
1395.000000	0.331147
1396.000000	0.330520
1397.000000	0.329772
1398.000000	0.328926
1399.000000	0.328168
1400.000000	0.327424
1401.000000	0.326553
1402.000000	0.325692
1403.000000	0.324806
1404.000000	0.324026
1405.000000	0.323099
1406.000000	0.322186
1407.000000	0.321513
1408.000000	0.320650
1409.000000	0.319713
1410.000000	0.318896
1411.000000	0.317942
1412.000000	0.316905
1413.000000	0.316098
1414.000000	0.315471
1415.000000	0.314940
1416.000000	0.314445
1417.000000	0.313957
1418.000000	0.313468
1419.000000	0.313091
1420.000000	0.312665
1421.000000	0.312257
1422.000000	0.311849
1423.000000	0.311398
1424.000000	0.310894
1425.000000	0.310437
1426.000000	0.309846
1427.000000	0.309238
1428.000000	0.308718
1429.000000	0.308131
1430.000000	0.307521
1431.000000	0.306992
1432.000000	0.306534
1433.000000	0.306083
1434.000000	0.305792
1435.000000	0.305793
1436.000000	0.305672
1437.000000	0.305468
1438.000000	0.305468
1439.000000	0.305589
1440.000000	0.305776
1441.000000	0.306216
1442.000000	0.306560
1443.000000	0.306839
1444.000000	0.307099
1445.000000	0.307339
1446.000000	0.307540
1447.000000	0.307761
1448.000000	0.307935
1449.000000	0.308090
1450.000000	0.308321
1451.000000	0.308484
1452.000000	0.308489
1453.000000	0.308499
1454.000000	0.308383
1455.000000	0.308261
1456.000000	0.308353
1457.000000	0.308399
1458.000000	0.308350
1459.000000	0.308256
1460.000000	0.308145
1461.000000	0.308146
1462.000000	0.308243
1463.000000	0.308375
1464.000000	0.308475
1465.000000	0.308527
1466.000000	0.308584
1467.000000	0.308606
1468.000000	0.308681
1469.000000	0.308868
1470.000000	0.308931
1471.000000	0.309029
1472.000000	0.309179
1473.000000	0.309312
1474.000000	0.309446
1475.000000	0.309743
1476.000000	0.309889
1477.000000	0.309968
1478.000000	0.310116
1479.000000	0.310139
1480.000000	0.310366
1481.000000	0.310578
1482.000000	0.310877
1483.000000	0.311187
1484.000000	0.311581
1485.000000	0.311863
1486.000000	0.312124
1487.000000	0.312408
1488.000000	0.312628
1489.000000	0.312908
1490.000000	0.313112
1491.000000	0.313413
1492.000000	0.313740
1493.000000	0.314017
1494.000000	0.314249
1495.000000	0.314501
1496.000000	0.314736
1497.000000	0.315006
1498.000000	0.315334
1499.000000	0.315662
1500.000000	0.315940
1501.000000	0.316089
1502.000000	0.316221
1503.000000	0.316455
1504.000000	0.316744
1505.000000	0.316974
1506.000000	0.317312
1507.000000	0.317575
1508.000000	0.317681
1509.000000	0.317847
1510.000000	0.317918
1511.000000	0.318027
1512.000000	0.318227
1513.000000	0.318468
1514.000000	0.318730
1515.000000	0.318785
1516.000000	0.318897
1517.000000	0.319026
1518.000000	0.319086
1519.000000	0.319184
1520.000000	0.319429
1521.000000	0.319545
1522.000000	0.319520
1523.000000	0.319745
1524.000000	0.319901
1525.000000	0.319961
1526.000000	0.320231
1527.000000	0.320413
1528.000000	0.320412
1529.000000	0.320408
1530.000000	0.320350
1531.000000	0.320382
1532.000000	0.320471
1533.000000	0.320541
1534.000000	0.320639
1535.000000	0.320723
1536.000000	0.320696
1537.000000	0.320741
1538.000000	0.320803
1539.000000	0.320836
1540.000000	0.320978
1541.000000	0.321086
1542.000000	0.321222
1543.000000	0.321374
1544.000000	0.321499
1545.000000	0.321718
1546.000000	0.321794
1547.000000	0.321795
1548.000000	0.321847
1549.000000	0.321914
1550.000000	0.322027
1551.000000	0.322109
1552.000000	0.322103
1553.000000	0.322110
1554.000000	0.322187
1555.000000	0.322244
1556.000000	0.322348
1557.000000	0.322337
1558.000000	0.322366
1559.000000	0.322308
1560.000000	0.322294
1561.000000	0.322348
1562.000000	0.322375
1563.000000	0.322398
1564.000000	0.322461
1565.000000	0.322574
1566.000000	0.322528
1567.000000	0.322535
1568.000000	0.322520
1569.000000	0.322495
1570.000000	0.322493
1571.000000	0.322478
1572.000000	0.322462
1573.000000	0.322452
1574.000000	0.322415
1575.000000	0.322422
1576.000000	0.322438
1577.000000	0.322424
1578.000000	0.322370
1579.000000	0.322367
1580.000000	0.322313
1581.000000	0.322233
1582.000000	0.322225
1583.000000	0.322274
1584.000000	0.322211
1585.000000	0.322199
1586.000000	0.322195
1587.000000	0.322170
1588.000000	0.322119
1589.000000	0.322015
1590.000000	0.322056
1591.000000	0.322186
1592.000000	0.322252
1593.000000	0.322466
1594.000000	0.322525
1595.000000	0.322508
1596.000000	0.322454
1597.000000	0.322366
1598.000000	0.322328
1599.000000	0.322254
1600.000000	0.322204
1601.000000	0.322298
1602.000000	0.322341
1603.000000	0.322416
1604.000000	0.322413
1605.000000	0.322386
1606.000000	0.322415
1607.000000	0.322478
1608.000000	0.322502
1609.000000	0.322620
1610.000000	0.322657
1611.000000	0.322587
1612.000000	0.322622
1613.000000	0.322885
1614.000000	0.322930
1615.000000	0.322955
1616.000000	0.323032
1617.000000	0.322943
1618.000000	0.322954
1619.000000	0.323066
1620.000000	0.323094
1621.000000	0.323128
1622.000000	0.323171
1623.000000	0.323112
1624.000000	0.323189
1625.000000	0.323221
1626.000000	0.323227
1627.000000	0.323309
1628.000000	0.323382
1629.000000	0.323374
1630.000000	0.323436
1631.000000	0.323486
1632.000000	0.323569
1633.000000	0.323666
1634.000000	0.323796
1635.000000	0.324059
1636.000000	0.324198
1637.000000	0.324396
1638.000000	0.324430
1639.000000	0.324329
1640.000000	0.324325
1641.000000	0.324296
1642.000000	0.324352
1643.000000	0.324614
1644.000000	0.324688
1645.000000	0.324668
1646.000000	0.324679
1647.000000	0.324654
1648.000000	0.324664
1649.000000	0.324820
1650.000000	0.324958
1651.000000	0.325125
1652.000000	0.325254
1653.000000	0.325347
1654.000000	0.325467
1655.000000	0.325535
1656.000000	0.325475
1657.000000	0.325431
1658.000000	0.325383
1659.000000	0.325327
1660.000000	0.325375
1661.000000	0.325429
1662.000000	0.325487
1663.000000	0.325455
1664.000000	0.325612
1665.000000	0.325935
1666.000000	0.326166
1667.000000	0.326399
1668.000000	0.326531
1669.000000	0.326562
1670.000000	0.326460
1671.000000	0.326319
1672.000000	0.326451
1673.000000	0.326543
1674.000000	0.326754
1675.000000	0.326967
1676.000000	0.326782
1677.000000	0.326618
1678.000000	0.326598
1679.000000	0.326639
1680.000000	0.326776
1681.000000	0.326970
1682.000000	0.327126
1683.000000	0.327265
1684.000000	0.327354
1685.000000	0.327386
1686.000000	0.327354
1687.000000	0.327379
1688.000000	0.327352
1689.000000	0.327463
1690.000000	0.327612
1691.000000	0.327738
1692.000000	0.327935
1693.000000	0.328085
1694.000000	0.328188
1695.000000	0.328348
1696.000000	0.328510
1697.000000	0.328522
1698.000000	0.328464
1699.000000	0.328479
1700.000000	0.328360
1701.000000	0.328454
1702.000000	0.328638
1703.000000	0.328653
1704.000000	0.328749
1705.000000	0.328758
1706.000000	0.328603
1707.000000	0.328583
1708.000000	0.328629
1709.000000	0.328546
1710.000000	0.328526
1711.000000	0.328531
1712.000000	0.328466
1713.000000	0.328489
1714.000000	0.328734
1715.000000	0.328784
1716.000000	0.328771
1717.000000	0.328743
1718.000000	0.328536
1719.000000	0.328448
1720.000000	0.328420
1721.000000	0.328499
1722.000000	0.328771
1723.000000	0.328833
1724.000000	0.328912
1725.000000	0.328973
1726.000000	0.328724
1727.000000	0.328719
1728.000000	0.328814
1729.000000	0.328838
1730.000000	0.329077
1731.000000	0.329142
1732.000000	0.329155
1733.000000	0.329206
1734.000000	0.329025
1735.000000	0.328987
1736.000000	0.328961
1737.000000	0.328999
1738.000000	0.329156
1739.000000	0.329157
1740.000000	0.329093
1741.000000	0.329120
1742.000000	0.329092
1743.000000	0.329188
1744.000000	0.329438
1745.000000	0.329483
1746.000000	0.329426
1747.000000	0.329387
1748.000000	0.329351
1749.000000	0.329363
1750.000000	0.329347
1751.000000	0.329429
1752.000000	0.329638
1753.000000	0.329856
1754.000000	0.329952
1755.000000	0.329921
1756.000000	0.329982
1757.000000	0.330099
1758.000000	0.330054
1759.000000	0.329949
1760.000000	0.329880
1761.000000	0.329532
1762.000000	0.329397
1763.000000	0.329567
1764.000000	0.329556
1765.000000	0.329379
1766.000000	0.329406
1767.000000	0.329394
1768.000000	0.329388
1769.000000	0.329669
1770.000000	0.329815
1771.000000	0.329761
1772.000000	0.329867
1773.000000	0.330016
1774.000000	0.330095
1775.000000	0.330317
1776.000000	0.330354
1777.000000	0.330255
1778.000000	0.330058
1779.000000	0.329624
1780.000000	0.329527
1781.000000	0.329444
1782.000000	0.329396
1783.000000	0.329663
1784.000000	0.329548
1785.000000	0.329243
1786.000000	0.329385
1787.000000	0.329592
1788.000000	0.329619
1789.000000	0.329758
1790.000000	0.329687
1791.000000	0.329658
1792.000000	0.329958
1793.000000	0.330104
1794.000000	0.330108
1795.000000	0.330181
1796.000000	0.330261
1797.000000	0.330339
1798.000000	0.330417
1799.000000	0.330512
1800.000000	0.330680
1801.000000	0.329857
1802.000000	0.330250
1803.000000	0.331501
1804.000000	0.332421
1805.000000	0.334713
1806.000000	0.335374
1807.000000	0.335147
1808.000000	0.334928
1809.000000	0.334273
1810.000000	0.332760
1811.000000	0.332282
1812.000000	0.331961
1813.000000	0.332025
1814.000000	0.332810
1815.000000	0.333251
1816.000000	0.334243
1817.000000	0.334254
1818.000000	0.333624
1819.000000	0.333330
1820.000000	0.332744
1821.000000	0.331925
1822.000000	0.331738
1823.000000	0.332115
1824.000000	0.331970
1825.000000	0.331521
1826.000000	0.331673
1827.000000	0.331990
1828.000000	0.332185
1829.000000	0.332308
1830.000000	0.332856
1831.000000	0.332635
1832.000000	0.331312
1833.000000	0.331098
1834.000000	0.331402
1835.000000	0.331102
1836.000000	0.330610
1837.000000	0.330613
1838.000000	0.330228
1839.000000	0.330144
1840.000000	0.330809
1841.000000	0.331506
1842.000000	0.331723
1843.000000	0.331491
1844.000000	0.331458
1845.000000	0.331437
1846.000000	0.331142
1847.000000	0.330437
1848.000000	0.329900
1849.000000	0.329604
1850.000000	0.328814
1851.000000	0.328306
1852.000000	0.327844
1853.000000	0.327735
1854.000000	0.327487
1855.000000	0.327458
1856.000000	0.327802
1857.000000	0.328224
1858.000000	0.328204
1859.000000	0.327822
1860.000000	0.326934
1861.000000	0.326058
1862.000000	0.325429
1863.000000	0.324871
1864.000000	0.324272
1865.000000	0.323973
1866.000000	0.323562
1867.000000	0.323145
1868.000000	0.322125
1869.000000	0.321432
1870.000000	0.320720
1871.000000	0.320057
1872.000000	0.319526
1873.000000	0.318232
1874.000000	0.316312
1875.000000	0.314692
1876.000000	0.312489
1877.000000	0.310024
1878.000000	0.307969
1879.000000	0.306339
1880.000000	0.304870
1881.000000	0.303199
1882.000000	0.301464
1883.000000	0.299680
1884.000000	0.297617
1885.000000	0.294789
1886.000000	0.292156
1887.000000	0.289501
1888.000000	0.286524
1889.000000	0.283845
1890.000000	0.281373
1891.000000	0.278527
1892.000000	0.275660
1893.000000	0.272659
1894.000000	0.269204
1895.000000	0.265720
1896.000000	0.262291
1897.000000	0.259094
1898.000000	0.255573
1899.000000	0.252572
1900.000000	0.250107
1901.000000	0.247319
1902.000000	0.244858
1903.000000	0.242261
1904.000000	0.239159
1905.000000	0.236972
1906.000000	0.234654
1907.000000	0.232357
1908.000000	0.229977
1909.000000	0.228768
1910.000000	0.227282
1911.000000	0.226020
1912.000000	0.225804
1913.000000	0.224848
1914.000000	0.223775
1915.000000	0.223228
1916.000000	0.221919
1917.000000	0.221141
1918.000000	0.220947
1919.000000	0.220869
1920.000000	0.219530
1921.000000	0.219179
1922.000000	0.218229
1923.000000	0.217037
1924.000000	0.217560
1925.000000	0.217559
1926.000000	0.217541
1927.000000	0.218396
1928.000000	0.218786
1929.000000	0.218881
1930.000000	0.219168
1931.000000	0.219415
1932.000000	0.219364
1933.000000	0.219445
1934.000000	0.219482
1935.000000	0.220255
1936.000000	0.220893
1937.000000	0.221363
1938.000000	0.222071
1939.000000	0.222145
1940.000000	0.221607
1941.000000	0.221236
1942.000000	0.221149
1943.000000	0.220866
1944.000000	0.221677
1945.000000	0.222310
1946.000000	0.222444
1947.000000	0.223098
1948.000000	0.222747
1949.000000	0.222198
1950.000000	0.221890
1951.000000	0.221331
1952.000000	0.220276
1953.000000	0.219793
1954.000000	0.219472
1955.000000	0.219328
1956.000000	0.219303
1957.000000	0.219291
1958.000000	0.219436
1959.000000	0.218724
1960.000000	0.218509
1961.000000	0.218764
1962.000000	0.218915
1963.000000	0.219132
1964.000000	0.220217
1965.000000	0.220422
1966.000000	0.219849
1967.000000	0.219645
1968.000000	0.219261
1969.000000	0.218875
1970.000000	0.219518
1971.000000	0.220080
1972.000000	0.220373
1973.000000	0.220628
1974.000000	0.220914
1975.000000	0.221141
1976.000000	0.221191
1977.000000	0.221643
1978.000000	0.221935
1979.000000	0.222803
1980.000000	0.223310
1981.000000	0.223461
1982.000000	0.223757
1983.000000	0.223969
1984.000000	0.224407
1985.000000	0.225172
1986.000000	0.225720
1987.000000	0.226418
1988.000000	0.226931
1989.000000	0.227356
1990.000000	0.227633
1991.000000	0.227954
1992.000000	0.228796
1993.000000	0.229128
1994.000000	0.229664
1995.000000	0.230258
1996.000000	0.230356
1997.000000	0.230793
1998.000000	0.231520
1999.000000	0.232019
2000.000000	0.232498
2001.000000	0.232991
2002.000000	0.233394
2003.000000	0.234665
2004.000000	0.235598
2005.000000	0.236327
2006.000000	0.237173
2007.000000	0.237389
2008.000000	0.237772
2009.000000	0.237859
2010.000000	0.238603
2011.000000	0.239470
2012.000000	0.240378
2013.000000	0.241735
2014.000000	0.242851
2015.000000	0.243244
2016.000000	0.243666
2017.000000	0.244140
2018.000000	0.244793
2019.000000	0.245856
2020.000000	0.246765
2021.000000	0.247528
2022.000000	0.247889
2023.000000	0.248556
2024.000000	0.249542
2025.000000	0.250318
2026.000000	0.250842
2027.000000	0.251709
2028.000000	0.252417
2029.000000	0.252553
2030.000000	0.253514
2031.000000	0.254540
2032.000000	0.255373
2033.000000	0.256739
2034.000000	0.257412
2035.000000	0.257649
2036.000000	0.258021
2037.000000	0.258014
2038.000000	0.258317
2039.000000	0.258855
2040.000000	0.259696
2041.000000	0.259990
2042.000000	0.260914
2043.000000	0.261643
2044.000000	0.261636
2045.000000	0.262163
2046.000000	0.262373
2047.000000	0.262700
2048.000000	0.263302
2049.000000	0.263743
2050.000000	0.263298
2051.000000	0.263750
2052.000000	0.264162
2053.000000	0.264879
2054.000000	0.266670
2055.000000	0.268421
2056.000000	0.269081
2057.000000	0.269767
2058.000000	0.269450
2059.000000	0.269184
2060.000000	0.269064
2061.000000	0.268828
2062.000000	0.268766
2063.000000	0.268719
2064.000000	0.268917
2065.000000	0.269728
2066.000000	0.270417
2067.000000	0.271557
2068.000000	0.272512
2069.000000	0.273303
2070.000000	0.273954
2071.000000	0.274145
2072.000000	0.274022
2073.000000	0.274108
2074.000000	0.274096
2075.000000	0.274322
2076.000000	0.274889
2077.000000	0.275384
2078.000000	0.276030
2079.000000	0.276351
2080.000000	0.276383
2081.000000	0.276638
2082.000000	0.276690
2083.000000	0.277225
2084.000000	0.277647
2085.000000	0.278708
2086.000000	0.279468
2087.000000	0.279965
2088.000000	0.280829
2089.000000	0.281319
2090.000000	0.281843
2091.000000	0.282369
2092.000000	0.282642
2093.000000	0.282627
2094.000000	0.282966
2095.000000	0.283413
2096.000000	0.284088
2097.000000	0.285086
2098.000000	0.285736
2099.000000	0.286559
2100.000000	0.286944
2101.000000	0.286750
2102.000000	0.286089
2103.000000	0.286036
2104.000000	0.285736
2105.000000	0.285783
2106.000000	0.286532
2107.000000	0.287106
2108.000000	0.287477
2109.000000	0.288123
2110.000000	0.289039
2111.000000	0.289661
2112.000000	0.290196
2113.000000	0.290401
2114.000000	0.290878
2115.000000	0.290694
2116.000000	0.290398
2117.000000	0.290053
2118.000000	0.289787
2119.000000	0.289730
2120.000000	0.289499
2121.000000	0.289205
2122.000000	0.289328
2123.000000	0.289370
2124.000000	0.289719
2125.000000	0.291018
2126.000000	0.291574
2127.000000	0.291936
2128.000000	0.292107
2129.000000	0.291963
2130.000000	0.291403
2131.000000	0.290957
2132.000000	0.290813
2133.000000	0.291171
2134.000000	0.291955
2135.000000	0.291588
2136.000000	0.291049
2137.000000	0.290635
2138.000000	0.289257
2139.000000	0.288671
2140.000000	0.288952
2141.000000	0.289068
2142.000000	0.288834
2143.000000	0.289407
2144.000000	0.290929
2145.000000	0.291777
2146.000000	0.292887
2147.000000	0.294429
2148.000000	0.294678
2149.000000	0.294953
2150.000000	0.294640
2151.000000	0.294067
2152.000000	0.293412
2153.000000	0.292617
2154.000000	0.292146
2155.000000	0.291716
2156.000000	0.291825
2157.000000	0.292639
2158.000000	0.292858
2159.000000	0.293420
2160.000000	0.293401
2161.000000	0.292161
2162.000000	0.292149
2163.000000	0.292859
2164.000000	0.293159
2165.000000	0.293705
2166.000000	0.294397
2167.000000	0.294960
2168.000000	0.294533
2169.000000	0.294112
2170.000000	0.294597
2171.000000	0.294158
2172.000000	0.292933
2173.000000	0.292374
2174.000000	0.291305
2175.000000	0.291148
2176.000000	0.291892
2177.000000	0.292108
2178.000000	0.293181
2179.000000	0.293606
2180.000000	0.292868
2181.000000	0.293180
2182.000000	0.293814
2183.000000	0.293217
2184.000000	0.293662
2185.000000	0.294098
2186.000000	0.292180
2187.000000	0.291434
2188.000000	0.290977
2189.000000	0.289956
2190.000000	0.291262
2191.000000	0.292673
2192.000000	0.292397
2193.000000	0.290546
2194.000000	0.289886
2195.000000	0.288193
2196.000000	0.287991
2197.000000	0.289943
2198.000000	0.290334
2199.000000	0.290206
2200.000000	0.290399
2201.000000	0.290544
2202.000000	0.290266
2203.000000	0.289667
2204.000000	0.289156
2205.000000	0.289277
2206.000000	0.288054
2207.000000	0.286549
2208.000000	0.286246
2209.000000	0.284968
2210.000000	0.285263
2211.000000	0.286842
2212.000000	0.287755
2213.000000	0.288834
2214.000000	0.290479
2215.000000	0.290214
2216.000000	0.289034
2217.000000	0.287818
2218.000000	0.283930
2219.000000	0.282570
2220.000000	0.282716
2221.000000	0.283463
2222.000000	0.285998
2223.000000	0.286978
2224.000000	0.288708
2225.000000	0.288076
2226.000000	0.286077
2227.000000	0.284502
2228.000000	0.283213
2229.000000	0.283952
2230.000000	0.284014
2231.000000	0.284134
2232.000000	0.282255
2233.000000	0.279116
2234.000000	0.278526
2235.000000	0.279685
2236.000000	0.282160
2237.000000	0.288738
2238.000000	0.290800
2239.000000	0.292266
2240.000000	0.292434
2241.000000	0.289026
2242.000000	0.288668
2243.000000	0.289163
2244.000000	0.289793
2245.000000	0.292427
2246.000000	0.292772
2247.000000	0.291798
2248.000000	0.290968
2249.000000	0.288755
2250.000000	0.287278
2251.000000	0.287278
2252.000000	0.287977
2253.000000	0.288245
2254.000000	0.289120
2255.000000	0.290148
2256.000000	0.289713
2257.000000	0.291674
2258.000000	0.292250
2259.000000	0.289315
2260.000000	0.288368
2261.000000	0.287055
2262.000000	0.283363
2263.000000	0.283490
2264.000000	0.287266
2265.000000	0.287471
2266.000000	0.288744
2267.000000	0.287537
2268.000000	0.282200
2269.000000	0.280051
2270.000000	0.278058
2271.000000	0.276507
2272.000000	0.276993
2273.000000	0.276397
2274.000000	0.275481
2275.000000	0.274361
2276.000000	0.272761
2277.000000	0.271256
2278.000000	0.269886
2279.000000	0.268795
2280.000000	0.268134
2281.000000	0.266533
2282.000000	0.264702
2283.000000	0.263481
2284.000000	0.263839
2285.000000	0.264855
2286.000000	0.265976
2287.000000	0.265996
2288.000000	0.264620
2289.000000	0.265376
2290.000000	0.265576
2291.000000	0.265707
2292.000000	0.267873
2293.000000	0.264858
2294.000000	0.263753
2295.000000	0.262130
2296.000000	0.262992
2297.000000	0.265712
2298.000000	0.267899
2299.000000	0.271906
2300.000000	0.273377
2301.000000	0.272926
2302.000000	0.272535
2303.000000	0.270516
2304.000000	0.270060
2305.000000	0.270385
2306.000000	0.269874
2307.000000	0.269370
2308.000000	0.269919
2309.000000	0.269513
2310.000000	0.270166
2311.000000	0.270414
2312.000000	0.269939
2313.000000	0.270906
2314.000000	0.271379
2315.000000	0.272625
2316.000000	0.275843
2317.000000	0.276440
2318.000000	0.277377
2319.000000	0.277473
2320.000000	0.274788
2321.000000	0.275941
2322.000000	0.275416
2323.000000	0.274159
2324.000000	0.275480
2325.000000	0.272981
2326.000000	0.270570
2327.000000	0.270276
2328.000000	0.270867
2329.000000	0.272251
2330.000000	0.271536
2331.000000	0.269032
2332.000000	0.267310
2333.000000	0.266202
2334.000000	0.265294
2335.000000	0.264701
2336.000000	0.265383
2337.000000	0.263832
2338.000000	0.259987
2339.000000	0.258552
2340.000000	0.258019
2341.000000	0.257305
2342.000000	0.258153
2343.000000	0.257409
2344.000000	0.255055
2345.000000	0.253081
2346.000000	0.250306
2347.000000	0.248975
2348.000000	0.248009
2349.000000	0.248023
2350.000000	0.250130
2351.000000	0.252520
2352.000000	0.253704
2353.000000	0.255259
2354.000000	0.252468
2355.000000	0.248328
2356.000000	0.244794
2357.000000	0.238751
2358.000000	0.238129
2359.000000	0.241105
2360.000000	0.244111
2361.000000	0.250411
2362.000000	0.253061
2363.000000	0.252074
2364.000000	0.250041
2365.000000	0.246673
2366.000000	0.242794
2367.000000	0.239632
2368.000000	0.237966
2369.000000	0.235197
2370.000000	0.233157
2371.000000	0.235014
2372.000000	0.236681
2373.000000	0.237666
2374.000000	0.237682
2375.000000	0.231658
2376.000000	0.225912
2377.000000	0.221357
2378.000000	0.217474
2379.000000	0.217397
2380.000000	0.217734
2381.000000	0.216326
2382.000000	0.213301
2383.000000	0.212479
2384.000000	0.210954
2385.000000	0.213315
2386.000000	0.219276
2387.000000	0.220669
2388.000000	0.223604
2389.000000	0.223906
2390.000000	0.216475
2391.000000	0.213345
2392.000000	0.211082
2393.000000	0.203314
2394.000000	0.202634
2395.000000	0.202302
2396.000000	0.201558
2397.000000	0.207240
2398.000000	0.212100
2399.000000	0.213258
2400.000000	0.209225
2401.000000	0.200188
2402.000000	0.189978
2403.000000	0.188603
2404.000000	0.192995
2405.000000	0.198687
2406.000000	0.206909
2407.000000	0.207201
2408.000000	0.198162
2409.000000	0.191219
2410.000000	0.191304
2411.000000	0.191324
2412.000000	0.193208
2413.000000	0.196553
2414.000000	0.194727
2415.000000	0.190187
2416.000000	0.184244
2417.000000	0.183754
2418.000000	0.182324
2419.000000	0.182682
2420.000000	0.189247
2421.000000	0.187776
2422.000000	0.186048
2423.000000	0.183341
2424.000000	0.178779
2425.000000	0.185743
2426.000000	0.189847
2427.000000	0.188023
2428.000000	0.196865
2429.000000	0.201630
2430.000000	0.202861
2431.000000	0.214177
2432.000000	0.214736
2433.000000	0.204061
2434.000000	0.200985
2435.000000	0.191972
2436.000000	0.182894
2437.000000	0.185497
2438.000000	0.185882
2439.000000	0.177062
2440.000000	0.174032
2441.000000	0.175275
2442.000000	0.163431
2443.000000	0.161899
2444.000000	0.164998
2445.000000	0.158795
2446.000000	0.158005
2447.000000	0.152538
2448.000000	0.143597
2449.000000	0.157128
2450.000000	0.159512
2451.000000	0.148637
2452.000000	0.165028
2453.000000	0.156196
2454.000000	0.148562
2455.000000	0.169223
2456.000000	0.168879
2457.000000	0.177516
2458.000000	0.192359
2459.000000	0.191141
2460.000000	0.206631
2461.000000	0.222386
2462.000000	0.211084
2463.000000	0.211611
2464.000000	0.222449
2465.000000	0.203677
2466.000000	0.192002
2467.000000	0.192401
2468.000000	0.155404
2469.000000	0.121389
2470.000000	0.112634
2471.000000	0.100276
2472.000000	0.106804
2473.000000	0.125386
2474.000000	0.132693
2475.000000	0.137011
2476.000000	0.129039
2477.000000	0.120875
2478.000000	0.143646
2479.000000	0.158231
2480.000000	0.170119
2481.000000	0.210162
2482.000000	0.223401
2483.000000	0.224588
2484.000000	0.220441
2485.000000	0.197905
2486.000000	0.179688
2487.000000	0.163379
2488.000000	0.167887
2489.000000	0.146039
2490.000000	0.102516
2491.000000	0.070014
2492.000000	0.037226
2493.000000	0.018680
2494.000000	0.019790
2495.000000	0.032174
2496.000000	0.041359
2497.000000	0.070603
2498.000000	0.074849
2499.000000	0.049547
2500.000000	0.064372
