# Wavelength	Nau-1_60_FV7_40_00002.asd.rts.txt
350.000000	0.076092
351.000000	0.096772
352.000000	0.099569
353.000000	0.098277
354.000000	0.100625
355.000000	0.091201
356.000000	0.092886
357.000000	0.103790
358.000000	0.102755
359.000000	0.107020
360.000000	0.113105
361.000000	0.113874
362.000000	0.115799
363.000000	0.116945
364.000000	0.114596
365.000000	0.104987
366.000000	0.101334
367.000000	0.105536
368.000000	0.110570
369.000000	0.115772
370.000000	0.117721
371.000000	0.114440
372.000000	0.119216
373.000000	0.120292
374.000000	0.113331
375.000000	0.119458
376.000000	0.123450
377.000000	0.122760
378.000000	0.126819
379.000000	0.126760
380.000000	0.124104
381.000000	0.123655
382.000000	0.125129
383.000000	0.124415
384.000000	0.121240
385.000000	0.126806
386.000000	0.131321
387.000000	0.132007
388.000000	0.132420
389.000000	0.134708
390.000000	0.137055
391.000000	0.136526
392.000000	0.138609
393.000000	0.140219
394.000000	0.139417
395.000000	0.142015
396.000000	0.143600
397.000000	0.143373
398.000000	0.145467
399.000000	0.147740
400.000000	0.149399
401.000000	0.150122
402.000000	0.152481
403.000000	0.154742
404.000000	0.155531
405.000000	0.157707
406.000000	0.158776
407.000000	0.158543
408.000000	0.161037
409.000000	0.162551
410.000000	0.162987
411.000000	0.164147
412.000000	0.164882
413.000000	0.165645
414.000000	0.166982
415.000000	0.167747
416.000000	0.168977
417.000000	0.170691
418.000000	0.170207
419.000000	0.169782
420.000000	0.170056
421.000000	0.170428
422.000000	0.170488
423.000000	0.170769
424.000000	0.171919
425.000000	0.171894
426.000000	0.171632
427.000000	0.171869
428.000000	0.171491
429.000000	0.171645
430.000000	0.172461
431.000000	0.172790
432.000000	0.172358
433.000000	0.171696
434.000000	0.171826
435.000000	0.171943
436.000000	0.171937
437.000000	0.171830
438.000000	0.171787
439.000000	0.171182
440.000000	0.170118
441.000000	0.169980
442.000000	0.169785
443.000000	0.169422
444.000000	0.169446
445.000000	0.169370
446.000000	0.169478
447.000000	0.170032
448.000000	0.170496
449.000000	0.171237
450.000000	0.172566
451.000000	0.174475
452.000000	0.176367
453.000000	0.178082
454.000000	0.180102
455.000000	0.182364
456.000000	0.184710
457.000000	0.186830
458.000000	0.189152
459.000000	0.191728
460.000000	0.194382
461.000000	0.196083
462.000000	0.197579
463.000000	0.199196
464.000000	0.200941
465.000000	0.202264
466.000000	0.203105
467.000000	0.203841
468.000000	0.204811
469.000000	0.205726
470.000000	0.206335
471.000000	0.206906
472.000000	0.207575
473.000000	0.208388
474.000000	0.209171
475.000000	0.209537
476.000000	0.209754
477.000000	0.210579
478.000000	0.211099
479.000000	0.211575
480.000000	0.212375
481.000000	0.212807
482.000000	0.213280
483.000000	0.214010
484.000000	0.214710
485.000000	0.215062
486.000000	0.215228
487.000000	0.215732
488.000000	0.216343
489.000000	0.216995
490.000000	0.217679
491.000000	0.218327
492.000000	0.218909
493.000000	0.219333
494.000000	0.219948
495.000000	0.220666
496.000000	0.221359
497.000000	0.222127
498.000000	0.222674
499.000000	0.223122
500.000000	0.223964
501.000000	0.224761
502.000000	0.225420
503.000000	0.225921
504.000000	0.226506
505.000000	0.227197
506.000000	0.227956
507.000000	0.228678
508.000000	0.229412
509.000000	0.230150
510.000000	0.230857
511.000000	0.231616
512.000000	0.232403
513.000000	0.233047
514.000000	0.233768
515.000000	0.234653
516.000000	0.235648
517.000000	0.236423
518.000000	0.237200
519.000000	0.238109
520.000000	0.239111
521.000000	0.240014
522.000000	0.240795
523.000000	0.241653
524.000000	0.242586
525.000000	0.243560
526.000000	0.244550
527.000000	0.245499
528.000000	0.246388
529.000000	0.247267
530.000000	0.248134
531.000000	0.249123
532.000000	0.250178
533.000000	0.251072
534.000000	0.252089
535.000000	0.253232
536.000000	0.254250
537.000000	0.255318
538.000000	0.256444
539.000000	0.257562
540.000000	0.258663
541.000000	0.259727
542.000000	0.260778
543.000000	0.261839
544.000000	0.262908
545.000000	0.263946
546.000000	0.265094
547.000000	0.266125
548.000000	0.267105
549.000000	0.268208
550.000000	0.269220
551.000000	0.270232
552.000000	0.271330
553.000000	0.272308
554.000000	0.273296
555.000000	0.274383
556.000000	0.275404
557.000000	0.276367
558.000000	0.277367
559.000000	0.278235
560.000000	0.279112
561.000000	0.280022
562.000000	0.280791
563.000000	0.281707
564.000000	0.282718
565.000000	0.283603
566.000000	0.284410
567.000000	0.285186
568.000000	0.285932
569.000000	0.286608
570.000000	0.287273
571.000000	0.287955
572.000000	0.288695
573.000000	0.289359
574.000000	0.289930
575.000000	0.290488
576.000000	0.290988
577.000000	0.291472
578.000000	0.292025
579.000000	0.292529
580.000000	0.292947
581.000000	0.293309
582.000000	0.293784
583.000000	0.294205
584.000000	0.294596
585.000000	0.295084
586.000000	0.295411
587.000000	0.295671
588.000000	0.296009
589.000000	0.296335
590.000000	0.296604
591.000000	0.296810
592.000000	0.297025
593.000000	0.297264
594.000000	0.297495
595.000000	0.297642
596.000000	0.297845
597.000000	0.298121
598.000000	0.298331
599.000000	0.298414
600.000000	0.298574
601.000000	0.298841
602.000000	0.298828
603.000000	0.298818
604.000000	0.298934
605.000000	0.298965
606.000000	0.298988
607.000000	0.299001
608.000000	0.298968
609.000000	0.299082
610.000000	0.299260
611.000000	0.299356
612.000000	0.299398
613.000000	0.299424
614.000000	0.299488
615.000000	0.299535
616.000000	0.299580
617.000000	0.299625
618.000000	0.299777
619.000000	0.299906
620.000000	0.299982
621.000000	0.300077
622.000000	0.300192
623.000000	0.300273
624.000000	0.300296
625.000000	0.300387
626.000000	0.300486
627.000000	0.300569
628.000000	0.300676
629.000000	0.300855
630.000000	0.300978
631.000000	0.301107
632.000000	0.301107
633.000000	0.301097
634.000000	0.301190
635.000000	0.301213
636.000000	0.301260
637.000000	0.301361
638.000000	0.301432
639.000000	0.301592
640.000000	0.301819
641.000000	0.301799
642.000000	0.301930
643.000000	0.302136
644.000000	0.302221
645.000000	0.302321
646.000000	0.302419
647.000000	0.302496
648.000000	0.302702
649.000000	0.302928
650.000000	0.303112
651.000000	0.303316
652.000000	0.303470
653.000000	0.303601
654.000000	0.303698
655.000000	0.303866
656.000000	0.304107
657.000000	0.304339
658.000000	0.304553
659.000000	0.304755
660.000000	0.304950
661.000000	0.305196
662.000000	0.305475
663.000000	0.305796
664.000000	0.306073
665.000000	0.306368
666.000000	0.306688
667.000000	0.306984
668.000000	0.307186
669.000000	0.307446
670.000000	0.307808
671.000000	0.308032
672.000000	0.308264
673.000000	0.308553
674.000000	0.308908
675.000000	0.309189
676.000000	0.309431
677.000000	0.309738
678.000000	0.310117
679.000000	0.310416
680.000000	0.310587
681.000000	0.310849
682.000000	0.311237
683.000000	0.311641
684.000000	0.312022
685.000000	0.312417
686.000000	0.312823
687.000000	0.313169
688.000000	0.313443
689.000000	0.313760
690.000000	0.314206
691.000000	0.314568
692.000000	0.314901
693.000000	0.315308
694.000000	0.315773
695.000000	0.316193
696.000000	0.316600
697.000000	0.317080
698.000000	0.317576
699.000000	0.318054
700.000000	0.318505
701.000000	0.318946
702.000000	0.319391
703.000000	0.319824
704.000000	0.320242
705.000000	0.320703
706.000000	0.321127
707.000000	0.321488
708.000000	0.321906
709.000000	0.322351
710.000000	0.322805
711.000000	0.323307
712.000000	0.323746
713.000000	0.324146
714.000000	0.324665
715.000000	0.325152
716.000000	0.325573
717.000000	0.325922
718.000000	0.326326
719.000000	0.326790
720.000000	0.327295
721.000000	0.327749
722.000000	0.328143
723.000000	0.328557
724.000000	0.329005
725.000000	0.329345
726.000000	0.329674
727.000000	0.330010
728.000000	0.330321
729.000000	0.330669
730.000000	0.331050
731.000000	0.331475
732.000000	0.331940
733.000000	0.332432
734.000000	0.332793
735.000000	0.333097
736.000000	0.333474
737.000000	0.333803
738.000000	0.334077
739.000000	0.334384
740.000000	0.334604
741.000000	0.334802
742.000000	0.335140
743.000000	0.335543
744.000000	0.335767
745.000000	0.335979
746.000000	0.336210
747.000000	0.336355
748.000000	0.336560
749.000000	0.336809
750.000000	0.337039
751.000000	0.337283
752.000000	0.337477
753.000000	0.337639
754.000000	0.337835
755.000000	0.338087
756.000000	0.338333
757.000000	0.338460
758.000000	0.338628
759.000000	0.338831
760.000000	0.338977
761.000000	0.339124
762.000000	0.339247
763.000000	0.339290
764.000000	0.339272
765.000000	0.339267
766.000000	0.339270
767.000000	0.339256
768.000000	0.339255
769.000000	0.339308
770.000000	0.339370
771.000000	0.339230
772.000000	0.339205
773.000000	0.339199
774.000000	0.339112
775.000000	0.339012
776.000000	0.338961
777.000000	0.338964
778.000000	0.338966
779.000000	0.338925
780.000000	0.338849
781.000000	0.338767
782.000000	0.338600
783.000000	0.338524
784.000000	0.338520
785.000000	0.338419
786.000000	0.338267
787.000000	0.338114
788.000000	0.338025
789.000000	0.337892
790.000000	0.337671
791.000000	0.337407
792.000000	0.337178
793.000000	0.337035
794.000000	0.336965
795.000000	0.336769
796.000000	0.336532
797.000000	0.336326
798.000000	0.336222
799.000000	0.336081
800.000000	0.335902
801.000000	0.335716
802.000000	0.335454
803.000000	0.335176
804.000000	0.334956
805.000000	0.334719
806.000000	0.334521
807.000000	0.334410
808.000000	0.334265
809.000000	0.334166
810.000000	0.333939
811.000000	0.333493
812.000000	0.333136
813.000000	0.332855
814.000000	0.332594
815.000000	0.332274
816.000000	0.332011
817.000000	0.331798
818.000000	0.331522
819.000000	0.331315
820.000000	0.331060
821.000000	0.330743
822.000000	0.330703
823.000000	0.330406
824.000000	0.329946
825.000000	0.329743
826.000000	0.329516
827.000000	0.329270
828.000000	0.329023
829.000000	0.328593
830.000000	0.328135
831.000000	0.327738
832.000000	0.327286
833.000000	0.326887
834.000000	0.326663
835.000000	0.326643
836.000000	0.326453
837.000000	0.326175
838.000000	0.325925
839.000000	0.325798
840.000000	0.325525
841.000000	0.325162
842.000000	0.324790
843.000000	0.324504
844.000000	0.324244
845.000000	0.323938
846.000000	0.323584
847.000000	0.323337
848.000000	0.323162
849.000000	0.322988
850.000000	0.322636
851.000000	0.322268
852.000000	0.322023
853.000000	0.321880
854.000000	0.321611
855.000000	0.321349
856.000000	0.321119
857.000000	0.320825
858.000000	0.320505
859.000000	0.320155
860.000000	0.319954
861.000000	0.319740
862.000000	0.319472
863.000000	0.319092
864.000000	0.318786
865.000000	0.318558
866.000000	0.318389
867.000000	0.318182
868.000000	0.317969
869.000000	0.317715
870.000000	0.317471
871.000000	0.317123
872.000000	0.316886
873.000000	0.316767
874.000000	0.316543
875.000000	0.316215
876.000000	0.315846
877.000000	0.315469
878.000000	0.315168
879.000000	0.314885
880.000000	0.314513
881.000000	0.314431
882.000000	0.314190
883.000000	0.313825
884.000000	0.313501
885.000000	0.313285
886.000000	0.313128
887.000000	0.312998
888.000000	0.312822
889.000000	0.312678
890.000000	0.312411
891.000000	0.312056
892.000000	0.311762
893.000000	0.311604
894.000000	0.311645
895.000000	0.311547
896.000000	0.311258
897.000000	0.310887
898.000000	0.310597
899.000000	0.310396
900.000000	0.310170
901.000000	0.309871
902.000000	0.309681
903.000000	0.309540
904.000000	0.309393
905.000000	0.309139
906.000000	0.309144
907.000000	0.309055
908.000000	0.308788
909.000000	0.308391
910.000000	0.308214
911.000000	0.308128
912.000000	0.307984
913.000000	0.307950
914.000000	0.307743
915.000000	0.307459
916.000000	0.307309
917.000000	0.307146
918.000000	0.306951
919.000000	0.306728
920.000000	0.306567
921.000000	0.306462
922.000000	0.306336
923.000000	0.306085
924.000000	0.306026
925.000000	0.306004
926.000000	0.305917
927.000000	0.305738
928.000000	0.305510
929.000000	0.305284
930.000000	0.305115
931.000000	0.305044
932.000000	0.304860
933.000000	0.304612
934.000000	0.304518
935.000000	0.304225
936.000000	0.303962
937.000000	0.303839
938.000000	0.303623
939.000000	0.303473
940.000000	0.303406
941.000000	0.303488
942.000000	0.303454
943.000000	0.303230
944.000000	0.302858
945.000000	0.302976
946.000000	0.302958
947.000000	0.302915
948.000000	0.302971
949.000000	0.302468
950.000000	0.302083
951.000000	0.301973
952.000000	0.301861
953.000000	0.301803
954.000000	0.301697
955.000000	0.301513
956.000000	0.301789
957.000000	0.301886
958.000000	0.301721
959.000000	0.301562
960.000000	0.301239
961.000000	0.301216
962.000000	0.301405
963.000000	0.301117
964.000000	0.300940
965.000000	0.300861
966.000000	0.300728
967.000000	0.300954
968.000000	0.300976
969.000000	0.300801
970.000000	0.300807
971.000000	0.300625
972.000000	0.300562
973.000000	0.300603
974.000000	0.300486
975.000000	0.300444
976.000000	0.300433
977.000000	0.300383
978.000000	0.300381
979.000000	0.300226
980.000000	0.299943
981.000000	0.300066
982.000000	0.300048
983.000000	0.299952
984.000000	0.299895
985.000000	0.299855
986.000000	0.300030
987.000000	0.300130
988.000000	0.299910
989.000000	0.299856
990.000000	0.299844
991.000000	0.299904
992.000000	0.300127
993.000000	0.300444
994.000000	0.300441
995.000000	0.300280
996.000000	0.300191
997.000000	0.300666
998.000000	0.301014
999.000000	0.301088
1000.000000	0.301488
1001.000000	0.301251
1002.000000	0.301052
1003.000000	0.301286
1004.000000	0.301475
1005.000000	0.301306
1006.000000	0.301578
1007.000000	0.302420
1008.000000	0.303000
1009.000000	0.302802
1010.000000	0.302708
1011.000000	0.302927
1012.000000	0.303140
1013.000000	0.303062
1014.000000	0.303071
1015.000000	0.303116
1016.000000	0.302827
1017.000000	0.303150
1018.000000	0.303877
1019.000000	0.304211
1020.000000	0.304427
1021.000000	0.304345
1022.000000	0.304015
1023.000000	0.304234
1024.000000	0.304325
1025.000000	0.304703
1026.000000	0.305386
1027.000000	0.305872
1028.000000	0.306354
1029.000000	0.306544
1030.000000	0.306626
1031.000000	0.307464
1032.000000	0.307603
1033.000000	0.307306
1034.000000	0.307383
1035.000000	0.307090
1036.000000	0.307196
1037.000000	0.308111
1038.000000	0.308356
1039.000000	0.308432
1040.000000	0.308862
1041.000000	0.308424
1042.000000	0.307772
1043.000000	0.308048
1044.000000	0.308433
1045.000000	0.308593
1046.000000	0.308986
1047.000000	0.309626
1048.000000	0.309998
1049.000000	0.310528
1050.000000	0.312211
1051.000000	0.312403
1052.000000	0.311174
1053.000000	0.311125
1054.000000	0.311043
1055.000000	0.311229
1056.000000	0.312007
1057.000000	0.313291
1058.000000	0.313753
1059.000000	0.313922
1060.000000	0.314166
1061.000000	0.314440
1062.000000	0.314747
1063.000000	0.315309
1064.000000	0.315960
1065.000000	0.316895
1066.000000	0.317489
1067.000000	0.318316
1068.000000	0.318501
1069.000000	0.318032
1070.000000	0.317909
1071.000000	0.316971
1072.000000	0.317148
1073.000000	0.318097
1074.000000	0.319463
1075.000000	0.320383
1076.000000	0.321434
1077.000000	0.321441
1078.000000	0.320701
1079.000000	0.321046
1080.000000	0.321890
1081.000000	0.322314
1082.000000	0.323375
1083.000000	0.323804
1084.000000	0.323371
1085.000000	0.323652
1086.000000	0.324156
1087.000000	0.324666
1088.000000	0.325401
1089.000000	0.325984
1090.000000	0.326596
1091.000000	0.326892
1092.000000	0.327166
1093.000000	0.327875
1094.000000	0.328202
1095.000000	0.328266
1096.000000	0.328612
1097.000000	0.328853
1098.000000	0.329357
1099.000000	0.330147
1100.000000	0.330785
1101.000000	0.331537
1102.000000	0.332015
1103.000000	0.332117
1104.000000	0.332567
1105.000000	0.332986
1106.000000	0.333490
1107.000000	0.334371
1108.000000	0.334940
1109.000000	0.335477
1110.000000	0.335866
1111.000000	0.336048
1112.000000	0.335865
1113.000000	0.336201
1114.000000	0.336598
1115.000000	0.336968
1116.000000	0.337663
1117.000000	0.338115
1118.000000	0.338306
1119.000000	0.338591
1120.000000	0.338937
1121.000000	0.339265
1122.000000	0.339599
1123.000000	0.340173
1124.000000	0.340755
1125.000000	0.341198
1126.000000	0.341468
1127.000000	0.341787
1128.000000	0.342075
1129.000000	0.342202
1130.000000	0.342684
1131.000000	0.343523
1132.000000	0.343855
1133.000000	0.344100
1134.000000	0.344499
1135.000000	0.344672
1136.000000	0.344902
1137.000000	0.345327
1138.000000	0.345618
1139.000000	0.345699
1140.000000	0.346102
1141.000000	0.346921
1142.000000	0.347281
1143.000000	0.347306
1144.000000	0.347605
1145.000000	0.347501
1146.000000	0.347490
1147.000000	0.347689
1148.000000	0.348084
1149.000000	0.348360
1150.000000	0.348683
1151.000000	0.348986
1152.000000	0.349197
1153.000000	0.349507
1154.000000	0.349757
1155.000000	0.350110
1156.000000	0.350697
1157.000000	0.351038
1158.000000	0.351302
1159.000000	0.351479
1160.000000	0.351396
1161.000000	0.351412
1162.000000	0.351330
1163.000000	0.351672
1164.000000	0.352074
1165.000000	0.352400
1166.000000	0.352777
1167.000000	0.353244
1168.000000	0.353550
1169.000000	0.353828
1170.000000	0.354085
1171.000000	0.354317
1172.000000	0.354640
1173.000000	0.354879
1174.000000	0.355156
1175.000000	0.355574
1176.000000	0.355793
1177.000000	0.356006
1178.000000	0.356213
1179.000000	0.356271
1180.000000	0.356334
1181.000000	0.356480
1182.000000	0.356616
1183.000000	0.356832
1184.000000	0.357316
1185.000000	0.357554
1186.000000	0.357755
1187.000000	0.357967
1188.000000	0.358089
1189.000000	0.358201
1190.000000	0.358447
1191.000000	0.358595
1192.000000	0.358755
1193.000000	0.358971
1194.000000	0.359022
1195.000000	0.359190
1196.000000	0.359269
1197.000000	0.359461
1198.000000	0.359869
1199.000000	0.360145
1200.000000	0.360417
1201.000000	0.360678
1202.000000	0.360738
1203.000000	0.360746
1204.000000	0.360716
1205.000000	0.360731
1206.000000	0.360782
1207.000000	0.361025
1208.000000	0.361073
1209.000000	0.361113
1210.000000	0.361194
1211.000000	0.361147
1212.000000	0.361295
1213.000000	0.361730
1214.000000	0.361973
1215.000000	0.362192
1216.000000	0.362384
1217.000000	0.362446
1218.000000	0.362498
1219.000000	0.362531
1220.000000	0.362670
1221.000000	0.362848
1222.000000	0.362909
1223.000000	0.363123
1224.000000	0.363282
1225.000000	0.363299
1226.000000	0.363461
1227.000000	0.363450
1228.000000	0.363438
1229.000000	0.363402
1230.000000	0.363190
1231.000000	0.363180
1232.000000	0.363432
1233.000000	0.363646
1234.000000	0.364026
1235.000000	0.364125
1236.000000	0.363905
1237.000000	0.363916
1238.000000	0.363773
1239.000000	0.363799
1240.000000	0.363999
1241.000000	0.364220
1242.000000	0.364450
1243.000000	0.364500
1244.000000	0.364558
1245.000000	0.364796
1246.000000	0.364872
1247.000000	0.365040
1248.000000	0.365185
1249.000000	0.365243
1250.000000	0.365384
1251.000000	0.365647
1252.000000	0.365831
1253.000000	0.366060
1254.000000	0.366176
1255.000000	0.366268
1256.000000	0.366263
1257.000000	0.366127
1258.000000	0.366236
1259.000000	0.366386
1260.000000	0.366411
1261.000000	0.366392
1262.000000	0.366423
1263.000000	0.366371
1264.000000	0.366277
1265.000000	0.366605
1266.000000	0.366695
1267.000000	0.366518
1268.000000	0.366514
1269.000000	0.366475
1270.000000	0.366507
1271.000000	0.366560
1272.000000	0.366696
1273.000000	0.366845
1274.000000	0.366812
1275.000000	0.366874
1276.000000	0.367131
1277.000000	0.367286
1278.000000	0.367303
1279.000000	0.367265
1280.000000	0.367028
1281.000000	0.366922
1282.000000	0.366896
1283.000000	0.366880
1284.000000	0.366904
1285.000000	0.366886
1286.000000	0.366742
1287.000000	0.366610
1288.000000	0.366684
1289.000000	0.366707
1290.000000	0.366759
1291.000000	0.366789
1292.000000	0.366938
1293.000000	0.367093
1294.000000	0.366906
1295.000000	0.366832
1296.000000	0.366788
1297.000000	0.366626
1298.000000	0.366828
1299.000000	0.367128
1300.000000	0.367275
1301.000000	0.367338
1302.000000	0.367260
1303.000000	0.367090
1304.000000	0.367013
1305.000000	0.367017
1306.000000	0.366980
1307.000000	0.367072
1308.000000	0.367116
1309.000000	0.367047
1310.000000	0.367037
1311.000000	0.367151
1312.000000	0.367073
1313.000000	0.366996
1314.000000	0.367026
1315.000000	0.366867
1316.000000	0.366852
1317.000000	0.366765
1318.000000	0.366533
1319.000000	0.366475
1320.000000	0.366327
1321.000000	0.366138
1322.000000	0.366148
1323.000000	0.366232
1324.000000	0.366304
1325.000000	0.366212
1326.000000	0.366080
1327.000000	0.365838
1328.000000	0.365683
1329.000000	0.365636
1330.000000	0.365889
1331.000000	0.365921
1332.000000	0.365995
1333.000000	0.365989
1334.000000	0.365966
1335.000000	0.365922
1336.000000	0.365810
1337.000000	0.365724
1338.000000	0.365545
1339.000000	0.365383
1340.000000	0.365310
1341.000000	0.365297
1342.000000	0.365298
1343.000000	0.365303
1344.000000	0.365343
1345.000000	0.365345
1346.000000	0.365451
1347.000000	0.365404
1348.000000	0.365362
1349.000000	0.365256
1350.000000	0.365005
1351.000000	0.364897
1352.000000	0.364794
1353.000000	0.364664
1354.000000	0.364573
1355.000000	0.364308
1356.000000	0.364179
1357.000000	0.364022
1358.000000	0.363955
1359.000000	0.364009
1360.000000	0.363913
1361.000000	0.363782
1362.000000	0.363623
1363.000000	0.363283
1364.000000	0.363167
1365.000000	0.363173
1366.000000	0.363119
1367.000000	0.363163
1368.000000	0.362989
1369.000000	0.362898
1370.000000	0.362644
1371.000000	0.362364
1372.000000	0.362197
1373.000000	0.361935
1374.000000	0.361782
1375.000000	0.361522
1376.000000	0.361241
1377.000000	0.361161
1378.000000	0.360842
1379.000000	0.360391
1380.000000	0.360206
1381.000000	0.359692
1382.000000	0.358972
1383.000000	0.358576
1384.000000	0.357962
1385.000000	0.357209
1386.000000	0.356642
1387.000000	0.355917
1388.000000	0.355066
1389.000000	0.354367
1390.000000	0.353737
1391.000000	0.352859
1392.000000	0.352037
1393.000000	0.351171
1394.000000	0.350217
1395.000000	0.349344
1396.000000	0.348553
1397.000000	0.347565
1398.000000	0.346458
1399.000000	0.345423
1400.000000	0.344235
1401.000000	0.343257
1402.000000	0.342450
1403.000000	0.341656
1404.000000	0.340899
1405.000000	0.339997
1406.000000	0.338981
1407.000000	0.337983
1408.000000	0.336949
1409.000000	0.336198
1410.000000	0.335586
1411.000000	0.334830
1412.000000	0.334101
1413.000000	0.333512
1414.000000	0.333038
1415.000000	0.332754
1416.000000	0.332645
1417.000000	0.332562
1418.000000	0.332503
1419.000000	0.332552
1420.000000	0.332612
1421.000000	0.332756
1422.000000	0.332764
1423.000000	0.332728
1424.000000	0.332669
1425.000000	0.332600
1426.000000	0.332299
1427.000000	0.332031
1428.000000	0.331808
1429.000000	0.331384
1430.000000	0.331187
1431.000000	0.331135
1432.000000	0.331079
1433.000000	0.331010
1434.000000	0.331168
1435.000000	0.331529
1436.000000	0.332031
1437.000000	0.332708
1438.000000	0.333396
1439.000000	0.334247
1440.000000	0.335125
1441.000000	0.336005
1442.000000	0.337107
1443.000000	0.338342
1444.000000	0.339587
1445.000000	0.340806
1446.000000	0.341948
1447.000000	0.342808
1448.000000	0.343535
1449.000000	0.344239
1450.000000	0.344874
1451.000000	0.345493
1452.000000	0.346075
1453.000000	0.346520
1454.000000	0.346805
1455.000000	0.347089
1456.000000	0.347329
1457.000000	0.347595
1458.000000	0.347942
1459.000000	0.348247
1460.000000	0.348420
1461.000000	0.348369
1462.000000	0.348399
1463.000000	0.348433
1464.000000	0.348446
1465.000000	0.348676
1466.000000	0.348824
1467.000000	0.349027
1468.000000	0.349368
1469.000000	0.349656
1470.000000	0.349952
1471.000000	0.350224
1472.000000	0.350335
1473.000000	0.350637
1474.000000	0.350892
1475.000000	0.351077
1476.000000	0.351444
1477.000000	0.351789
1478.000000	0.351967
1479.000000	0.352228
1480.000000	0.352585
1481.000000	0.352846
1482.000000	0.353161
1483.000000	0.353466
1484.000000	0.353697
1485.000000	0.353932
1486.000000	0.354169
1487.000000	0.354332
1488.000000	0.354483
1489.000000	0.354671
1490.000000	0.354667
1491.000000	0.354799
1492.000000	0.354951
1493.000000	0.355123
1494.000000	0.355254
1495.000000	0.355432
1496.000000	0.355652
1497.000000	0.355913
1498.000000	0.356252
1499.000000	0.356527
1500.000000	0.356856
1501.000000	0.357013
1502.000000	0.357017
1503.000000	0.357187
1504.000000	0.357277
1505.000000	0.357448
1506.000000	0.357849
1507.000000	0.358052
1508.000000	0.358227
1509.000000	0.358388
1510.000000	0.358361
1511.000000	0.358439
1512.000000	0.358550
1513.000000	0.358716
1514.000000	0.358961
1515.000000	0.359105
1516.000000	0.359376
1517.000000	0.359492
1518.000000	0.359437
1519.000000	0.359447
1520.000000	0.359467
1521.000000	0.359465
1522.000000	0.359619
1523.000000	0.359852
1524.000000	0.360009
1525.000000	0.360130
1526.000000	0.360178
1527.000000	0.360212
1528.000000	0.360184
1529.000000	0.360163
1530.000000	0.360207
1531.000000	0.360332
1532.000000	0.360379
1533.000000	0.360393
1534.000000	0.360536
1535.000000	0.360607
1536.000000	0.360644
1537.000000	0.360874
1538.000000	0.360960
1539.000000	0.360924
1540.000000	0.361003
1541.000000	0.361126
1542.000000	0.361259
1543.000000	0.361256
1544.000000	0.361139
1545.000000	0.361096
1546.000000	0.361173
1547.000000	0.361379
1548.000000	0.361598
1549.000000	0.361776
1550.000000	0.361897
1551.000000	0.361942
1552.000000	0.362006
1553.000000	0.362032
1554.000000	0.361963
1555.000000	0.362030
1556.000000	0.362209
1557.000000	0.362367
1558.000000	0.362508
1559.000000	0.362601
1560.000000	0.362612
1561.000000	0.362572
1562.000000	0.362614
1563.000000	0.362711
1564.000000	0.362815
1565.000000	0.362984
1566.000000	0.362964
1567.000000	0.362994
1568.000000	0.363006
1569.000000	0.362964
1570.000000	0.363026
1571.000000	0.363091
1572.000000	0.363174
1573.000000	0.363382
1574.000000	0.363475
1575.000000	0.363588
1576.000000	0.363617
1577.000000	0.363460
1578.000000	0.363435
1579.000000	0.363557
1580.000000	0.363556
1581.000000	0.363634
1582.000000	0.363688
1583.000000	0.363623
1584.000000	0.363528
1585.000000	0.363584
1586.000000	0.363565
1587.000000	0.363384
1588.000000	0.363385
1589.000000	0.363470
1590.000000	0.363522
1591.000000	0.363720
1592.000000	0.363790
1593.000000	0.363839
1594.000000	0.363861
1595.000000	0.363852
1596.000000	0.363871
1597.000000	0.363898
1598.000000	0.363935
1599.000000	0.364058
1600.000000	0.364053
1601.000000	0.364054
1602.000000	0.364099
1603.000000	0.364137
1604.000000	0.364167
1605.000000	0.364357
1606.000000	0.364367
1607.000000	0.364299
1608.000000	0.364233
1609.000000	0.364143
1610.000000	0.364032
1611.000000	0.363852
1612.000000	0.363861
1613.000000	0.364124
1614.000000	0.364165
1615.000000	0.364348
1616.000000	0.364400
1617.000000	0.364145
1618.000000	0.364074
1619.000000	0.364071
1620.000000	0.364032
1621.000000	0.364010
1622.000000	0.364101
1623.000000	0.364216
1624.000000	0.364233
1625.000000	0.364138
1626.000000	0.364026
1627.000000	0.363789
1628.000000	0.363754
1629.000000	0.363845
1630.000000	0.363881
1631.000000	0.363916
1632.000000	0.363887
1633.000000	0.363803
1634.000000	0.363752
1635.000000	0.363732
1636.000000	0.363681
1637.000000	0.363611
1638.000000	0.363587
1639.000000	0.363660
1640.000000	0.363680
1641.000000	0.363819
1642.000000	0.363843
1643.000000	0.363831
1644.000000	0.363822
1645.000000	0.363786
1646.000000	0.363681
1647.000000	0.363628
1648.000000	0.363392
1649.000000	0.363033
1650.000000	0.362921
1651.000000	0.362849
1652.000000	0.362863
1653.000000	0.363056
1654.000000	0.363141
1655.000000	0.363091
1656.000000	0.363049
1657.000000	0.363121
1658.000000	0.363049
1659.000000	0.363083
1660.000000	0.363006
1661.000000	0.362629
1662.000000	0.362570
1663.000000	0.362581
1664.000000	0.362499
1665.000000	0.362519
1666.000000	0.362579
1667.000000	0.362400
1668.000000	0.362489
1669.000000	0.362840
1670.000000	0.362900
1671.000000	0.362996
1672.000000	0.363154
1673.000000	0.363240
1674.000000	0.363244
1675.000000	0.363361
1676.000000	0.363323
1677.000000	0.363122
1678.000000	0.363021
1679.000000	0.363103
1680.000000	0.363113
1681.000000	0.363045
1682.000000	0.363139
1683.000000	0.363261
1684.000000	0.363240
1685.000000	0.363402
1686.000000	0.363609
1687.000000	0.363637
1688.000000	0.363667
1689.000000	0.363710
1690.000000	0.363560
1691.000000	0.363424
1692.000000	0.363260
1693.000000	0.363221
1694.000000	0.363279
1695.000000	0.363325
1696.000000	0.363408
1697.000000	0.363363
1698.000000	0.363214
1699.000000	0.363143
1700.000000	0.363066
1701.000000	0.363117
1702.000000	0.363065
1703.000000	0.362965
1704.000000	0.362962
1705.000000	0.362944
1706.000000	0.362926
1707.000000	0.362953
1708.000000	0.363016
1709.000000	0.362983
1710.000000	0.363014
1711.000000	0.363050
1712.000000	0.363163
1713.000000	0.363115
1714.000000	0.363020
1715.000000	0.362957
1716.000000	0.362788
1717.000000	0.362660
1718.000000	0.362523
1719.000000	0.362459
1720.000000	0.362459
1721.000000	0.362485
1722.000000	0.362691
1723.000000	0.362710
1724.000000	0.362677
1725.000000	0.362634
1726.000000	0.362401
1727.000000	0.362244
1728.000000	0.362009
1729.000000	0.361769
1730.000000	0.361716
1731.000000	0.361515
1732.000000	0.361265
1733.000000	0.361112
1734.000000	0.360704
1735.000000	0.360569
1736.000000	0.360582
1737.000000	0.360519
1738.000000	0.360583
1739.000000	0.360505
1740.000000	0.360286
1741.000000	0.360208
1742.000000	0.360116
1743.000000	0.360255
1744.000000	0.360596
1745.000000	0.360633
1746.000000	0.360666
1747.000000	0.360510
1748.000000	0.360340
1749.000000	0.360245
1750.000000	0.360090
1751.000000	0.359935
1752.000000	0.359967
1753.000000	0.359974
1754.000000	0.359962
1755.000000	0.360075
1756.000000	0.359969
1757.000000	0.359549
1758.000000	0.359426
1759.000000	0.359304
1760.000000	0.359260
1761.000000	0.359506
1762.000000	0.359530
1763.000000	0.359435
1764.000000	0.359381
1765.000000	0.359185
1766.000000	0.359159
1767.000000	0.359118
1768.000000	0.359104
1769.000000	0.359378
1770.000000	0.359456
1771.000000	0.359431
1772.000000	0.359356
1773.000000	0.359035
1774.000000	0.358918
1775.000000	0.358930
1776.000000	0.358917
1777.000000	0.358946
1778.000000	0.358917
1779.000000	0.358835
1780.000000	0.358797
1781.000000	0.358740
1782.000000	0.358682
1783.000000	0.358695
1784.000000	0.358696
1785.000000	0.358507
1786.000000	0.358472
1787.000000	0.358426
1788.000000	0.358512
1789.000000	0.358637
1790.000000	0.358576
1791.000000	0.358492
1792.000000	0.358279
1793.000000	0.358233
1794.000000	0.358439
1795.000000	0.358532
1796.000000	0.358685
1797.000000	0.358667
1798.000000	0.358334
1799.000000	0.358264
1800.000000	0.358364
1801.000000	0.357906
1802.000000	0.358147
1803.000000	0.358908
1804.000000	0.359450
1805.000000	0.360785
1806.000000	0.361124
1807.000000	0.360906
1808.000000	0.360749
1809.000000	0.360468
1810.000000	0.359433
1811.000000	0.358754
1812.000000	0.357807
1813.000000	0.357634
1814.000000	0.357726
1815.000000	0.357845
1816.000000	0.358918
1817.000000	0.359172
1818.000000	0.359241
1819.000000	0.359076
1820.000000	0.358838
1821.000000	0.357571
1822.000000	0.356936
1823.000000	0.355641
1824.000000	0.355425
1825.000000	0.355682
1826.000000	0.356356
1827.000000	0.357952
1828.000000	0.359044
1829.000000	0.359707
1830.000000	0.359862
1831.000000	0.359900
1832.000000	0.358840
1833.000000	0.358806
1834.000000	0.359583
1835.000000	0.359652
1836.000000	0.359398
1837.000000	0.359500
1838.000000	0.359916
1839.000000	0.358874
1840.000000	0.358513
1841.000000	0.358312
1842.000000	0.357909
1843.000000	0.356837
1844.000000	0.356826
1845.000000	0.357015
1846.000000	0.357403
1847.000000	0.358651
1848.000000	0.358963
1849.000000	0.358380
1850.000000	0.359504
1851.000000	0.359718
1852.000000	0.359366
1853.000000	0.359318
1854.000000	0.358937
1855.000000	0.358645
1856.000000	0.358242
1857.000000	0.357878
1858.000000	0.357766
1859.000000	0.357377
1860.000000	0.356713
1861.000000	0.356027
1862.000000	0.355165
1863.000000	0.354046
1864.000000	0.353395
1865.000000	0.352769
1866.000000	0.352372
1867.000000	0.352626
1868.000000	0.352345
1869.000000	0.350919
1870.000000	0.349785
1871.000000	0.348511
1872.000000	0.347280
1873.000000	0.346328
1874.000000	0.346120
1875.000000	0.345089
1876.000000	0.343410
1877.000000	0.341645
1878.000000	0.340185
1879.000000	0.338701
1880.000000	0.337032
1881.000000	0.335880
1882.000000	0.334723
1883.000000	0.333815
1884.000000	0.332433
1885.000000	0.331071
1886.000000	0.328829
1887.000000	0.325939
1888.000000	0.322459
1889.000000	0.318560
1890.000000	0.315642
1891.000000	0.312397
1892.000000	0.308173
1893.000000	0.304905
1894.000000	0.301958
1895.000000	0.298498
1896.000000	0.294916
1897.000000	0.292103
1898.000000	0.289039
1899.000000	0.285472
1900.000000	0.282720
1901.000000	0.280656
1902.000000	0.278414
1903.000000	0.276078
1904.000000	0.274065
1905.000000	0.271959
1906.000000	0.270254
1907.000000	0.268696
1908.000000	0.267901
1909.000000	0.267309
1910.000000	0.267554
1911.000000	0.267508
1912.000000	0.267537
1913.000000	0.268414
1914.000000	0.268675
1915.000000	0.269704
1916.000000	0.271084
1917.000000	0.272107
1918.000000	0.272998
1919.000000	0.274452
1920.000000	0.275393
1921.000000	0.276526
1922.000000	0.277916
1923.000000	0.278408
1924.000000	0.278706
1925.000000	0.279459
1926.000000	0.280173
1927.000000	0.281142
1928.000000	0.281938
1929.000000	0.283142
1930.000000	0.283547
1931.000000	0.283945
1932.000000	0.284604
1933.000000	0.285058
1934.000000	0.286036
1935.000000	0.286977
1936.000000	0.287243
1937.000000	0.287833
1938.000000	0.288441
1939.000000	0.288971
1940.000000	0.289306
1941.000000	0.290133
1942.000000	0.290678
1943.000000	0.290585
1944.000000	0.290524
1945.000000	0.290815
1946.000000	0.291652
1947.000000	0.292429
1948.000000	0.293301
1949.000000	0.294140
1950.000000	0.294063
1951.000000	0.294118
1952.000000	0.294205
1953.000000	0.294322
1954.000000	0.294546
1955.000000	0.295108
1956.000000	0.295652
1957.000000	0.296310
1958.000000	0.296232
1959.000000	0.296367
1960.000000	0.297032
1961.000000	0.297545
1962.000000	0.298118
1963.000000	0.298941
1964.000000	0.300013
1965.000000	0.300843
1966.000000	0.301345
1967.000000	0.302315
1968.000000	0.302715
1969.000000	0.302747
1970.000000	0.303308
1971.000000	0.303520
1972.000000	0.303782
1973.000000	0.304042
1974.000000	0.304482
1975.000000	0.304852
1976.000000	0.305073
1977.000000	0.305761
1978.000000	0.306771
1979.000000	0.307592
1980.000000	0.308243
1981.000000	0.308299
1982.000000	0.308106
1983.000000	0.308085
1984.000000	0.308326
1985.000000	0.309086
1986.000000	0.309719
1987.000000	0.310535
1988.000000	0.311399
1989.000000	0.311805
1990.000000	0.312265
1991.000000	0.312880
1992.000000	0.312667
1993.000000	0.312973
1994.000000	0.313785
1995.000000	0.314568
1996.000000	0.315622
1997.000000	0.316171
1998.000000	0.316566
1999.000000	0.316991
2000.000000	0.317168
2001.000000	0.317075
2002.000000	0.317416
2003.000000	0.317799
2004.000000	0.317514
2005.000000	0.317852
2006.000000	0.318483
2007.000000	0.318985
2008.000000	0.319843
2009.000000	0.321141
2010.000000	0.322065
2011.000000	0.323210
2012.000000	0.323682
2013.000000	0.323535
2014.000000	0.323563
2015.000000	0.323308
2016.000000	0.323613
2017.000000	0.324562
2018.000000	0.325199
2019.000000	0.326439
2020.000000	0.327028
2021.000000	0.327385
2022.000000	0.327597
2023.000000	0.327691
2024.000000	0.327199
2025.000000	0.327269
2026.000000	0.327387
2027.000000	0.327257
2028.000000	0.327750
2029.000000	0.327870
2030.000000	0.328067
2031.000000	0.328662
2032.000000	0.328641
2033.000000	0.329163
2034.000000	0.329631
2035.000000	0.330261
2036.000000	0.330375
2037.000000	0.330753
2038.000000	0.330839
2039.000000	0.330349
2040.000000	0.330320
2041.000000	0.330826
2042.000000	0.331240
2043.000000	0.331674
2044.000000	0.332403
2045.000000	0.332963
2046.000000	0.332985
2047.000000	0.332994
2048.000000	0.332708
2049.000000	0.332832
2050.000000	0.332333
2051.000000	0.332377
2052.000000	0.332954
2053.000000	0.332964
2054.000000	0.333028
2055.000000	0.333452
2056.000000	0.333174
2057.000000	0.333656
2058.000000	0.334335
2059.000000	0.334551
2060.000000	0.334579
2061.000000	0.334288
2062.000000	0.334158
2063.000000	0.333787
2064.000000	0.333668
2065.000000	0.334303
2066.000000	0.334374
2067.000000	0.334534
2068.000000	0.334748
2069.000000	0.334411
2070.000000	0.334362
2071.000000	0.333987
2072.000000	0.333944
2073.000000	0.334678
2074.000000	0.334836
2075.000000	0.334977
2076.000000	0.335384
2077.000000	0.335327
2078.000000	0.334340
2079.000000	0.334341
2080.000000	0.334864
2081.000000	0.335222
2082.000000	0.335930
2083.000000	0.336770
2084.000000	0.336839
2085.000000	0.336886
2086.000000	0.336986
2087.000000	0.337761
2088.000000	0.338181
2089.000000	0.338121
2090.000000	0.338456
2091.000000	0.338487
2092.000000	0.338599
2093.000000	0.339474
2094.000000	0.339825
2095.000000	0.339951
2096.000000	0.340047
2097.000000	0.339894
2098.000000	0.339375
2099.000000	0.339570
2100.000000	0.339582
2101.000000	0.339309
2102.000000	0.339055
2103.000000	0.339147
2104.000000	0.338485
2105.000000	0.338261
2106.000000	0.338858
2107.000000	0.338857
2108.000000	0.337913
2109.000000	0.338025
2110.000000	0.338733
2111.000000	0.338989
2112.000000	0.339301
2113.000000	0.339629
2114.000000	0.339406
2115.000000	0.338085
2116.000000	0.337191
2117.000000	0.336655
2118.000000	0.336281
2119.000000	0.336540
2120.000000	0.337283
2121.000000	0.339123
2122.000000	0.339675
2123.000000	0.340436
2124.000000	0.340529
2125.000000	0.338647
2126.000000	0.338557
2127.000000	0.339745
2128.000000	0.340277
2129.000000	0.340880
2130.000000	0.342159
2131.000000	0.342229
2132.000000	0.341108
2133.000000	0.340825
2134.000000	0.340131
2135.000000	0.338837
2136.000000	0.338550
2137.000000	0.338134
2138.000000	0.337700
2139.000000	0.337445
2140.000000	0.337524
2141.000000	0.337372
2142.000000	0.336899
2143.000000	0.336732
2144.000000	0.337259
2145.000000	0.337531
2146.000000	0.337912
2147.000000	0.338890
2148.000000	0.338688
2149.000000	0.337642
2150.000000	0.336741
2151.000000	0.335440
2152.000000	0.333973
2153.000000	0.333525
2154.000000	0.332955
2155.000000	0.332115
2156.000000	0.332114
2157.000000	0.333212
2158.000000	0.333530
2159.000000	0.333954
2160.000000	0.334634
2161.000000	0.335238
2162.000000	0.335576
2163.000000	0.336083
2164.000000	0.336325
2165.000000	0.336246
2166.000000	0.335668
2167.000000	0.335337
2168.000000	0.335214
2169.000000	0.334896
2170.000000	0.334651
2171.000000	0.334703
2172.000000	0.335137
2173.000000	0.335472
2174.000000	0.336199
2175.000000	0.336399
2176.000000	0.336260
2177.000000	0.336243
2178.000000	0.335751
2179.000000	0.335900
2180.000000	0.336700
2181.000000	0.337348
2182.000000	0.337558
2183.000000	0.337915
2184.000000	0.338081
2185.000000	0.337100
2186.000000	0.335402
2187.000000	0.334923
2188.000000	0.334684
2189.000000	0.333623
2190.000000	0.333034
2191.000000	0.332968
2192.000000	0.332159
2193.000000	0.329948
2194.000000	0.329587
2195.000000	0.330218
2196.000000	0.330395
2197.000000	0.331174
2198.000000	0.331881
2199.000000	0.333192
2200.000000	0.333404
2201.000000	0.333848
2202.000000	0.333638
2203.000000	0.332200
2204.000000	0.329104
2205.000000	0.326109
2206.000000	0.323559
2207.000000	0.323266
2208.000000	0.325336
2209.000000	0.327487
2210.000000	0.328857
2211.000000	0.327783
2212.000000	0.326039
2213.000000	0.325566
2214.000000	0.325541
2215.000000	0.325595
2216.000000	0.325621
2217.000000	0.326581
2218.000000	0.329191
2219.000000	0.330176
2220.000000	0.331427
2221.000000	0.332252
2222.000000	0.331423
2223.000000	0.329935
2224.000000	0.328071
2225.000000	0.327301
2226.000000	0.323337
2227.000000	0.322559
2228.000000	0.321152
2229.000000	0.319036
2230.000000	0.319671
2231.000000	0.320930
2232.000000	0.323574
2233.000000	0.326770
2234.000000	0.328120
2235.000000	0.329211
2236.000000	0.329996
2237.000000	0.330539
2238.000000	0.330330
2239.000000	0.328651
2240.000000	0.328332
2241.000000	0.328005
2242.000000	0.327785
2243.000000	0.329321
2244.000000	0.329505
2245.000000	0.329018
2246.000000	0.327885
2247.000000	0.323646
2248.000000	0.322433
2249.000000	0.322756
2250.000000	0.323001
2251.000000	0.322290
2252.000000	0.327426
2253.000000	0.329422
2254.000000	0.329806
2255.000000	0.332680
2256.000000	0.331237
2257.000000	0.328926
2258.000000	0.327049
2259.000000	0.323706
2260.000000	0.322435
2261.000000	0.321672
2262.000000	0.321817
2263.000000	0.322048
2264.000000	0.324020
2265.000000	0.323766
2266.000000	0.323002
2267.000000	0.321234
2268.000000	0.317248
2269.000000	0.314811
2270.000000	0.312739
2271.000000	0.310702
2272.000000	0.309891
2273.000000	0.308104
2274.000000	0.304966
2275.000000	0.302131
2276.000000	0.299371
2277.000000	0.295625
2278.000000	0.292157
2279.000000	0.292799
2280.000000	0.294744
2281.000000	0.295614
2282.000000	0.296363
2283.000000	0.296022
2284.000000	0.292064
2285.000000	0.289039
2286.000000	0.287750
2287.000000	0.285641
2288.000000	0.287221
2289.000000	0.288769
2290.000000	0.288574
2291.000000	0.291735
2292.000000	0.293647
2293.000000	0.293633
2294.000000	0.295094
2295.000000	0.297693
2296.000000	0.298594
2297.000000	0.299077
2298.000000	0.300123
2299.000000	0.300286
2300.000000	0.301144
2301.000000	0.302462
2302.000000	0.304157
2303.000000	0.305987
2304.000000	0.308113
2305.000000	0.311650
2306.000000	0.313750
2307.000000	0.315289
2308.000000	0.316740
2309.000000	0.317384
2310.000000	0.317390
2311.000000	0.317777
2312.000000	0.317175
2313.000000	0.314250
2314.000000	0.312326
2315.000000	0.311800
2316.000000	0.311955
2317.000000	0.312599
2318.000000	0.314249
2319.000000	0.317022
2320.000000	0.318179
2321.000000	0.319641
2322.000000	0.321225
2323.000000	0.319647
2324.000000	0.317452
2325.000000	0.315895
2326.000000	0.315357
2327.000000	0.317177
2328.000000	0.317562
2329.000000	0.318254
2330.000000	0.317874
2331.000000	0.314509
2332.000000	0.315323
2333.000000	0.315877
2334.000000	0.314537
2335.000000	0.313941
2336.000000	0.311887
2337.000000	0.310581
2338.000000	0.310230
2339.000000	0.309609
2340.000000	0.309621
2341.000000	0.308835
2342.000000	0.305652
2343.000000	0.305398
2344.000000	0.307081
2345.000000	0.307409
2346.000000	0.309432
2347.000000	0.310134
2348.000000	0.309743
2349.000000	0.308620
2350.000000	0.305911
2351.000000	0.307247
2352.000000	0.307835
2353.000000	0.308306
2354.000000	0.310867
2355.000000	0.309175
2356.000000	0.302938
2357.000000	0.297839
2358.000000	0.294090
2359.000000	0.291081
2360.000000	0.292822
2361.000000	0.296247
2362.000000	0.298027
2363.000000	0.300918
2364.000000	0.301518
2365.000000	0.297884
2366.000000	0.295194
2367.000000	0.292488
2368.000000	0.288637
2369.000000	0.287704
2370.000000	0.286322
2371.000000	0.284857
2372.000000	0.289001
2373.000000	0.292713
2374.000000	0.293922
2375.000000	0.293380
2376.000000	0.293855
2377.000000	0.295359
2378.000000	0.296868
2379.000000	0.300851
2380.000000	0.297852
2381.000000	0.296584
2382.000000	0.296896
2383.000000	0.294554
2384.000000	0.296748
2385.000000	0.291779
2386.000000	0.286076
2387.000000	0.284146
2388.000000	0.280873
2389.000000	0.280929
2390.000000	0.282509
2391.000000	0.283883
2392.000000	0.282595
2393.000000	0.281008
2394.000000	0.280370
2395.000000	0.281903
2396.000000	0.288764
2397.000000	0.292479
2398.000000	0.294676
2399.000000	0.297087
2400.000000	0.293822
2401.000000	0.288804
2402.000000	0.284947
2403.000000	0.278380
2404.000000	0.268547
2405.000000	0.265223
2406.000000	0.269820
2407.000000	0.273390
2408.000000	0.275407
2409.000000	0.279866
2410.000000	0.277293
2411.000000	0.273661
2412.000000	0.277338
2413.000000	0.277426
2414.000000	0.281817
2415.000000	0.284147
2416.000000	0.285424
2417.000000	0.288170
2418.000000	0.279428
2419.000000	0.277502
2420.000000	0.276222
2421.000000	0.264149
2422.000000	0.260869
2423.000000	0.261475
2424.000000	0.257591
2425.000000	0.263918
2426.000000	0.273930
2427.000000	0.283887
2428.000000	0.295725
2429.000000	0.300758
2430.000000	0.297448
2431.000000	0.282395
2432.000000	0.263118
2433.000000	0.252228
2434.000000	0.246543
2435.000000	0.244601
2436.000000	0.249833
2437.000000	0.251737
2438.000000	0.252307
2439.000000	0.254076
2440.000000	0.257597
2441.000000	0.260228
2442.000000	0.251842
2443.000000	0.252142
2444.000000	0.255799
2445.000000	0.263797
2446.000000	0.287984
2447.000000	0.295640
2448.000000	0.282232
2449.000000	0.264538
2450.000000	0.241575
2451.000000	0.220945
2452.000000	0.219682
2453.000000	0.214600
2454.000000	0.204538
2455.000000	0.210941
2456.000000	0.214340
2457.000000	0.218099
2458.000000	0.223641
2459.000000	0.232076
2460.000000	0.230059
2461.000000	0.230859
2462.000000	0.242529
2463.000000	0.226367
2464.000000	0.216916
2465.000000	0.230941
2466.000000	0.224061
2467.000000	0.216185
2468.000000	0.241305
2469.000000	0.238012
2470.000000	0.228826
2471.000000	0.246129
2472.000000	0.234014
2473.000000	0.232811
2474.000000	0.240756
2475.000000	0.227179
2476.000000	0.212933
2477.000000	0.180939
2478.000000	0.161119
2479.000000	0.171284
2480.000000	0.174296
2481.000000	0.171837
2482.000000	0.144897
2483.000000	0.113059
2484.000000	0.120685
2485.000000	0.158312
2486.000000	0.198978
2487.000000	0.241297
2488.000000	0.285149
2489.000000	0.266736
2490.000000	0.222653
2491.000000	0.148131
2492.000000	0.121824
2493.000000	0.160971
2494.000000	0.184676
2495.000000	0.213246
2496.000000	0.243624
2497.000000	0.289630
2498.000000	0.303495
2499.000000	0.355999
2500.000000	0.328136
