# Wavelength	NAu-2-40_HEX-50_FV7-10_00000.asd.rts.txt
350.000000	0.147889
351.000000	0.133825
352.000000	0.125542
353.000000	0.135526
354.000000	0.158147
355.000000	0.152878
356.000000	0.134588
357.000000	0.123073
358.000000	0.143475
359.000000	0.151633
360.000000	0.148613
361.000000	0.145387
362.000000	0.141440
363.000000	0.138346
364.000000	0.137696
365.000000	0.144214
366.000000	0.146548
367.000000	0.142708
368.000000	0.138445
369.000000	0.139756
370.000000	0.144765
371.000000	0.148093
372.000000	0.139584
373.000000	0.133115
374.000000	0.137478
375.000000	0.143079
376.000000	0.143100
377.000000	0.139144
378.000000	0.141271
379.000000	0.142525
380.000000	0.140006
381.000000	0.133898
382.000000	0.136033
383.000000	0.139685
384.000000	0.139768
385.000000	0.141142
386.000000	0.140137
387.000000	0.137695
388.000000	0.139915
389.000000	0.139814
390.000000	0.138799
391.000000	0.140547
392.000000	0.142109
393.000000	0.142773
394.000000	0.142690
395.000000	0.143675
396.000000	0.143995
397.000000	0.143240
398.000000	0.142795
399.000000	0.141902
400.000000	0.141236
401.000000	0.141876
402.000000	0.142545
403.000000	0.142683
404.000000	0.142119
405.000000	0.140725
406.000000	0.141042
407.000000	0.143079
408.000000	0.142315
409.000000	0.142775
410.000000	0.144148
411.000000	0.143766
412.000000	0.143438
413.000000	0.143632
414.000000	0.144358
415.000000	0.144703
416.000000	0.145114
417.000000	0.145719
418.000000	0.145621
419.000000	0.145821
420.000000	0.146325
421.000000	0.146296
422.000000	0.146648
423.000000	0.147116
424.000000	0.147218
425.000000	0.147685
426.000000	0.148030
427.000000	0.147994
428.000000	0.148521
429.000000	0.149201
430.000000	0.149745
431.000000	0.149988
432.000000	0.150126
433.000000	0.150208
434.000000	0.150302
435.000000	0.150729
436.000000	0.151089
437.000000	0.151075
438.000000	0.151536
439.000000	0.152003
440.000000	0.152273
441.000000	0.152538
442.000000	0.152933
443.000000	0.153341
444.000000	0.153547
445.000000	0.153701
446.000000	0.153977
447.000000	0.154423
448.000000	0.155066
449.000000	0.155647
450.000000	0.156037
451.000000	0.156479
452.000000	0.156919
453.000000	0.157333
454.000000	0.157907
455.000000	0.157951
456.000000	0.157987
457.000000	0.158838
458.000000	0.159208
459.000000	0.159584
460.000000	0.160450
461.000000	0.160817
462.000000	0.161031
463.000000	0.161191
464.000000	0.161123
465.000000	0.161553
466.000000	0.162283
467.000000	0.162581
468.000000	0.162884
469.000000	0.163329
470.000000	0.164002
471.000000	0.164368
472.000000	0.164430
473.000000	0.164439
474.000000	0.165102
475.000000	0.165671
476.000000	0.165963
477.000000	0.166128
478.000000	0.166430
479.000000	0.166853
480.000000	0.167059
481.000000	0.167495
482.000000	0.168002
483.000000	0.168264
484.000000	0.168598
485.000000	0.168752
486.000000	0.168812
487.000000	0.169163
488.000000	0.169384
489.000000	0.169517
490.000000	0.169889
491.000000	0.170127
492.000000	0.170302
493.000000	0.170487
494.000000	0.170578
495.000000	0.170655
496.000000	0.170746
497.000000	0.170784
498.000000	0.170962
499.000000	0.171256
500.000000	0.171218
501.000000	0.171290
502.000000	0.171519
503.000000	0.171730
504.000000	0.171947
505.000000	0.172151
506.000000	0.172344
507.000000	0.172625
508.000000	0.172893
509.000000	0.173133
510.000000	0.173642
511.000000	0.174011
512.000000	0.174270
513.000000	0.174763
514.000000	0.175168
515.000000	0.175514
516.000000	0.175890
517.000000	0.176316
518.000000	0.176765
519.000000	0.177165
520.000000	0.177581
521.000000	0.178034
522.000000	0.178565
523.000000	0.179264
524.000000	0.179889
525.000000	0.180482
526.000000	0.181273
527.000000	0.182216
528.000000	0.183285
529.000000	0.184467
530.000000	0.185582
531.000000	0.186786
532.000000	0.188130
533.000000	0.189619
534.000000	0.191086
535.000000	0.192475
536.000000	0.193862
537.000000	0.195298
538.000000	0.196725
539.000000	0.198032
540.000000	0.199263
541.000000	0.200438
542.000000	0.201598
543.000000	0.202744
544.000000	0.203884
545.000000	0.204978
546.000000	0.206043
547.000000	0.207224
548.000000	0.208517
549.000000	0.209744
550.000000	0.210994
551.000000	0.212419
552.000000	0.214084
553.000000	0.215614
554.000000	0.217198
555.000000	0.219001
556.000000	0.220905
557.000000	0.222769
558.000000	0.224672
559.000000	0.226698
560.000000	0.228739
561.000000	0.230779
562.000000	0.232720
563.000000	0.234583
564.000000	0.236428
565.000000	0.238214
566.000000	0.239934
567.000000	0.241552
568.000000	0.243046
569.000000	0.244503
570.000000	0.245769
571.000000	0.246856
572.000000	0.247953
573.000000	0.248913
574.000000	0.249726
575.000000	0.250469
576.000000	0.251070
577.000000	0.251596
578.000000	0.252139
579.000000	0.252538
580.000000	0.252856
581.000000	0.253115
582.000000	0.253270
583.000000	0.253363
584.000000	0.253373
585.000000	0.253249
586.000000	0.253105
587.000000	0.252952
588.000000	0.252768
589.000000	0.252531
590.000000	0.252194
591.000000	0.251761
592.000000	0.251345
593.000000	0.250930
594.000000	0.250477
595.000000	0.249926
596.000000	0.249339
597.000000	0.248772
598.000000	0.248176
599.000000	0.247435
600.000000	0.246690
601.000000	0.246009
602.000000	0.245367
603.000000	0.244660
604.000000	0.243880
605.000000	0.243175
606.000000	0.242499
607.000000	0.241805
608.000000	0.241030
609.000000	0.240344
610.000000	0.239731
611.000000	0.239116
612.000000	0.238476
613.000000	0.237802
614.000000	0.237131
615.000000	0.236486
616.000000	0.235896
617.000000	0.235312
618.000000	0.234667
619.000000	0.234111
620.000000	0.233611
621.000000	0.233108
622.000000	0.232544
623.000000	0.232010
624.000000	0.231570
625.000000	0.231074
626.000000	0.230605
627.000000	0.230216
628.000000	0.229917
629.000000	0.229669
630.000000	0.229334
631.000000	0.228941
632.000000	0.228681
633.000000	0.228481
634.000000	0.228223
635.000000	0.227972
636.000000	0.227775
637.000000	0.227627
638.000000	0.227448
639.000000	0.227336
640.000000	0.227327
641.000000	0.227284
642.000000	0.227254
643.000000	0.227257
644.000000	0.227299
645.000000	0.227246
646.000000	0.227260
647.000000	0.227416
648.000000	0.227506
649.000000	0.227636
650.000000	0.227839
651.000000	0.228097
652.000000	0.228390
653.000000	0.228710
654.000000	0.228995
655.000000	0.229338
656.000000	0.229716
657.000000	0.230071
658.000000	0.230532
659.000000	0.231032
660.000000	0.231528
661.000000	0.232082
662.000000	0.232588
663.000000	0.233139
664.000000	0.233859
665.000000	0.234510
666.000000	0.235134
667.000000	0.235811
668.000000	0.236609
669.000000	0.237409
670.000000	0.238173
671.000000	0.239051
672.000000	0.239958
673.000000	0.240873
674.000000	0.241836
675.000000	0.242808
676.000000	0.243792
677.000000	0.244821
678.000000	0.245904
679.000000	0.247031
680.000000	0.248205
681.000000	0.249457
682.000000	0.250739
683.000000	0.251994
684.000000	0.253339
685.000000	0.254784
686.000000	0.256301
687.000000	0.257804
688.000000	0.259347
689.000000	0.260908
690.000000	0.262505
691.000000	0.264164
692.000000	0.265809
693.000000	0.267486
694.000000	0.269227
695.000000	0.270992
696.000000	0.272765
697.000000	0.274549
698.000000	0.276451
699.000000	0.278407
700.000000	0.280356
701.000000	0.282334
702.000000	0.284374
703.000000	0.286462
704.000000	0.288567
705.000000	0.290725
706.000000	0.292918
707.000000	0.295188
708.000000	0.297438
709.000000	0.299679
710.000000	0.301947
711.000000	0.304209
712.000000	0.306522
713.000000	0.308900
714.000000	0.311227
715.000000	0.313587
716.000000	0.315994
717.000000	0.318413
718.000000	0.320844
719.000000	0.323277
720.000000	0.325720
721.000000	0.328176
722.000000	0.330619
723.000000	0.333082
724.000000	0.335508
725.000000	0.337927
726.000000	0.340415
727.000000	0.342882
728.000000	0.345319
729.000000	0.347762
730.000000	0.350186
731.000000	0.352615
732.000000	0.355020
733.000000	0.357415
734.000000	0.359734
735.000000	0.362029
736.000000	0.364416
737.000000	0.366728
738.000000	0.368910
739.000000	0.371096
740.000000	0.373192
741.000000	0.375298
742.000000	0.377431
743.000000	0.379536
744.000000	0.381591
745.000000	0.383630
746.000000	0.385670
747.000000	0.387603
748.000000	0.389467
749.000000	0.391290
750.000000	0.393033
751.000000	0.394657
752.000000	0.396257
753.000000	0.397890
754.000000	0.399548
755.000000	0.401160
756.000000	0.402709
757.000000	0.404153
758.000000	0.405620
759.000000	0.407092
760.000000	0.408450
761.000000	0.409760
762.000000	0.410984
763.000000	0.412102
764.000000	0.413214
765.000000	0.414317
766.000000	0.415388
767.000000	0.416403
768.000000	0.417401
769.000000	0.418359
770.000000	0.419284
771.000000	0.420209
772.000000	0.421094
773.000000	0.421844
774.000000	0.422537
775.000000	0.423254
776.000000	0.423972
777.000000	0.424631
778.000000	0.425220
779.000000	0.425844
780.000000	0.426496
781.000000	0.427030
782.000000	0.427480
783.000000	0.428002
784.000000	0.428510
785.000000	0.429014
786.000000	0.429491
787.000000	0.429919
788.000000	0.430296
789.000000	0.430623
790.000000	0.430910
791.000000	0.431235
792.000000	0.431467
793.000000	0.431647
794.000000	0.431838
795.000000	0.432056
796.000000	0.432270
797.000000	0.432445
798.000000	0.432551
799.000000	0.432603
800.000000	0.432653
801.000000	0.432756
802.000000	0.432846
803.000000	0.432932
804.000000	0.433045
805.000000	0.433064
806.000000	0.433052
807.000000	0.433118
808.000000	0.433179
809.000000	0.433169
810.000000	0.433230
811.000000	0.433389
812.000000	0.433336
813.000000	0.433190
814.000000	0.433048
815.000000	0.433027
816.000000	0.432934
817.000000	0.432818
818.000000	0.432661
819.000000	0.432564
820.000000	0.432467
821.000000	0.432299
822.000000	0.432201
823.000000	0.432133
824.000000	0.432025
825.000000	0.431952
826.000000	0.431764
827.000000	0.431564
828.000000	0.431461
829.000000	0.431306
830.000000	0.431091
831.000000	0.430866
832.000000	0.430502
833.000000	0.430293
834.000000	0.430136
835.000000	0.429952
836.000000	0.429726
837.000000	0.429478
838.000000	0.429258
839.000000	0.429067
840.000000	0.428846
841.000000	0.428613
842.000000	0.428347
843.000000	0.428116
844.000000	0.427843
845.000000	0.427522
846.000000	0.427342
847.000000	0.427193
848.000000	0.427035
849.000000	0.426888
850.000000	0.426700
851.000000	0.426348
852.000000	0.425917
853.000000	0.425629
854.000000	0.425358
855.000000	0.425198
856.000000	0.425008
857.000000	0.424622
858.000000	0.424328
859.000000	0.424126
860.000000	0.423839
861.000000	0.423521
862.000000	0.423221
863.000000	0.422883
864.000000	0.422536
865.000000	0.422222
866.000000	0.421971
867.000000	0.421673
868.000000	0.421414
869.000000	0.421088
870.000000	0.420696
871.000000	0.420339
872.000000	0.420029
873.000000	0.419682
874.000000	0.419346
875.000000	0.418927
876.000000	0.418527
877.000000	0.418198
878.000000	0.417638
879.000000	0.417225
880.000000	0.416977
881.000000	0.416777
882.000000	0.416559
883.000000	0.416313
884.000000	0.415982
885.000000	0.415677
886.000000	0.415351
887.000000	0.414998
888.000000	0.414580
889.000000	0.414285
890.000000	0.413955
891.000000	0.413611
892.000000	0.413171
893.000000	0.412679
894.000000	0.412332
895.000000	0.412020
896.000000	0.411705
897.000000	0.411365
898.000000	0.410998
899.000000	0.410656
900.000000	0.410363
901.000000	0.410065
902.000000	0.409778
903.000000	0.409419
904.000000	0.409151
905.000000	0.408977
906.000000	0.408701
907.000000	0.408362
908.000000	0.408052
909.000000	0.407673
910.000000	0.407257
911.000000	0.406908
912.000000	0.406686
913.000000	0.406323
914.000000	0.405951
915.000000	0.405679
916.000000	0.405379
917.000000	0.405161
918.000000	0.404883
919.000000	0.404468
920.000000	0.404234
921.000000	0.404065
922.000000	0.403834
923.000000	0.403410
924.000000	0.403147
925.000000	0.402811
926.000000	0.402338
927.000000	0.401920
928.000000	0.401557
929.000000	0.401209
930.000000	0.400830
931.000000	0.400402
932.000000	0.400144
933.000000	0.400068
934.000000	0.399816
935.000000	0.399475
936.000000	0.399252
937.000000	0.399098
938.000000	0.398639
939.000000	0.398371
940.000000	0.398202
941.000000	0.397914
942.000000	0.397619
943.000000	0.397452
944.000000	0.397260
945.000000	0.396933
946.000000	0.396541
947.000000	0.396226
948.000000	0.396031
949.000000	0.395951
950.000000	0.395738
951.000000	0.395359
952.000000	0.395146
953.000000	0.394888
954.000000	0.394531
955.000000	0.394038
956.000000	0.393691
957.000000	0.393449
958.000000	0.393151
959.000000	0.392807
960.000000	0.392717
961.000000	0.392595
962.000000	0.392365
963.000000	0.392319
964.000000	0.392202
965.000000	0.392006
966.000000	0.391653
967.000000	0.391348
968.000000	0.391226
969.000000	0.391131
970.000000	0.390936
971.000000	0.390612
972.000000	0.390386
973.000000	0.390290
974.000000	0.390328
975.000000	0.390317
976.000000	0.390078
977.000000	0.389622
978.000000	0.389475
979.000000	0.389415
980.000000	0.389186
981.000000	0.389155
982.000000	0.389292
983.000000	0.389013
984.000000	0.388620
985.000000	0.389065
986.000000	0.388718
987.000000	0.388281
988.000000	0.388259
989.000000	0.388285
990.000000	0.388260
991.000000	0.388164
992.000000	0.388110
993.000000	0.388266
994.000000	0.388094
995.000000	0.387850
996.000000	0.387837
997.000000	0.387915
998.000000	0.388082
999.000000	0.388306
1000.000000	0.388180
1001.000000	0.388512
1002.000000	0.388441
1003.000000	0.387614
1004.000000	0.387322
1005.000000	0.387575
1006.000000	0.387324
1007.000000	0.386980
1008.000000	0.386718
1009.000000	0.386342
1010.000000	0.385641
1011.000000	0.385393
1012.000000	0.386031
1013.000000	0.386241
1014.000000	0.385953
1015.000000	0.385848
1016.000000	0.385460
1017.000000	0.385538
1018.000000	0.386590
1019.000000	0.386913
1020.000000	0.387367
1021.000000	0.387083
1022.000000	0.386208
1023.000000	0.386085
1024.000000	0.385795
1025.000000	0.386076
1026.000000	0.386477
1027.000000	0.386467
1028.000000	0.386387
1029.000000	0.386667
1030.000000	0.387364
1031.000000	0.387101
1032.000000	0.386466
1033.000000	0.386848
1034.000000	0.387248
1035.000000	0.388008
1036.000000	0.388302
1037.000000	0.388692
1038.000000	0.388844
1039.000000	0.388623
1040.000000	0.388605
1041.000000	0.388898
1042.000000	0.389055
1043.000000	0.389055
1044.000000	0.389706
1045.000000	0.390397
1046.000000	0.390518
1047.000000	0.390485
1048.000000	0.389940
1049.000000	0.389651
1050.000000	0.388891
1051.000000	0.389214
1052.000000	0.390374
1053.000000	0.390679
1054.000000	0.391454
1055.000000	0.391908
1056.000000	0.391692
1057.000000	0.391925
1058.000000	0.391895
1059.000000	0.391765
1060.000000	0.391961
1061.000000	0.392272
1062.000000	0.392278
1063.000000	0.392555
1064.000000	0.393003
1065.000000	0.393284
1066.000000	0.393472
1067.000000	0.393945
1068.000000	0.394225
1069.000000	0.393923
1070.000000	0.394107
1071.000000	0.395058
1072.000000	0.395451
1073.000000	0.395810
1074.000000	0.395782
1075.000000	0.395894
1076.000000	0.396040
1077.000000	0.396353
1078.000000	0.396895
1079.000000	0.397228
1080.000000	0.397557
1081.000000	0.397683
1082.000000	0.397714
1083.000000	0.397922
1084.000000	0.398189
1085.000000	0.398364
1086.000000	0.398600
1087.000000	0.398816
1088.000000	0.398597
1089.000000	0.398701
1090.000000	0.399012
1091.000000	0.399257
1092.000000	0.399713
1093.000000	0.400639
1094.000000	0.400856
1095.000000	0.400778
1096.000000	0.400884
1097.000000	0.400499
1098.000000	0.400706
1099.000000	0.401426
1100.000000	0.401793
1101.000000	0.402196
1102.000000	0.402368
1103.000000	0.402074
1104.000000	0.402195
1105.000000	0.402430
1106.000000	0.402651
1107.000000	0.403022
1108.000000	0.403320
1109.000000	0.403741
1110.000000	0.403907
1111.000000	0.404101
1112.000000	0.404285
1113.000000	0.404508
1114.000000	0.404572
1115.000000	0.404887
1116.000000	0.405608
1117.000000	0.405774
1118.000000	0.405600
1119.000000	0.405689
1120.000000	0.405560
1121.000000	0.405627
1122.000000	0.406220
1123.000000	0.406741
1124.000000	0.406823
1125.000000	0.407097
1126.000000	0.407433
1127.000000	0.407627
1128.000000	0.407773
1129.000000	0.407990
1130.000000	0.408090
1131.000000	0.407938
1132.000000	0.408147
1133.000000	0.408628
1134.000000	0.408913
1135.000000	0.409337
1136.000000	0.409472
1137.000000	0.409373
1138.000000	0.409207
1139.000000	0.408897
1140.000000	0.408877
1141.000000	0.408798
1142.000000	0.408815
1143.000000	0.409058
1144.000000	0.409259
1145.000000	0.409135
1146.000000	0.409042
1147.000000	0.409055
1148.000000	0.408939
1149.000000	0.408960
1150.000000	0.409100
1151.000000	0.409289
1152.000000	0.409496
1153.000000	0.409629
1154.000000	0.409773
1155.000000	0.409884
1156.000000	0.409884
1157.000000	0.409953
1158.000000	0.410054
1159.000000	0.410089
1160.000000	0.409937
1161.000000	0.409991
1162.000000	0.410262
1163.000000	0.410606
1164.000000	0.410802
1165.000000	0.410944
1166.000000	0.411102
1167.000000	0.411093
1168.000000	0.411045
1169.000000	0.411045
1170.000000	0.411099
1171.000000	0.411028
1172.000000	0.411174
1173.000000	0.411558
1174.000000	0.411719
1175.000000	0.411770
1176.000000	0.411818
1177.000000	0.411872
1178.000000	0.411962
1179.000000	0.412117
1180.000000	0.412156
1181.000000	0.412349
1182.000000	0.412274
1183.000000	0.412268
1184.000000	0.412402
1185.000000	0.412524
1186.000000	0.412729
1187.000000	0.412787
1188.000000	0.412808
1189.000000	0.412772
1190.000000	0.412641
1191.000000	0.412673
1192.000000	0.412918
1193.000000	0.413174
1194.000000	0.413311
1195.000000	0.413512
1196.000000	0.413678
1197.000000	0.413859
1198.000000	0.414162
1199.000000	0.414389
1200.000000	0.414546
1201.000000	0.414684
1202.000000	0.414923
1203.000000	0.415084
1204.000000	0.415189
1205.000000	0.415301
1206.000000	0.415363
1207.000000	0.415448
1208.000000	0.415523
1209.000000	0.415673
1210.000000	0.415816
1211.000000	0.415942
1212.000000	0.416083
1213.000000	0.416375
1214.000000	0.416550
1215.000000	0.416577
1216.000000	0.416681
1217.000000	0.416778
1218.000000	0.416796
1219.000000	0.416754
1220.000000	0.416954
1221.000000	0.417103
1222.000000	0.417137
1223.000000	0.417328
1224.000000	0.417487
1225.000000	0.417535
1226.000000	0.417692
1227.000000	0.417899
1228.000000	0.418110
1229.000000	0.418227
1230.000000	0.418292
1231.000000	0.418315
1232.000000	0.418362
1233.000000	0.418602
1234.000000	0.418896
1235.000000	0.419110
1236.000000	0.419271
1237.000000	0.419544
1238.000000	0.419793
1239.000000	0.419978
1240.000000	0.420201
1241.000000	0.420386
1242.000000	0.420527
1243.000000	0.420612
1244.000000	0.420731
1245.000000	0.420854
1246.000000	0.420797
1247.000000	0.420928
1248.000000	0.421144
1249.000000	0.421323
1250.000000	0.421597
1251.000000	0.421836
1252.000000	0.422066
1253.000000	0.422371
1254.000000	0.422554
1255.000000	0.422655
1256.000000	0.422866
1257.000000	0.423102
1258.000000	0.423350
1259.000000	0.423598
1260.000000	0.423798
1261.000000	0.423818
1262.000000	0.423933
1263.000000	0.424059
1264.000000	0.424306
1265.000000	0.424541
1266.000000	0.424748
1267.000000	0.425069
1268.000000	0.425201
1269.000000	0.425253
1270.000000	0.425412
1271.000000	0.425574
1272.000000	0.425866
1273.000000	0.426073
1274.000000	0.426319
1275.000000	0.426453
1276.000000	0.426400
1277.000000	0.426570
1278.000000	0.426769
1279.000000	0.426843
1280.000000	0.426823
1281.000000	0.426873
1282.000000	0.426861
1283.000000	0.427037
1284.000000	0.427329
1285.000000	0.427555
1286.000000	0.427763
1287.000000	0.427987
1288.000000	0.428211
1289.000000	0.428248
1290.000000	0.428267
1291.000000	0.428433
1292.000000	0.428650
1293.000000	0.429004
1294.000000	0.429215
1295.000000	0.429263
1296.000000	0.429279
1297.000000	0.429174
1298.000000	0.429182
1299.000000	0.429386
1300.000000	0.429603
1301.000000	0.429694
1302.000000	0.429642
1303.000000	0.429576
1304.000000	0.429531
1305.000000	0.429504
1306.000000	0.429510
1307.000000	0.429691
1308.000000	0.429775
1309.000000	0.429803
1310.000000	0.429870
1311.000000	0.429994
1312.000000	0.430010
1313.000000	0.430057
1314.000000	0.429808
1315.000000	0.429481
1316.000000	0.429526
1317.000000	0.429638
1318.000000	0.429714
1319.000000	0.429629
1320.000000	0.429518
1321.000000	0.429312
1322.000000	0.428892
1323.000000	0.428789
1324.000000	0.428919
1325.000000	0.428904
1326.000000	0.428961
1327.000000	0.429101
1328.000000	0.429224
1329.000000	0.429137
1330.000000	0.428933
1331.000000	0.428855
1332.000000	0.428728
1333.000000	0.428600
1334.000000	0.428697
1335.000000	0.428676
1336.000000	0.428562
1337.000000	0.428400
1338.000000	0.428113
1339.000000	0.427829
1340.000000	0.427538
1341.000000	0.427243
1342.000000	0.427061
1343.000000	0.426814
1344.000000	0.426601
1345.000000	0.426618
1346.000000	0.426574
1347.000000	0.426325
1348.000000	0.426178
1349.000000	0.425757
1350.000000	0.425462
1351.000000	0.425360
1352.000000	0.425129
1353.000000	0.424938
1354.000000	0.424851
1355.000000	0.424627
1356.000000	0.424412
1357.000000	0.424124
1358.000000	0.423628
1359.000000	0.423258
1360.000000	0.422960
1361.000000	0.422840
1362.000000	0.422522
1363.000000	0.422169
1364.000000	0.421788
1365.000000	0.421189
1366.000000	0.420844
1367.000000	0.420602
1368.000000	0.420375
1369.000000	0.420307
1370.000000	0.420078
1371.000000	0.419750
1372.000000	0.419264
1373.000000	0.418650
1374.000000	0.418111
1375.000000	0.417505
1376.000000	0.417129
1377.000000	0.416826
1378.000000	0.416276
1379.000000	0.415610
1380.000000	0.414855
1381.000000	0.413846
1382.000000	0.412785
1383.000000	0.411916
1384.000000	0.410872
1385.000000	0.409536
1386.000000	0.408153
1387.000000	0.406630
1388.000000	0.404945
1389.000000	0.403383
1390.000000	0.401848
1391.000000	0.400003
1392.000000	0.397998
1393.000000	0.395819
1394.000000	0.393460
1395.000000	0.391066
1396.000000	0.388476
1397.000000	0.385918
1398.000000	0.383323
1399.000000	0.380713
1400.000000	0.378011
1401.000000	0.375395
1402.000000	0.372860
1403.000000	0.370205
1404.000000	0.367713
1405.000000	0.365382
1406.000000	0.363058
1407.000000	0.360979
1408.000000	0.359030
1409.000000	0.357203
1410.000000	0.355571
1411.000000	0.353885
1412.000000	0.352258
1413.000000	0.350761
1414.000000	0.349208
1415.000000	0.347732
1416.000000	0.346376
1417.000000	0.345149
1418.000000	0.343930
1419.000000	0.342761
1420.000000	0.341533
1421.000000	0.340374
1422.000000	0.339272
1423.000000	0.338251
1424.000000	0.337151
1425.000000	0.336003
1426.000000	0.334873
1427.000000	0.333886
1428.000000	0.332965
1429.000000	0.331938
1430.000000	0.330960
1431.000000	0.329991
1432.000000	0.329051
1433.000000	0.328173
1434.000000	0.327372
1435.000000	0.326690
1436.000000	0.326020
1437.000000	0.325334
1438.000000	0.324775
1439.000000	0.324338
1440.000000	0.323994
1441.000000	0.323806
1442.000000	0.323677
1443.000000	0.323539
1444.000000	0.323469
1445.000000	0.323616
1446.000000	0.323831
1447.000000	0.324192
1448.000000	0.324680
1449.000000	0.325033
1450.000000	0.325312
1451.000000	0.325632
1452.000000	0.325804
1453.000000	0.325853
1454.000000	0.325911
1455.000000	0.325935
1456.000000	0.325958
1457.000000	0.326099
1458.000000	0.326241
1459.000000	0.326221
1460.000000	0.326247
1461.000000	0.326278
1462.000000	0.326236
1463.000000	0.326281
1464.000000	0.326374
1465.000000	0.326522
1466.000000	0.326673
1467.000000	0.326831
1468.000000	0.327082
1469.000000	0.327387
1470.000000	0.327652
1471.000000	0.328137
1472.000000	0.328622
1473.000000	0.329049
1474.000000	0.329644
1475.000000	0.330294
1476.000000	0.330795
1477.000000	0.331443
1478.000000	0.332204
1479.000000	0.332778
1480.000000	0.333434
1481.000000	0.334108
1482.000000	0.334805
1483.000000	0.335488
1484.000000	0.336255
1485.000000	0.336975
1486.000000	0.337601
1487.000000	0.338327
1488.000000	0.339143
1489.000000	0.339898
1490.000000	0.340499
1491.000000	0.341259
1492.000000	0.342006
1493.000000	0.342760
1494.000000	0.343644
1495.000000	0.344347
1496.000000	0.344863
1497.000000	0.345514
1498.000000	0.346227
1499.000000	0.346795
1500.000000	0.347415
1501.000000	0.348052
1502.000000	0.348436
1503.000000	0.348826
1504.000000	0.349442
1505.000000	0.350030
1506.000000	0.350611
1507.000000	0.351245
1508.000000	0.351755
1509.000000	0.352144
1510.000000	0.352610
1511.000000	0.353196
1512.000000	0.353758
1513.000000	0.354344
1514.000000	0.354895
1515.000000	0.355267
1516.000000	0.355671
1517.000000	0.355983
1518.000000	0.356300
1519.000000	0.356717
1520.000000	0.357072
1521.000000	0.357390
1522.000000	0.357821
1523.000000	0.358178
1524.000000	0.358388
1525.000000	0.358579
1526.000000	0.358684
1527.000000	0.358931
1528.000000	0.359264
1529.000000	0.359515
1530.000000	0.359730
1531.000000	0.359857
1532.000000	0.359983
1533.000000	0.360263
1534.000000	0.360592
1535.000000	0.360937
1536.000000	0.361211
1537.000000	0.361551
1538.000000	0.361959
1539.000000	0.362157
1540.000000	0.362332
1541.000000	0.362560
1542.000000	0.362702
1543.000000	0.362956
1544.000000	0.363191
1545.000000	0.363390
1546.000000	0.363553
1547.000000	0.363580
1548.000000	0.363685
1549.000000	0.363833
1550.000000	0.363877
1551.000000	0.363951
1552.000000	0.364140
1553.000000	0.364303
1554.000000	0.364363
1555.000000	0.364490
1556.000000	0.364716
1557.000000	0.364781
1558.000000	0.364886
1559.000000	0.365053
1560.000000	0.365107
1561.000000	0.365080
1562.000000	0.365077
1563.000000	0.365087
1564.000000	0.365087
1565.000000	0.365028
1566.000000	0.364965
1567.000000	0.365057
1568.000000	0.365127
1569.000000	0.365315
1570.000000	0.365356
1571.000000	0.365254
1572.000000	0.365240
1573.000000	0.365175
1574.000000	0.365205
1575.000000	0.365452
1576.000000	0.365532
1577.000000	0.365502
1578.000000	0.365535
1579.000000	0.365559
1580.000000	0.365616
1581.000000	0.365896
1582.000000	0.365944
1583.000000	0.365850
1584.000000	0.365819
1585.000000	0.365785
1586.000000	0.365770
1587.000000	0.365780
1588.000000	0.365818
1589.000000	0.365865
1590.000000	0.365967
1591.000000	0.366216
1592.000000	0.366407
1593.000000	0.366591
1594.000000	0.366714
1595.000000	0.366850
1596.000000	0.367016
1597.000000	0.367317
1598.000000	0.367378
1599.000000	0.367300
1600.000000	0.367313
1601.000000	0.367268
1602.000000	0.367320
1603.000000	0.367611
1604.000000	0.367732
1605.000000	0.367793
1606.000000	0.367859
1607.000000	0.367942
1608.000000	0.368049
1609.000000	0.368218
1610.000000	0.368296
1611.000000	0.368406
1612.000000	0.368449
1613.000000	0.368466
1614.000000	0.368582
1615.000000	0.368798
1616.000000	0.369084
1617.000000	0.369479
1618.000000	0.369677
1619.000000	0.369697
1620.000000	0.369916
1621.000000	0.370130
1622.000000	0.370511
1623.000000	0.371170
1624.000000	0.371560
1625.000000	0.371695
1626.000000	0.371877
1627.000000	0.371948
1628.000000	0.372197
1629.000000	0.372520
1630.000000	0.372850
1631.000000	0.373235
1632.000000	0.373460
1633.000000	0.373619
1634.000000	0.373821
1635.000000	0.374018
1636.000000	0.374167
1637.000000	0.374294
1638.000000	0.374477
1639.000000	0.374689
1640.000000	0.374939
1641.000000	0.375409
1642.000000	0.375738
1643.000000	0.376038
1644.000000	0.376324
1645.000000	0.376551
1646.000000	0.376776
1647.000000	0.377069
1648.000000	0.377216
1649.000000	0.377367
1650.000000	0.377613
1651.000000	0.377862
1652.000000	0.378181
1653.000000	0.378546
1654.000000	0.378924
1655.000000	0.379245
1656.000000	0.379485
1657.000000	0.379828
1658.000000	0.380118
1659.000000	0.380457
1660.000000	0.380788
1661.000000	0.381054
1662.000000	0.381296
1663.000000	0.381417
1664.000000	0.381644
1665.000000	0.381882
1666.000000	0.382243
1667.000000	0.382598
1668.000000	0.382955
1669.000000	0.383338
1670.000000	0.383656
1671.000000	0.384091
1672.000000	0.384500
1673.000000	0.384870
1674.000000	0.385082
1675.000000	0.385390
1676.000000	0.385688
1677.000000	0.385987
1678.000000	0.386165
1679.000000	0.386346
1680.000000	0.386371
1681.000000	0.386264
1682.000000	0.386407
1683.000000	0.386575
1684.000000	0.386785
1685.000000	0.387165
1686.000000	0.387401
1687.000000	0.387568
1688.000000	0.387637
1689.000000	0.387709
1690.000000	0.387760
1691.000000	0.387849
1692.000000	0.388008
1693.000000	0.388142
1694.000000	0.388217
1695.000000	0.388464
1696.000000	0.388447
1697.000000	0.388470
1698.000000	0.388696
1699.000000	0.388770
1700.000000	0.388628
1701.000000	0.388834
1702.000000	0.388987
1703.000000	0.388995
1704.000000	0.389257
1705.000000	0.389421
1706.000000	0.389301
1707.000000	0.389465
1708.000000	0.389851
1709.000000	0.390089
1710.000000	0.390622
1711.000000	0.390859
1712.000000	0.390872
1713.000000	0.390951
1714.000000	0.390856
1715.000000	0.390977
1716.000000	0.391307
1717.000000	0.391535
1718.000000	0.391762
1719.000000	0.391975
1720.000000	0.392244
1721.000000	0.392434
1722.000000	0.392611
1723.000000	0.392786
1724.000000	0.392933
1725.000000	0.393078
1726.000000	0.393113
1727.000000	0.393211
1728.000000	0.393231
1729.000000	0.393206
1730.000000	0.393358
1731.000000	0.393469
1732.000000	0.393536
1733.000000	0.393702
1734.000000	0.393793
1735.000000	0.393876
1736.000000	0.393864
1737.000000	0.393994
1738.000000	0.394205
1739.000000	0.394391
1740.000000	0.394634
1741.000000	0.394819
1742.000000	0.394968
1743.000000	0.395207
1744.000000	0.395546
1745.000000	0.395519
1746.000000	0.395292
1747.000000	0.395298
1748.000000	0.395245
1749.000000	0.395457
1750.000000	0.395571
1751.000000	0.395708
1752.000000	0.395892
1753.000000	0.395949
1754.000000	0.396026
1755.000000	0.395995
1756.000000	0.395958
1757.000000	0.395949
1758.000000	0.395956
1759.000000	0.395934
1760.000000	0.395874
1761.000000	0.395622
1762.000000	0.395655
1763.000000	0.395870
1764.000000	0.396022
1765.000000	0.396390
1766.000000	0.396571
1767.000000	0.396449
1768.000000	0.396404
1769.000000	0.396447
1770.000000	0.396573
1771.000000	0.396630
1772.000000	0.396817
1773.000000	0.397062
1774.000000	0.397339
1775.000000	0.397845
1776.000000	0.398081
1777.000000	0.398236
1778.000000	0.398275
1779.000000	0.398013
1780.000000	0.398085
1781.000000	0.398230
1782.000000	0.398273
1783.000000	0.398439
1784.000000	0.398656
1785.000000	0.398680
1786.000000	0.398749
1787.000000	0.399158
1788.000000	0.399423
1789.000000	0.399359
1790.000000	0.399550
1791.000000	0.399621
1792.000000	0.399712
1793.000000	0.399832
1794.000000	0.399947
1795.000000	0.400087
1796.000000	0.400257
1797.000000	0.400403
1798.000000	0.400523
1799.000000	0.400630
1800.000000	0.400849
1801.000000	0.399845
1802.000000	0.400316
1803.000000	0.401841
1804.000000	0.401885
1805.000000	0.400812
1806.000000	0.400780
1807.000000	0.400876
1808.000000	0.400547
1809.000000	0.400359
1810.000000	0.400284
1811.000000	0.400204
1812.000000	0.399424
1813.000000	0.399314
1814.000000	0.400157
1815.000000	0.400218
1816.000000	0.399732
1817.000000	0.399605
1818.000000	0.399524
1819.000000	0.399681
1820.000000	0.400234
1821.000000	0.400039
1822.000000	0.400294
1823.000000	0.400574
1824.000000	0.400720
1825.000000	0.400698
1826.000000	0.401239
1827.000000	0.402267
1828.000000	0.402463
1829.000000	0.402754
1830.000000	0.402065
1831.000000	0.401229
1832.000000	0.398813
1833.000000	0.398173
1834.000000	0.398193
1835.000000	0.398165
1836.000000	0.398630
1837.000000	0.399047
1838.000000	0.399640
1839.000000	0.400023
1840.000000	0.399530
1841.000000	0.398864
1842.000000	0.398269
1843.000000	0.396565
1844.000000	0.395790
1845.000000	0.396057
1846.000000	0.395573
1847.000000	0.394448
1848.000000	0.393627
1849.000000	0.393360
1850.000000	0.391947
1851.000000	0.391043
1852.000000	0.390433
1853.000000	0.389758
1854.000000	0.388857
1855.000000	0.387794
1856.000000	0.386629
1857.000000	0.385427
1858.000000	0.384018
1859.000000	0.382109
1860.000000	0.380607
1861.000000	0.378934
1862.000000	0.377100
1863.000000	0.375213
1864.000000	0.373467
1865.000000	0.371829
1866.000000	0.369790
1867.000000	0.367626
1868.000000	0.365195
1869.000000	0.362509
1870.000000	0.359625
1871.000000	0.357345
1872.000000	0.354463
1873.000000	0.351459
1874.000000	0.348659
1875.000000	0.345266
1876.000000	0.340858
1877.000000	0.336735
1878.000000	0.333183
1879.000000	0.328399
1880.000000	0.323186
1881.000000	0.317912
1882.000000	0.311968
1883.000000	0.305657
1884.000000	0.299840
1885.000000	0.294474
1886.000000	0.288436
1887.000000	0.282080
1888.000000	0.275696
1889.000000	0.269081
1890.000000	0.262798
1891.000000	0.256471
1892.000000	0.250503
1893.000000	0.244831
1894.000000	0.238850
1895.000000	0.232691
1896.000000	0.226632
1897.000000	0.220441
1898.000000	0.214429
1899.000000	0.208703
1900.000000	0.203579
1901.000000	0.199293
1902.000000	0.194845
1903.000000	0.190727
1904.000000	0.186784
1905.000000	0.182882
1906.000000	0.179560
1907.000000	0.176570
1908.000000	0.173933
1909.000000	0.172076
1910.000000	0.170387
1911.000000	0.169029
1912.000000	0.168190
1913.000000	0.166972
1914.000000	0.166343
1915.000000	0.165937
1916.000000	0.165354
1917.000000	0.164757
1918.000000	0.164599
1919.000000	0.164109
1920.000000	0.163313
1921.000000	0.162241
1922.000000	0.161283
1923.000000	0.160800
1924.000000	0.160098
1925.000000	0.159912
1926.000000	0.160235
1927.000000	0.160336
1928.000000	0.160561
1929.000000	0.161105
1930.000000	0.161397
1931.000000	0.161435
1932.000000	0.161984
1933.000000	0.162376
1934.000000	0.162629
1935.000000	0.163111
1936.000000	0.163571
1937.000000	0.163692
1938.000000	0.163989
1939.000000	0.164425
1940.000000	0.165054
1941.000000	0.165322
1942.000000	0.165802
1943.000000	0.165835
1944.000000	0.165317
1945.000000	0.164994
1946.000000	0.164523
1947.000000	0.164453
1948.000000	0.164756
1949.000000	0.164705
1950.000000	0.164559
1951.000000	0.164398
1952.000000	0.164267
1953.000000	0.163857
1954.000000	0.163193
1955.000000	0.162482
1956.000000	0.161552
1957.000000	0.161050
1958.000000	0.161530
1959.000000	0.161808
1960.000000	0.161990
1961.000000	0.162023
1962.000000	0.161791
1963.000000	0.160832
1964.000000	0.160715
1965.000000	0.160966
1966.000000	0.160900
1967.000000	0.161260
1968.000000	0.161742
1969.000000	0.161818
1970.000000	0.161386
1971.000000	0.160982
1972.000000	0.160506
1973.000000	0.160341
1974.000000	0.160502
1975.000000	0.160995
1976.000000	0.161990
1977.000000	0.162709
1978.000000	0.163405
1979.000000	0.163539
1980.000000	0.163628
1981.000000	0.164178
1982.000000	0.164390
1983.000000	0.165150
1984.000000	0.165701
1985.000000	0.165707
1986.000000	0.166390
1987.000000	0.167633
1988.000000	0.168699
1989.000000	0.169534
1990.000000	0.170952
1991.000000	0.171257
1992.000000	0.171323
1993.000000	0.171982
1994.000000	0.172721
1995.000000	0.174127
1996.000000	0.175750
1997.000000	0.176915
1998.000000	0.178060
1999.000000	0.179103
2000.000000	0.179732
2001.000000	0.180453
2002.000000	0.181870
2003.000000	0.182876
2004.000000	0.183984
2005.000000	0.185042
2006.000000	0.185277
2007.000000	0.186090
2008.000000	0.187078
2009.000000	0.187970
2010.000000	0.189125
2011.000000	0.190816
2012.000000	0.192123
2013.000000	0.193088
2014.000000	0.194630
2015.000000	0.196183
2016.000000	0.197478
2017.000000	0.199468
2018.000000	0.200940
2019.000000	0.201852
2020.000000	0.203325
2021.000000	0.204601
2022.000000	0.205411
2023.000000	0.206645
2024.000000	0.208371
2025.000000	0.209628
2026.000000	0.210633
2027.000000	0.211764
2028.000000	0.212255
2029.000000	0.213227
2030.000000	0.213963
2031.000000	0.214691
2032.000000	0.216782
2033.000000	0.217948
2034.000000	0.219162
2035.000000	0.220739
2036.000000	0.222033
2037.000000	0.222914
2038.000000	0.224239
2039.000000	0.225955
2040.000000	0.227325
2041.000000	0.228614
2042.000000	0.229807
2043.000000	0.230593
2044.000000	0.231241
2045.000000	0.232294
2046.000000	0.232882
2047.000000	0.233664
2048.000000	0.234547
2049.000000	0.235579
2050.000000	0.236335
2051.000000	0.237333
2052.000000	0.238733
2053.000000	0.239548
2054.000000	0.240479
2055.000000	0.240844
2056.000000	0.240876
2057.000000	0.241880
2058.000000	0.243017
2059.000000	0.244059
2060.000000	0.245020
2061.000000	0.246076
2062.000000	0.247011
2063.000000	0.247732
2064.000000	0.248572
2065.000000	0.249910
2066.000000	0.250716
2067.000000	0.251341
2068.000000	0.252303
2069.000000	0.253323
2070.000000	0.253869
2071.000000	0.254389
2072.000000	0.255350
2073.000000	0.256144
2074.000000	0.257196
2075.000000	0.258396
2076.000000	0.260080
2077.000000	0.261206
2078.000000	0.262345
2079.000000	0.263149
2080.000000	0.263346
2081.000000	0.264059
2082.000000	0.264981
2083.000000	0.265621
2084.000000	0.266547
2085.000000	0.267822
2086.000000	0.268065
2087.000000	0.268369
2088.000000	0.269250
2089.000000	0.270136
2090.000000	0.271160
2091.000000	0.272930
2092.000000	0.274254
2093.000000	0.275091
2094.000000	0.276259
2095.000000	0.278233
2096.000000	0.279216
2097.000000	0.279396
2098.000000	0.280097
2099.000000	0.280654
2100.000000	0.281162
2101.000000	0.282274
2102.000000	0.283604
2103.000000	0.284769
2104.000000	0.285664
2105.000000	0.286488
2106.000000	0.287334
2107.000000	0.288013
2108.000000	0.288376
2109.000000	0.288837
2110.000000	0.289136
2111.000000	0.289526
2112.000000	0.289903
2113.000000	0.289796
2114.000000	0.290031
2115.000000	0.290834
2116.000000	0.292018
2117.000000	0.293694
2118.000000	0.295096
2119.000000	0.296227
2120.000000	0.296949
2121.000000	0.297088
2122.000000	0.297150
2123.000000	0.296739
2124.000000	0.296645
2125.000000	0.296076
2126.000000	0.296234
2127.000000	0.297012
2128.000000	0.297837
2129.000000	0.299125
2130.000000	0.300082
2131.000000	0.301288
2132.000000	0.301971
2133.000000	0.302382
2134.000000	0.303040
2135.000000	0.302810
2136.000000	0.303731
2137.000000	0.304275
2138.000000	0.304868
2139.000000	0.305366
2140.000000	0.306090
2141.000000	0.306265
2142.000000	0.306047
2143.000000	0.305888
2144.000000	0.305189
2145.000000	0.305188
2146.000000	0.305792
2147.000000	0.306520
2148.000000	0.307174
2149.000000	0.308559
2150.000000	0.308820
2151.000000	0.309406
2152.000000	0.309475
2153.000000	0.308760
2154.000000	0.308704
2155.000000	0.308593
2156.000000	0.308524
2157.000000	0.309210
2158.000000	0.309221
2159.000000	0.308768
2160.000000	0.308683
2161.000000	0.308093
2162.000000	0.308106
2163.000000	0.308698
2164.000000	0.308834
2165.000000	0.308981
2166.000000	0.309460
2167.000000	0.309354
2168.000000	0.308893
2169.000000	0.308426
2170.000000	0.308071
2171.000000	0.307986
2172.000000	0.307981
2173.000000	0.308278
2174.000000	0.308942
2175.000000	0.309513
2176.000000	0.310632
2177.000000	0.310948
2178.000000	0.310912
2179.000000	0.311023
2180.000000	0.310494
2181.000000	0.310496
2182.000000	0.310327
2183.000000	0.310206
2184.000000	0.309579
2185.000000	0.308890
2186.000000	0.307699
2187.000000	0.308076
2188.000000	0.310065
2189.000000	0.310630
2190.000000	0.310859
2191.000000	0.310851
2192.000000	0.310748
2193.000000	0.309034
2194.000000	0.309128
2195.000000	0.311416
2196.000000	0.311899
2197.000000	0.311763
2198.000000	0.311176
2199.000000	0.308952
2200.000000	0.307709
2201.000000	0.307388
2202.000000	0.306927
2203.000000	0.306863
2204.000000	0.305503
2205.000000	0.304978
2206.000000	0.302299
2207.000000	0.301648
2208.000000	0.304107
2209.000000	0.306512
2210.000000	0.309710
2211.000000	0.311956
2212.000000	0.313578
2213.000000	0.313797
2214.000000	0.312274
2215.000000	0.310839
2216.000000	0.308158
2217.000000	0.305992
2218.000000	0.303187
2219.000000	0.302692
2220.000000	0.302500
2221.000000	0.303383
2222.000000	0.308311
2223.000000	0.309118
2224.000000	0.308209
2225.000000	0.307628
2226.000000	0.305486
2227.000000	0.301516
2228.000000	0.299661
2229.000000	0.299257
2230.000000	0.300587
2231.000000	0.302269
2232.000000	0.304775
2233.000000	0.307408
2234.000000	0.306712
2235.000000	0.307537
2236.000000	0.306512
2237.000000	0.302788
2238.000000	0.301505
2239.000000	0.299774
2240.000000	0.299419
2241.000000	0.301146
2242.000000	0.302366
2243.000000	0.305486
2244.000000	0.305971
2245.000000	0.304109
2246.000000	0.303986
2247.000000	0.302806
2248.000000	0.301903
2249.000000	0.301913
2250.000000	0.304053
2251.000000	0.300614
2252.000000	0.299803
2253.000000	0.300561
2254.000000	0.296881
2255.000000	0.295909
2256.000000	0.294260
2257.000000	0.292287
2258.000000	0.291067
2259.000000	0.290270
2260.000000	0.293008
2261.000000	0.293414
2262.000000	0.294272
2263.000000	0.293945
2264.000000	0.291454
2265.000000	0.290570
2266.000000	0.290515
2267.000000	0.288993
2268.000000	0.286757
2269.000000	0.286040
2270.000000	0.284842
2271.000000	0.284519
2272.000000	0.286720
2273.000000	0.287132
2274.000000	0.287451
2275.000000	0.285686
2276.000000	0.281462
2277.000000	0.279379
2278.000000	0.275741
2279.000000	0.272459
2280.000000	0.272783
2281.000000	0.270793
2282.000000	0.268535
2283.000000	0.267346
2284.000000	0.265773
2285.000000	0.264165
2286.000000	0.263041
2287.000000	0.262442
2288.000000	0.261421
2289.000000	0.258829
2290.000000	0.256264
2291.000000	0.255771
2292.000000	0.253676
2293.000000	0.252262
2294.000000	0.250613
2295.000000	0.247756
2296.000000	0.245884
2297.000000	0.244320
2298.000000	0.244339
2299.000000	0.245317
2300.000000	0.246375
2301.000000	0.249867
2302.000000	0.250202
2303.000000	0.249131
2304.000000	0.248995
2305.000000	0.247597
2306.000000	0.246336
2307.000000	0.245524
2308.000000	0.243720
2309.000000	0.244401
2310.000000	0.245067
2311.000000	0.246088
2312.000000	0.249569
2313.000000	0.250080
2314.000000	0.251006
2315.000000	0.253209
2316.000000	0.253270
2317.000000	0.253420
2318.000000	0.252087
2319.000000	0.250610
2320.000000	0.250640
2321.000000	0.249768
2322.000000	0.248851
2323.000000	0.247772
2324.000000	0.244153
2325.000000	0.241535
2326.000000	0.241401
2327.000000	0.240858
2328.000000	0.242317
2329.000000	0.241915
2330.000000	0.239310
2331.000000	0.238309
2332.000000	0.237082
2333.000000	0.239446
2334.000000	0.242447
2335.000000	0.242872
2336.000000	0.241386
2337.000000	0.240410
2338.000000	0.236862
2339.000000	0.235139
2340.000000	0.235230
2341.000000	0.235104
2342.000000	0.234826
2343.000000	0.235229
2344.000000	0.236530
2345.000000	0.235477
2346.000000	0.233589
2347.000000	0.232555
2348.000000	0.229856
2349.000000	0.230271
2350.000000	0.231974
2351.000000	0.231225
2352.000000	0.229477
2353.000000	0.226610
2354.000000	0.222426
2355.000000	0.219246
2356.000000	0.217425
2357.000000	0.215337
2358.000000	0.212430
2359.000000	0.210706
2360.000000	0.211243
2361.000000	0.210542
2362.000000	0.212230
2363.000000	0.214630
2364.000000	0.212548
2365.000000	0.212454
2366.000000	0.210509
2367.000000	0.205399
2368.000000	0.201093
2369.000000	0.198499
2370.000000	0.197000
2371.000000	0.197773
2372.000000	0.199588
2373.000000	0.199060
2374.000000	0.196120
2375.000000	0.191376
2376.000000	0.190546
2377.000000	0.186800
2378.000000	0.182692
2379.000000	0.180485
2380.000000	0.174634
2381.000000	0.172018
2382.000000	0.171570
2383.000000	0.172268
2384.000000	0.175719
2385.000000	0.176957
2386.000000	0.175631
2387.000000	0.177252
2388.000000	0.175591
2389.000000	0.172580
2390.000000	0.173229
2391.000000	0.169342
2392.000000	0.166094
2393.000000	0.166705
2394.000000	0.166693
2395.000000	0.170448
2396.000000	0.173132
2397.000000	0.169269
2398.000000	0.166330
2399.000000	0.162608
2400.000000	0.158303
2401.000000	0.154287
2402.000000	0.152283
2403.000000	0.151579
2404.000000	0.148326
2405.000000	0.148854
2406.000000	0.145891
2407.000000	0.143488
2408.000000	0.144869
2409.000000	0.148175
2410.000000	0.157883
2411.000000	0.162911
2412.000000	0.161586
2413.000000	0.153909
2414.000000	0.144325
2415.000000	0.140050
2416.000000	0.143960
2417.000000	0.149839
2418.000000	0.143500
2419.000000	0.135556
2420.000000	0.130687
2421.000000	0.129585
2422.000000	0.140865
2423.000000	0.155620
2424.000000	0.161017
2425.000000	0.163357
2426.000000	0.170079
2427.000000	0.165204
2428.000000	0.158805
2429.000000	0.161205
2430.000000	0.154048
2431.000000	0.144124
2432.000000	0.141056
2433.000000	0.142240
2434.000000	0.143158
2435.000000	0.142725
2436.000000	0.143846
2437.000000	0.146458
2438.000000	0.147557
2439.000000	0.151179
2440.000000	0.153604
2441.000000	0.150973
2442.000000	0.146207
2443.000000	0.149634
2444.000000	0.157222
2445.000000	0.149921
2446.000000	0.141749
2447.000000	0.141042
2448.000000	0.147624
2449.000000	0.151256
2450.000000	0.151823
2451.000000	0.153398
2452.000000	0.145825
2453.000000	0.150614
2454.000000	0.163022
2455.000000	0.157029
2456.000000	0.147650
2457.000000	0.143743
2458.000000	0.133274
2459.000000	0.129861
2460.000000	0.126466
2461.000000	0.123265
2462.000000	0.124937
2463.000000	0.102676
2464.000000	0.092160
2465.000000	0.098662
2466.000000	0.098475
2467.000000	0.125759
2468.000000	0.158447
2469.000000	0.165606
2470.000000	0.157986
2471.000000	0.141896
2472.000000	0.134338
2473.000000	0.128838
2474.000000	0.130598
2475.000000	0.147185
2476.000000	0.167876
2477.000000	0.146206
2478.000000	0.126480
2479.000000	0.133729
2480.000000	0.105360
2481.000000	0.103253
2482.000000	0.127443
2483.000000	0.148287
2484.000000	0.158556
2485.000000	0.156270
2486.000000	0.166421
2487.000000	0.126257
2488.000000	0.112123
2489.000000	0.166354
2490.000000	0.172932
2491.000000	0.175481
2492.000000	0.168201
2493.000000	0.119086
2494.000000	0.107322
2495.000000	0.116598
2496.000000	0.116951
2497.000000	0.140026
2498.000000	0.144091
2499.000000	0.150724
2500.000000	0.133411
