# Wavelength	Nau-2_70_FV7_30_00002.asd.rts.txt
350.000000	0.112637
351.000000	0.081222
352.000000	0.071511
353.000000	0.067561
354.000000	0.062163
355.000000	0.077993
356.000000	0.088555
357.000000	0.089443
358.000000	0.089037
359.000000	0.087610
360.000000	0.086333
361.000000	0.086277
362.000000	0.090082
363.000000	0.089016
364.000000	0.081619
365.000000	0.086744
366.000000	0.091583
367.000000	0.090788
368.000000	0.084338
369.000000	0.084711
370.000000	0.088448
371.000000	0.087611
372.000000	0.082043
373.000000	0.079014
374.000000	0.082280
375.000000	0.084040
376.000000	0.085699
377.000000	0.087245
378.000000	0.087343
379.000000	0.087801
380.000000	0.087603
381.000000	0.085818
382.000000	0.087655
383.000000	0.088892
384.000000	0.086899
385.000000	0.085356
386.000000	0.085649
387.000000	0.087053
388.000000	0.086560
389.000000	0.083089
390.000000	0.081536
391.000000	0.087574
392.000000	0.088821
393.000000	0.088856
394.000000	0.090888
395.000000	0.089198
396.000000	0.087918
397.000000	0.088347
398.000000	0.088092
399.000000	0.088089
400.000000	0.088602
401.000000	0.089545
402.000000	0.088946
403.000000	0.088539
404.000000	0.089633
405.000000	0.088699
406.000000	0.088332
407.000000	0.089329
408.000000	0.089187
409.000000	0.088940
410.000000	0.089220
411.000000	0.090502
412.000000	0.090575
413.000000	0.090597
414.000000	0.091929
415.000000	0.092360
416.000000	0.092383
417.000000	0.092521
418.000000	0.093008
419.000000	0.093060
420.000000	0.092715
421.000000	0.092695
422.000000	0.093045
423.000000	0.093556
424.000000	0.093922
425.000000	0.093761
426.000000	0.093873
427.000000	0.094619
428.000000	0.094490
429.000000	0.094947
430.000000	0.096084
431.000000	0.096119
432.000000	0.096409
433.000000	0.096890
434.000000	0.096980
435.000000	0.097233
436.000000	0.097532
437.000000	0.097675
438.000000	0.097734
439.000000	0.097799
440.000000	0.098004
441.000000	0.098519
442.000000	0.098766
443.000000	0.098771
444.000000	0.099063
445.000000	0.099527
446.000000	0.100147
447.000000	0.100791
448.000000	0.101046
449.000000	0.101320
450.000000	0.101874
451.000000	0.102334
452.000000	0.102739
453.000000	0.103065
454.000000	0.103285
455.000000	0.103757
456.000000	0.104270
457.000000	0.104351
458.000000	0.104726
459.000000	0.105280
460.000000	0.105823
461.000000	0.106443
462.000000	0.106930
463.000000	0.107164
464.000000	0.107372
465.000000	0.107755
466.000000	0.108190
467.000000	0.108382
468.000000	0.108544
469.000000	0.108813
470.000000	0.109289
471.000000	0.109362
472.000000	0.109463
473.000000	0.109861
474.000000	0.110084
475.000000	0.110603
476.000000	0.111375
477.000000	0.111638
478.000000	0.111611
479.000000	0.111680
480.000000	0.112143
481.000000	0.112615
482.000000	0.112973
483.000000	0.113110
484.000000	0.113296
485.000000	0.113515
486.000000	0.113820
487.000000	0.114145
488.000000	0.114570
489.000000	0.114934
490.000000	0.114895
491.000000	0.114978
492.000000	0.115226
493.000000	0.115460
494.000000	0.115464
495.000000	0.115472
496.000000	0.115616
497.000000	0.115696
498.000000	0.115788
499.000000	0.115946
500.000000	0.116121
501.000000	0.116204
502.000000	0.116209
503.000000	0.116182
504.000000	0.116314
505.000000	0.116515
506.000000	0.116701
507.000000	0.117137
508.000000	0.117542
509.000000	0.117774
510.000000	0.118052
511.000000	0.118293
512.000000	0.118586
513.000000	0.119146
514.000000	0.119458
515.000000	0.119651
516.000000	0.120002
517.000000	0.120345
518.000000	0.120713
519.000000	0.121102
520.000000	0.121486
521.000000	0.121991
522.000000	0.122604
523.000000	0.123056
524.000000	0.123727
525.000000	0.124549
526.000000	0.125255
527.000000	0.126108
528.000000	0.127104
529.000000	0.128195
530.000000	0.129315
531.000000	0.130494
532.000000	0.131718
533.000000	0.133022
534.000000	0.134374
535.000000	0.135754
536.000000	0.137175
537.000000	0.138502
538.000000	0.139757
539.000000	0.141016
540.000000	0.142188
541.000000	0.143314
542.000000	0.144457
543.000000	0.145563
544.000000	0.146630
545.000000	0.147655
546.000000	0.148766
547.000000	0.149894
548.000000	0.151023
549.000000	0.152118
550.000000	0.153345
551.000000	0.154675
552.000000	0.156014
553.000000	0.157572
554.000000	0.159196
555.000000	0.160793
556.000000	0.162593
557.000000	0.164390
558.000000	0.166186
559.000000	0.168031
560.000000	0.169880
561.000000	0.171746
562.000000	0.173572
563.000000	0.175379
564.000000	0.177141
565.000000	0.178783
566.000000	0.180471
567.000000	0.182021
568.000000	0.183341
569.000000	0.184631
570.000000	0.185793
571.000000	0.186823
572.000000	0.187808
573.000000	0.188704
574.000000	0.189468
575.000000	0.190104
576.000000	0.190714
577.000000	0.191261
578.000000	0.191722
579.000000	0.191989
580.000000	0.192263
581.000000	0.192574
582.000000	0.192660
583.000000	0.192742
584.000000	0.192822
585.000000	0.192789
586.000000	0.192598
587.000000	0.192333
588.000000	0.192102
589.000000	0.191898
590.000000	0.191590
591.000000	0.191133
592.000000	0.190686
593.000000	0.190315
594.000000	0.189969
595.000000	0.189463
596.000000	0.188932
597.000000	0.188355
598.000000	0.187611
599.000000	0.186891
600.000000	0.186214
601.000000	0.185530
602.000000	0.184916
603.000000	0.184233
604.000000	0.183461
605.000000	0.182781
606.000000	0.182108
607.000000	0.181433
608.000000	0.180787
609.000000	0.180206
610.000000	0.179627
611.000000	0.178983
612.000000	0.178362
613.000000	0.177751
614.000000	0.177156
615.000000	0.176580
616.000000	0.176045
617.000000	0.175523
618.000000	0.174985
619.000000	0.174526
620.000000	0.174041
621.000000	0.173412
622.000000	0.172932
623.000000	0.172517
624.000000	0.172051
625.000000	0.171545
626.000000	0.171131
627.000000	0.170840
628.000000	0.170552
629.000000	0.170277
630.000000	0.169958
631.000000	0.169668
632.000000	0.169388
633.000000	0.169157
634.000000	0.168982
635.000000	0.168693
636.000000	0.168404
637.000000	0.168184
638.000000	0.168010
639.000000	0.167861
640.000000	0.167764
641.000000	0.167693
642.000000	0.167678
643.000000	0.167704
644.000000	0.167749
645.000000	0.167813
646.000000	0.167901
647.000000	0.167991
648.000000	0.168029
649.000000	0.168153
650.000000	0.168382
651.000000	0.168630
652.000000	0.168783
653.000000	0.168978
654.000000	0.169402
655.000000	0.169720
656.000000	0.170021
657.000000	0.170399
658.000000	0.170798
659.000000	0.171318
660.000000	0.171912
661.000000	0.172275
662.000000	0.172677
663.000000	0.173202
664.000000	0.173778
665.000000	0.174407
666.000000	0.175053
667.000000	0.175676
668.000000	0.176380
669.000000	0.177131
670.000000	0.177906
671.000000	0.178710
672.000000	0.179566
673.000000	0.180480
674.000000	0.181463
675.000000	0.182358
676.000000	0.183246
677.000000	0.184259
678.000000	0.185271
679.000000	0.186322
680.000000	0.187444
681.000000	0.188593
682.000000	0.189732
683.000000	0.190868
684.000000	0.192207
685.000000	0.193496
686.000000	0.194781
687.000000	0.196167
688.000000	0.197563
689.000000	0.198984
690.000000	0.200474
691.000000	0.202017
692.000000	0.203583
693.000000	0.205181
694.000000	0.206737
695.000000	0.208369
696.000000	0.210075
697.000000	0.211805
698.000000	0.213546
699.000000	0.215307
700.000000	0.217118
701.000000	0.219047
702.000000	0.221002
703.000000	0.222933
704.000000	0.224882
705.000000	0.226894
706.000000	0.228930
707.000000	0.230988
708.000000	0.233062
709.000000	0.235130
710.000000	0.237216
711.000000	0.239440
712.000000	0.241662
713.000000	0.243847
714.000000	0.246066
715.000000	0.248315
716.000000	0.250568
717.000000	0.252774
718.000000	0.255063
719.000000	0.257388
720.000000	0.259695
721.000000	0.261959
722.000000	0.264245
723.000000	0.266591
724.000000	0.268837
725.000000	0.271098
726.000000	0.273443
727.000000	0.275767
728.000000	0.278056
729.000000	0.280342
730.000000	0.282605
731.000000	0.284875
732.000000	0.286998
733.000000	0.289061
734.000000	0.291379
735.000000	0.293525
736.000000	0.295617
737.000000	0.297732
738.000000	0.299771
739.000000	0.301840
740.000000	0.303852
741.000000	0.305840
742.000000	0.307814
743.000000	0.309756
744.000000	0.311715
745.000000	0.313501
746.000000	0.315238
747.000000	0.317035
748.000000	0.318827
749.000000	0.320570
750.000000	0.322226
751.000000	0.323894
752.000000	0.325501
753.000000	0.327056
754.000000	0.328611
755.000000	0.330044
756.000000	0.331423
757.000000	0.332802
758.000000	0.334117
759.000000	0.335370
760.000000	0.336520
761.000000	0.337706
762.000000	0.338966
763.000000	0.340173
764.000000	0.341182
765.000000	0.342182
766.000000	0.343192
767.000000	0.344162
768.000000	0.344935
769.000000	0.345699
770.000000	0.346544
771.000000	0.347381
772.000000	0.348305
773.000000	0.349169
774.000000	0.349895
775.000000	0.350578
776.000000	0.351223
777.000000	0.351784
778.000000	0.352178
779.000000	0.352729
780.000000	0.353408
781.000000	0.353824
782.000000	0.354301
783.000000	0.354833
784.000000	0.355163
785.000000	0.355558
786.000000	0.355921
787.000000	0.356214
788.000000	0.356597
789.000000	0.356905
790.000000	0.357103
791.000000	0.357284
792.000000	0.357499
793.000000	0.357759
794.000000	0.358039
795.000000	0.358212
796.000000	0.358315
797.000000	0.358398
798.000000	0.358539
799.000000	0.358676
800.000000	0.358803
801.000000	0.358932
802.000000	0.359088
803.000000	0.359161
804.000000	0.359140
805.000000	0.359031
806.000000	0.359088
807.000000	0.359228
808.000000	0.359052
809.000000	0.359055
810.000000	0.359154
811.000000	0.359170
812.000000	0.358962
813.000000	0.358807
814.000000	0.358761
815.000000	0.358712
816.000000	0.358616
817.000000	0.358540
818.000000	0.358456
819.000000	0.358363
820.000000	0.358302
821.000000	0.358223
822.000000	0.358119
823.000000	0.357999
824.000000	0.357868
825.000000	0.357839
826.000000	0.357669
827.000000	0.357493
828.000000	0.357406
829.000000	0.357151
830.000000	0.356887
831.000000	0.356650
832.000000	0.356245
833.000000	0.355976
834.000000	0.355761
835.000000	0.355552
836.000000	0.355435
837.000000	0.355249
838.000000	0.354999
839.000000	0.354775
840.000000	0.354540
841.000000	0.354341
842.000000	0.354174
843.000000	0.354040
844.000000	0.353842
845.000000	0.353550
846.000000	0.353307
847.000000	0.353074
848.000000	0.352806
849.000000	0.352514
850.000000	0.352245
851.000000	0.351983
852.000000	0.351737
853.000000	0.351420
854.000000	0.351095
855.000000	0.350872
856.000000	0.350641
857.000000	0.350371
858.000000	0.350104
859.000000	0.349806
860.000000	0.349592
861.000000	0.349272
862.000000	0.348964
863.000000	0.348768
864.000000	0.348454
865.000000	0.348000
866.000000	0.347518
867.000000	0.347239
868.000000	0.347054
869.000000	0.346797
870.000000	0.346430
871.000000	0.346071
872.000000	0.345778
873.000000	0.345506
874.000000	0.345302
875.000000	0.344895
876.000000	0.344443
877.000000	0.344179
878.000000	0.343926
879.000000	0.343707
880.000000	0.343384
881.000000	0.343042
882.000000	0.342605
883.000000	0.342199
884.000000	0.341925
885.000000	0.341656
886.000000	0.341268
887.000000	0.340816
888.000000	0.340587
889.000000	0.340434
890.000000	0.340072
891.000000	0.339508
892.000000	0.339235
893.000000	0.338944
894.000000	0.338612
895.000000	0.338352
896.000000	0.338026
897.000000	0.337651
898.000000	0.337293
899.000000	0.336941
900.000000	0.336639
901.000000	0.336341
902.000000	0.336033
903.000000	0.335762
904.000000	0.335455
905.000000	0.334935
906.000000	0.334401
907.000000	0.334027
908.000000	0.333807
909.000000	0.333353
910.000000	0.333097
911.000000	0.332952
912.000000	0.332755
913.000000	0.332427
914.000000	0.332083
915.000000	0.331741
916.000000	0.331195
917.000000	0.330984
918.000000	0.330851
919.000000	0.330520
920.000000	0.330129
921.000000	0.329726
922.000000	0.329402
923.000000	0.329202
924.000000	0.328890
925.000000	0.328667
926.000000	0.328577
927.000000	0.328165
928.000000	0.327866
929.000000	0.327556
930.000000	0.327038
931.000000	0.326758
932.000000	0.326542
933.000000	0.326323
934.000000	0.326066
935.000000	0.325563
936.000000	0.325153
937.000000	0.324974
938.000000	0.324626
939.000000	0.324455
940.000000	0.324253
941.000000	0.323729
942.000000	0.323419
943.000000	0.323272
944.000000	0.323071
945.000000	0.322920
946.000000	0.322628
947.000000	0.322360
948.000000	0.322237
949.000000	0.321992
950.000000	0.321757
951.000000	0.321563
952.000000	0.321438
953.000000	0.320945
954.000000	0.320460
955.000000	0.320208
956.000000	0.319891
957.000000	0.319758
958.000000	0.319649
959.000000	0.319421
960.000000	0.319270
961.000000	0.318950
962.000000	0.318496
963.000000	0.318360
964.000000	0.318206
965.000000	0.318128
966.000000	0.318042
967.000000	0.317592
968.000000	0.317390
969.000000	0.317307
970.000000	0.317043
971.000000	0.316915
972.000000	0.316748
973.000000	0.316489
974.000000	0.316461
975.000000	0.316087
976.000000	0.315883
977.000000	0.316111
978.000000	0.315615
979.000000	0.315399
980.000000	0.315362
981.000000	0.315408
982.000000	0.315267
983.000000	0.315086
984.000000	0.314902
985.000000	0.314486
986.000000	0.314679
987.000000	0.314800
988.000000	0.314347
989.000000	0.314323
990.000000	0.314369
991.000000	0.314252
992.000000	0.313944
993.000000	0.313925
994.000000	0.313809
995.000000	0.313713
996.000000	0.313672
997.000000	0.313404
998.000000	0.313222
999.000000	0.313290
1000.000000	0.313177
1001.000000	0.312595
1002.000000	0.313242
1003.000000	0.313852
1004.000000	0.314240
1005.000000	0.314487
1006.000000	0.314293
1007.000000	0.313753
1008.000000	0.313702
1009.000000	0.313519
1010.000000	0.313650
1011.000000	0.313430
1012.000000	0.313474
1013.000000	0.313298
1014.000000	0.313049
1015.000000	0.313928
1016.000000	0.314231
1017.000000	0.314440
1018.000000	0.315101
1019.000000	0.315029
1020.000000	0.314433
1021.000000	0.314060
1022.000000	0.313475
1023.000000	0.313282
1024.000000	0.313346
1025.000000	0.313292
1026.000000	0.313127
1027.000000	0.313093
1028.000000	0.313429
1029.000000	0.313917
1030.000000	0.314205
1031.000000	0.314329
1032.000000	0.314234
1033.000000	0.314484
1034.000000	0.314819
1035.000000	0.315400
1036.000000	0.315916
1037.000000	0.316969
1038.000000	0.316894
1039.000000	0.316026
1040.000000	0.316084
1041.000000	0.316175
1042.000000	0.315480
1043.000000	0.316159
1044.000000	0.316686
1045.000000	0.315861
1046.000000	0.315857
1047.000000	0.315910
1048.000000	0.315822
1049.000000	0.316006
1050.000000	0.316740
1051.000000	0.316852
1052.000000	0.316490
1053.000000	0.316655
1054.000000	0.317162
1055.000000	0.317549
1056.000000	0.318571
1057.000000	0.318768
1058.000000	0.318301
1059.000000	0.318094
1060.000000	0.318333
1061.000000	0.318743
1062.000000	0.319114
1063.000000	0.319373
1064.000000	0.319695
1065.000000	0.319654
1066.000000	0.319973
1067.000000	0.320814
1068.000000	0.321043
1069.000000	0.320720
1070.000000	0.320782
1071.000000	0.320728
1072.000000	0.320982
1073.000000	0.321673
1074.000000	0.322450
1075.000000	0.323004
1076.000000	0.323297
1077.000000	0.323135
1078.000000	0.323141
1079.000000	0.323233
1080.000000	0.323299
1081.000000	0.323475
1082.000000	0.323912
1083.000000	0.324246
1084.000000	0.324779
1085.000000	0.325059
1086.000000	0.325082
1087.000000	0.325297
1088.000000	0.325235
1089.000000	0.325399
1090.000000	0.325683
1091.000000	0.326175
1092.000000	0.326667
1093.000000	0.327319
1094.000000	0.327750
1095.000000	0.328152
1096.000000	0.328390
1097.000000	0.328419
1098.000000	0.328541
1099.000000	0.328527
1100.000000	0.328671
1101.000000	0.328803
1102.000000	0.328986
1103.000000	0.329122
1104.000000	0.329439
1105.000000	0.330010
1106.000000	0.330375
1107.000000	0.330632
1108.000000	0.330976
1109.000000	0.331455
1110.000000	0.331651
1111.000000	0.331908
1112.000000	0.332311
1113.000000	0.332458
1114.000000	0.332331
1115.000000	0.332432
1116.000000	0.332477
1117.000000	0.332726
1118.000000	0.333196
1119.000000	0.333426
1120.000000	0.333687
1121.000000	0.333891
1122.000000	0.334018
1123.000000	0.334364
1124.000000	0.334607
1125.000000	0.334842
1126.000000	0.334964
1127.000000	0.335109
1128.000000	0.335249
1129.000000	0.335403
1130.000000	0.335603
1131.000000	0.335866
1132.000000	0.336040
1133.000000	0.336300
1134.000000	0.336448
1135.000000	0.336379
1136.000000	0.336498
1137.000000	0.336675
1138.000000	0.336763
1139.000000	0.336974
1140.000000	0.337246
1141.000000	0.337439
1142.000000	0.337623
1143.000000	0.337782
1144.000000	0.338074
1145.000000	0.338134
1146.000000	0.338254
1147.000000	0.338436
1148.000000	0.338591
1149.000000	0.338807
1150.000000	0.339191
1151.000000	0.339332
1152.000000	0.339250
1153.000000	0.339428
1154.000000	0.339577
1155.000000	0.339689
1156.000000	0.340015
1157.000000	0.340155
1158.000000	0.339905
1159.000000	0.339961
1160.000000	0.340257
1161.000000	0.340390
1162.000000	0.340652
1163.000000	0.340910
1164.000000	0.341091
1165.000000	0.340973
1166.000000	0.341113
1167.000000	0.341269
1168.000000	0.341484
1169.000000	0.341879
1170.000000	0.342048
1171.000000	0.342220
1172.000000	0.342369
1173.000000	0.342323
1174.000000	0.342378
1175.000000	0.342409
1176.000000	0.342485
1177.000000	0.342723
1178.000000	0.342853
1179.000000	0.343066
1180.000000	0.343095
1181.000000	0.343005
1182.000000	0.342876
1183.000000	0.343059
1184.000000	0.343194
1185.000000	0.343418
1186.000000	0.343882
1187.000000	0.344080
1188.000000	0.344202
1189.000000	0.344256
1190.000000	0.344219
1191.000000	0.344293
1192.000000	0.344408
1193.000000	0.344687
1194.000000	0.345050
1195.000000	0.345264
1196.000000	0.345394
1197.000000	0.345540
1198.000000	0.345583
1199.000000	0.345711
1200.000000	0.345917
1201.000000	0.346085
1202.000000	0.346250
1203.000000	0.346400
1204.000000	0.346449
1205.000000	0.346642
1206.000000	0.346731
1207.000000	0.346862
1208.000000	0.346951
1209.000000	0.347072
1210.000000	0.347192
1211.000000	0.347298
1212.000000	0.347468
1213.000000	0.347838
1214.000000	0.347950
1215.000000	0.347825
1216.000000	0.347934
1217.000000	0.348018
1218.000000	0.348061
1219.000000	0.348273
1220.000000	0.348465
1221.000000	0.348496
1222.000000	0.348585
1223.000000	0.348853
1224.000000	0.349109
1225.000000	0.349157
1226.000000	0.349210
1227.000000	0.349205
1228.000000	0.349263
1229.000000	0.349382
1230.000000	0.349657
1231.000000	0.349686
1232.000000	0.349722
1233.000000	0.349934
1234.000000	0.350083
1235.000000	0.350270
1236.000000	0.350604
1237.000000	0.350785
1238.000000	0.350733
1239.000000	0.350836
1240.000000	0.350977
1241.000000	0.351024
1242.000000	0.351305
1243.000000	0.351458
1244.000000	0.351501
1245.000000	0.351739
1246.000000	0.351770
1247.000000	0.351878
1248.000000	0.352061
1249.000000	0.352171
1250.000000	0.352411
1251.000000	0.352561
1252.000000	0.352663
1253.000000	0.352756
1254.000000	0.352810
1255.000000	0.352766
1256.000000	0.352864
1257.000000	0.353030
1258.000000	0.353203
1259.000000	0.353340
1260.000000	0.353556
1261.000000	0.353769
1262.000000	0.353926
1263.000000	0.354153
1264.000000	0.354319
1265.000000	0.354342
1266.000000	0.354449
1267.000000	0.354649
1268.000000	0.354751
1269.000000	0.354828
1270.000000	0.355081
1271.000000	0.355058
1272.000000	0.355059
1273.000000	0.355277
1274.000000	0.355307
1275.000000	0.355407
1276.000000	0.355649
1277.000000	0.355871
1278.000000	0.356010
1279.000000	0.356059
1280.000000	0.356010
1281.000000	0.356027
1282.000000	0.355989
1283.000000	0.356090
1284.000000	0.356271
1285.000000	0.356379
1286.000000	0.356456
1287.000000	0.356458
1288.000000	0.356570
1289.000000	0.356725
1290.000000	0.356810
1291.000000	0.356990
1292.000000	0.357072
1293.000000	0.357055
1294.000000	0.357135
1295.000000	0.357172
1296.000000	0.357255
1297.000000	0.357367
1298.000000	0.357401
1299.000000	0.357573
1300.000000	0.357706
1301.000000	0.357699
1302.000000	0.357658
1303.000000	0.357633
1304.000000	0.357597
1305.000000	0.357648
1306.000000	0.357735
1307.000000	0.357937
1308.000000	0.358090
1309.000000	0.358269
1310.000000	0.358301
1311.000000	0.358274
1312.000000	0.358243
1313.000000	0.358011
1314.000000	0.357995
1315.000000	0.358113
1316.000000	0.358088
1317.000000	0.358228
1318.000000	0.358341
1319.000000	0.358269
1320.000000	0.358390
1321.000000	0.358361
1322.000000	0.358189
1323.000000	0.358014
1324.000000	0.357842
1325.000000	0.357864
1326.000000	0.357916
1327.000000	0.357995
1328.000000	0.358055
1329.000000	0.358013
1330.000000	0.357877
1331.000000	0.357888
1332.000000	0.357942
1333.000000	0.357988
1334.000000	0.358144
1335.000000	0.358304
1336.000000	0.358494
1337.000000	0.358654
1338.000000	0.358832
1339.000000	0.358858
1340.000000	0.358782
1341.000000	0.358774
1342.000000	0.358867
1343.000000	0.358838
1344.000000	0.358800
1345.000000	0.358923
1346.000000	0.358976
1347.000000	0.358956
1348.000000	0.359075
1349.000000	0.358947
1350.000000	0.358998
1351.000000	0.359144
1352.000000	0.359148
1353.000000	0.359274
1354.000000	0.359299
1355.000000	0.359212
1356.000000	0.359357
1357.000000	0.359440
1358.000000	0.359362
1359.000000	0.359312
1360.000000	0.359244
1361.000000	0.359091
1362.000000	0.358966
1363.000000	0.358879
1364.000000	0.358793
1365.000000	0.358668
1366.000000	0.358595
1367.000000	0.358599
1368.000000	0.358421
1369.000000	0.358320
1370.000000	0.358149
1371.000000	0.357866
1372.000000	0.357669
1373.000000	0.357521
1374.000000	0.357329
1375.000000	0.357074
1376.000000	0.356899
1377.000000	0.356699
1378.000000	0.356398
1379.000000	0.355877
1380.000000	0.355299
1381.000000	0.354711
1382.000000	0.354010
1383.000000	0.353438
1384.000000	0.352732
1385.000000	0.351821
1386.000000	0.350829
1387.000000	0.349797
1388.000000	0.348683
1389.000000	0.347449
1390.000000	0.346283
1391.000000	0.344883
1392.000000	0.343439
1393.000000	0.341953
1394.000000	0.340446
1395.000000	0.338847
1396.000000	0.337144
1397.000000	0.335477
1398.000000	0.333764
1399.000000	0.332059
1400.000000	0.330327
1401.000000	0.328624
1402.000000	0.326956
1403.000000	0.325231
1404.000000	0.323678
1405.000000	0.322288
1406.000000	0.320892
1407.000000	0.319670
1408.000000	0.318627
1409.000000	0.317758
1410.000000	0.317115
1411.000000	0.316545
1412.000000	0.315990
1413.000000	0.315531
1414.000000	0.315262
1415.000000	0.315133
1416.000000	0.315083
1417.000000	0.315144
1418.000000	0.315189
1419.000000	0.315332
1420.000000	0.315366
1421.000000	0.315448
1422.000000	0.315594
1423.000000	0.315691
1424.000000	0.315717
1425.000000	0.315793
1426.000000	0.315756
1427.000000	0.315713
1428.000000	0.315838
1429.000000	0.316045
1430.000000	0.316246
1431.000000	0.316384
1432.000000	0.316538
1433.000000	0.316689
1434.000000	0.316880
1435.000000	0.317193
1436.000000	0.317503
1437.000000	0.317780
1438.000000	0.318112
1439.000000	0.318483
1440.000000	0.318952
1441.000000	0.319485
1442.000000	0.320176
1443.000000	0.320902
1444.000000	0.321783
1445.000000	0.322727
1446.000000	0.323745
1447.000000	0.324847
1448.000000	0.325947
1449.000000	0.327003
1450.000000	0.328097
1451.000000	0.329169
1452.000000	0.330008
1453.000000	0.330818
1454.000000	0.331578
1455.000000	0.332234
1456.000000	0.332903
1457.000000	0.333496
1458.000000	0.334001
1459.000000	0.334448
1460.000000	0.334878
1461.000000	0.335388
1462.000000	0.335905
1463.000000	0.336209
1464.000000	0.336544
1465.000000	0.336995
1466.000000	0.337440
1467.000000	0.338018
1468.000000	0.338530
1469.000000	0.339010
1470.000000	0.339478
1471.000000	0.340026
1472.000000	0.340646
1473.000000	0.341290
1474.000000	0.341796
1475.000000	0.342248
1476.000000	0.342669
1477.000000	0.343130
1478.000000	0.343673
1479.000000	0.344206
1480.000000	0.344784
1481.000000	0.345234
1482.000000	0.345636
1483.000000	0.346063
1484.000000	0.346405
1485.000000	0.346830
1486.000000	0.347307
1487.000000	0.347734
1488.000000	0.348213
1489.000000	0.348596
1490.000000	0.348767
1491.000000	0.349064
1492.000000	0.349264
1493.000000	0.349577
1494.000000	0.350008
1495.000000	0.350296
1496.000000	0.350526
1497.000000	0.350814
1498.000000	0.351097
1499.000000	0.351298
1500.000000	0.351560
1501.000000	0.351854
1502.000000	0.352110
1503.000000	0.352336
1504.000000	0.352649
1505.000000	0.352925
1506.000000	0.353130
1507.000000	0.353446
1508.000000	0.353817
1509.000000	0.354077
1510.000000	0.354278
1511.000000	0.354555
1512.000000	0.354754
1513.000000	0.354942
1514.000000	0.355210
1515.000000	0.355263
1516.000000	0.355398
1517.000000	0.355574
1518.000000	0.355632
1519.000000	0.355795
1520.000000	0.355911
1521.000000	0.355970
1522.000000	0.356292
1523.000000	0.356596
1524.000000	0.356747
1525.000000	0.356975
1526.000000	0.357097
1527.000000	0.357135
1528.000000	0.357303
1529.000000	0.357386
1530.000000	0.357286
1531.000000	0.357325
1532.000000	0.357394
1533.000000	0.357490
1534.000000	0.357813
1535.000000	0.358180
1536.000000	0.358397
1537.000000	0.358687
1538.000000	0.358906
1539.000000	0.359029
1540.000000	0.359225
1541.000000	0.359496
1542.000000	0.359778
1543.000000	0.359885
1544.000000	0.360019
1545.000000	0.360218
1546.000000	0.360305
1547.000000	0.360466
1548.000000	0.360594
1549.000000	0.360495
1550.000000	0.360386
1551.000000	0.360415
1552.000000	0.360391
1553.000000	0.360455
1554.000000	0.360684
1555.000000	0.360762
1556.000000	0.360839
1557.000000	0.360994
1558.000000	0.361169
1559.000000	0.361284
1560.000000	0.361411
1561.000000	0.361629
1562.000000	0.361732
1563.000000	0.361805
1564.000000	0.361881
1565.000000	0.361973
1566.000000	0.361930
1567.000000	0.361846
1568.000000	0.361882
1569.000000	0.362015
1570.000000	0.362145
1571.000000	0.362349
1572.000000	0.362470
1573.000000	0.362571
1574.000000	0.362618
1575.000000	0.362631
1576.000000	0.362755
1577.000000	0.362856
1578.000000	0.362930
1579.000000	0.363185
1580.000000	0.363225
1581.000000	0.363153
1582.000000	0.363175
1583.000000	0.363128
1584.000000	0.363157
1585.000000	0.363451
1586.000000	0.363547
1587.000000	0.363527
1588.000000	0.363574
1589.000000	0.363566
1590.000000	0.363550
1591.000000	0.363608
1592.000000	0.363697
1593.000000	0.363825
1594.000000	0.363878
1595.000000	0.364008
1596.000000	0.364056
1597.000000	0.363993
1598.000000	0.364025
1599.000000	0.364182
1600.000000	0.364144
1601.000000	0.364113
1602.000000	0.364112
1603.000000	0.364074
1604.000000	0.364059
1605.000000	0.364140
1606.000000	0.364121
1607.000000	0.364086
1608.000000	0.364024
1609.000000	0.364008
1610.000000	0.363894
1611.000000	0.363699
1612.000000	0.363620
1613.000000	0.363702
1614.000000	0.363682
1615.000000	0.363693
1616.000000	0.363764
1617.000000	0.363794
1618.000000	0.363822
1619.000000	0.363916
1620.000000	0.363953
1621.000000	0.363832
1622.000000	0.363951
1623.000000	0.364262
1624.000000	0.364379
1625.000000	0.364366
1626.000000	0.364367
1627.000000	0.364200
1628.000000	0.364248
1629.000000	0.364494
1630.000000	0.364571
1631.000000	0.364557
1632.000000	0.364492
1633.000000	0.364294
1634.000000	0.364245
1635.000000	0.364304
1636.000000	0.364300
1637.000000	0.364378
1638.000000	0.364338
1639.000000	0.364275
1640.000000	0.364192
1641.000000	0.364081
1642.000000	0.364112
1643.000000	0.364276
1644.000000	0.364325
1645.000000	0.364425
1646.000000	0.364400
1647.000000	0.364238
1648.000000	0.364185
1649.000000	0.364328
1650.000000	0.364339
1651.000000	0.364290
1652.000000	0.364467
1653.000000	0.364701
1654.000000	0.364754
1655.000000	0.364808
1656.000000	0.364761
1657.000000	0.364546
1658.000000	0.364449
1659.000000	0.364605
1660.000000	0.364648
1661.000000	0.364471
1662.000000	0.364487
1663.000000	0.364599
1664.000000	0.364636
1665.000000	0.364663
1666.000000	0.364757
1667.000000	0.364779
1668.000000	0.364798
1669.000000	0.364823
1670.000000	0.364799
1671.000000	0.364819
1672.000000	0.364874
1673.000000	0.364918
1674.000000	0.365027
1675.000000	0.365110
1676.000000	0.365124
1677.000000	0.365159
1678.000000	0.365039
1679.000000	0.365069
1680.000000	0.365167
1681.000000	0.365004
1682.000000	0.364917
1683.000000	0.364980
1684.000000	0.364972
1685.000000	0.364982
1686.000000	0.365003
1687.000000	0.364912
1688.000000	0.364750
1689.000000	0.364832
1690.000000	0.364833
1691.000000	0.364764
1692.000000	0.364705
1693.000000	0.364543
1694.000000	0.364340
1695.000000	0.364293
1696.000000	0.364312
1697.000000	0.364237
1698.000000	0.364314
1699.000000	0.364307
1700.000000	0.364136
1701.000000	0.364133
1702.000000	0.363941
1703.000000	0.363840
1704.000000	0.363974
1705.000000	0.364009
1706.000000	0.364152
1707.000000	0.364185
1708.000000	0.364064
1709.000000	0.363927
1710.000000	0.363864
1711.000000	0.363772
1712.000000	0.363659
1713.000000	0.363558
1714.000000	0.363463
1715.000000	0.363392
1716.000000	0.363464
1717.000000	0.363361
1718.000000	0.363049
1719.000000	0.362923
1720.000000	0.362788
1721.000000	0.362777
1722.000000	0.363128
1723.000000	0.363091
1724.000000	0.362876
1725.000000	0.362804
1726.000000	0.362467
1727.000000	0.362313
1728.000000	0.362377
1729.000000	0.362096
1730.000000	0.361676
1731.000000	0.361578
1732.000000	0.361524
1733.000000	0.361571
1734.000000	0.361761
1735.000000	0.361815
1736.000000	0.361740
1737.000000	0.361676
1738.000000	0.361679
1739.000000	0.361583
1740.000000	0.361330
1741.000000	0.361232
1742.000000	0.361183
1743.000000	0.361193
1744.000000	0.361308
1745.000000	0.361178
1746.000000	0.360917
1747.000000	0.360880
1748.000000	0.360772
1749.000000	0.360890
1750.000000	0.360858
1751.000000	0.360722
1752.000000	0.360787
1753.000000	0.360806
1754.000000	0.360806
1755.000000	0.360761
1756.000000	0.360788
1757.000000	0.360891
1758.000000	0.360909
1759.000000	0.360911
1760.000000	0.360936
1761.000000	0.360882
1762.000000	0.360769
1763.000000	0.360696
1764.000000	0.360605
1765.000000	0.360313
1766.000000	0.360198
1767.000000	0.360140
1768.000000	0.360014
1769.000000	0.360057
1770.000000	0.359997
1771.000000	0.359822
1772.000000	0.359644
1773.000000	0.359267
1774.000000	0.359147
1775.000000	0.359202
1776.000000	0.359233
1777.000000	0.359416
1778.000000	0.359343
1779.000000	0.359098
1780.000000	0.359002
1781.000000	0.358837
1782.000000	0.358693
1783.000000	0.358646
1784.000000	0.358719
1785.000000	0.358557
1786.000000	0.358438
1787.000000	0.358543
1788.000000	0.358356
1789.000000	0.358353
1790.000000	0.358531
1791.000000	0.358503
1792.000000	0.358443
1793.000000	0.358473
1794.000000	0.358647
1795.000000	0.358586
1796.000000	0.358422
1797.000000	0.358265
1798.000000	0.357748
1799.000000	0.357511
1800.000000	0.357603
1801.000000	0.357540
1802.000000	0.357362
1803.000000	0.357960
1804.000000	0.357658
1805.000000	0.356755
1806.000000	0.355991
1807.000000	0.354687
1808.000000	0.354017
1809.000000	0.353225
1810.000000	0.352985
1811.000000	0.353029
1812.000000	0.353522
1813.000000	0.354036
1814.000000	0.355239
1815.000000	0.355705
1816.000000	0.356032
1817.000000	0.356343
1818.000000	0.356221
1819.000000	0.356487
1820.000000	0.357177
1821.000000	0.357053
1822.000000	0.357391
1823.000000	0.357789
1824.000000	0.357835
1825.000000	0.358051
1826.000000	0.357922
1827.000000	0.357298
1828.000000	0.356289
1829.000000	0.355840
1830.000000	0.355934
1831.000000	0.355654
1832.000000	0.355531
1833.000000	0.355426
1834.000000	0.355160
1835.000000	0.354844
1836.000000	0.354300
1837.000000	0.354310
1838.000000	0.354234
1839.000000	0.354551
1840.000000	0.354999
1841.000000	0.355278
1842.000000	0.355179
1843.000000	0.354335
1844.000000	0.353816
1845.000000	0.352987
1846.000000	0.352737
1847.000000	0.352457
1848.000000	0.352457
1849.000000	0.353403
1850.000000	0.353436
1851.000000	0.353119
1852.000000	0.352553
1853.000000	0.352078
1854.000000	0.350365
1855.000000	0.349876
1856.000000	0.350178
1857.000000	0.350055
1858.000000	0.349573
1859.000000	0.349293
1860.000000	0.348091
1861.000000	0.346486
1862.000000	0.345841
1863.000000	0.346161
1864.000000	0.345565
1865.000000	0.345253
1866.000000	0.344601
1867.000000	0.343437
1868.000000	0.341612
1869.000000	0.340547
1870.000000	0.339391
1871.000000	0.337732
1872.000000	0.335898
1873.000000	0.334113
1874.000000	0.331881
1875.000000	0.330130
1876.000000	0.328492
1877.000000	0.326546
1878.000000	0.324303
1879.000000	0.322061
1880.000000	0.318851
1881.000000	0.315553
1882.000000	0.312284
1883.000000	0.308290
1884.000000	0.304456
1885.000000	0.300080
1886.000000	0.295936
1887.000000	0.291777
1888.000000	0.287805
1889.000000	0.283180
1890.000000	0.278765
1891.000000	0.274082
1892.000000	0.268801
1893.000000	0.263471
1894.000000	0.257922
1895.000000	0.252593
1896.000000	0.247212
1897.000000	0.242083
1898.000000	0.237605
1899.000000	0.234014
1900.000000	0.230477
1901.000000	0.227630
1902.000000	0.224950
1903.000000	0.222408
1904.000000	0.220993
1905.000000	0.219817
1906.000000	0.219374
1907.000000	0.219751
1908.000000	0.220636
1909.000000	0.221458
1910.000000	0.223197
1911.000000	0.224757
1912.000000	0.226401
1913.000000	0.228318
1914.000000	0.229974
1915.000000	0.232363
1916.000000	0.234874
1917.000000	0.236944
1918.000000	0.239285
1919.000000	0.241575
1920.000000	0.242754
1921.000000	0.243985
1922.000000	0.245758
1923.000000	0.247335
1924.000000	0.248860
1925.000000	0.250563
1926.000000	0.251833
1927.000000	0.252793
1928.000000	0.253567
1929.000000	0.254029
1930.000000	0.254527
1931.000000	0.255498
1932.000000	0.256492
1933.000000	0.258356
1934.000000	0.259737
1935.000000	0.260122
1936.000000	0.261060
1937.000000	0.261630
1938.000000	0.261785
1939.000000	0.262172
1940.000000	0.262812
1941.000000	0.263355
1942.000000	0.263596
1943.000000	0.263989
1944.000000	0.264854
1945.000000	0.265086
1946.000000	0.265696
1947.000000	0.266924
1948.000000	0.267488
1949.000000	0.268379
1950.000000	0.269594
1951.000000	0.270046
1952.000000	0.269933
1953.000000	0.269799
1954.000000	0.270422
1955.000000	0.270499
1956.000000	0.270613
1957.000000	0.271413
1958.000000	0.271408
1959.000000	0.270947
1960.000000	0.271080
1961.000000	0.271440
1962.000000	0.271741
1963.000000	0.271971
1964.000000	0.273016
1965.000000	0.274034
1966.000000	0.274640
1967.000000	0.275989
1968.000000	0.276291
1969.000000	0.276219
1970.000000	0.276811
1971.000000	0.276871
1972.000000	0.277850
1973.000000	0.278564
1974.000000	0.279714
1975.000000	0.280320
1976.000000	0.280796
1977.000000	0.281090
1978.000000	0.280977
1979.000000	0.281063
1980.000000	0.282037
1981.000000	0.282791
1982.000000	0.283517
1983.000000	0.284776
1984.000000	0.285538
1985.000000	0.285789
1986.000000	0.286235
1987.000000	0.286832
1988.000000	0.287277
1989.000000	0.287536
1990.000000	0.287839
1991.000000	0.288284
1992.000000	0.288625
1993.000000	0.289158
1994.000000	0.290113
1995.000000	0.290684
1996.000000	0.291051
1997.000000	0.291829
1998.000000	0.292935
1999.000000	0.293774
2000.000000	0.294695
2001.000000	0.295976
2002.000000	0.296244
2003.000000	0.296415
2004.000000	0.297320
2005.000000	0.297694
2006.000000	0.298646
2007.000000	0.299485
2008.000000	0.299901
2009.000000	0.299663
2010.000000	0.300021
2011.000000	0.300253
2012.000000	0.300695
2013.000000	0.301160
2014.000000	0.301912
2015.000000	0.303134
2016.000000	0.303974
2017.000000	0.305459
2018.000000	0.306505
2019.000000	0.306985
2020.000000	0.307320
2021.000000	0.307635
2022.000000	0.307596
2023.000000	0.307965
2024.000000	0.308707
2025.000000	0.309056
2026.000000	0.309243
2027.000000	0.309022
2028.000000	0.309100
2029.000000	0.309143
2030.000000	0.309513
2031.000000	0.310075
2032.000000	0.310817
2033.000000	0.312026
2034.000000	0.312657
2035.000000	0.313475
2036.000000	0.313899
2037.000000	0.313626
2038.000000	0.313900
2039.000000	0.314419
2040.000000	0.315160
2041.000000	0.315965
2042.000000	0.316687
2043.000000	0.317083
2044.000000	0.317332
2045.000000	0.317102
2046.000000	0.317207
2047.000000	0.317786
2048.000000	0.319011
2049.000000	0.319632
2050.000000	0.320138
2051.000000	0.320211
2052.000000	0.318819
2053.000000	0.318620
2054.000000	0.319377
2055.000000	0.320138
2056.000000	0.320174
2057.000000	0.320798
2058.000000	0.320593
2059.000000	0.320208
2060.000000	0.320405
2061.000000	0.321368
2062.000000	0.321744
2063.000000	0.322039
2064.000000	0.322256
2065.000000	0.322778
2066.000000	0.322699
2067.000000	0.322410
2068.000000	0.322577
2069.000000	0.322482
2070.000000	0.322866
2071.000000	0.323133
2072.000000	0.323371
2073.000000	0.323521
2074.000000	0.323371
2075.000000	0.323508
2076.000000	0.324053
2077.000000	0.324059
2078.000000	0.323572
2079.000000	0.323509
2080.000000	0.323490
2081.000000	0.323779
2082.000000	0.324246
2083.000000	0.325387
2084.000000	0.326159
2085.000000	0.325967
2086.000000	0.325738
2087.000000	0.325312
2088.000000	0.325417
2089.000000	0.325445
2090.000000	0.325546
2091.000000	0.326244
2092.000000	0.326256
2093.000000	0.325713
2094.000000	0.325721
2095.000000	0.325834
2096.000000	0.325814
2097.000000	0.326098
2098.000000	0.325805
2099.000000	0.325197
2100.000000	0.325064
2101.000000	0.325452
2102.000000	0.326101
2103.000000	0.326918
2104.000000	0.327950
2105.000000	0.328042
2106.000000	0.327230
2107.000000	0.326998
2108.000000	0.326041
2109.000000	0.325902
2110.000000	0.326235
2111.000000	0.326737
2112.000000	0.327764
2113.000000	0.328170
2114.000000	0.328728
2115.000000	0.329367
2116.000000	0.329314
2117.000000	0.329915
2118.000000	0.330306
2119.000000	0.330523
2120.000000	0.330936
2121.000000	0.331650
2122.000000	0.331570
2123.000000	0.330945
2124.000000	0.330644
2125.000000	0.329936
2126.000000	0.329434
2127.000000	0.329235
2128.000000	0.329629
2129.000000	0.330107
2130.000000	0.330592
2131.000000	0.331798
2132.000000	0.332069
2133.000000	0.332291
2134.000000	0.331844
2135.000000	0.331098
2136.000000	0.330868
2137.000000	0.330848
2138.000000	0.331075
2139.000000	0.331170
2140.000000	0.331672
2141.000000	0.331897
2142.000000	0.331859
2143.000000	0.331557
2144.000000	0.331289
2145.000000	0.331115
2146.000000	0.331045
2147.000000	0.330732
2148.000000	0.330231
2149.000000	0.330102
2150.000000	0.329984
2151.000000	0.329399
2152.000000	0.329671
2153.000000	0.329913
2154.000000	0.329741
2155.000000	0.329351
2156.000000	0.329275
2157.000000	0.328710
2158.000000	0.329067
2159.000000	0.330387
2160.000000	0.331146
2161.000000	0.332311
2162.000000	0.332923
2163.000000	0.332728
2164.000000	0.332664
2165.000000	0.332472
2166.000000	0.332468
2167.000000	0.331642
2168.000000	0.331308
2169.000000	0.331377
2170.000000	0.331261
2171.000000	0.331203
2172.000000	0.332028
2173.000000	0.331909
2174.000000	0.330794
2175.000000	0.330484
2176.000000	0.330491
2177.000000	0.329786
2178.000000	0.328749
2179.000000	0.328462
2180.000000	0.327850
2181.000000	0.328127
2182.000000	0.329056
2183.000000	0.329549
2184.000000	0.330123
2185.000000	0.329979
2186.000000	0.329572
2187.000000	0.329939
2188.000000	0.329735
2189.000000	0.329847
2190.000000	0.330365
2191.000000	0.331081
2192.000000	0.331462
2193.000000	0.332208
2194.000000	0.331806
2195.000000	0.330827
2196.000000	0.329365
2197.000000	0.325668
2198.000000	0.324385
2199.000000	0.324037
2200.000000	0.323891
2201.000000	0.325344
2202.000000	0.326946
2203.000000	0.329729
2204.000000	0.330129
2205.000000	0.331231
2206.000000	0.331709
2207.000000	0.328068
2208.000000	0.326226
2209.000000	0.324378
2210.000000	0.323635
2211.000000	0.322753
2212.000000	0.322928
2213.000000	0.323148
2214.000000	0.323361
2215.000000	0.323006
2216.000000	0.323115
2217.000000	0.322292
2218.000000	0.319971
2219.000000	0.319328
2220.000000	0.319524
2221.000000	0.319926
2222.000000	0.321863
2223.000000	0.322115
2224.000000	0.321470
2225.000000	0.320711
2226.000000	0.320541
2227.000000	0.319031
2228.000000	0.319588
2229.000000	0.319331
2230.000000	0.317165
2231.000000	0.317002
2232.000000	0.316104
2233.000000	0.314631
2234.000000	0.314992
2235.000000	0.314422
2236.000000	0.313771
2237.000000	0.313583
2238.000000	0.312400
2239.000000	0.308625
2240.000000	0.308614
2241.000000	0.310343
2242.000000	0.311522
2243.000000	0.316649
2244.000000	0.317592
2245.000000	0.315067
2246.000000	0.313582
2247.000000	0.309160
2248.000000	0.307900
2249.000000	0.309089
2250.000000	0.309384
2251.000000	0.310997
2252.000000	0.312078
2253.000000	0.308713
2254.000000	0.307402
2255.000000	0.305011
2256.000000	0.303535
2257.000000	0.306829
2258.000000	0.308338
2259.000000	0.309716
2260.000000	0.310794
2261.000000	0.311183
2262.000000	0.309970
2263.000000	0.310109
2264.000000	0.312037
2265.000000	0.310743
2266.000000	0.307552
2267.000000	0.305154
2268.000000	0.300827
2269.000000	0.298455
2270.000000	0.297891
2271.000000	0.296383
2272.000000	0.293691
2273.000000	0.292528
2274.000000	0.292298
2275.000000	0.292056
2276.000000	0.292921
2277.000000	0.293914
2278.000000	0.292847
2279.000000	0.291186
2280.000000	0.287975
2281.000000	0.284322
2282.000000	0.281087
2283.000000	0.279015
2284.000000	0.277748
2285.000000	0.276352
2286.000000	0.276286
2287.000000	0.273695
2288.000000	0.271324
2289.000000	0.269505
2290.000000	0.266155
2291.000000	0.265641
2292.000000	0.264283
2293.000000	0.262597
2294.000000	0.261870
2295.000000	0.261540
2296.000000	0.260777
2297.000000	0.260719
2298.000000	0.260684
2299.000000	0.259461
2300.000000	0.259420
2301.000000	0.260451
2302.000000	0.261421
2303.000000	0.263420
2304.000000	0.265112
2305.000000	0.266687
2306.000000	0.268135
2307.000000	0.268985
2308.000000	0.270352
2309.000000	0.273846
2310.000000	0.274679
2311.000000	0.275052
2312.000000	0.276844
2313.000000	0.277086
2314.000000	0.280288
2315.000000	0.283716
2316.000000	0.284883
2317.000000	0.285183
2318.000000	0.283195
2319.000000	0.283731
2320.000000	0.286734
2321.000000	0.289587
2322.000000	0.292740
2323.000000	0.294447
2324.000000	0.293789
2325.000000	0.293227
2326.000000	0.292298
2327.000000	0.291181
2328.000000	0.290689
2329.000000	0.290182
2330.000000	0.291347
2331.000000	0.291499
2332.000000	0.291881
2333.000000	0.293056
2334.000000	0.291361
2335.000000	0.290883
2336.000000	0.290236
2337.000000	0.290028
2338.000000	0.290409
2339.000000	0.291128
2340.000000	0.292673
2341.000000	0.292622
2342.000000	0.291323
2343.000000	0.289663
2344.000000	0.286043
2345.000000	0.285021
2346.000000	0.285823
2347.000000	0.285966
2348.000000	0.287084
2349.000000	0.288170
2350.000000	0.287937
2351.000000	0.286955
2352.000000	0.286491
2353.000000	0.289660
2354.000000	0.290786
2355.000000	0.292598
2356.000000	0.295267
2357.000000	0.291336
2358.000000	0.287844
2359.000000	0.283706
2360.000000	0.278761
2361.000000	0.278740
2362.000000	0.276738
2363.000000	0.277079
2364.000000	0.278343
2365.000000	0.275426
2366.000000	0.273784
2367.000000	0.271938
2368.000000	0.270351
2369.000000	0.273141
2370.000000	0.274978
2371.000000	0.275458
2372.000000	0.277258
2373.000000	0.274729
2374.000000	0.275071
2375.000000	0.275744
2376.000000	0.272564
2377.000000	0.270235
2378.000000	0.263971
2379.000000	0.260241
2380.000000	0.259392
2381.000000	0.255107
2382.000000	0.250819
2383.000000	0.248963
2384.000000	0.248549
2385.000000	0.248585
2386.000000	0.251536
2387.000000	0.253712
2388.000000	0.255664
2389.000000	0.259502
2390.000000	0.260699
2391.000000	0.258426
2392.000000	0.251192
2393.000000	0.246521
2394.000000	0.240588
2395.000000	0.233466
2396.000000	0.230501
2397.000000	0.223513
2398.000000	0.220466
2399.000000	0.222005
2400.000000	0.224369
2401.000000	0.232891
2402.000000	0.242787
2403.000000	0.250243
2404.000000	0.256293
2405.000000	0.248446
2406.000000	0.234984
2407.000000	0.229993
2408.000000	0.223897
2409.000000	0.224468
2410.000000	0.229655
2411.000000	0.230018
2412.000000	0.233091
2413.000000	0.234717
2414.000000	0.235913
2415.000000	0.238586
2416.000000	0.236013
2417.000000	0.236038
2418.000000	0.237496
2419.000000	0.235337
2420.000000	0.234760
2421.000000	0.232481
2422.000000	0.224200
2423.000000	0.220022
2424.000000	0.229918
2425.000000	0.236659
2426.000000	0.237481
2427.000000	0.238334
2428.000000	0.229031
2429.000000	0.224946
2430.000000	0.223706
2431.000000	0.221965
2432.000000	0.225895
2433.000000	0.222449
2434.000000	0.226000
2435.000000	0.234100
2436.000000	0.231065
2437.000000	0.229832
2438.000000	0.229763
2439.000000	0.223601
2440.000000	0.227571
2441.000000	0.228840
2442.000000	0.226664
2443.000000	0.241004
2444.000000	0.246412
2445.000000	0.246708
2446.000000	0.249980
2447.000000	0.245670
2448.000000	0.231834
2449.000000	0.223320
2450.000000	0.224979
2451.000000	0.215302
2452.000000	0.209100
2453.000000	0.215639
2454.000000	0.222478
2455.000000	0.230558
2456.000000	0.247476
2457.000000	0.254872
2458.000000	0.244185
2459.000000	0.241697
2460.000000	0.233356
2461.000000	0.224258
2462.000000	0.238855
2463.000000	0.244989
2464.000000	0.260100
2465.000000	0.284355
2466.000000	0.290914
2467.000000	0.286658
2468.000000	0.256920
2469.000000	0.220515
2470.000000	0.197669
2471.000000	0.182030
2472.000000	0.180770
2473.000000	0.187807
2474.000000	0.183782
2475.000000	0.179107
2476.000000	0.185144
2477.000000	0.192046
2478.000000	0.190288
2479.000000	0.190589
2480.000000	0.181559
2481.000000	0.153858
2482.000000	0.151787
2483.000000	0.164149
2484.000000	0.176073
2485.000000	0.222051
2486.000000	0.252665
2487.000000	0.238269
2488.000000	0.265139
2489.000000	0.264606
2490.000000	0.256763
2491.000000	0.300600
2492.000000	0.285822
2493.000000	0.234310
2494.000000	0.214766
2495.000000	0.187991
2496.000000	0.172896
2497.000000	0.164690
2498.000000	0.177239
2499.000000	0.229281
2500.000000	0.224853
