# Wavelength	NAu-1-30_HEX-30_FV7-40_00001.asd.rts.txt
350.000000	0.198237
351.000000	0.167973
352.000000	0.147887
353.000000	0.149053
354.000000	0.166174
355.000000	0.174963
356.000000	0.166816
357.000000	0.152552
358.000000	0.155873
359.000000	0.159922
360.000000	0.161193
361.000000	0.159868
362.000000	0.160119
363.000000	0.159352
364.000000	0.156324
365.000000	0.155403
366.000000	0.157208
367.000000	0.159172
368.000000	0.155967
369.000000	0.157217
370.000000	0.160060
371.000000	0.159235
372.000000	0.163124
373.000000	0.167321
374.000000	0.168296
375.000000	0.166406
376.000000	0.164701
377.000000	0.163707
378.000000	0.161581
379.000000	0.163995
380.000000	0.167448
381.000000	0.167154
382.000000	0.169037
383.000000	0.169114
384.000000	0.166154
385.000000	0.169081
386.000000	0.169724
387.000000	0.167818
388.000000	0.171472
389.000000	0.174342
390.000000	0.175078
391.000000	0.174155
392.000000	0.176699
393.000000	0.179923
394.000000	0.180910
395.000000	0.179575
396.000000	0.179443
397.000000	0.181268
398.000000	0.182535
399.000000	0.182872
400.000000	0.183305
401.000000	0.185292
402.000000	0.185552
403.000000	0.186668
404.000000	0.190330
405.000000	0.189562
406.000000	0.190424
407.000000	0.194263
408.000000	0.193795
409.000000	0.193491
410.000000	0.194432
411.000000	0.195989
412.000000	0.196029
413.000000	0.196196
414.000000	0.198208
415.000000	0.198801
416.000000	0.198752
417.000000	0.198894
418.000000	0.199583
419.000000	0.200026
420.000000	0.200191
421.000000	0.200675
422.000000	0.201117
423.000000	0.201418
424.000000	0.201627
425.000000	0.201744
426.000000	0.202015
427.000000	0.202471
428.000000	0.202447
429.000000	0.202441
430.000000	0.202686
431.000000	0.203130
432.000000	0.203081
433.000000	0.202777
434.000000	0.202969
435.000000	0.203226
436.000000	0.203219
437.000000	0.202841
438.000000	0.203007
439.000000	0.203159
440.000000	0.203036
441.000000	0.202760
442.000000	0.202540
443.000000	0.202308
444.000000	0.201918
445.000000	0.202033
446.000000	0.202422
447.000000	0.202559
448.000000	0.203084
449.000000	0.204082
450.000000	0.205365
451.000000	0.206071
452.000000	0.207050
453.000000	0.208480
454.000000	0.210003
455.000000	0.211574
456.000000	0.213209
457.000000	0.214810
458.000000	0.216233
459.000000	0.217648
460.000000	0.219214
461.000000	0.220597
462.000000	0.221729
463.000000	0.222573
464.000000	0.223563
465.000000	0.224643
466.000000	0.225574
467.000000	0.226084
468.000000	0.227063
469.000000	0.227866
470.000000	0.227888
471.000000	0.228533
472.000000	0.229203
473.000000	0.229554
474.000000	0.230345
475.000000	0.230886
476.000000	0.231177
477.000000	0.231643
478.000000	0.231881
479.000000	0.232151
480.000000	0.232631
481.000000	0.233165
482.000000	0.233605
483.000000	0.233748
484.000000	0.234257
485.000000	0.234814
486.000000	0.235340
487.000000	0.235668
488.000000	0.236087
489.000000	0.236602
490.000000	0.237013
491.000000	0.237483
492.000000	0.237981
493.000000	0.238326
494.000000	0.238717
495.000000	0.239207
496.000000	0.239774
497.000000	0.240459
498.000000	0.240945
499.000000	0.241306
500.000000	0.241927
501.000000	0.242436
502.000000	0.242931
503.000000	0.243602
504.000000	0.244218
505.000000	0.244751
506.000000	0.245224
507.000000	0.245617
508.000000	0.246120
509.000000	0.246760
510.000000	0.247375
511.000000	0.247965
512.000000	0.248560
513.000000	0.249169
514.000000	0.249778
515.000000	0.250399
516.000000	0.250997
517.000000	0.251619
518.000000	0.252249
519.000000	0.252808
520.000000	0.253416
521.000000	0.254130
522.000000	0.254903
523.000000	0.255483
524.000000	0.256043
525.000000	0.256667
526.000000	0.257452
527.000000	0.258184
528.000000	0.258883
529.000000	0.259652
530.000000	0.260393
531.000000	0.261119
532.000000	0.261781
533.000000	0.262493
534.000000	0.263242
535.000000	0.264002
536.000000	0.264774
537.000000	0.265515
538.000000	0.266268
539.000000	0.267089
540.000000	0.267841
541.000000	0.268517
542.000000	0.269185
543.000000	0.269947
544.000000	0.270740
545.000000	0.271453
546.000000	0.272116
547.000000	0.272843
548.000000	0.273662
549.000000	0.274443
550.000000	0.275164
551.000000	0.275886
552.000000	0.276626
553.000000	0.277314
554.000000	0.277995
555.000000	0.278722
556.000000	0.279519
557.000000	0.280240
558.000000	0.280964
559.000000	0.281682
560.000000	0.282412
561.000000	0.283193
562.000000	0.283907
563.000000	0.284476
564.000000	0.285071
565.000000	0.285745
566.000000	0.286345
567.000000	0.286924
568.000000	0.287498
569.000000	0.288066
570.000000	0.288644
571.000000	0.289220
572.000000	0.289784
573.000000	0.290311
574.000000	0.290738
575.000000	0.291077
576.000000	0.291563
577.000000	0.292098
578.000000	0.292613
579.000000	0.293013
580.000000	0.293416
581.000000	0.293841
582.000000	0.294137
583.000000	0.294456
584.000000	0.294830
585.000000	0.295227
586.000000	0.295537
587.000000	0.295806
588.000000	0.296108
589.000000	0.296379
590.000000	0.296640
591.000000	0.296912
592.000000	0.297210
593.000000	0.297464
594.000000	0.297678
595.000000	0.297941
596.000000	0.298158
597.000000	0.298368
598.000000	0.298552
599.000000	0.298670
600.000000	0.298839
601.000000	0.299057
602.000000	0.299187
603.000000	0.299270
604.000000	0.299371
605.000000	0.299576
606.000000	0.299699
607.000000	0.299790
608.000000	0.300046
609.000000	0.300186
610.000000	0.300264
611.000000	0.300395
612.000000	0.300503
613.000000	0.300654
614.000000	0.300883
615.000000	0.300975
616.000000	0.301038
617.000000	0.301087
618.000000	0.301146
619.000000	0.301268
620.000000	0.301374
621.000000	0.301409
622.000000	0.301516
623.000000	0.301612
624.000000	0.301624
625.000000	0.301664
626.000000	0.301756
627.000000	0.301886
628.000000	0.301983
629.000000	0.302146
630.000000	0.302259
631.000000	0.302376
632.000000	0.302511
633.000000	0.302667
634.000000	0.302820
635.000000	0.302962
636.000000	0.303152
637.000000	0.303377
638.000000	0.303531
639.000000	0.303687
640.000000	0.303893
641.000000	0.304022
642.000000	0.304113
643.000000	0.304221
644.000000	0.304393
645.000000	0.304491
646.000000	0.304557
647.000000	0.304623
648.000000	0.304734
649.000000	0.304928
650.000000	0.305174
651.000000	0.305418
652.000000	0.305554
653.000000	0.305658
654.000000	0.305807
655.000000	0.305942
656.000000	0.306189
657.000000	0.306548
658.000000	0.306694
659.000000	0.306869
660.000000	0.307160
661.000000	0.307420
662.000000	0.307595
663.000000	0.307774
664.000000	0.308030
665.000000	0.308267
666.000000	0.308485
667.000000	0.308681
668.000000	0.308930
669.000000	0.309203
670.000000	0.309475
671.000000	0.309736
672.000000	0.310026
673.000000	0.310306
674.000000	0.310485
675.000000	0.310693
676.000000	0.310927
677.000000	0.311167
678.000000	0.311458
679.000000	0.311741
680.000000	0.311984
681.000000	0.312197
682.000000	0.312473
683.000000	0.312758
684.000000	0.313088
685.000000	0.313345
686.000000	0.313598
687.000000	0.313915
688.000000	0.314185
689.000000	0.314431
690.000000	0.314728
691.000000	0.315086
692.000000	0.315452
693.000000	0.315834
694.000000	0.316125
695.000000	0.316442
696.000000	0.316761
697.000000	0.317015
698.000000	0.317303
699.000000	0.317657
700.000000	0.318062
701.000000	0.318340
702.000000	0.318621
703.000000	0.318939
704.000000	0.319251
705.000000	0.319581
706.000000	0.319909
707.000000	0.320288
708.000000	0.320593
709.000000	0.320859
710.000000	0.321163
711.000000	0.321524
712.000000	0.321867
713.000000	0.322169
714.000000	0.322411
715.000000	0.322705
716.000000	0.323045
717.000000	0.323346
718.000000	0.323655
719.000000	0.323973
720.000000	0.324300
721.000000	0.324577
722.000000	0.324829
723.000000	0.325132
724.000000	0.325438
725.000000	0.325675
726.000000	0.325930
727.000000	0.326189
728.000000	0.326471
729.000000	0.326724
730.000000	0.326886
731.000000	0.327205
732.000000	0.327538
733.000000	0.327864
734.000000	0.328194
735.000000	0.328439
736.000000	0.328761
737.000000	0.329134
738.000000	0.329368
739.000000	0.329611
740.000000	0.329813
741.000000	0.330015
742.000000	0.330256
743.000000	0.330493
744.000000	0.330685
745.000000	0.330823
746.000000	0.330969
747.000000	0.331103
748.000000	0.331297
749.000000	0.331504
750.000000	0.331658
751.000000	0.331808
752.000000	0.331996
753.000000	0.332213
754.000000	0.332381
755.000000	0.332497
756.000000	0.332598
757.000000	0.332675
758.000000	0.332741
759.000000	0.332862
760.000000	0.332996
761.000000	0.333181
762.000000	0.333316
763.000000	0.333380
764.000000	0.333489
765.000000	0.333516
766.000000	0.333507
767.000000	0.333523
768.000000	0.333556
769.000000	0.333579
770.000000	0.333591
771.000000	0.333612
772.000000	0.333719
773.000000	0.333777
774.000000	0.333734
775.000000	0.333720
776.000000	0.333744
777.000000	0.333758
778.000000	0.333672
779.000000	0.333693
780.000000	0.333785
781.000000	0.333653
782.000000	0.333528
783.000000	0.333514
784.000000	0.333470
785.000000	0.333419
786.000000	0.333345
787.000000	0.333262
788.000000	0.333260
789.000000	0.333184
790.000000	0.333038
791.000000	0.332955
792.000000	0.332913
793.000000	0.332870
794.000000	0.332806
795.000000	0.332772
796.000000	0.332675
797.000000	0.332513
798.000000	0.332397
799.000000	0.332289
800.000000	0.332230
801.000000	0.332246
802.000000	0.332119
803.000000	0.331994
804.000000	0.331946
805.000000	0.331725
806.000000	0.331477
807.000000	0.331357
808.000000	0.331343
809.000000	0.331232
810.000000	0.331089
811.000000	0.330974
812.000000	0.330855
813.000000	0.330721
814.000000	0.330564
815.000000	0.330405
816.000000	0.330151
817.000000	0.329939
818.000000	0.329815
819.000000	0.329689
820.000000	0.329588
821.000000	0.329454
822.000000	0.329255
823.000000	0.329193
824.000000	0.329125
825.000000	0.328950
826.000000	0.328835
827.000000	0.328697
828.000000	0.328536
829.000000	0.328435
830.000000	0.328202
831.000000	0.327973
832.000000	0.327865
833.000000	0.327671
834.000000	0.327414
835.000000	0.327190
836.000000	0.327047
837.000000	0.326925
838.000000	0.326802
839.000000	0.326643
840.000000	0.326440
841.000000	0.326276
842.000000	0.326151
843.000000	0.325888
844.000000	0.325693
845.000000	0.325586
846.000000	0.325462
847.000000	0.325259
848.000000	0.325074
849.000000	0.325014
850.000000	0.324733
851.000000	0.324451
852.000000	0.324304
853.000000	0.324170
854.000000	0.323927
855.000000	0.323659
856.000000	0.323326
857.000000	0.323026
858.000000	0.322916
859.000000	0.322912
860.000000	0.322793
861.000000	0.322618
862.000000	0.322487
863.000000	0.322411
864.000000	0.322282
865.000000	0.322098
866.000000	0.321902
867.000000	0.321707
868.000000	0.321550
869.000000	0.321368
870.000000	0.321189
871.000000	0.321028
872.000000	0.320897
873.000000	0.320734
874.000000	0.320573
875.000000	0.320301
876.000000	0.319997
877.000000	0.319739
878.000000	0.319441
879.000000	0.319338
880.000000	0.319318
881.000000	0.319060
882.000000	0.318792
883.000000	0.318607
884.000000	0.318461
885.000000	0.318255
886.000000	0.318021
887.000000	0.317827
888.000000	0.317683
889.000000	0.317553
890.000000	0.317359
891.000000	0.317237
892.000000	0.317061
893.000000	0.316814
894.000000	0.316602
895.000000	0.316287
896.000000	0.316031
897.000000	0.315858
898.000000	0.315722
899.000000	0.315506
900.000000	0.315203
901.000000	0.314864
902.000000	0.314750
903.000000	0.314572
904.000000	0.314380
905.000000	0.314194
906.000000	0.314072
907.000000	0.313950
908.000000	0.313823
909.000000	0.313570
910.000000	0.313317
911.000000	0.313144
912.000000	0.313065
913.000000	0.312813
914.000000	0.312568
915.000000	0.312456
916.000000	0.312376
917.000000	0.312201
918.000000	0.311925
919.000000	0.311590
920.000000	0.311378
921.000000	0.311212
922.000000	0.311063
923.000000	0.310901
924.000000	0.310770
925.000000	0.310674
926.000000	0.310629
927.000000	0.310565
928.000000	0.310487
929.000000	0.310321
930.000000	0.310011
931.000000	0.309678
932.000000	0.309449
933.000000	0.309330
934.000000	0.309100
935.000000	0.308965
936.000000	0.308894
937.000000	0.308708
938.000000	0.308386
939.000000	0.308249
940.000000	0.308172
941.000000	0.307946
942.000000	0.307658
943.000000	0.307581
944.000000	0.307620
945.000000	0.307424
946.000000	0.307202
947.000000	0.307127
948.000000	0.307172
949.000000	0.306820
950.000000	0.306495
951.000000	0.306346
952.000000	0.306338
953.000000	0.306321
954.000000	0.306143
955.000000	0.305764
956.000000	0.305713
957.000000	0.305485
958.000000	0.305166
959.000000	0.305135
960.000000	0.304956
961.000000	0.304645
962.000000	0.304310
963.000000	0.304176
964.000000	0.304200
965.000000	0.304158
966.000000	0.303814
967.000000	0.303545
968.000000	0.303330
969.000000	0.303220
970.000000	0.303348
971.000000	0.303238
972.000000	0.303275
973.000000	0.303382
974.000000	0.303064
975.000000	0.303154
976.000000	0.303162
977.000000	0.302734
978.000000	0.302757
979.000000	0.302858
980.000000	0.302764
981.000000	0.302733
982.000000	0.302609
983.000000	0.302330
984.000000	0.302040
985.000000	0.301934
986.000000	0.302343
987.000000	0.302382
988.000000	0.301589
989.000000	0.301347
990.000000	0.301504
991.000000	0.301683
992.000000	0.301593
993.000000	0.301733
994.000000	0.301649
995.000000	0.301494
996.000000	0.301490
997.000000	0.301952
998.000000	0.302082
999.000000	0.301742
1000.000000	0.301692
1001.000000	0.302142
1002.000000	0.301613
1003.000000	0.301762
1004.000000	0.301922
1005.000000	0.302455
1006.000000	0.302464
1007.000000	0.302732
1008.000000	0.302131
1009.000000	0.301565
1010.000000	0.301514
1011.000000	0.301219
1012.000000	0.301085
1013.000000	0.300558
1014.000000	0.300523
1015.000000	0.301181
1016.000000	0.301402
1017.000000	0.301788
1018.000000	0.302184
1019.000000	0.302364
1020.000000	0.302461
1021.000000	0.302426
1022.000000	0.302407
1023.000000	0.302461
1024.000000	0.302196
1025.000000	0.302564
1026.000000	0.302604
1027.000000	0.302400
1028.000000	0.302337
1029.000000	0.302520
1030.000000	0.302804
1031.000000	0.302660
1032.000000	0.302591
1033.000000	0.302821
1034.000000	0.303130
1035.000000	0.303839
1036.000000	0.304084
1037.000000	0.304114
1038.000000	0.304172
1039.000000	0.303960
1040.000000	0.304213
1041.000000	0.304412
1042.000000	0.304732
1043.000000	0.304864
1044.000000	0.304634
1045.000000	0.305455
1046.000000	0.306409
1047.000000	0.306743
1048.000000	0.307179
1049.000000	0.307279
1050.000000	0.306498
1051.000000	0.306307
1052.000000	0.306305
1053.000000	0.306243
1054.000000	0.306480
1055.000000	0.306608
1056.000000	0.306720
1057.000000	0.306838
1058.000000	0.307001
1059.000000	0.307319
1060.000000	0.308089
1061.000000	0.308969
1062.000000	0.309525
1063.000000	0.309980
1064.000000	0.310173
1065.000000	0.309730
1066.000000	0.309817
1067.000000	0.309946
1068.000000	0.310097
1069.000000	0.310349
1070.000000	0.310681
1071.000000	0.311093
1072.000000	0.311530
1073.000000	0.312267
1074.000000	0.312773
1075.000000	0.313107
1076.000000	0.313624
1077.000000	0.313967
1078.000000	0.314181
1079.000000	0.314322
1080.000000	0.314411
1081.000000	0.314504
1082.000000	0.314342
1083.000000	0.314664
1084.000000	0.315514
1085.000000	0.315896
1086.000000	0.316258
1087.000000	0.316644
1088.000000	0.316536
1089.000000	0.316740
1090.000000	0.317178
1091.000000	0.317610
1092.000000	0.318145
1093.000000	0.318630
1094.000000	0.318833
1095.000000	0.318741
1096.000000	0.318980
1097.000000	0.319064
1098.000000	0.319391
1099.000000	0.319969
1100.000000	0.320501
1101.000000	0.321182
1102.000000	0.321524
1103.000000	0.321556
1104.000000	0.321915
1105.000000	0.322271
1106.000000	0.322566
1107.000000	0.323073
1108.000000	0.323446
1109.000000	0.323766
1110.000000	0.323699
1111.000000	0.324156
1112.000000	0.324921
1113.000000	0.325396
1114.000000	0.326021
1115.000000	0.326371
1116.000000	0.326427
1117.000000	0.326619
1118.000000	0.326740
1119.000000	0.326907
1120.000000	0.327099
1121.000000	0.327284
1122.000000	0.327717
1123.000000	0.328056
1124.000000	0.327903
1125.000000	0.328092
1126.000000	0.328331
1127.000000	0.328469
1128.000000	0.328638
1129.000000	0.329005
1130.000000	0.329319
1131.000000	0.329590
1132.000000	0.329752
1133.000000	0.329980
1134.000000	0.330251
1135.000000	0.330236
1136.000000	0.330528
1137.000000	0.331298
1138.000000	0.331529
1139.000000	0.331557
1140.000000	0.331823
1141.000000	0.331953
1142.000000	0.332057
1143.000000	0.332156
1144.000000	0.332465
1145.000000	0.332622
1146.000000	0.332661
1147.000000	0.332803
1148.000000	0.332968
1149.000000	0.333263
1150.000000	0.333627
1151.000000	0.333876
1152.000000	0.334207
1153.000000	0.334433
1154.000000	0.334327
1155.000000	0.334507
1156.000000	0.334990
1157.000000	0.335160
1158.000000	0.335161
1159.000000	0.335255
1160.000000	0.335110
1161.000000	0.335174
1162.000000	0.335516
1163.000000	0.335892
1164.000000	0.336341
1165.000000	0.336715
1166.000000	0.336826
1167.000000	0.336710
1168.000000	0.336689
1169.000000	0.336475
1170.000000	0.336471
1171.000000	0.336648
1172.000000	0.336859
1173.000000	0.337119
1174.000000	0.337247
1175.000000	0.337376
1176.000000	0.337467
1177.000000	0.337456
1178.000000	0.337555
1179.000000	0.337788
1180.000000	0.337876
1181.000000	0.337983
1182.000000	0.338153
1183.000000	0.338158
1184.000000	0.338207
1185.000000	0.338313
1186.000000	0.338396
1187.000000	0.338513
1188.000000	0.338730
1189.000000	0.338853
1190.000000	0.339022
1191.000000	0.339130
1192.000000	0.339286
1193.000000	0.339514
1194.000000	0.339575
1195.000000	0.339696
1196.000000	0.339886
1197.000000	0.339979
1198.000000	0.340014
1199.000000	0.340086
1200.000000	0.340146
1201.000000	0.340157
1202.000000	0.340060
1203.000000	0.340143
1204.000000	0.340248
1205.000000	0.340258
1206.000000	0.340275
1207.000000	0.340448
1208.000000	0.340516
1209.000000	0.340579
1210.000000	0.340640
1211.000000	0.340747
1212.000000	0.340761
1213.000000	0.340682
1214.000000	0.340736
1215.000000	0.340818
1216.000000	0.340899
1217.000000	0.341064
1218.000000	0.341082
1219.000000	0.340999
1220.000000	0.341020
1221.000000	0.341060
1222.000000	0.341114
1223.000000	0.341233
1224.000000	0.341298
1225.000000	0.341166
1226.000000	0.341077
1227.000000	0.341060
1228.000000	0.341074
1229.000000	0.341105
1230.000000	0.341246
1231.000000	0.341206
1232.000000	0.341207
1233.000000	0.341314
1234.000000	0.341328
1235.000000	0.341411
1236.000000	0.341533
1237.000000	0.341659
1238.000000	0.341743
1239.000000	0.341820
1240.000000	0.341933
1241.000000	0.342000
1242.000000	0.341947
1243.000000	0.341920
1244.000000	0.341984
1245.000000	0.342061
1246.000000	0.342093
1247.000000	0.342224
1248.000000	0.342310
1249.000000	0.342365
1250.000000	0.342414
1251.000000	0.342382
1252.000000	0.342387
1253.000000	0.342401
1254.000000	0.342400
1255.000000	0.342412
1256.000000	0.342437
1257.000000	0.342431
1258.000000	0.342494
1259.000000	0.342564
1260.000000	0.342650
1261.000000	0.342718
1262.000000	0.342794
1263.000000	0.342913
1264.000000	0.342885
1265.000000	0.343052
1266.000000	0.343077
1267.000000	0.343034
1268.000000	0.343171
1269.000000	0.343123
1270.000000	0.343076
1271.000000	0.343005
1272.000000	0.343019
1273.000000	0.343139
1274.000000	0.343192
1275.000000	0.343228
1276.000000	0.343304
1277.000000	0.343403
1278.000000	0.343376
1279.000000	0.343348
1280.000000	0.343291
1281.000000	0.343176
1282.000000	0.343058
1283.000000	0.343052
1284.000000	0.342948
1285.000000	0.342943
1286.000000	0.343028
1287.000000	0.342992
1288.000000	0.342997
1289.000000	0.342976
1290.000000	0.342875
1291.000000	0.342922
1292.000000	0.343102
1293.000000	0.343287
1294.000000	0.343342
1295.000000	0.343257
1296.000000	0.343157
1297.000000	0.342926
1298.000000	0.342899
1299.000000	0.343036
1300.000000	0.343066
1301.000000	0.343300
1302.000000	0.343337
1303.000000	0.343433
1304.000000	0.343341
1305.000000	0.343146
1306.000000	0.342996
1307.000000	0.342761
1308.000000	0.342719
1309.000000	0.342861
1310.000000	0.342922
1311.000000	0.343054
1312.000000	0.343141
1313.000000	0.343125
1314.000000	0.343046
1315.000000	0.342974
1316.000000	0.342971
1317.000000	0.343112
1318.000000	0.343185
1319.000000	0.343060
1320.000000	0.342950
1321.000000	0.342740
1322.000000	0.342551
1323.000000	0.342587
1324.000000	0.342678
1325.000000	0.342701
1326.000000	0.342609
1327.000000	0.342434
1328.000000	0.342474
1329.000000	0.342339
1330.000000	0.342107
1331.000000	0.341980
1332.000000	0.341891
1333.000000	0.341711
1334.000000	0.341664
1335.000000	0.341635
1336.000000	0.341509
1337.000000	0.341453
1338.000000	0.341473
1339.000000	0.341286
1340.000000	0.341107
1341.000000	0.341012
1342.000000	0.340917
1343.000000	0.340813
1344.000000	0.340673
1345.000000	0.340489
1346.000000	0.340325
1347.000000	0.340129
1348.000000	0.340003
1349.000000	0.339852
1350.000000	0.339770
1351.000000	0.339605
1352.000000	0.339386
1353.000000	0.339194
1354.000000	0.339030
1355.000000	0.338867
1356.000000	0.338865
1357.000000	0.338863
1358.000000	0.338688
1359.000000	0.338687
1360.000000	0.338709
1361.000000	0.338832
1362.000000	0.338752
1363.000000	0.338603
1364.000000	0.338549
1365.000000	0.338403
1366.000000	0.338322
1367.000000	0.338391
1368.000000	0.338319
1369.000000	0.338150
1370.000000	0.337803
1371.000000	0.337543
1372.000000	0.337227
1373.000000	0.336899
1374.000000	0.336752
1375.000000	0.336459
1376.000000	0.336322
1377.000000	0.336203
1378.000000	0.335923
1379.000000	0.335584
1380.000000	0.335112
1381.000000	0.334629
1382.000000	0.334179
1383.000000	0.333804
1384.000000	0.333447
1385.000000	0.333067
1386.000000	0.332615
1387.000000	0.332109
1388.000000	0.331566
1389.000000	0.330929
1390.000000	0.330422
1391.000000	0.330034
1392.000000	0.329521
1393.000000	0.328888
1394.000000	0.328249
1395.000000	0.327582
1396.000000	0.326715
1397.000000	0.326000
1398.000000	0.325347
1399.000000	0.324553
1400.000000	0.323720
1401.000000	0.322907
1402.000000	0.322084
1403.000000	0.321264
1404.000000	0.320458
1405.000000	0.319489
1406.000000	0.318473
1407.000000	0.317598
1408.000000	0.316839
1409.000000	0.316145
1410.000000	0.315443
1411.000000	0.314655
1412.000000	0.313837
1413.000000	0.313139
1414.000000	0.312666
1415.000000	0.312295
1416.000000	0.311851
1417.000000	0.311427
1418.000000	0.310923
1419.000000	0.310532
1420.000000	0.310167
1421.000000	0.309892
1422.000000	0.309630
1423.000000	0.309181
1424.000000	0.308654
1425.000000	0.308101
1426.000000	0.307406
1427.000000	0.306859
1428.000000	0.306450
1429.000000	0.306110
1430.000000	0.305856
1431.000000	0.305569
1432.000000	0.305264
1433.000000	0.304950
1434.000000	0.304696
1435.000000	0.304483
1436.000000	0.304363
1437.000000	0.304244
1438.000000	0.304259
1439.000000	0.304491
1440.000000	0.304700
1441.000000	0.305006
1442.000000	0.305338
1443.000000	0.305629
1444.000000	0.305946
1445.000000	0.306278
1446.000000	0.306602
1447.000000	0.306827
1448.000000	0.307026
1449.000000	0.307263
1450.000000	0.307368
1451.000000	0.307404
1452.000000	0.307356
1453.000000	0.307272
1454.000000	0.307141
1455.000000	0.306972
1456.000000	0.306908
1457.000000	0.306838
1458.000000	0.306871
1459.000000	0.306974
1460.000000	0.306983
1461.000000	0.306903
1462.000000	0.306777
1463.000000	0.306734
1464.000000	0.306753
1465.000000	0.306830
1466.000000	0.306919
1467.000000	0.306962
1468.000000	0.307032
1469.000000	0.307209
1470.000000	0.307291
1471.000000	0.307392
1472.000000	0.307471
1473.000000	0.307451
1474.000000	0.307474
1475.000000	0.307611
1476.000000	0.307778
1477.000000	0.308086
1478.000000	0.308457
1479.000000	0.308692
1480.000000	0.308907
1481.000000	0.309155
1482.000000	0.309392
1483.000000	0.309696
1484.000000	0.310162
1485.000000	0.310470
1486.000000	0.310706
1487.000000	0.310981
1488.000000	0.311158
1489.000000	0.311410
1490.000000	0.311620
1491.000000	0.311837
1492.000000	0.312013
1493.000000	0.312315
1494.000000	0.312655
1495.000000	0.312889
1496.000000	0.313145
1497.000000	0.313358
1498.000000	0.313463
1499.000000	0.313686
1500.000000	0.313935
1501.000000	0.314066
1502.000000	0.314246
1503.000000	0.314465
1504.000000	0.314657
1505.000000	0.314942
1506.000000	0.315284
1507.000000	0.315502
1508.000000	0.315756
1509.000000	0.315928
1510.000000	0.315909
1511.000000	0.315947
1512.000000	0.315992
1513.000000	0.316142
1514.000000	0.316334
1515.000000	0.316367
1516.000000	0.316456
1517.000000	0.316540
1518.000000	0.316636
1519.000000	0.316729
1520.000000	0.316915
1521.000000	0.317001
1522.000000	0.317020
1523.000000	0.317330
1524.000000	0.317565
1525.000000	0.317700
1526.000000	0.317930
1527.000000	0.318068
1528.000000	0.318094
1529.000000	0.318142
1530.000000	0.318188
1531.000000	0.318257
1532.000000	0.318356
1533.000000	0.318423
1534.000000	0.318519
1535.000000	0.318536
1536.000000	0.318499
1537.000000	0.318712
1538.000000	0.318847
1539.000000	0.318799
1540.000000	0.318738
1541.000000	0.318664
1542.000000	0.318681
1543.000000	0.318817
1544.000000	0.318998
1545.000000	0.319125
1546.000000	0.319102
1547.000000	0.319090
1548.000000	0.319146
1549.000000	0.319115
1550.000000	0.319108
1551.000000	0.319112
1552.000000	0.319123
1553.000000	0.319226
1554.000000	0.319319
1555.000000	0.319462
1556.000000	0.319550
1557.000000	0.319567
1558.000000	0.319643
1559.000000	0.319672
1560.000000	0.319695
1561.000000	0.319771
1562.000000	0.319817
1563.000000	0.319917
1564.000000	0.319965
1565.000000	0.319973
1566.000000	0.319886
1567.000000	0.319794
1568.000000	0.319749
1569.000000	0.319763
1570.000000	0.319831
1571.000000	0.319960
1572.000000	0.320019
1573.000000	0.320074
1574.000000	0.320150
1575.000000	0.320262
1576.000000	0.320298
1577.000000	0.320291
1578.000000	0.320250
1579.000000	0.320153
1580.000000	0.320172
1581.000000	0.320337
1582.000000	0.320399
1583.000000	0.320465
1584.000000	0.320474
1585.000000	0.320509
1586.000000	0.320551
1587.000000	0.320604
1588.000000	0.320599
1589.000000	0.320524
1590.000000	0.320507
1591.000000	0.320562
1592.000000	0.320532
1593.000000	0.320466
1594.000000	0.320446
1595.000000	0.320501
1596.000000	0.320449
1597.000000	0.320396
1598.000000	0.320387
1599.000000	0.320267
1600.000000	0.320271
1601.000000	0.320579
1602.000000	0.320631
1603.000000	0.320629
1604.000000	0.320625
1605.000000	0.320480
1606.000000	0.320509
1607.000000	0.320763
1608.000000	0.320802
1609.000000	0.320823
1610.000000	0.320835
1611.000000	0.320769
1612.000000	0.320748
1613.000000	0.320933
1614.000000	0.320948
1615.000000	0.320880
1616.000000	0.320893
1617.000000	0.320810
1618.000000	0.320799
1619.000000	0.320846
1620.000000	0.320909
1621.000000	0.321057
1622.000000	0.321205
1623.000000	0.321341
1624.000000	0.321379
1625.000000	0.321195
1626.000000	0.321149
1627.000000	0.321137
1628.000000	0.321196
1629.000000	0.321330
1630.000000	0.321487
1631.000000	0.321649
1632.000000	0.321667
1633.000000	0.321653
1634.000000	0.321658
1635.000000	0.321572
1636.000000	0.321569
1637.000000	0.321679
1638.000000	0.321726
1639.000000	0.321835
1640.000000	0.321869
1641.000000	0.321960
1642.000000	0.321995
1643.000000	0.321953
1644.000000	0.321945
1645.000000	0.321966
1646.000000	0.321924
1647.000000	0.321854
1648.000000	0.321845
1649.000000	0.321919
1650.000000	0.322016
1651.000000	0.322276
1652.000000	0.322381
1653.000000	0.322301
1654.000000	0.322430
1655.000000	0.322505
1656.000000	0.322563
1657.000000	0.322905
1658.000000	0.322961
1659.000000	0.322961
1660.000000	0.322983
1661.000000	0.322752
1662.000000	0.322767
1663.000000	0.322839
1664.000000	0.322941
1665.000000	0.323203
1666.000000	0.323371
1667.000000	0.323421
1668.000000	0.323498
1669.000000	0.323532
1670.000000	0.323582
1671.000000	0.323734
1672.000000	0.323859
1673.000000	0.323924
1674.000000	0.324051
1675.000000	0.324282
1676.000000	0.324319
1677.000000	0.324384
1678.000000	0.324386
1679.000000	0.324313
1680.000000	0.324313
1681.000000	0.324388
1682.000000	0.324347
1683.000000	0.324300
1684.000000	0.324387
1685.000000	0.324427
1686.000000	0.324334
1687.000000	0.324367
1688.000000	0.324448
1689.000000	0.324476
1690.000000	0.324646
1691.000000	0.324849
1692.000000	0.324769
1693.000000	0.324701
1694.000000	0.324682
1695.000000	0.324754
1696.000000	0.324802
1697.000000	0.324794
1698.000000	0.324737
1699.000000	0.324788
1700.000000	0.324978
1701.000000	0.325118
1702.000000	0.325055
1703.000000	0.325035
1704.000000	0.325049
1705.000000	0.325086
1706.000000	0.325339
1707.000000	0.325370
1708.000000	0.325117
1709.000000	0.325032
1710.000000	0.324982
1711.000000	0.325047
1712.000000	0.325430
1713.000000	0.325570
1714.000000	0.325649
1715.000000	0.325742
1716.000000	0.325783
1717.000000	0.325770
1718.000000	0.325667
1719.000000	0.325636
1720.000000	0.325613
1721.000000	0.325633
1722.000000	0.325791
1723.000000	0.325820
1724.000000	0.325779
1725.000000	0.325834
1726.000000	0.325813
1727.000000	0.325810
1728.000000	0.325766
1729.000000	0.325750
1730.000000	0.325875
1731.000000	0.325948
1732.000000	0.326122
1733.000000	0.326211
1734.000000	0.326026
1735.000000	0.326054
1736.000000	0.326067
1737.000000	0.326203
1738.000000	0.326545
1739.000000	0.326695
1740.000000	0.326837
1741.000000	0.326877
1742.000000	0.326824
1743.000000	0.326770
1744.000000	0.326598
1745.000000	0.326635
1746.000000	0.326692
1747.000000	0.326967
1748.000000	0.327007
1749.000000	0.326748
1750.000000	0.326626
1751.000000	0.326627
1752.000000	0.326702
1753.000000	0.326831
1754.000000	0.326858
1755.000000	0.326699
1756.000000	0.326634
1757.000000	0.326570
1758.000000	0.326550
1759.000000	0.326635
1760.000000	0.326626
1761.000000	0.326527
1762.000000	0.326436
1763.000000	0.326318
1764.000000	0.326221
1765.000000	0.326022
1766.000000	0.326010
1767.000000	0.326083
1768.000000	0.326017
1769.000000	0.326128
1770.000000	0.326139
1771.000000	0.325879
1772.000000	0.325835
1773.000000	0.325809
1774.000000	0.325880
1775.000000	0.326165
1776.000000	0.326308
1777.000000	0.326415
1778.000000	0.326556
1779.000000	0.326647
1780.000000	0.326745
1781.000000	0.326892
1782.000000	0.326884
1783.000000	0.326822
1784.000000	0.326745
1785.000000	0.326562
1786.000000	0.326586
1787.000000	0.326689
1788.000000	0.326738
1789.000000	0.326713
1790.000000	0.326699
1791.000000	0.326695
1792.000000	0.326977
1793.000000	0.327127
1794.000000	0.327256
1795.000000	0.327277
1796.000000	0.327156
1797.000000	0.327046
1798.000000	0.326684
1799.000000	0.326649
1800.000000	0.326913
1801.000000	0.326559
1802.000000	0.326679
1803.000000	0.327008
1804.000000	0.327258
1805.000000	0.328358
1806.000000	0.328489
1807.000000	0.327512
1808.000000	0.327449
1809.000000	0.327734
1810.000000	0.327718
1811.000000	0.327725
1812.000000	0.328199
1813.000000	0.328314
1814.000000	0.327887
1815.000000	0.327972
1816.000000	0.328493
1817.000000	0.328548
1818.000000	0.328602
1819.000000	0.328667
1820.000000	0.328763
1821.000000	0.328736
1822.000000	0.328117
1823.000000	0.326586
1824.000000	0.326141
1825.000000	0.325604
1826.000000	0.325330
1827.000000	0.325961
1828.000000	0.325965
1829.000000	0.325472
1830.000000	0.325372
1831.000000	0.325644
1832.000000	0.326464
1833.000000	0.326953
1834.000000	0.327760
1835.000000	0.328000
1836.000000	0.327653
1837.000000	0.327615
1838.000000	0.327405
1839.000000	0.327206
1840.000000	0.327185
1841.000000	0.327073
1842.000000	0.326952
1843.000000	0.326690
1844.000000	0.326663
1845.000000	0.326924
1846.000000	0.326763
1847.000000	0.326430
1848.000000	0.325750
1849.000000	0.325143
1850.000000	0.324402
1851.000000	0.323722
1852.000000	0.322909
1853.000000	0.322564
1854.000000	0.322046
1855.000000	0.321713
1856.000000	0.321581
1857.000000	0.321735
1858.000000	0.321775
1859.000000	0.321852
1860.000000	0.321755
1861.000000	0.321674
1862.000000	0.321272
1863.000000	0.320600
1864.000000	0.319931
1865.000000	0.319016
1866.000000	0.318319
1867.000000	0.317694
1868.000000	0.316955
1869.000000	0.315781
1870.000000	0.314692
1871.000000	0.313877
1872.000000	0.313181
1873.000000	0.312412
1874.000000	0.312036
1875.000000	0.311161
1876.000000	0.309853
1877.000000	0.308058
1878.000000	0.306160
1879.000000	0.304928
1880.000000	0.303344
1881.000000	0.301315
1882.000000	0.299451
1883.000000	0.297204
1884.000000	0.295129
1885.000000	0.293057
1886.000000	0.290724
1887.000000	0.288267
1888.000000	0.285533
1889.000000	0.282847
1890.000000	0.279790
1891.000000	0.277100
1892.000000	0.274557
1893.000000	0.271031
1894.000000	0.267878
1895.000000	0.264732
1896.000000	0.261638
1897.000000	0.258187
1898.000000	0.255349
1899.000000	0.252922
1900.000000	0.250278
1901.000000	0.247462
1902.000000	0.245224
1903.000000	0.243291
1904.000000	0.241047
1905.000000	0.239167
1906.000000	0.237136
1907.000000	0.235042
1908.000000	0.232749
1909.000000	0.231276
1910.000000	0.229875
1911.000000	0.228151
1912.000000	0.226787
1913.000000	0.225926
1914.000000	0.224963
1915.000000	0.224587
1916.000000	0.224246
1917.000000	0.223530
1918.000000	0.222242
1919.000000	0.221603
1920.000000	0.221113
1921.000000	0.220981
1922.000000	0.221537
1923.000000	0.221381
1924.000000	0.220974
1925.000000	0.220996
1926.000000	0.221066
1927.000000	0.221412
1928.000000	0.221622
1929.000000	0.222214
1930.000000	0.222608
1931.000000	0.222164
1932.000000	0.221816
1933.000000	0.222165
1934.000000	0.222290
1935.000000	0.223178
1936.000000	0.223994
1937.000000	0.224419
1938.000000	0.224908
1939.000000	0.224801
1940.000000	0.223990
1941.000000	0.223527
1942.000000	0.223310
1943.000000	0.222730
1944.000000	0.222755
1945.000000	0.222953
1946.000000	0.222964
1947.000000	0.223017
1948.000000	0.222953
1949.000000	0.222791
1950.000000	0.222752
1951.000000	0.222710
1952.000000	0.222750
1953.000000	0.222899
1954.000000	0.223008
1955.000000	0.222840
1956.000000	0.222905
1957.000000	0.222567
1958.000000	0.222096
1959.000000	0.222136
1960.000000	0.221642
1961.000000	0.221756
1962.000000	0.221873
1963.000000	0.222315
1964.000000	0.222539
1965.000000	0.223070
1966.000000	0.222604
1967.000000	0.222311
1968.000000	0.221970
1969.000000	0.221010
1970.000000	0.220903
1971.000000	0.221108
1972.000000	0.221745
1973.000000	0.222217
1974.000000	0.223077
1975.000000	0.223789
1976.000000	0.224549
1977.000000	0.225022
1978.000000	0.225741
1979.000000	0.226340
1980.000000	0.226405
1981.000000	0.226929
1982.000000	0.226795
1983.000000	0.226942
1984.000000	0.227263
1985.000000	0.227463
1986.000000	0.227799
1987.000000	0.228492
1988.000000	0.229357
1989.000000	0.229649
1990.000000	0.230448
1991.000000	0.230709
1992.000000	0.230855
1993.000000	0.231664
1994.000000	0.232235
1995.000000	0.232697
1996.000000	0.233166
1997.000000	0.233430
1998.000000	0.233054
1999.000000	0.233522
2000.000000	0.234318
2001.000000	0.235191
2002.000000	0.236321
2003.000000	0.237244
2004.000000	0.237828
2005.000000	0.237851
2006.000000	0.237939
2007.000000	0.238561
2008.000000	0.239538
2009.000000	0.241021
2010.000000	0.242512
2011.000000	0.244679
2012.000000	0.245801
2013.000000	0.246767
2014.000000	0.246578
2015.000000	0.246193
2016.000000	0.246361
2017.000000	0.246272
2018.000000	0.247128
2019.000000	0.247826
2020.000000	0.248038
2021.000000	0.248728
2022.000000	0.249759
2023.000000	0.250214
2024.000000	0.250639
2025.000000	0.251286
2026.000000	0.251645
2027.000000	0.251794
2028.000000	0.252617
2029.000000	0.253233
2030.000000	0.253541
2031.000000	0.254039
2032.000000	0.254458
2033.000000	0.255314
2034.000000	0.256130
2035.000000	0.257184
2036.000000	0.257892
2037.000000	0.258766
2038.000000	0.259390
2039.000000	0.259561
2040.000000	0.260507
2041.000000	0.261441
2042.000000	0.261981
2043.000000	0.262298
2044.000000	0.262334
2045.000000	0.261904
2046.000000	0.261808
2047.000000	0.262318
2048.000000	0.263582
2049.000000	0.264376
2050.000000	0.265245
2051.000000	0.265757
2052.000000	0.265555
2053.000000	0.265599
2054.000000	0.265742
2055.000000	0.266359
2056.000000	0.266754
2057.000000	0.267229
2058.000000	0.268368
2059.000000	0.268946
2060.000000	0.269487
2061.000000	0.270325
2062.000000	0.270730
2063.000000	0.270589
2064.000000	0.270680
2065.000000	0.270970
2066.000000	0.271112
2067.000000	0.271340
2068.000000	0.271796
2069.000000	0.272376
2070.000000	0.272492
2071.000000	0.272804
2072.000000	0.272868
2073.000000	0.273317
2074.000000	0.274029
2075.000000	0.274407
2076.000000	0.274945
2077.000000	0.275328
2078.000000	0.275086
2079.000000	0.275400
2080.000000	0.276261
2081.000000	0.276789
2082.000000	0.277283
2083.000000	0.277820
2084.000000	0.278589
2085.000000	0.279275
2086.000000	0.279966
2087.000000	0.280920
2088.000000	0.281392
2089.000000	0.281069
2090.000000	0.281150
2091.000000	0.281087
2092.000000	0.281167
2093.000000	0.281664
2094.000000	0.281825
2095.000000	0.281721
2096.000000	0.282092
2097.000000	0.282554
2098.000000	0.282677
2099.000000	0.283260
2100.000000	0.283945
2101.000000	0.284775
2102.000000	0.284768
2103.000000	0.284926
2104.000000	0.285014
2105.000000	0.285314
2106.000000	0.285738
2107.000000	0.286286
2108.000000	0.287005
2109.000000	0.287687
2110.000000	0.288188
2111.000000	0.288511
2112.000000	0.288771
2113.000000	0.288927
2114.000000	0.288834
2115.000000	0.288533
2116.000000	0.287959
2117.000000	0.287661
2118.000000	0.288023
2119.000000	0.288439
2120.000000	0.289133
2121.000000	0.290943
2122.000000	0.291354
2123.000000	0.291044
2124.000000	0.291074
2125.000000	0.290466
2126.000000	0.290243
2127.000000	0.290537
2128.000000	0.290696
2129.000000	0.290486
2130.000000	0.290716
2131.000000	0.291182
2132.000000	0.291411
2133.000000	0.291326
2134.000000	0.291069
2135.000000	0.290002
2136.000000	0.288662
2137.000000	0.288239
2138.000000	0.288155
2139.000000	0.288250
2140.000000	0.289074
2141.000000	0.289620
2142.000000	0.290141
2143.000000	0.290562
2144.000000	0.291694
2145.000000	0.292180
2146.000000	0.292815
2147.000000	0.292462
2148.000000	0.291219
2149.000000	0.290453
2150.000000	0.290049
2151.000000	0.290641
2152.000000	0.291450
2153.000000	0.291616
2154.000000	0.292029
2155.000000	0.291875
2156.000000	0.292432
2157.000000	0.293920
2158.000000	0.294731
2159.000000	0.295886
2160.000000	0.296093
2161.000000	0.295494
2162.000000	0.295038
2163.000000	0.293709
2164.000000	0.292780
2165.000000	0.291982
2166.000000	0.291012
2167.000000	0.290823
2168.000000	0.290963
2169.000000	0.291822
2170.000000	0.293099
2171.000000	0.293424
2172.000000	0.293605
2173.000000	0.293618
2174.000000	0.292690
2175.000000	0.292387
2176.000000	0.292396
2177.000000	0.291979
2178.000000	0.291588
2179.000000	0.291306
2180.000000	0.290009
2181.000000	0.290380
2182.000000	0.291434
2183.000000	0.292386
2184.000000	0.293158
2185.000000	0.294321
2186.000000	0.293030
2187.000000	0.291426
2188.000000	0.290607
2189.000000	0.288546
2190.000000	0.288273
2191.000000	0.288869
2192.000000	0.288421
2193.000000	0.288087
2194.000000	0.287677
2195.000000	0.285673
2196.000000	0.285606
2197.000000	0.287087
2198.000000	0.287903
2199.000000	0.290417
2200.000000	0.291263
2201.000000	0.290362
2202.000000	0.290104
2203.000000	0.289126
2204.000000	0.288612
2205.000000	0.287405
2206.000000	0.285354
2207.000000	0.282535
2208.000000	0.280574
2209.000000	0.280208
2210.000000	0.282046
2211.000000	0.282387
2212.000000	0.281961
2213.000000	0.283592
2214.000000	0.285608
2215.000000	0.287889
2216.000000	0.293292
2217.000000	0.294647
2218.000000	0.293386
2219.000000	0.292771
2220.000000	0.290089
2221.000000	0.289723
2222.000000	0.291414
2223.000000	0.291322
2224.000000	0.290694
2225.000000	0.290836
2226.000000	0.290429
2227.000000	0.288407
2228.000000	0.287669
2229.000000	0.287177
2230.000000	0.287286
2231.000000	0.289432
2232.000000	0.290732
2233.000000	0.293561
2234.000000	0.295729
2235.000000	0.294709
2236.000000	0.293623
2237.000000	0.291509
2238.000000	0.289170
2239.000000	0.284715
2240.000000	0.282592
2241.000000	0.281638
2242.000000	0.280512
2243.000000	0.279629
2244.000000	0.280332
2245.000000	0.280940
2246.000000	0.282957
2247.000000	0.288444
2248.000000	0.290682
2249.000000	0.291561
2250.000000	0.294560
2251.000000	0.292999
2252.000000	0.291462
2253.000000	0.290625
2254.000000	0.286582
2255.000000	0.284671
2256.000000	0.284239
2257.000000	0.284592
2258.000000	0.286436
2259.000000	0.284985
2260.000000	0.281546
2261.000000	0.280480
2262.000000	0.279055
2263.000000	0.278743
2264.000000	0.281012
2265.000000	0.281268
2266.000000	0.280749
2267.000000	0.279631
2268.000000	0.277883
2269.000000	0.277030
2270.000000	0.275564
2271.000000	0.274580
2272.000000	0.274612
2273.000000	0.273655
2274.000000	0.273116
2275.000000	0.271020
2276.000000	0.267235
2277.000000	0.264084
2278.000000	0.260677
2279.000000	0.259106
2280.000000	0.261803
2281.000000	0.264552
2282.000000	0.267708
2283.000000	0.269568
2284.000000	0.268259
2285.000000	0.267115
2286.000000	0.266893
2287.000000	0.269089
2288.000000	0.270323
2289.000000	0.271395
2290.000000	0.271900
2291.000000	0.268862
2292.000000	0.267891
2293.000000	0.267223
2294.000000	0.267341
2295.000000	0.269064
2296.000000	0.269934
2297.000000	0.270755
2298.000000	0.270983
2299.000000	0.270473
2300.000000	0.269883
2301.000000	0.269449
2302.000000	0.269038
2303.000000	0.267423
2304.000000	0.266871
2305.000000	0.267674
2306.000000	0.267119
2307.000000	0.265835
2308.000000	0.266141
2309.000000	0.265623
2310.000000	0.264665
2311.000000	0.267387
2312.000000	0.270065
2313.000000	0.270973
2314.000000	0.272673
2315.000000	0.273977
2316.000000	0.272770
2317.000000	0.269668
2318.000000	0.269309
2319.000000	0.269161
2320.000000	0.267932
2321.000000	0.269764
2322.000000	0.271100
2323.000000	0.270617
2324.000000	0.271696
2325.000000	0.273556
2326.000000	0.272600
2327.000000	0.270029
2328.000000	0.267484
2329.000000	0.265943
2330.000000	0.266079
2331.000000	0.265072
2332.000000	0.262056
2333.000000	0.257705
2334.000000	0.252836
2335.000000	0.250884
2336.000000	0.251646
2337.000000	0.252420
2338.000000	0.255125
2339.000000	0.255781
2340.000000	0.256154
2341.000000	0.255747
2342.000000	0.253713
2343.000000	0.253177
2344.000000	0.251408
2345.000000	0.252144
2346.000000	0.257527
2347.000000	0.258506
2348.000000	0.258497
2349.000000	0.258881
2350.000000	0.254642
2351.000000	0.251621
2352.000000	0.252593
2353.000000	0.251768
2354.000000	0.252858
2355.000000	0.253087
2356.000000	0.251506
2357.000000	0.251360
2358.000000	0.251657
2359.000000	0.251288
2360.000000	0.248759
2361.000000	0.247872
2362.000000	0.247968
2363.000000	0.244784
2364.000000	0.242008
2365.000000	0.239453
2366.000000	0.236014
2367.000000	0.234017
2368.000000	0.234012
2369.000000	0.234776
2370.000000	0.232082
2371.000000	0.231992
2372.000000	0.233437
2373.000000	0.233567
2374.000000	0.234252
2375.000000	0.231770
2376.000000	0.229796
2377.000000	0.229029
2378.000000	0.231218
2379.000000	0.234478
2380.000000	0.235565
2381.000000	0.235633
2382.000000	0.235309
2383.000000	0.234094
2384.000000	0.232505
2385.000000	0.234170
2386.000000	0.234144
2387.000000	0.233462
2388.000000	0.236454
2389.000000	0.237275
2390.000000	0.233289
2391.000000	0.228812
2392.000000	0.222639
2393.000000	0.214203
2394.000000	0.211132
2395.000000	0.214650
2396.000000	0.212539
2397.000000	0.206942
2398.000000	0.201605
2399.000000	0.191073
2400.000000	0.191662
2401.000000	0.202464
2402.000000	0.211918
2403.000000	0.219512
2404.000000	0.222207
2405.000000	0.220825
2406.000000	0.216712
2407.000000	0.215416
2408.000000	0.211173
2409.000000	0.204911
2410.000000	0.204474
2411.000000	0.206659
2412.000000	0.212306
2413.000000	0.212369
2414.000000	0.213474
2415.000000	0.216195
2416.000000	0.212921
2417.000000	0.211775
2418.000000	0.207291
2419.000000	0.203791
2420.000000	0.194583
2421.000000	0.192504
2422.000000	0.205169
2423.000000	0.202053
2424.000000	0.205232
2425.000000	0.218714
2426.000000	0.214566
2427.000000	0.214655
2428.000000	0.223680
2429.000000	0.216989
2430.000000	0.210498
2431.000000	0.206309
2432.000000	0.187170
2433.000000	0.179135
2434.000000	0.180755
2435.000000	0.185136
2436.000000	0.193582
2437.000000	0.205840
2438.000000	0.223240
2439.000000	0.226304
2440.000000	0.241930
2441.000000	0.251595
2442.000000	0.238142
2443.000000	0.230500
2444.000000	0.210850
2445.000000	0.204373
2446.000000	0.205616
2447.000000	0.190433
2448.000000	0.184454
2449.000000	0.169701
2450.000000	0.142920
2451.000000	0.154018
2452.000000	0.174026
2453.000000	0.182371
2454.000000	0.217671
2455.000000	0.214487
2456.000000	0.180319
2457.000000	0.168408
2458.000000	0.136375
2459.000000	0.129523
2460.000000	0.160064
2461.000000	0.182577
2462.000000	0.219339
2463.000000	0.240635
2464.000000	0.240932
2465.000000	0.241880
2466.000000	0.218729
2467.000000	0.190217
2468.000000	0.178024
2469.000000	0.173628
2470.000000	0.167543
2471.000000	0.162289
2472.000000	0.176917
2473.000000	0.171415
2474.000000	0.154068
2475.000000	0.176515
2476.000000	0.161917
2477.000000	0.133072
2478.000000	0.148837
2479.000000	0.137632
2480.000000	0.114342
2481.000000	0.140998
2482.000000	0.172419
2483.000000	0.160438
2484.000000	0.152806
2485.000000	0.144512
2486.000000	0.117079
2487.000000	0.101079
2488.000000	0.121452
2489.000000	0.138234
2490.000000	0.113040
2491.000000	0.202470
2492.000000	0.207817
2493.000000	0.163215
2494.000000	0.152206
2495.000000	0.100111
2496.000000	0.068097
2497.000000	0.067880
2498.000000	0.070827
2499.000000	0.074207
2500.000000	0.073574
