# Wavelength	NAu-2-50_HEX-40_FV7-10_00001.asd.rts.txt
350.000000	0.117828
351.000000	0.098043
352.000000	0.099890
353.000000	0.109841
354.000000	0.116371
355.000000	0.112348
356.000000	0.105940
357.000000	0.105032
358.000000	0.116919
359.000000	0.121954
360.000000	0.118555
361.000000	0.110806
362.000000	0.110336
363.000000	0.110794
364.000000	0.109516
365.000000	0.119768
366.000000	0.121482
367.000000	0.112741
368.000000	0.106331
369.000000	0.109960
370.000000	0.116459
371.000000	0.115159
372.000000	0.111345
373.000000	0.109269
374.000000	0.110999
375.000000	0.113545
376.000000	0.113939
377.000000	0.111971
378.000000	0.110000
379.000000	0.110150
380.000000	0.111355
381.000000	0.111853
382.000000	0.111341
383.000000	0.111218
384.000000	0.112567
385.000000	0.115351
386.000000	0.115842
387.000000	0.114044
388.000000	0.113731
389.000000	0.112428
390.000000	0.111646
391.000000	0.113664
392.000000	0.115277
393.000000	0.116183
394.000000	0.116392
395.000000	0.115033
396.000000	0.114283
397.000000	0.114552
398.000000	0.113962
399.000000	0.114223
400.000000	0.115285
401.000000	0.116308
402.000000	0.117061
403.000000	0.116819
404.000000	0.115480
405.000000	0.114943
406.000000	0.115689
407.000000	0.117196
408.000000	0.117349
409.000000	0.117263
410.000000	0.117271
411.000000	0.117332
412.000000	0.117251
413.000000	0.117333
414.000000	0.117879
415.000000	0.118613
416.000000	0.118635
417.000000	0.118004
418.000000	0.119011
419.000000	0.119787
420.000000	0.119973
421.000000	0.120391
422.000000	0.120737
423.000000	0.121045
424.000000	0.121443
425.000000	0.121603
426.000000	0.122066
427.000000	0.122963
428.000000	0.122791
429.000000	0.123066
430.000000	0.124093
431.000000	0.124647
432.000000	0.124721
433.000000	0.124539
434.000000	0.124560
435.000000	0.124728
436.000000	0.124965
437.000000	0.125228
438.000000	0.125868
439.000000	0.126119
440.000000	0.125915
441.000000	0.126479
442.000000	0.126948
443.000000	0.127221
444.000000	0.127757
445.000000	0.127991
446.000000	0.128304
447.000000	0.129071
448.000000	0.129309
449.000000	0.129592
450.000000	0.130320
451.000000	0.131036
452.000000	0.131338
453.000000	0.131419
454.000000	0.132372
455.000000	0.132700
456.000000	0.132718
457.000000	0.133316
458.000000	0.133629
459.000000	0.133986
460.000000	0.134657
461.000000	0.134669
462.000000	0.134807
463.000000	0.135269
464.000000	0.135375
465.000000	0.135728
466.000000	0.136376
467.000000	0.137104
468.000000	0.137449
469.000000	0.137677
470.000000	0.138230
471.000000	0.138471
472.000000	0.138643
473.000000	0.138958
474.000000	0.139264
475.000000	0.139635
476.000000	0.140069
477.000000	0.140254
478.000000	0.140625
479.000000	0.141107
480.000000	0.141265
481.000000	0.141575
482.000000	0.142034
483.000000	0.142452
484.000000	0.142966
485.000000	0.143182
486.000000	0.143145
487.000000	0.143432
488.000000	0.143484
489.000000	0.143454
490.000000	0.143953
491.000000	0.144204
492.000000	0.144317
493.000000	0.144528
494.000000	0.144741
495.000000	0.144801
496.000000	0.144685
497.000000	0.144823
498.000000	0.145096
499.000000	0.145386
500.000000	0.145443
501.000000	0.145468
502.000000	0.145525
503.000000	0.145585
504.000000	0.145716
505.000000	0.145949
506.000000	0.146270
507.000000	0.146476
508.000000	0.146709
509.000000	0.147028
510.000000	0.147369
511.000000	0.147751
512.000000	0.148160
513.000000	0.148512
514.000000	0.148925
515.000000	0.149342
516.000000	0.149643
517.000000	0.150065
518.000000	0.150561
519.000000	0.151010
520.000000	0.151400
521.000000	0.151803
522.000000	0.152312
523.000000	0.153072
524.000000	0.153772
525.000000	0.154444
526.000000	0.155322
527.000000	0.156204
528.000000	0.157190
529.000000	0.158423
530.000000	0.159688
531.000000	0.160994
532.000000	0.162335
533.000000	0.163844
534.000000	0.165315
535.000000	0.166740
536.000000	0.168339
537.000000	0.169829
538.000000	0.171213
539.000000	0.172592
540.000000	0.173958
541.000000	0.175257
542.000000	0.176477
543.000000	0.177692
544.000000	0.178881
545.000000	0.180008
546.000000	0.181166
547.000000	0.182417
548.000000	0.183764
549.000000	0.185100
550.000000	0.186446
551.000000	0.187917
552.000000	0.189583
553.000000	0.191241
554.000000	0.192974
555.000000	0.194860
556.000000	0.196876
557.000000	0.198860
558.000000	0.200896
559.000000	0.203141
560.000000	0.205375
561.000000	0.207565
562.000000	0.209657
563.000000	0.211711
564.000000	0.213732
565.000000	0.215634
566.000000	0.217499
567.000000	0.219244
568.000000	0.220825
569.000000	0.222364
570.000000	0.223800
571.000000	0.225083
572.000000	0.226191
573.000000	0.227183
574.000000	0.228062
575.000000	0.228846
576.000000	0.229491
577.000000	0.230043
578.000000	0.230576
579.000000	0.230986
580.000000	0.231319
581.000000	0.231571
582.000000	0.231646
583.000000	0.231724
584.000000	0.231775
585.000000	0.231657
586.000000	0.231449
587.000000	0.231217
588.000000	0.230999
589.000000	0.230655
590.000000	0.230235
591.000000	0.229785
592.000000	0.229294
593.000000	0.228701
594.000000	0.228020
595.000000	0.227355
596.000000	0.226627
597.000000	0.225900
598.000000	0.225200
599.000000	0.224465
600.000000	0.223713
601.000000	0.222918
602.000000	0.222171
603.000000	0.221400
604.000000	0.220589
605.000000	0.219804
606.000000	0.219012
607.000000	0.218238
608.000000	0.217538
609.000000	0.216798
610.000000	0.216032
611.000000	0.215291
612.000000	0.214599
613.000000	0.213861
614.000000	0.213075
615.000000	0.212401
616.000000	0.211686
617.000000	0.210900
618.000000	0.210199
619.000000	0.209588
620.000000	0.209012
621.000000	0.208430
622.000000	0.207806
623.000000	0.207218
624.000000	0.206721
625.000000	0.206219
626.000000	0.205691
627.000000	0.205178
628.000000	0.204819
629.000000	0.204524
630.000000	0.204163
631.000000	0.203775
632.000000	0.203515
633.000000	0.203315
634.000000	0.203065
635.000000	0.202833
636.000000	0.202592
637.000000	0.202329
638.000000	0.202106
639.000000	0.201979
640.000000	0.201952
641.000000	0.201876
642.000000	0.201827
643.000000	0.201818
644.000000	0.201841
645.000000	0.201834
646.000000	0.201887
647.000000	0.202024
648.000000	0.202094
649.000000	0.202215
650.000000	0.202419
651.000000	0.202676
652.000000	0.202920
653.000000	0.203179
654.000000	0.203463
655.000000	0.203808
656.000000	0.204194
657.000000	0.204575
658.000000	0.205052
659.000000	0.205554
660.000000	0.206051
661.000000	0.206613
662.000000	0.207208
663.000000	0.207845
664.000000	0.208484
665.000000	0.209195
666.000000	0.209958
667.000000	0.210718
668.000000	0.211530
669.000000	0.212394
670.000000	0.213302
671.000000	0.214221
672.000000	0.215158
673.000000	0.216117
674.000000	0.217119
675.000000	0.218166
676.000000	0.219283
677.000000	0.220499
678.000000	0.221721
679.000000	0.222982
680.000000	0.224305
681.000000	0.225649
682.000000	0.227007
683.000000	0.228357
684.000000	0.229839
685.000000	0.231396
686.000000	0.232987
687.000000	0.234553
688.000000	0.236260
689.000000	0.237993
690.000000	0.239702
691.000000	0.241541
692.000000	0.243358
693.000000	0.245198
694.000000	0.247195
695.000000	0.249176
696.000000	0.251143
697.000000	0.253168
698.000000	0.255272
699.000000	0.257444
700.000000	0.259661
701.000000	0.261867
702.000000	0.264082
703.000000	0.266322
704.000000	0.268643
705.000000	0.271041
706.000000	0.273512
707.000000	0.276118
708.000000	0.278689
709.000000	0.281264
710.000000	0.283899
711.000000	0.286520
712.000000	0.289175
713.000000	0.291897
714.000000	0.294633
715.000000	0.297386
716.000000	0.300172
717.000000	0.302996
718.000000	0.305829
719.000000	0.308690
720.000000	0.311603
721.000000	0.314510
722.000000	0.317385
723.000000	0.320272
724.000000	0.323150
725.000000	0.326029
726.000000	0.328940
727.000000	0.331756
728.000000	0.334625
729.000000	0.337559
730.000000	0.340487
731.000000	0.343443
732.000000	0.346355
733.000000	0.349232
734.000000	0.352047
735.000000	0.354819
736.000000	0.357680
737.000000	0.360491
738.000000	0.363113
739.000000	0.365777
740.000000	0.368452
741.000000	0.371116
742.000000	0.373770
743.000000	0.376349
744.000000	0.378830
745.000000	0.381285
746.000000	0.383747
747.000000	0.386116
748.000000	0.388459
749.000000	0.390725
750.000000	0.392854
751.000000	0.394955
752.000000	0.397085
753.000000	0.399227
754.000000	0.401262
755.000000	0.403290
756.000000	0.405284
757.000000	0.407148
758.000000	0.409022
759.000000	0.410849
760.000000	0.412511
761.000000	0.414153
762.000000	0.415738
763.000000	0.417228
764.000000	0.418689
765.000000	0.420163
766.000000	0.421579
767.000000	0.422874
768.000000	0.424163
769.000000	0.425448
770.000000	0.426703
771.000000	0.427842
772.000000	0.428948
773.000000	0.429953
774.000000	0.430919
775.000000	0.431789
776.000000	0.432648
777.000000	0.433519
778.000000	0.434309
779.000000	0.435108
780.000000	0.435910
781.000000	0.436591
782.000000	0.437186
783.000000	0.437854
784.000000	0.438509
785.000000	0.439178
786.000000	0.439767
787.000000	0.440223
788.000000	0.440583
789.000000	0.440996
790.000000	0.441435
791.000000	0.441843
792.000000	0.442180
793.000000	0.442456
794.000000	0.442704
795.000000	0.442955
796.000000	0.443201
797.000000	0.443428
798.000000	0.443635
799.000000	0.443797
800.000000	0.443905
801.000000	0.443975
802.000000	0.444135
803.000000	0.444309
804.000000	0.444462
805.000000	0.444454
806.000000	0.444388
807.000000	0.444415
808.000000	0.444480
809.000000	0.444502
810.000000	0.444562
811.000000	0.444653
812.000000	0.444521
813.000000	0.444375
814.000000	0.444280
815.000000	0.444206
816.000000	0.444053
817.000000	0.443948
818.000000	0.443893
819.000000	0.443774
820.000000	0.443650
821.000000	0.443491
822.000000	0.443357
823.000000	0.443225
824.000000	0.443029
825.000000	0.442859
826.000000	0.442675
827.000000	0.442415
828.000000	0.442152
829.000000	0.442034
830.000000	0.441812
831.000000	0.441543
832.000000	0.441216
833.000000	0.440954
834.000000	0.440744
835.000000	0.440587
836.000000	0.440403
837.000000	0.440147
838.000000	0.439864
839.000000	0.439611
840.000000	0.439315
841.000000	0.438997
842.000000	0.438655
843.000000	0.438423
844.000000	0.438170
845.000000	0.437820
846.000000	0.437458
847.000000	0.437149
848.000000	0.436846
849.000000	0.436516
850.000000	0.436097
851.000000	0.435662
852.000000	0.435307
853.000000	0.435002
854.000000	0.434665
855.000000	0.434444
856.000000	0.434242
857.000000	0.433865
858.000000	0.433497
859.000000	0.433123
860.000000	0.432700
861.000000	0.432329
862.000000	0.432065
863.000000	0.431810
864.000000	0.431443
865.000000	0.431051
866.000000	0.430714
867.000000	0.430355
868.000000	0.429997
869.000000	0.429548
870.000000	0.429070
871.000000	0.428749
872.000000	0.428378
873.000000	0.427830
874.000000	0.427511
875.000000	0.427114
876.000000	0.426657
877.000000	0.426185
878.000000	0.425684
879.000000	0.425361
880.000000	0.425115
881.000000	0.424932
882.000000	0.424591
883.000000	0.424120
884.000000	0.423584
885.000000	0.423188
886.000000	0.422819
887.000000	0.422402
888.000000	0.421861
889.000000	0.421461
890.000000	0.421006
891.000000	0.420494
892.000000	0.420199
893.000000	0.419830
894.000000	0.419414
895.000000	0.419026
896.000000	0.418590
897.000000	0.418166
898.000000	0.417830
899.000000	0.417438
900.000000	0.417125
901.000000	0.416871
902.000000	0.416615
903.000000	0.416120
904.000000	0.415651
905.000000	0.415379
906.000000	0.415189
907.000000	0.414826
908.000000	0.414364
909.000000	0.413991
910.000000	0.413608
911.000000	0.413293
912.000000	0.413108
913.000000	0.412819
914.000000	0.412505
915.000000	0.412254
916.000000	0.411932
917.000000	0.411586
918.000000	0.411177
919.000000	0.410697
920.000000	0.410381
921.000000	0.410129
922.000000	0.409852
923.000000	0.409439
924.000000	0.409027
925.000000	0.408554
926.000000	0.408124
927.000000	0.408023
928.000000	0.407732
929.000000	0.407324
930.000000	0.407035
931.000000	0.406720
932.000000	0.406375
933.000000	0.406089
934.000000	0.405895
935.000000	0.405560
936.000000	0.405238
937.000000	0.404942
938.000000	0.404551
939.000000	0.404340
940.000000	0.404206
941.000000	0.404032
942.000000	0.403802
943.000000	0.403592
944.000000	0.403294
945.000000	0.403015
946.000000	0.402642
947.000000	0.402425
948.000000	0.402468
949.000000	0.402126
950.000000	0.401797
951.000000	0.401496
952.000000	0.401026
953.000000	0.400834
954.000000	0.400674
955.000000	0.400264
956.000000	0.399963
957.000000	0.399613
958.000000	0.399194
959.000000	0.398902
960.000000	0.398651
961.000000	0.398552
962.000000	0.398503
963.000000	0.398240
964.000000	0.398166
965.000000	0.398035
966.000000	0.397551
967.000000	0.397358
968.000000	0.397343
969.000000	0.397314
970.000000	0.397210
971.000000	0.396973
972.000000	0.396894
973.000000	0.396867
974.000000	0.396560
975.000000	0.396563
976.000000	0.396535
977.000000	0.396214
978.000000	0.396218
979.000000	0.396316
980.000000	0.396110
981.000000	0.395827
982.000000	0.395597
983.000000	0.395339
984.000000	0.395220
985.000000	0.395427
986.000000	0.395397
987.000000	0.395207
988.000000	0.394958
989.000000	0.395080
990.000000	0.395043
991.000000	0.395009
992.000000	0.395301
993.000000	0.395499
994.000000	0.395129
995.000000	0.394763
996.000000	0.395079
997.000000	0.395309
998.000000	0.395317
999.000000	0.395225
1000.000000	0.395070
1001.000000	0.395770
1002.000000	0.395406
1003.000000	0.394437
1004.000000	0.394007
1005.000000	0.393640
1006.000000	0.393691
1007.000000	0.394350
1008.000000	0.394486
1009.000000	0.394882
1010.000000	0.394750
1011.000000	0.393739
1012.000000	0.393551
1013.000000	0.393745
1014.000000	0.393559
1015.000000	0.394188
1016.000000	0.394357
1017.000000	0.393591
1018.000000	0.393836
1019.000000	0.393858
1020.000000	0.393894
1021.000000	0.393958
1022.000000	0.394368
1023.000000	0.394705
1024.000000	0.394753
1025.000000	0.395705
1026.000000	0.396191
1027.000000	0.396380
1028.000000	0.396676
1029.000000	0.396771
1030.000000	0.396768
1031.000000	0.396480
1032.000000	0.396167
1033.000000	0.396071
1034.000000	0.396227
1035.000000	0.396744
1036.000000	0.397150
1037.000000	0.397752
1038.000000	0.398118
1039.000000	0.398809
1040.000000	0.398687
1041.000000	0.398052
1042.000000	0.397920
1043.000000	0.397703
1044.000000	0.397911
1045.000000	0.398754
1046.000000	0.398999
1047.000000	0.399325
1048.000000	0.399374
1049.000000	0.399451
1050.000000	0.399717
1051.000000	0.399783
1052.000000	0.399323
1053.000000	0.399238
1054.000000	0.399416
1055.000000	0.399699
1056.000000	0.400168
1057.000000	0.401009
1058.000000	0.401303
1059.000000	0.401331
1060.000000	0.401677
1061.000000	0.401954
1062.000000	0.402441
1063.000000	0.403319
1064.000000	0.403807
1065.000000	0.404033
1066.000000	0.404428
1067.000000	0.404683
1068.000000	0.404915
1069.000000	0.405265
1070.000000	0.405419
1071.000000	0.405394
1072.000000	0.405504
1073.000000	0.405650
1074.000000	0.405858
1075.000000	0.405987
1076.000000	0.406483
1077.000000	0.407168
1078.000000	0.407452
1079.000000	0.407759
1080.000000	0.408127
1081.000000	0.408350
1082.000000	0.408553
1083.000000	0.408616
1084.000000	0.408700
1085.000000	0.408661
1086.000000	0.408024
1087.000000	0.408105
1088.000000	0.408413
1089.000000	0.408654
1090.000000	0.409223
1091.000000	0.409778
1092.000000	0.409840
1093.000000	0.410432
1094.000000	0.410781
1095.000000	0.411065
1096.000000	0.411280
1097.000000	0.411460
1098.000000	0.411627
1099.000000	0.411484
1100.000000	0.411813
1101.000000	0.412455
1102.000000	0.412736
1103.000000	0.412925
1104.000000	0.413318
1105.000000	0.413710
1106.000000	0.413927
1107.000000	0.414105
1108.000000	0.414367
1109.000000	0.414706
1110.000000	0.414700
1111.000000	0.414862
1112.000000	0.415236
1113.000000	0.415465
1114.000000	0.415324
1115.000000	0.415809
1116.000000	0.416820
1117.000000	0.417326
1118.000000	0.417994
1119.000000	0.418276
1120.000000	0.418064
1121.000000	0.418036
1122.000000	0.418019
1123.000000	0.418332
1124.000000	0.418426
1125.000000	0.418662
1126.000000	0.419146
1127.000000	0.419363
1128.000000	0.419475
1129.000000	0.419401
1130.000000	0.419784
1131.000000	0.420414
1132.000000	0.420550
1133.000000	0.420815
1134.000000	0.421038
1135.000000	0.420782
1136.000000	0.420726
1137.000000	0.420989
1138.000000	0.420972
1139.000000	0.420742
1140.000000	0.420756
1141.000000	0.420811
1142.000000	0.420865
1143.000000	0.420859
1144.000000	0.421034
1145.000000	0.421122
1146.000000	0.421022
1147.000000	0.421105
1148.000000	0.421164
1149.000000	0.421217
1150.000000	0.421332
1151.000000	0.421438
1152.000000	0.421427
1153.000000	0.421498
1154.000000	0.421505
1155.000000	0.421633
1156.000000	0.421950
1157.000000	0.422048
1158.000000	0.422001
1159.000000	0.422080
1160.000000	0.422044
1161.000000	0.422048
1162.000000	0.422259
1163.000000	0.422548
1164.000000	0.422690
1165.000000	0.422980
1166.000000	0.423315
1167.000000	0.423788
1168.000000	0.423983
1169.000000	0.424121
1170.000000	0.424323
1171.000000	0.424435
1172.000000	0.424689
1173.000000	0.425105
1174.000000	0.425288
1175.000000	0.425289
1176.000000	0.425389
1177.000000	0.425545
1178.000000	0.425673
1179.000000	0.425895
1180.000000	0.425959
1181.000000	0.426017
1182.000000	0.426002
1183.000000	0.426126
1184.000000	0.426351
1185.000000	0.426505
1186.000000	0.426678
1187.000000	0.426890
1188.000000	0.427143
1189.000000	0.427220
1190.000000	0.427298
1191.000000	0.427442
1192.000000	0.427615
1193.000000	0.427921
1194.000000	0.428318
1195.000000	0.428514
1196.000000	0.428394
1197.000000	0.428503
1198.000000	0.428615
1199.000000	0.428847
1200.000000	0.429234
1201.000000	0.429734
1202.000000	0.429953
1203.000000	0.430216
1204.000000	0.430444
1205.000000	0.430464
1206.000000	0.430530
1207.000000	0.430706
1208.000000	0.430853
1209.000000	0.431036
1210.000000	0.431235
1211.000000	0.431506
1212.000000	0.431680
1213.000000	0.431860
1214.000000	0.432035
1215.000000	0.432092
1216.000000	0.432301
1217.000000	0.432581
1218.000000	0.432767
1219.000000	0.433032
1220.000000	0.433296
1221.000000	0.433436
1222.000000	0.433537
1223.000000	0.433777
1224.000000	0.434027
1225.000000	0.434257
1226.000000	0.434624
1227.000000	0.434793
1228.000000	0.434908
1229.000000	0.434988
1230.000000	0.434875
1231.000000	0.434922
1232.000000	0.435196
1233.000000	0.435517
1234.000000	0.436002
1235.000000	0.436199
1236.000000	0.436042
1237.000000	0.436277
1238.000000	0.436487
1239.000000	0.436708
1240.000000	0.437176
1241.000000	0.437568
1242.000000	0.437668
1243.000000	0.437833
1244.000000	0.438153
1245.000000	0.438436
1246.000000	0.438629
1247.000000	0.439016
1248.000000	0.439243
1249.000000	0.439406
1250.000000	0.439684
1251.000000	0.439932
1252.000000	0.440158
1253.000000	0.440430
1254.000000	0.440658
1255.000000	0.440852
1256.000000	0.441029
1257.000000	0.441225
1258.000000	0.441454
1259.000000	0.441541
1260.000000	0.441798
1261.000000	0.442084
1262.000000	0.442304
1263.000000	0.442591
1264.000000	0.442813
1265.000000	0.443092
1266.000000	0.443267
1267.000000	0.443413
1268.000000	0.443623
1269.000000	0.443666
1270.000000	0.444005
1271.000000	0.444423
1272.000000	0.444738
1273.000000	0.445141
1274.000000	0.445337
1275.000000	0.445432
1276.000000	0.445374
1277.000000	0.445613
1278.000000	0.445723
1279.000000	0.445882
1280.000000	0.446175
1281.000000	0.446394
1282.000000	0.446584
1283.000000	0.446882
1284.000000	0.447207
1285.000000	0.447444
1286.000000	0.447571
1287.000000	0.447737
1288.000000	0.448041
1289.000000	0.448199
1290.000000	0.448259
1291.000000	0.448445
1292.000000	0.448460
1293.000000	0.448612
1294.000000	0.448928
1295.000000	0.449088
1296.000000	0.449330
1297.000000	0.449595
1298.000000	0.449865
1299.000000	0.450181
1300.000000	0.450485
1301.000000	0.450605
1302.000000	0.450577
1303.000000	0.450447
1304.000000	0.450393
1305.000000	0.450430
1306.000000	0.450452
1307.000000	0.450537
1308.000000	0.450654
1309.000000	0.450813
1310.000000	0.450886
1311.000000	0.451008
1312.000000	0.451078
1313.000000	0.450987
1314.000000	0.450762
1315.000000	0.450458
1316.000000	0.450426
1317.000000	0.450575
1318.000000	0.450721
1319.000000	0.450714
1320.000000	0.450561
1321.000000	0.450408
1322.000000	0.450216
1323.000000	0.450200
1324.000000	0.450363
1325.000000	0.450233
1326.000000	0.450006
1327.000000	0.449836
1328.000000	0.449806
1329.000000	0.449740
1330.000000	0.449825
1331.000000	0.449800
1332.000000	0.449809
1333.000000	0.449708
1334.000000	0.449610
1335.000000	0.449568
1336.000000	0.449441
1337.000000	0.449385
1338.000000	0.449325
1339.000000	0.449273
1340.000000	0.449202
1341.000000	0.449133
1342.000000	0.449081
1343.000000	0.448904
1344.000000	0.448515
1345.000000	0.448242
1346.000000	0.448068
1347.000000	0.447667
1348.000000	0.447538
1349.000000	0.447371
1350.000000	0.447236
1351.000000	0.447125
1352.000000	0.446817
1353.000000	0.446629
1354.000000	0.446445
1355.000000	0.446065
1356.000000	0.445932
1357.000000	0.445701
1358.000000	0.445247
1359.000000	0.444924
1360.000000	0.444639
1361.000000	0.444392
1362.000000	0.444126
1363.000000	0.443927
1364.000000	0.443696
1365.000000	0.443441
1366.000000	0.443145
1367.000000	0.442819
1368.000000	0.442420
1369.000000	0.442221
1370.000000	0.441833
1371.000000	0.441478
1372.000000	0.441106
1373.000000	0.440584
1374.000000	0.440157
1375.000000	0.439613
1376.000000	0.439152
1377.000000	0.438569
1378.000000	0.437630
1379.000000	0.436570
1380.000000	0.435454
1381.000000	0.434285
1382.000000	0.433046
1383.000000	0.431777
1384.000000	0.430391
1385.000000	0.428772
1386.000000	0.427105
1387.000000	0.425494
1388.000000	0.423637
1389.000000	0.421514
1390.000000	0.419390
1391.000000	0.417006
1392.000000	0.414400
1393.000000	0.411730
1394.000000	0.409087
1395.000000	0.406255
1396.000000	0.403214
1397.000000	0.400157
1398.000000	0.396935
1399.000000	0.393819
1400.000000	0.390592
1401.000000	0.387505
1402.000000	0.384547
1403.000000	0.381653
1404.000000	0.378883
1405.000000	0.376330
1406.000000	0.373835
1407.000000	0.371313
1408.000000	0.368890
1409.000000	0.366743
1410.000000	0.364825
1411.000000	0.363091
1412.000000	0.361500
1413.000000	0.359976
1414.000000	0.358545
1415.000000	0.357237
1416.000000	0.356002
1417.000000	0.354935
1418.000000	0.353775
1419.000000	0.352577
1420.000000	0.351440
1421.000000	0.350339
1422.000000	0.349295
1423.000000	0.348483
1424.000000	0.347614
1425.000000	0.346749
1426.000000	0.345881
1427.000000	0.345092
1428.000000	0.344422
1429.000000	0.343683
1430.000000	0.342987
1431.000000	0.342268
1432.000000	0.341545
1433.000000	0.340813
1434.000000	0.340138
1435.000000	0.339513
1436.000000	0.339066
1437.000000	0.338717
1438.000000	0.338352
1439.000000	0.338125
1440.000000	0.338004
1441.000000	0.337842
1442.000000	0.337899
1443.000000	0.338099
1444.000000	0.338420
1445.000000	0.338703
1446.000000	0.339188
1447.000000	0.339810
1448.000000	0.340297
1449.000000	0.340883
1450.000000	0.341589
1451.000000	0.342160
1452.000000	0.342725
1453.000000	0.343338
1454.000000	0.343732
1455.000000	0.344076
1456.000000	0.344440
1457.000000	0.344614
1458.000000	0.344850
1459.000000	0.345126
1460.000000	0.345317
1461.000000	0.345590
1462.000000	0.345824
1463.000000	0.345983
1464.000000	0.346191
1465.000000	0.346459
1466.000000	0.346764
1467.000000	0.347082
1468.000000	0.347454
1469.000000	0.347907
1470.000000	0.348269
1471.000000	0.348730
1472.000000	0.349325
1473.000000	0.350050
1474.000000	0.350732
1475.000000	0.351372
1476.000000	0.351957
1477.000000	0.352608
1478.000000	0.353523
1479.000000	0.354514
1480.000000	0.355389
1481.000000	0.356185
1482.000000	0.356907
1483.000000	0.357679
1484.000000	0.358420
1485.000000	0.359204
1486.000000	0.359962
1487.000000	0.360773
1488.000000	0.361623
1489.000000	0.362549
1490.000000	0.363491
1491.000000	0.364337
1492.000000	0.365112
1493.000000	0.365840
1494.000000	0.366381
1495.000000	0.367065
1496.000000	0.367791
1497.000000	0.368486
1498.000000	0.369218
1499.000000	0.370013
1500.000000	0.370767
1501.000000	0.371435
1502.000000	0.372089
1503.000000	0.372647
1504.000000	0.373172
1505.000000	0.373856
1506.000000	0.374595
1507.000000	0.375333
1508.000000	0.376050
1509.000000	0.376608
1510.000000	0.377117
1511.000000	0.377696
1512.000000	0.378200
1513.000000	0.378806
1514.000000	0.379558
1515.000000	0.380062
1516.000000	0.380556
1517.000000	0.380972
1518.000000	0.381191
1519.000000	0.381447
1520.000000	0.381770
1521.000000	0.382123
1522.000000	0.382563
1523.000000	0.382932
1524.000000	0.383218
1525.000000	0.383477
1526.000000	0.383645
1527.000000	0.383969
1528.000000	0.384398
1529.000000	0.384748
1530.000000	0.384951
1531.000000	0.385153
1532.000000	0.385437
1533.000000	0.385698
1534.000000	0.386051
1535.000000	0.386446
1536.000000	0.386653
1537.000000	0.386971
1538.000000	0.387349
1539.000000	0.387602
1540.000000	0.387891
1541.000000	0.388256
1542.000000	0.388540
1543.000000	0.388814
1544.000000	0.389093
1545.000000	0.389211
1546.000000	0.389268
1547.000000	0.389373
1548.000000	0.389508
1549.000000	0.389724
1550.000000	0.389961
1551.000000	0.390110
1552.000000	0.390183
1553.000000	0.390196
1554.000000	0.390194
1555.000000	0.390327
1556.000000	0.390466
1557.000000	0.390475
1558.000000	0.390580
1559.000000	0.390596
1560.000000	0.390673
1561.000000	0.390897
1562.000000	0.391029
1563.000000	0.391203
1564.000000	0.391352
1565.000000	0.391397
1566.000000	0.391511
1567.000000	0.391851
1568.000000	0.391957
1569.000000	0.392098
1570.000000	0.392237
1571.000000	0.392165
1572.000000	0.392227
1573.000000	0.392474
1574.000000	0.392529
1575.000000	0.392497
1576.000000	0.392595
1577.000000	0.392687
1578.000000	0.392710
1579.000000	0.392865
1580.000000	0.392917
1581.000000	0.392869
1582.000000	0.392907
1583.000000	0.393026
1584.000000	0.393013
1585.000000	0.393085
1586.000000	0.393093
1587.000000	0.392922
1588.000000	0.392934
1589.000000	0.393019
1590.000000	0.393125
1591.000000	0.393417
1592.000000	0.393608
1593.000000	0.393771
1594.000000	0.393925
1595.000000	0.394133
1596.000000	0.394265
1597.000000	0.394426
1598.000000	0.394534
1599.000000	0.394584
1600.000000	0.394668
1601.000000	0.394831
1602.000000	0.394932
1603.000000	0.395121
1604.000000	0.395204
1605.000000	0.395208
1606.000000	0.395282
1607.000000	0.395409
1608.000000	0.395474
1609.000000	0.395588
1610.000000	0.395671
1611.000000	0.395717
1612.000000	0.395859
1613.000000	0.396189
1614.000000	0.396469
1615.000000	0.396919
1616.000000	0.397179
1617.000000	0.397242
1618.000000	0.397408
1619.000000	0.397448
1620.000000	0.397643
1621.000000	0.398028
1622.000000	0.398436
1623.000000	0.398891
1624.000000	0.399213
1625.000000	0.399354
1626.000000	0.399520
1627.000000	0.399625
1628.000000	0.399817
1629.000000	0.400018
1630.000000	0.400250
1631.000000	0.400446
1632.000000	0.400586
1633.000000	0.400744
1634.000000	0.401001
1635.000000	0.401242
1636.000000	0.401510
1637.000000	0.401947
1638.000000	0.402230
1639.000000	0.402492
1640.000000	0.402809
1641.000000	0.403254
1642.000000	0.403566
1643.000000	0.403884
1644.000000	0.404159
1645.000000	0.404304
1646.000000	0.404483
1647.000000	0.404742
1648.000000	0.404927
1649.000000	0.405186
1650.000000	0.405435
1651.000000	0.405646
1652.000000	0.406014
1653.000000	0.406428
1654.000000	0.406810
1655.000000	0.407239
1656.000000	0.407455
1657.000000	0.407555
1658.000000	0.407831
1659.000000	0.408290
1660.000000	0.408667
1661.000000	0.409017
1662.000000	0.409314
1663.000000	0.409435
1664.000000	0.409693
1665.000000	0.410050
1666.000000	0.410388
1667.000000	0.410631
1668.000000	0.410896
1669.000000	0.411083
1670.000000	0.411317
1671.000000	0.411737
1672.000000	0.412119
1673.000000	0.412507
1674.000000	0.412809
1675.000000	0.413017
1676.000000	0.413296
1677.000000	0.413567
1678.000000	0.413776
1679.000000	0.414128
1680.000000	0.414237
1681.000000	0.414196
1682.000000	0.414345
1683.000000	0.414496
1684.000000	0.414668
1685.000000	0.415022
1686.000000	0.415226
1687.000000	0.415248
1688.000000	0.415259
1689.000000	0.415259
1690.000000	0.415225
1691.000000	0.415442
1692.000000	0.415820
1693.000000	0.416149
1694.000000	0.416216
1695.000000	0.416315
1696.000000	0.416087
1697.000000	0.416007
1698.000000	0.416304
1699.000000	0.416401
1700.000000	0.416300
1701.000000	0.416497
1702.000000	0.416538
1703.000000	0.416560
1704.000000	0.416877
1705.000000	0.417098
1706.000000	0.417243
1707.000000	0.417433
1708.000000	0.417603
1709.000000	0.417777
1710.000000	0.418150
1711.000000	0.418382
1712.000000	0.418625
1713.000000	0.418803
1714.000000	0.418872
1715.000000	0.419009
1716.000000	0.419210
1717.000000	0.419379
1718.000000	0.419522
1719.000000	0.419588
1720.000000	0.419666
1721.000000	0.419751
1722.000000	0.419761
1723.000000	0.419867
1724.000000	0.420111
1725.000000	0.420276
1726.000000	0.420309
1727.000000	0.420401
1728.000000	0.420353
1729.000000	0.420402
1730.000000	0.420792
1731.000000	0.420887
1732.000000	0.420890
1733.000000	0.421044
1734.000000	0.420916
1735.000000	0.420956
1736.000000	0.421160
1737.000000	0.421209
1738.000000	0.421136
1739.000000	0.421264
1740.000000	0.421491
1741.000000	0.421526
1742.000000	0.421572
1743.000000	0.421710
1744.000000	0.421727
1745.000000	0.421774
1746.000000	0.421930
1747.000000	0.422005
1748.000000	0.422021
1749.000000	0.422218
1750.000000	0.422215
1751.000000	0.422199
1752.000000	0.422249
1753.000000	0.421933
1754.000000	0.421847
1755.000000	0.421851
1756.000000	0.421808
1757.000000	0.421807
1758.000000	0.421935
1759.000000	0.422128
1760.000000	0.422232
1761.000000	0.422336
1762.000000	0.422471
1763.000000	0.422561
1764.000000	0.422663
1765.000000	0.422821
1766.000000	0.422955
1767.000000	0.422956
1768.000000	0.422862
1769.000000	0.422865
1770.000000	0.422882
1771.000000	0.422668
1772.000000	0.422667
1773.000000	0.422729
1774.000000	0.422838
1775.000000	0.423175
1776.000000	0.423319
1777.000000	0.423384
1778.000000	0.423433
1779.000000	0.423338
1780.000000	0.423378
1781.000000	0.423458
1782.000000	0.423473
1783.000000	0.423514
1784.000000	0.423675
1785.000000	0.423731
1786.000000	0.423837
1787.000000	0.424130
1788.000000	0.424383
1789.000000	0.424385
1790.000000	0.424533
1791.000000	0.424553
1792.000000	0.424577
1793.000000	0.424595
1794.000000	0.424556
1795.000000	0.424560
1796.000000	0.424519
1797.000000	0.424561
1798.000000	0.424643
1799.000000	0.424745
1800.000000	0.424977
1801.000000	0.424235
1802.000000	0.424787
1803.000000	0.425344
1804.000000	0.426008
1805.000000	0.427135
1806.000000	0.427550
1807.000000	0.427907
1808.000000	0.427957
1809.000000	0.427495
1810.000000	0.426640
1811.000000	0.426307
1812.000000	0.425945
1813.000000	0.425966
1814.000000	0.426625
1815.000000	0.426764
1816.000000	0.426971
1817.000000	0.426654
1818.000000	0.425691
1819.000000	0.425323
1820.000000	0.424861
1821.000000	0.425047
1822.000000	0.424976
1823.000000	0.424799
1824.000000	0.424913
1825.000000	0.425103
1826.000000	0.425452
1827.000000	0.426018
1828.000000	0.426761
1829.000000	0.426943
1830.000000	0.426663
1831.000000	0.426354
1832.000000	0.425434
1833.000000	0.424973
1834.000000	0.424690
1835.000000	0.424192
1836.000000	0.423715
1837.000000	0.423340
1838.000000	0.422728
1839.000000	0.421867
1840.000000	0.421325
1841.000000	0.421136
1842.000000	0.421123
1843.000000	0.421702
1844.000000	0.421566
1845.000000	0.421106
1846.000000	0.420660
1847.000000	0.419505
1848.000000	0.418882
1849.000000	0.417977
1850.000000	0.417267
1851.000000	0.416662
1852.000000	0.415926
1853.000000	0.414850
1854.000000	0.414028
1855.000000	0.412558
1856.000000	0.409962
1857.000000	0.408060
1858.000000	0.406935
1859.000000	0.404855
1860.000000	0.403145
1861.000000	0.402117
1862.000000	0.400820
1863.000000	0.399902
1864.000000	0.398273
1865.000000	0.396581
1866.000000	0.394200
1867.000000	0.390976
1868.000000	0.387673
1869.000000	0.383798
1870.000000	0.380626
1871.000000	0.377657
1872.000000	0.373659
1873.000000	0.369847
1874.000000	0.366222
1875.000000	0.362160
1876.000000	0.357449
1877.000000	0.352469
1878.000000	0.347865
1879.000000	0.342940
1880.000000	0.337478
1881.000000	0.332183
1882.000000	0.326784
1883.000000	0.321184
1884.000000	0.315225
1885.000000	0.309021
1886.000000	0.302403
1887.000000	0.295116
1888.000000	0.287698
1889.000000	0.280356
1890.000000	0.273215
1891.000000	0.266799
1892.000000	0.259726
1893.000000	0.252624
1894.000000	0.245882
1895.000000	0.238802
1896.000000	0.231462
1897.000000	0.224340
1898.000000	0.217483
1899.000000	0.211101
1900.000000	0.205047
1901.000000	0.200318
1902.000000	0.196150
1903.000000	0.192474
1904.000000	0.189938
1905.000000	0.187107
1906.000000	0.184380
1907.000000	0.181879
1908.000000	0.179489
1909.000000	0.177289
1910.000000	0.175586
1911.000000	0.174080
1912.000000	0.173402
1913.000000	0.173142
1914.000000	0.173134
1915.000000	0.173246
1916.000000	0.173422
1917.000000	0.173576
1918.000000	0.173722
1919.000000	0.173780
1920.000000	0.174578
1921.000000	0.175081
1922.000000	0.174980
1923.000000	0.175113
1924.000000	0.174072
1925.000000	0.173137
1926.000000	0.173355
1927.000000	0.173394
1928.000000	0.173733
1929.000000	0.174672
1930.000000	0.175944
1931.000000	0.176566
1932.000000	0.177448
1933.000000	0.177992
1934.000000	0.177752
1935.000000	0.177573
1936.000000	0.177506
1937.000000	0.177878
1938.000000	0.178515
1939.000000	0.178873
1940.000000	0.179408
1941.000000	0.179350
1942.000000	0.178931
1943.000000	0.178549
1944.000000	0.178073
1945.000000	0.177926
1946.000000	0.178166
1947.000000	0.178469
1948.000000	0.178373
1949.000000	0.178304
1950.000000	0.178252
1951.000000	0.178143
1952.000000	0.177949
1953.000000	0.178045
1954.000000	0.177901
1955.000000	0.178079
1956.000000	0.178013
1957.000000	0.177273
1958.000000	0.176701
1959.000000	0.176080
1960.000000	0.175902
1961.000000	0.176488
1962.000000	0.176986
1963.000000	0.178116
1964.000000	0.179006
1965.000000	0.179304
1966.000000	0.178930
1967.000000	0.178522
1968.000000	0.178309
1969.000000	0.178035
1970.000000	0.178474
1971.000000	0.178880
1972.000000	0.178907
1973.000000	0.179228
1974.000000	0.179725
1975.000000	0.180187
1976.000000	0.180864
1977.000000	0.181643
1978.000000	0.181871
1979.000000	0.182104
1980.000000	0.182430
1981.000000	0.182727
1982.000000	0.183690
1983.000000	0.184548
1984.000000	0.185178
1985.000000	0.185975
1986.000000	0.186572
1987.000000	0.186840
1988.000000	0.187101
1989.000000	0.188222
1990.000000	0.189260
1991.000000	0.190369
1992.000000	0.191785
1993.000000	0.192989
1994.000000	0.194230
1995.000000	0.195225
1996.000000	0.196136
1997.000000	0.197224
1998.000000	0.198236
1999.000000	0.199329
2000.000000	0.200607
2001.000000	0.202014
2002.000000	0.202958
2003.000000	0.203883
2004.000000	0.205183
2005.000000	0.206339
2006.000000	0.207296
2007.000000	0.208306
2008.000000	0.209468
2009.000000	0.210213
2010.000000	0.211550
2011.000000	0.213667
2012.000000	0.215049
2013.000000	0.216204
2014.000000	0.217253
2015.000000	0.218144
2016.000000	0.219288
2017.000000	0.220221
2018.000000	0.221474
2019.000000	0.222857
2020.000000	0.223987
2021.000000	0.225385
2022.000000	0.227248
2023.000000	0.228480
2024.000000	0.229456
2025.000000	0.230634
2026.000000	0.231556
2027.000000	0.232356
2028.000000	0.233430
2029.000000	0.234735
2030.000000	0.235765
2031.000000	0.237200
2032.000000	0.238691
2033.000000	0.240175
2034.000000	0.241520
2035.000000	0.242911
2036.000000	0.243866
2037.000000	0.244687
2038.000000	0.245472
2039.000000	0.245791
2040.000000	0.246721
2041.000000	0.247999
2042.000000	0.248951
2043.000000	0.250024
2044.000000	0.251104
2045.000000	0.252033
2046.000000	0.253271
2047.000000	0.254490
2048.000000	0.255772
2049.000000	0.257203
2050.000000	0.258627
2051.000000	0.259652
2052.000000	0.260567
2053.000000	0.261345
2054.000000	0.261716
2055.000000	0.262507
2056.000000	0.263697
2057.000000	0.265144
2058.000000	0.266861
2059.000000	0.267951
2060.000000	0.268777
2061.000000	0.269077
2062.000000	0.269784
2063.000000	0.270388
2064.000000	0.270980
2065.000000	0.271849
2066.000000	0.272698
2067.000000	0.273750
2068.000000	0.274758
2069.000000	0.275727
2070.000000	0.277341
2071.000000	0.278486
2072.000000	0.279649
2073.000000	0.280885
2074.000000	0.281938
2075.000000	0.282757
2076.000000	0.283123
2077.000000	0.283753
2078.000000	0.284034
2079.000000	0.284857
2080.000000	0.286286
2081.000000	0.287318
2082.000000	0.288495
2083.000000	0.289761
2084.000000	0.290334
2085.000000	0.290886
2086.000000	0.291242
2087.000000	0.291768
2088.000000	0.292676
2089.000000	0.293556
2090.000000	0.295012
2091.000000	0.297672
2092.000000	0.299117
2093.000000	0.300451
2094.000000	0.301512
2095.000000	0.301862
2096.000000	0.302451
2097.000000	0.302886
2098.000000	0.303383
2099.000000	0.304123
2100.000000	0.304566
2101.000000	0.305556
2102.000000	0.306924
2103.000000	0.307697
2104.000000	0.308504
2105.000000	0.309569
2106.000000	0.310773
2107.000000	0.311668
2108.000000	0.312747
2109.000000	0.313709
2110.000000	0.314050
2111.000000	0.314487
2112.000000	0.315292
2113.000000	0.315070
2114.000000	0.314557
2115.000000	0.315171
2116.000000	0.315928
2117.000000	0.316852
2118.000000	0.318151
2119.000000	0.318607
2120.000000	0.319277
2121.000000	0.319643
2122.000000	0.320333
2123.000000	0.321321
2124.000000	0.322018
2125.000000	0.322860
2126.000000	0.323167
2127.000000	0.322769
2128.000000	0.322938
2129.000000	0.323058
2130.000000	0.322818
2131.000000	0.323916
2132.000000	0.325023
2133.000000	0.325515
2134.000000	0.326779
2135.000000	0.326551
2136.000000	0.326660
2137.000000	0.326739
2138.000000	0.326572
2139.000000	0.326679
2140.000000	0.326796
2141.000000	0.327226
2142.000000	0.327969
2143.000000	0.328451
2144.000000	0.329775
2145.000000	0.330278
2146.000000	0.330132
2147.000000	0.330813
2148.000000	0.330284
2149.000000	0.329561
2150.000000	0.330367
2151.000000	0.331123
2152.000000	0.331935
2153.000000	0.333340
2154.000000	0.334099
2155.000000	0.334218
2156.000000	0.334311
2157.000000	0.334689
2158.000000	0.334482
2159.000000	0.333516
2160.000000	0.333113
2161.000000	0.332406
2162.000000	0.332109
2163.000000	0.332173
2164.000000	0.332184
2165.000000	0.332328
2166.000000	0.332579
2167.000000	0.333057
2168.000000	0.332821
2169.000000	0.332748
2170.000000	0.332856
2171.000000	0.332714
2172.000000	0.332303
2173.000000	0.332432
2174.000000	0.332719
2175.000000	0.332770
2176.000000	0.333247
2177.000000	0.333307
2178.000000	0.332960
2179.000000	0.332931
2180.000000	0.332588
2181.000000	0.332919
2182.000000	0.333184
2183.000000	0.333191
2184.000000	0.333488
2185.000000	0.333640
2186.000000	0.332969
2187.000000	0.332874
2188.000000	0.332712
2189.000000	0.331094
2190.000000	0.330023
2191.000000	0.329385
2192.000000	0.328503
2193.000000	0.327300
2194.000000	0.327625
2195.000000	0.328878
2196.000000	0.329787
2197.000000	0.332544
2198.000000	0.333023
2199.000000	0.331442
2200.000000	0.331262
2201.000000	0.330502
2202.000000	0.330494
2203.000000	0.332381
2204.000000	0.332362
2205.000000	0.330493
2206.000000	0.328667
2207.000000	0.326492
2208.000000	0.326743
2209.000000	0.328466
2210.000000	0.331175
2211.000000	0.332911
2212.000000	0.332208
2213.000000	0.331801
2214.000000	0.329231
2215.000000	0.328849
2216.000000	0.329763
2217.000000	0.330426
2218.000000	0.332033
2219.000000	0.332794
2220.000000	0.332510
2221.000000	0.333067
2222.000000	0.334371
2223.000000	0.334704
2224.000000	0.335428
2225.000000	0.335385
2226.000000	0.332660
2227.000000	0.330552
2228.000000	0.329608
2229.000000	0.326916
2230.000000	0.324121
2231.000000	0.323322
2232.000000	0.322801
2233.000000	0.323462
2234.000000	0.327513
2235.000000	0.330685
2236.000000	0.331177
2237.000000	0.330625
2238.000000	0.328567
2239.000000	0.322073
2240.000000	0.319869
2241.000000	0.318760
2242.000000	0.317842
2243.000000	0.318918
2244.000000	0.319222
2245.000000	0.319486
2246.000000	0.319004
2247.000000	0.318685
2248.000000	0.317849
2249.000000	0.315485
2250.000000	0.313897
2251.000000	0.313994
2252.000000	0.314159
2253.000000	0.316146
2254.000000	0.318673
2255.000000	0.320617
2256.000000	0.319965
2257.000000	0.318769
2258.000000	0.316354
2259.000000	0.312187
2260.000000	0.310364
2261.000000	0.307986
2262.000000	0.304863
2263.000000	0.303817
2264.000000	0.304478
2265.000000	0.303891
2266.000000	0.304535
2267.000000	0.303035
2268.000000	0.298352
2269.000000	0.297273
2270.000000	0.297212
2271.000000	0.297663
2272.000000	0.302010
2273.000000	0.302678
2274.000000	0.301334
2275.000000	0.299412
2276.000000	0.295733
2277.000000	0.291652
2278.000000	0.289046
2279.000000	0.287180
2280.000000	0.284025
2281.000000	0.281292
2282.000000	0.277744
2283.000000	0.273658
2284.000000	0.271997
2285.000000	0.269228
2286.000000	0.267463
2287.000000	0.266602
2288.000000	0.263954
2289.000000	0.263624
2290.000000	0.262604
2291.000000	0.262255
2292.000000	0.263549
2293.000000	0.261943
2294.000000	0.260624
2295.000000	0.258100
2296.000000	0.256807
2297.000000	0.255933
2298.000000	0.254912
2299.000000	0.254633
2300.000000	0.253506
2301.000000	0.250525
2302.000000	0.250058
2303.000000	0.249899
2304.000000	0.250968
2305.000000	0.254430
2306.000000	0.257092
2307.000000	0.260402
2308.000000	0.263913
2309.000000	0.264863
2310.000000	0.265971
2311.000000	0.265174
2312.000000	0.265181
2313.000000	0.266760
2314.000000	0.266018
2315.000000	0.266227
2316.000000	0.266015
2317.000000	0.264939
2318.000000	0.265706
2319.000000	0.267382
2320.000000	0.267342
2321.000000	0.267277
2322.000000	0.267194
2323.000000	0.264834
2324.000000	0.264174
2325.000000	0.262208
2326.000000	0.259755
2327.000000	0.259378
2328.000000	0.258149
2329.000000	0.259225
2330.000000	0.260025
2331.000000	0.258693
2332.000000	0.257964
2333.000000	0.256772
2334.000000	0.255328
2335.000000	0.255614
2336.000000	0.257433
2337.000000	0.258530
2338.000000	0.261129
2339.000000	0.262055
2340.000000	0.263216
2341.000000	0.261381
2342.000000	0.255578
2343.000000	0.251630
2344.000000	0.246462
2345.000000	0.243262
2346.000000	0.242148
2347.000000	0.240562
2348.000000	0.239811
2349.000000	0.237020
2350.000000	0.234996
2351.000000	0.235921
2352.000000	0.236096
2353.000000	0.236059
2354.000000	0.235806
2355.000000	0.233856
2356.000000	0.231494
2357.000000	0.228380
2358.000000	0.225176
2359.000000	0.223150
2360.000000	0.221604
2361.000000	0.223524
2362.000000	0.224262
2363.000000	0.223229
2364.000000	0.224773
2365.000000	0.221948
2366.000000	0.222724
2367.000000	0.226238
2368.000000	0.223513
2369.000000	0.224404
2370.000000	0.221837
2371.000000	0.215889
2372.000000	0.212820
2373.000000	0.208904
2374.000000	0.205930
2375.000000	0.199547
2376.000000	0.195770
2377.000000	0.195785
2378.000000	0.193603
2379.000000	0.196580
2380.000000	0.200475
2381.000000	0.198262
2382.000000	0.196145
2383.000000	0.194057
2384.000000	0.190461
2385.000000	0.185660
2386.000000	0.180357
2387.000000	0.177138
2388.000000	0.176216
2389.000000	0.179492
2390.000000	0.177520
2391.000000	0.174853
2392.000000	0.175136
2393.000000	0.170720
2394.000000	0.170756
2395.000000	0.167358
2396.000000	0.158490
2397.000000	0.154407
2398.000000	0.152199
2399.000000	0.156311
2400.000000	0.162834
2401.000000	0.163440
2402.000000	0.166580
2403.000000	0.169830
2404.000000	0.173050
2405.000000	0.179553
2406.000000	0.178569
2407.000000	0.171138
2408.000000	0.161890
2409.000000	0.157152
2410.000000	0.156683
2411.000000	0.152415
2412.000000	0.150121
2413.000000	0.151971
2414.000000	0.151814
2415.000000	0.154092
2416.000000	0.163264
2417.000000	0.170210
2418.000000	0.170695
2419.000000	0.175645
2420.000000	0.168379
2421.000000	0.145043
2422.000000	0.142373
2423.000000	0.148579
2424.000000	0.156702
2425.000000	0.170559
2426.000000	0.169629
2427.000000	0.169183
2428.000000	0.168615
2429.000000	0.169673
2430.000000	0.176987
2431.000000	0.164791
2432.000000	0.154297
2433.000000	0.152262
2434.000000	0.150170
2435.000000	0.165168
2436.000000	0.173878
2437.000000	0.175432
2438.000000	0.173255
2439.000000	0.154684
2440.000000	0.152224
2441.000000	0.153164
2442.000000	0.151436
2443.000000	0.155443
2444.000000	0.147321
2445.000000	0.140500
2446.000000	0.134162
2447.000000	0.137377
2448.000000	0.144772
2449.000000	0.146765
2450.000000	0.166521
2451.000000	0.174896
2452.000000	0.163194
2453.000000	0.166743
2454.000000	0.159112
2455.000000	0.149066
2456.000000	0.154880
2457.000000	0.149489
2458.000000	0.148099
2459.000000	0.153796
2460.000000	0.165170
2461.000000	0.177229
2462.000000	0.175266
2463.000000	0.159367
2464.000000	0.139325
2465.000000	0.118833
2466.000000	0.099581
2467.000000	0.101036
2468.000000	0.097714
2469.000000	0.099226
2470.000000	0.130632
2471.000000	0.152413
2472.000000	0.166967
2473.000000	0.184331
2474.000000	0.178106
2475.000000	0.172705
2476.000000	0.167123
2477.000000	0.143906
2478.000000	0.135592
2479.000000	0.127330
2480.000000	0.114021
2481.000000	0.130872
2482.000000	0.138517
2483.000000	0.124075
2484.000000	0.128805
2485.000000	0.147050
2486.000000	0.150633
2487.000000	0.112637
2488.000000	0.083035
2489.000000	0.053156
2490.000000	0.006737
2491.000000	0.040034
2492.000000	0.045641
2493.000000	0.043425
2494.000000	0.044879
2495.000000	0.037561
2496.000000	0.038766
2497.000000	0.020152
2498.000000	0.018735
2499.000000	0.054759
2500.000000	0.081744
