# Wavelength	Nau-1_50_FV7_50_00000.asd.rts.txt
350.000000	0.137360
351.000000	0.131236
352.000000	0.128932
353.000000	0.128122
354.000000	0.128168
355.000000	0.132172
356.000000	0.125655
357.000000	0.119138
358.000000	0.139867
359.000000	0.142620
360.000000	0.136034
361.000000	0.138223
362.000000	0.137443
363.000000	0.133291
364.000000	0.127499
365.000000	0.126095
366.000000	0.128004
367.000000	0.131677
368.000000	0.135647
369.000000	0.140130
370.000000	0.142445
371.000000	0.140224
372.000000	0.139531
373.000000	0.135531
374.000000	0.128856
375.000000	0.138414
376.000000	0.144072
377.000000	0.141545
378.000000	0.141001
379.000000	0.138483
380.000000	0.137171
381.000000	0.141545
382.000000	0.145154
383.000000	0.146119
384.000000	0.145368
385.000000	0.148504
386.000000	0.151352
387.000000	0.152426
388.000000	0.152301
389.000000	0.153318
390.000000	0.154814
391.000000	0.155122
392.000000	0.157223
393.000000	0.158821
394.000000	0.158507
395.000000	0.160039
396.000000	0.161316
397.000000	0.161893
398.000000	0.163705
399.000000	0.165538
400.000000	0.166781
401.000000	0.167030
402.000000	0.168242
403.000000	0.170115
404.000000	0.171952
405.000000	0.172601
406.000000	0.173603
407.000000	0.175299
408.000000	0.175697
409.000000	0.176687
410.000000	0.178311
411.000000	0.179588
412.000000	0.179852
413.000000	0.180223
414.000000	0.181819
415.000000	0.183138
416.000000	0.183950
417.000000	0.184316
418.000000	0.184662
419.000000	0.184601
420.000000	0.184399
421.000000	0.184903
422.000000	0.185203
423.000000	0.185435
424.000000	0.186005
425.000000	0.185992
426.000000	0.186166
427.000000	0.186869
428.000000	0.186489
429.000000	0.186289
430.000000	0.186668
431.000000	0.186926
432.000000	0.187094
433.000000	0.187205
434.000000	0.187387
435.000000	0.187147
436.000000	0.186847
437.000000	0.186857
438.000000	0.186930
439.000000	0.186671
440.000000	0.186101
441.000000	0.185772
442.000000	0.185435
443.000000	0.185198
444.000000	0.185530
445.000000	0.185194
446.000000	0.184880
447.000000	0.185486
448.000000	0.186175
449.000000	0.186827
450.000000	0.187628
451.000000	0.189472
452.000000	0.191101
453.000000	0.192239
454.000000	0.193834
455.000000	0.196114
456.000000	0.198535
457.000000	0.200138
458.000000	0.202215
459.000000	0.204549
460.000000	0.206674
461.000000	0.207973
462.000000	0.209360
463.000000	0.211012
464.000000	0.212205
465.000000	0.213032
466.000000	0.213702
467.000000	0.214674
468.000000	0.215565
469.000000	0.216270
470.000000	0.216916
471.000000	0.217479
472.000000	0.218012
473.000000	0.218581
474.000000	0.219209
475.000000	0.219705
476.000000	0.220113
477.000000	0.220401
478.000000	0.220808
479.000000	0.221493
480.000000	0.222236
481.000000	0.222663
482.000000	0.223041
483.000000	0.223500
484.000000	0.224227
485.000000	0.224644
486.000000	0.224746
487.000000	0.225028
488.000000	0.225608
489.000000	0.226384
490.000000	0.227044
491.000000	0.227509
492.000000	0.228009
493.000000	0.228680
494.000000	0.229223
495.000000	0.229716
496.000000	0.230227
497.000000	0.230858
498.000000	0.231405
499.000000	0.231894
500.000000	0.232457
501.000000	0.233011
502.000000	0.233585
503.000000	0.234175
504.000000	0.234706
505.000000	0.235270
506.000000	0.235948
507.000000	0.236567
508.000000	0.237260
509.000000	0.238020
510.000000	0.238637
511.000000	0.239299
512.000000	0.240015
513.000000	0.240601
514.000000	0.241229
515.000000	0.242008
516.000000	0.242916
517.000000	0.243542
518.000000	0.244147
519.000000	0.244902
520.000000	0.245784
521.000000	0.246579
522.000000	0.247237
523.000000	0.247914
524.000000	0.248707
525.000000	0.249566
526.000000	0.250391
527.000000	0.251209
528.000000	0.252005
529.000000	0.252811
530.000000	0.253616
531.000000	0.254487
532.000000	0.255379
533.000000	0.256305
534.000000	0.257226
535.000000	0.258105
536.000000	0.258931
537.000000	0.259817
538.000000	0.260728
539.000000	0.261571
540.000000	0.262487
541.000000	0.263428
542.000000	0.264356
543.000000	0.265244
544.000000	0.266109
545.000000	0.266929
546.000000	0.267872
547.000000	0.268732
548.000000	0.269561
549.000000	0.270498
550.000000	0.271398
551.000000	0.272267
552.000000	0.273104
553.000000	0.273984
554.000000	0.274913
555.000000	0.275859
556.000000	0.276672
557.000000	0.277445
558.000000	0.278319
559.000000	0.279122
560.000000	0.279856
561.000000	0.280614
562.000000	0.281390
563.000000	0.282149
564.000000	0.282946
565.000000	0.283713
566.000000	0.284376
567.000000	0.285038
568.000000	0.285716
569.000000	0.286287
570.000000	0.286864
571.000000	0.287480
572.000000	0.288139
573.000000	0.288796
574.000000	0.289365
575.000000	0.289824
576.000000	0.290280
577.000000	0.290727
578.000000	0.291196
579.000000	0.291587
580.000000	0.291959
581.000000	0.292328
582.000000	0.292640
583.000000	0.292994
584.000000	0.293378
585.000000	0.293724
586.000000	0.294020
587.000000	0.294309
588.000000	0.294639
589.000000	0.294958
590.000000	0.295254
591.000000	0.295525
592.000000	0.295769
593.000000	0.296053
594.000000	0.296372
595.000000	0.296661
596.000000	0.296911
597.000000	0.297110
598.000000	0.297165
599.000000	0.297288
600.000000	0.297503
601.000000	0.297697
602.000000	0.297795
603.000000	0.297859
604.000000	0.297945
605.000000	0.298087
606.000000	0.298137
607.000000	0.298113
608.000000	0.298137
609.000000	0.298127
610.000000	0.298164
611.000000	0.298310
612.000000	0.298241
613.000000	0.298250
614.000000	0.298523
615.000000	0.298705
616.000000	0.298776
617.000000	0.298787
618.000000	0.298997
619.000000	0.299118
620.000000	0.299116
621.000000	0.299115
622.000000	0.299098
623.000000	0.299135
624.000000	0.299256
625.000000	0.299329
626.000000	0.299422
627.000000	0.299554
628.000000	0.299647
629.000000	0.299822
630.000000	0.299933
631.000000	0.299985
632.000000	0.300128
633.000000	0.300307
634.000000	0.300412
635.000000	0.300451
636.000000	0.300538
637.000000	0.300691
638.000000	0.300776
639.000000	0.300853
640.000000	0.301008
641.000000	0.301190
642.000000	0.301349
643.000000	0.301466
644.000000	0.301552
645.000000	0.301712
646.000000	0.301914
647.000000	0.302084
648.000000	0.302181
649.000000	0.302420
650.000000	0.302759
651.000000	0.302870
652.000000	0.302984
653.000000	0.303129
654.000000	0.303183
655.000000	0.303357
656.000000	0.303584
657.000000	0.303737
658.000000	0.304009
659.000000	0.304299
660.000000	0.304527
661.000000	0.304690
662.000000	0.304883
663.000000	0.305146
664.000000	0.305377
665.000000	0.305620
666.000000	0.305866
667.000000	0.306071
668.000000	0.306304
669.000000	0.306582
670.000000	0.306888
671.000000	0.307107
672.000000	0.307355
673.000000	0.307628
674.000000	0.307850
675.000000	0.308083
676.000000	0.308349
677.000000	0.308671
678.000000	0.309019
679.000000	0.309319
680.000000	0.309555
681.000000	0.309812
682.000000	0.310120
683.000000	0.310406
684.000000	0.310722
685.000000	0.311063
686.000000	0.311431
687.000000	0.311770
688.000000	0.312083
689.000000	0.312362
690.000000	0.312633
691.000000	0.312874
692.000000	0.313127
693.000000	0.313467
694.000000	0.313832
695.000000	0.314164
696.000000	0.314490
697.000000	0.314871
698.000000	0.315238
699.000000	0.315623
700.000000	0.316053
701.000000	0.316416
702.000000	0.316803
703.000000	0.317189
704.000000	0.317446
705.000000	0.317774
706.000000	0.318136
707.000000	0.318498
708.000000	0.318904
709.000000	0.319313
710.000000	0.319708
711.000000	0.320095
712.000000	0.320469
713.000000	0.320845
714.000000	0.321202
715.000000	0.321543
716.000000	0.321864
717.000000	0.322138
718.000000	0.322515
719.000000	0.322927
720.000000	0.323318
721.000000	0.323751
722.000000	0.324142
723.000000	0.324528
724.000000	0.324916
725.000000	0.325230
726.000000	0.325543
727.000000	0.325811
728.000000	0.326056
729.000000	0.326357
730.000000	0.326680
731.000000	0.326857
732.000000	0.327067
733.000000	0.327399
734.000000	0.327709
735.000000	0.327980
736.000000	0.328309
737.000000	0.328568
738.000000	0.328763
739.000000	0.329041
740.000000	0.329316
741.000000	0.329591
742.000000	0.329885
743.000000	0.330150
744.000000	0.330357
745.000000	0.330533
746.000000	0.330701
747.000000	0.330785
748.000000	0.330909
749.000000	0.331093
750.000000	0.331280
751.000000	0.331390
752.000000	0.331537
753.000000	0.331745
754.000000	0.331936
755.000000	0.332119
756.000000	0.332314
757.000000	0.332490
758.000000	0.332686
759.000000	0.332819
760.000000	0.332824
761.000000	0.332975
762.000000	0.333113
763.000000	0.333177
764.000000	0.333238
765.000000	0.333265
766.000000	0.333269
767.000000	0.333270
768.000000	0.333338
769.000000	0.333412
770.000000	0.333444
771.000000	0.333374
772.000000	0.333388
773.000000	0.333397
774.000000	0.333347
775.000000	0.333260
776.000000	0.333197
777.000000	0.333173
778.000000	0.333135
779.000000	0.333078
780.000000	0.332991
781.000000	0.332838
782.000000	0.332745
783.000000	0.332797
784.000000	0.332845
785.000000	0.332858
786.000000	0.332851
787.000000	0.332812
788.000000	0.332680
789.000000	0.332554
790.000000	0.332417
791.000000	0.332245
792.000000	0.332051
793.000000	0.331896
794.000000	0.331802
795.000000	0.331625
796.000000	0.331389
797.000000	0.331145
798.000000	0.330985
799.000000	0.330911
800.000000	0.330857
801.000000	0.330740
802.000000	0.330541
803.000000	0.330311
804.000000	0.330130
805.000000	0.329987
806.000000	0.329842
807.000000	0.329739
808.000000	0.329593
809.000000	0.329436
810.000000	0.329238
811.000000	0.328984
812.000000	0.328787
813.000000	0.328580
814.000000	0.328359
815.000000	0.328199
816.000000	0.327963
817.000000	0.327719
818.000000	0.327480
819.000000	0.327324
820.000000	0.327150
821.000000	0.326901
822.000000	0.326755
823.000000	0.326628
824.000000	0.326421
825.000000	0.326176
826.000000	0.325953
827.000000	0.325762
828.000000	0.325629
829.000000	0.325456
830.000000	0.325205
831.000000	0.324935
832.000000	0.324595
833.000000	0.324280
834.000000	0.324039
835.000000	0.323889
836.000000	0.323632
837.000000	0.323356
838.000000	0.323112
839.000000	0.322874
840.000000	0.322646
841.000000	0.322407
842.000000	0.322124
843.000000	0.322000
844.000000	0.321833
845.000000	0.321551
846.000000	0.321310
847.000000	0.321119
848.000000	0.320952
849.000000	0.320785
850.000000	0.320455
851.000000	0.320133
852.000000	0.319954
853.000000	0.319873
854.000000	0.319735
855.000000	0.319648
856.000000	0.319566
857.000000	0.319292
858.000000	0.318980
859.000000	0.318656
860.000000	0.318371
861.000000	0.318093
862.000000	0.317820
863.000000	0.317496
864.000000	0.317279
865.000000	0.317105
866.000000	0.316935
867.000000	0.316740
868.000000	0.316528
869.000000	0.316294
870.000000	0.316130
871.000000	0.315810
872.000000	0.315563
873.000000	0.315430
874.000000	0.315245
875.000000	0.315049
876.000000	0.314844
877.000000	0.314567
878.000000	0.314386
879.000000	0.314196
880.000000	0.313829
881.000000	0.313577
882.000000	0.313238
883.000000	0.312860
884.000000	0.312537
885.000000	0.312416
886.000000	0.312342
887.000000	0.312224
888.000000	0.312065
889.000000	0.311805
890.000000	0.311397
891.000000	0.311048
892.000000	0.310810
893.000000	0.310678
894.000000	0.310688
895.000000	0.310542
896.000000	0.310282
897.000000	0.310001
898.000000	0.309804
899.000000	0.309646
900.000000	0.309453
901.000000	0.309216
902.000000	0.309153
903.000000	0.308975
904.000000	0.308790
905.000000	0.308676
906.000000	0.308664
907.000000	0.308435
908.000000	0.308030
909.000000	0.307702
910.000000	0.307418
911.000000	0.307162
912.000000	0.306944
913.000000	0.306810
914.000000	0.306567
915.000000	0.306300
916.000000	0.306138
917.000000	0.306013
918.000000	0.305933
919.000000	0.305841
920.000000	0.305567
921.000000	0.305402
922.000000	0.305310
923.000000	0.305079
924.000000	0.304850
925.000000	0.304671
926.000000	0.304565
927.000000	0.304415
928.000000	0.304248
929.000000	0.304040
930.000000	0.303786
931.000000	0.303639
932.000000	0.303485
933.000000	0.303337
934.000000	0.303247
935.000000	0.303062
936.000000	0.302913
937.000000	0.302809
938.000000	0.302651
939.000000	0.302435
940.000000	0.302153
941.000000	0.301965
942.000000	0.301785
943.000000	0.301643
944.000000	0.301453
945.000000	0.301334
946.000000	0.301171
947.000000	0.301126
948.000000	0.301205
949.000000	0.300622
950.000000	0.300095
951.000000	0.299963
952.000000	0.300212
953.000000	0.300109
954.000000	0.299950
955.000000	0.299989
956.000000	0.300156
957.000000	0.300035
958.000000	0.299700
959.000000	0.299535
960.000000	0.299345
961.000000	0.299248
962.000000	0.299194
963.000000	0.298983
964.000000	0.298914
965.000000	0.298880
966.000000	0.298712
967.000000	0.298918
968.000000	0.298705
969.000000	0.298219
970.000000	0.298125
971.000000	0.297933
972.000000	0.297827
973.000000	0.297753
974.000000	0.297509
975.000000	0.297411
976.000000	0.297329
977.000000	0.297178
978.000000	0.297341
979.000000	0.297406
980.000000	0.297099
981.000000	0.296800
982.000000	0.296981
983.000000	0.296932
984.000000	0.296623
985.000000	0.296640
986.000000	0.296460
987.000000	0.296461
988.000000	0.296719
989.000000	0.296707
990.000000	0.296465
991.000000	0.296365
992.000000	0.296702
993.000000	0.296571
994.000000	0.296347
995.000000	0.296415
996.000000	0.296661
997.000000	0.296761
998.000000	0.296669
999.000000	0.296633
1000.000000	0.296991
1001.000000	0.296126
1002.000000	0.296560
1003.000000	0.297606
1004.000000	0.297742
1005.000000	0.297502
1006.000000	0.297776
1007.000000	0.297950
1008.000000	0.298032
1009.000000	0.298269
1010.000000	0.298868
1011.000000	0.298957
1012.000000	0.297676
1013.000000	0.296696
1014.000000	0.297040
1015.000000	0.297016
1016.000000	0.297106
1017.000000	0.298072
1018.000000	0.298817
1019.000000	0.299075
1020.000000	0.299253
1021.000000	0.299306
1022.000000	0.298950
1023.000000	0.299041
1024.000000	0.299316
1025.000000	0.299884
1026.000000	0.299559
1027.000000	0.299238
1028.000000	0.299577
1029.000000	0.299666
1030.000000	0.300354
1031.000000	0.301483
1032.000000	0.301381
1033.000000	0.300863
1034.000000	0.301019
1035.000000	0.301299
1036.000000	0.301383
1037.000000	0.302073
1038.000000	0.302274
1039.000000	0.302387
1040.000000	0.301790
1041.000000	0.301119
1042.000000	0.300979
1043.000000	0.301217
1044.000000	0.301298
1045.000000	0.301900
1046.000000	0.302724
1047.000000	0.303234
1048.000000	0.303414
1049.000000	0.303812
1050.000000	0.304444
1051.000000	0.304697
1052.000000	0.304693
1053.000000	0.304775
1054.000000	0.304567
1055.000000	0.304911
1056.000000	0.305603
1057.000000	0.306565
1058.000000	0.307214
1059.000000	0.307105
1060.000000	0.306639
1061.000000	0.306629
1062.000000	0.307224
1063.000000	0.308167
1064.000000	0.308727
1065.000000	0.309276
1066.000000	0.309844
1067.000000	0.310267
1068.000000	0.310501
1069.000000	0.310783
1070.000000	0.311000
1071.000000	0.310865
1072.000000	0.310888
1073.000000	0.311043
1074.000000	0.311306
1075.000000	0.311621
1076.000000	0.312177
1077.000000	0.312576
1078.000000	0.312743
1079.000000	0.312962
1080.000000	0.312836
1081.000000	0.313077
1082.000000	0.313814
1083.000000	0.314094
1084.000000	0.314005
1085.000000	0.314492
1086.000000	0.315216
1087.000000	0.315713
1088.000000	0.316438
1089.000000	0.317011
1090.000000	0.317335
1091.000000	0.317424
1092.000000	0.317753
1093.000000	0.318337
1094.000000	0.318622
1095.000000	0.318547
1096.000000	0.318925
1097.000000	0.319457
1098.000000	0.319875
1099.000000	0.320350
1100.000000	0.320949
1101.000000	0.321584
1102.000000	0.322019
1103.000000	0.322495
1104.000000	0.322906
1105.000000	0.322927
1106.000000	0.323243
1107.000000	0.323684
1108.000000	0.324141
1109.000000	0.324926
1110.000000	0.325457
1111.000000	0.325803
1112.000000	0.326072
1113.000000	0.326306
1114.000000	0.326140
1115.000000	0.326490
1116.000000	0.327206
1117.000000	0.327604
1118.000000	0.328081
1119.000000	0.328379
1120.000000	0.328370
1121.000000	0.328551
1122.000000	0.328914
1123.000000	0.329367
1124.000000	0.329652
1125.000000	0.329987
1126.000000	0.330249
1127.000000	0.330509
1128.000000	0.330766
1129.000000	0.331046
1130.000000	0.331386
1131.000000	0.331837
1132.000000	0.332054
1133.000000	0.332251
1134.000000	0.332490
1135.000000	0.332539
1136.000000	0.332687
1137.000000	0.332899
1138.000000	0.333110
1139.000000	0.333404
1140.000000	0.333731
1141.000000	0.334089
1142.000000	0.334419
1143.000000	0.334644
1144.000000	0.335005
1145.000000	0.335268
1146.000000	0.335438
1147.000000	0.335652
1148.000000	0.335734
1149.000000	0.335944
1150.000000	0.336198
1151.000000	0.336501
1152.000000	0.336813
1153.000000	0.337137
1154.000000	0.337561
1155.000000	0.337783
1156.000000	0.337896
1157.000000	0.338049
1158.000000	0.337940
1159.000000	0.338059
1160.000000	0.338455
1161.000000	0.338626
1162.000000	0.338808
1163.000000	0.339105
1164.000000	0.339153
1165.000000	0.339136
1166.000000	0.339319
1167.000000	0.339532
1168.000000	0.339782
1169.000000	0.340232
1170.000000	0.340495
1171.000000	0.340809
1172.000000	0.341023
1173.000000	0.341026
1174.000000	0.341117
1175.000000	0.341085
1176.000000	0.341201
1177.000000	0.341633
1178.000000	0.341818
1179.000000	0.341912
1180.000000	0.342016
1181.000000	0.342169
1182.000000	0.342111
1183.000000	0.342195
1184.000000	0.342316
1185.000000	0.342449
1186.000000	0.342461
1187.000000	0.342694
1188.000000	0.343193
1189.000000	0.343376
1190.000000	0.343570
1191.000000	0.343699
1192.000000	0.343720
1193.000000	0.343928
1194.000000	0.344098
1195.000000	0.344249
1196.000000	0.344366
1197.000000	0.344464
1198.000000	0.344552
1199.000000	0.344673
1200.000000	0.344823
1201.000000	0.344902
1202.000000	0.344968
1203.000000	0.345031
1204.000000	0.345083
1205.000000	0.345147
1206.000000	0.345258
1207.000000	0.345610
1208.000000	0.345689
1209.000000	0.345743
1210.000000	0.345835
1211.000000	0.345821
1212.000000	0.345810
1213.000000	0.345827
1214.000000	0.345958
1215.000000	0.346142
1216.000000	0.346246
1217.000000	0.346425
1218.000000	0.346481
1219.000000	0.346408
1220.000000	0.346302
1221.000000	0.346487
1222.000000	0.346696
1223.000000	0.346804
1224.000000	0.346979
1225.000000	0.346987
1226.000000	0.346950
1227.000000	0.346893
1228.000000	0.347012
1229.000000	0.347077
1230.000000	0.347142
1231.000000	0.347090
1232.000000	0.347111
1233.000000	0.347225
1234.000000	0.347289
1235.000000	0.347307
1236.000000	0.347337
1237.000000	0.347387
1238.000000	0.347192
1239.000000	0.347210
1240.000000	0.347386
1241.000000	0.347557
1242.000000	0.347740
1243.000000	0.347901
1244.000000	0.347986
1245.000000	0.348090
1246.000000	0.348196
1247.000000	0.348474
1248.000000	0.348589
1249.000000	0.348690
1250.000000	0.348744
1251.000000	0.348589
1252.000000	0.348616
1253.000000	0.348808
1254.000000	0.348840
1255.000000	0.348864
1256.000000	0.348935
1257.000000	0.348977
1258.000000	0.349022
1259.000000	0.349058
1260.000000	0.349083
1261.000000	0.348884
1262.000000	0.348924
1263.000000	0.349148
1264.000000	0.349321
1265.000000	0.349476
1266.000000	0.349487
1267.000000	0.349276
1268.000000	0.349097
1269.000000	0.348932
1270.000000	0.349017
1271.000000	0.349223
1272.000000	0.349289
1273.000000	0.349355
1274.000000	0.349221
1275.000000	0.349235
1276.000000	0.349302
1277.000000	0.349436
1278.000000	0.349648
1279.000000	0.349720
1280.000000	0.349571
1281.000000	0.349499
1282.000000	0.349517
1283.000000	0.349536
1284.000000	0.349515
1285.000000	0.349483
1286.000000	0.349390
1287.000000	0.349223
1288.000000	0.349268
1289.000000	0.349322
1290.000000	0.349183
1291.000000	0.349064
1292.000000	0.348922
1293.000000	0.348719
1294.000000	0.348763
1295.000000	0.348967
1296.000000	0.348950
1297.000000	0.348983
1298.000000	0.349152
1299.000000	0.349135
1300.000000	0.349198
1301.000000	0.349303
1302.000000	0.349241
1303.000000	0.349090
1304.000000	0.349020
1305.000000	0.349096
1306.000000	0.349022
1307.000000	0.348919
1308.000000	0.348916
1309.000000	0.348863
1310.000000	0.348852
1311.000000	0.348997
1312.000000	0.349002
1313.000000	0.348967
1314.000000	0.348886
1315.000000	0.348806
1316.000000	0.348978
1317.000000	0.348988
1318.000000	0.348930
1319.000000	0.348796
1320.000000	0.348503
1321.000000	0.348396
1322.000000	0.348407
1323.000000	0.348345
1324.000000	0.348352
1325.000000	0.348228
1326.000000	0.347958
1327.000000	0.347979
1328.000000	0.348030
1329.000000	0.347884
1330.000000	0.347689
1331.000000	0.347660
1332.000000	0.347625
1333.000000	0.347573
1334.000000	0.347727
1335.000000	0.347796
1336.000000	0.347644
1337.000000	0.347633
1338.000000	0.347660
1339.000000	0.347843
1340.000000	0.347790
1341.000000	0.347689
1342.000000	0.347701
1343.000000	0.347552
1344.000000	0.347398
1345.000000	0.347461
1346.000000	0.347571
1347.000000	0.347507
1348.000000	0.347551
1349.000000	0.347599
1350.000000	0.347603
1351.000000	0.347657
1352.000000	0.347735
1353.000000	0.347612
1354.000000	0.347362
1355.000000	0.347107
1356.000000	0.347066
1357.000000	0.346960
1358.000000	0.346902
1359.000000	0.346991
1360.000000	0.346930
1361.000000	0.346727
1362.000000	0.346685
1363.000000	0.346652
1364.000000	0.346626
1365.000000	0.346651
1366.000000	0.346603
1367.000000	0.346571
1368.000000	0.346374
1369.000000	0.346241
1370.000000	0.346162
1371.000000	0.345887
1372.000000	0.345679
1373.000000	0.345575
1374.000000	0.345213
1375.000000	0.344812
1376.000000	0.344649
1377.000000	0.344425
1378.000000	0.344246
1379.000000	0.343999
1380.000000	0.343630
1381.000000	0.343170
1382.000000	0.342507
1383.000000	0.342050
1384.000000	0.341687
1385.000000	0.341187
1386.000000	0.340798
1387.000000	0.340360
1388.000000	0.339845
1389.000000	0.339390
1390.000000	0.338808
1391.000000	0.338265
1392.000000	0.337834
1393.000000	0.337275
1394.000000	0.336721
1395.000000	0.336168
1396.000000	0.335533
1397.000000	0.334863
1398.000000	0.334094
1399.000000	0.333476
1400.000000	0.332916
1401.000000	0.332317
1402.000000	0.331830
1403.000000	0.331249
1404.000000	0.330645
1405.000000	0.329942
1406.000000	0.329301
1407.000000	0.328717
1408.000000	0.328020
1409.000000	0.327285
1410.000000	0.326612
1411.000000	0.325917
1412.000000	0.325197
1413.000000	0.324817
1414.000000	0.324552
1415.000000	0.324344
1416.000000	0.324348
1417.000000	0.324300
1418.000000	0.324187
1419.000000	0.324143
1420.000000	0.324097
1421.000000	0.324282
1422.000000	0.324438
1423.000000	0.324466
1424.000000	0.324352
1425.000000	0.324218
1426.000000	0.324051
1427.000000	0.323879
1428.000000	0.323656
1429.000000	0.323403
1430.000000	0.323240
1431.000000	0.323107
1432.000000	0.322982
1433.000000	0.322957
1434.000000	0.322974
1435.000000	0.322989
1436.000000	0.323290
1437.000000	0.323797
1438.000000	0.324313
1439.000000	0.325017
1440.000000	0.325687
1441.000000	0.326424
1442.000000	0.327257
1443.000000	0.328103
1444.000000	0.328984
1445.000000	0.329826
1446.000000	0.330589
1447.000000	0.331270
1448.000000	0.331828
1449.000000	0.332363
1450.000000	0.332828
1451.000000	0.333249
1452.000000	0.333595
1453.000000	0.333787
1454.000000	0.333847
1455.000000	0.333929
1456.000000	0.334078
1457.000000	0.334283
1458.000000	0.334518
1459.000000	0.334726
1460.000000	0.334876
1461.000000	0.334927
1462.000000	0.334997
1463.000000	0.335043
1464.000000	0.335175
1465.000000	0.335414
1466.000000	0.335585
1467.000000	0.335810
1468.000000	0.335992
1469.000000	0.336122
1470.000000	0.336273
1471.000000	0.336515
1472.000000	0.336741
1473.000000	0.337084
1474.000000	0.337419
1475.000000	0.337684
1476.000000	0.337890
1477.000000	0.338047
1478.000000	0.338237
1479.000000	0.338393
1480.000000	0.338593
1481.000000	0.338755
1482.000000	0.338956
1483.000000	0.339114
1484.000000	0.339240
1485.000000	0.339379
1486.000000	0.339462
1487.000000	0.339628
1488.000000	0.339864
1489.000000	0.340103
1490.000000	0.340287
1491.000000	0.340488
1492.000000	0.340643
1493.000000	0.340794
1494.000000	0.340856
1495.000000	0.340940
1496.000000	0.341040
1497.000000	0.341151
1498.000000	0.341309
1499.000000	0.341400
1500.000000	0.341482
1501.000000	0.341546
1502.000000	0.341479
1503.000000	0.341563
1504.000000	0.341639
1505.000000	0.341683
1506.000000	0.341882
1507.000000	0.341963
1508.000000	0.342068
1509.000000	0.342209
1510.000000	0.342256
1511.000000	0.342442
1512.000000	0.342576
1513.000000	0.342561
1514.000000	0.342661
1515.000000	0.342672
1516.000000	0.342697
1517.000000	0.342799
1518.000000	0.342848
1519.000000	0.342816
1520.000000	0.342795
1521.000000	0.342776
1522.000000	0.342835
1523.000000	0.342987
1524.000000	0.343047
1525.000000	0.343162
1526.000000	0.343351
1527.000000	0.343486
1528.000000	0.343720
1529.000000	0.343896
1530.000000	0.343807
1531.000000	0.343803
1532.000000	0.343763
1533.000000	0.343734
1534.000000	0.343924
1535.000000	0.343985
1536.000000	0.343998
1537.000000	0.344210
1538.000000	0.344357
1539.000000	0.344391
1540.000000	0.344436
1541.000000	0.344487
1542.000000	0.344432
1543.000000	0.344448
1544.000000	0.344609
1545.000000	0.344719
1546.000000	0.344835
1547.000000	0.344940
1548.000000	0.344968
1549.000000	0.345002
1550.000000	0.344973
1551.000000	0.345014
1552.000000	0.345120
1553.000000	0.345101
1554.000000	0.345170
1555.000000	0.345260
1556.000000	0.345324
1557.000000	0.345361
1558.000000	0.345408
1559.000000	0.345427
1560.000000	0.345432
1561.000000	0.345418
1562.000000	0.345424
1563.000000	0.345476
1564.000000	0.345490
1565.000000	0.345480
1566.000000	0.345427
1567.000000	0.345502
1568.000000	0.345456
1569.000000	0.345435
1570.000000	0.345398
1571.000000	0.345209
1572.000000	0.345140
1573.000000	0.345150
1574.000000	0.345158
1575.000000	0.345255
1576.000000	0.345295
1577.000000	0.345312
1578.000000	0.345251
1579.000000	0.345210
1580.000000	0.345148
1581.000000	0.345100
1582.000000	0.345036
1583.000000	0.344901
1584.000000	0.344826
1585.000000	0.344838
1586.000000	0.344870
1587.000000	0.344993
1588.000000	0.345092
1589.000000	0.345230
1590.000000	0.345283
1591.000000	0.345297
1592.000000	0.345345
1593.000000	0.345476
1594.000000	0.345445
1595.000000	0.345353
1596.000000	0.345366
1597.000000	0.345340
1598.000000	0.345286
1599.000000	0.345375
1600.000000	0.345371
1601.000000	0.345263
1602.000000	0.345301
1603.000000	0.345557
1604.000000	0.345618
1605.000000	0.345639
1606.000000	0.345658
1607.000000	0.345665
1608.000000	0.345681
1609.000000	0.345779
1610.000000	0.345818
1611.000000	0.345837
1612.000000	0.345784
1613.000000	0.345815
1614.000000	0.345767
1615.000000	0.345714
1616.000000	0.345653
1617.000000	0.345436
1618.000000	0.345411
1619.000000	0.345438
1620.000000	0.345444
1621.000000	0.345633
1622.000000	0.345738
1623.000000	0.345736
1624.000000	0.345710
1625.000000	0.345442
1626.000000	0.345373
1627.000000	0.345380
1628.000000	0.345435
1629.000000	0.345717
1630.000000	0.345779
1631.000000	0.345550
1632.000000	0.345492
1633.000000	0.345441
1634.000000	0.345467
1635.000000	0.345707
1636.000000	0.345807
1637.000000	0.345921
1638.000000	0.345852
1639.000000	0.345704
1640.000000	0.345561
1641.000000	0.345316
1642.000000	0.345261
1643.000000	0.345369
1644.000000	0.345420
1645.000000	0.345595
1646.000000	0.345517
1647.000000	0.345325
1648.000000	0.345157
1649.000000	0.344924
1650.000000	0.344871
1651.000000	0.344983
1652.000000	0.345059
1653.000000	0.345107
1654.000000	0.345234
1655.000000	0.345349
1656.000000	0.345346
1657.000000	0.345503
1658.000000	0.345437
1659.000000	0.345277
1660.000000	0.345229
1661.000000	0.345046
1662.000000	0.344904
1663.000000	0.344788
1664.000000	0.344679
1665.000000	0.344509
1666.000000	0.344508
1667.000000	0.344548
1668.000000	0.344535
1669.000000	0.344557
1670.000000	0.344404
1671.000000	0.344212
1672.000000	0.344225
1673.000000	0.344189
1674.000000	0.344365
1675.000000	0.344580
1676.000000	0.344566
1677.000000	0.344642
1678.000000	0.344599
1679.000000	0.344590
1680.000000	0.344691
1681.000000	0.344563
1682.000000	0.344570
1683.000000	0.344634
1684.000000	0.344406
1685.000000	0.344406
1686.000000	0.344489
1687.000000	0.344472
1688.000000	0.344609
1689.000000	0.344753
1690.000000	0.344810
1691.000000	0.344918
1692.000000	0.344835
1693.000000	0.344768
1694.000000	0.344642
1695.000000	0.344456
1696.000000	0.344386
1697.000000	0.344314
1698.000000	0.344236
1699.000000	0.344305
1700.000000	0.344707
1701.000000	0.344845
1702.000000	0.344647
1703.000000	0.344536
1704.000000	0.344322
1705.000000	0.344149
1706.000000	0.344088
1707.000000	0.344098
1708.000000	0.344071
1709.000000	0.344034
1710.000000	0.344383
1711.000000	0.344393
1712.000000	0.344085
1713.000000	0.343992
1714.000000	0.343923
1715.000000	0.343820
1716.000000	0.343816
1717.000000	0.343808
1718.000000	0.343745
1719.000000	0.343601
1720.000000	0.343516
1721.000000	0.343457
1722.000000	0.343239
1723.000000	0.343189
1724.000000	0.343422
1725.000000	0.343450
1726.000000	0.343257
1727.000000	0.343254
1728.000000	0.343251
1729.000000	0.343099
1730.000000	0.343140
1731.000000	0.343033
1732.000000	0.342685
1733.000000	0.342656
1734.000000	0.342656
1735.000000	0.342576
1736.000000	0.342495
1737.000000	0.342463
1738.000000	0.342431
1739.000000	0.342368
1740.000000	0.342334
1741.000000	0.342314
1742.000000	0.342181
1743.000000	0.342362
1744.000000	0.342743
1745.000000	0.342965
1746.000000	0.343279
1747.000000	0.343350
1748.000000	0.343325
1749.000000	0.343139
1750.000000	0.342991
1751.000000	0.343001
1752.000000	0.342989
1753.000000	0.342797
1754.000000	0.342669
1755.000000	0.342407
1756.000000	0.342237
1757.000000	0.342184
1758.000000	0.342130
1759.000000	0.342204
1760.000000	0.342057
1761.000000	0.341512
1762.000000	0.341443
1763.000000	0.341633
1764.000000	0.341627
1765.000000	0.341920
1766.000000	0.341944
1767.000000	0.341455
1768.000000	0.341154
1769.000000	0.340991
1770.000000	0.340922
1771.000000	0.340806
1772.000000	0.340795
1773.000000	0.340877
1774.000000	0.340979
1775.000000	0.341244
1776.000000	0.341293
1777.000000	0.341257
1778.000000	0.341239
1779.000000	0.341031
1780.000000	0.341078
1781.000000	0.341231
1782.000000	0.341394
1783.000000	0.341731
1784.000000	0.341735
1785.000000	0.341793
1786.000000	0.341759
1787.000000	0.341772
1788.000000	0.341904
1789.000000	0.341868
1790.000000	0.341415
1791.000000	0.341177
1792.000000	0.340942
1793.000000	0.340887
1794.000000	0.341308
1795.000000	0.341429
1796.000000	0.341445
1797.000000	0.341448
1798.000000	0.341209
1799.000000	0.341098
1800.000000	0.341136
1801.000000	0.341388
1802.000000	0.341174
1803.000000	0.340881
1804.000000	0.340927
1805.000000	0.341595
1806.000000	0.341784
1807.000000	0.341885
1808.000000	0.342061
1809.000000	0.342268
1810.000000	0.342125
1811.000000	0.342159
1812.000000	0.342496
1813.000000	0.342235
1814.000000	0.341931
1815.000000	0.341190
1816.000000	0.338932
1817.000000	0.338274
1818.000000	0.338377
1819.000000	0.338506
1820.000000	0.338710
1821.000000	0.339984
1822.000000	0.340130
1823.000000	0.339147
1824.000000	0.338865
1825.000000	0.338430
1826.000000	0.338471
1827.000000	0.338938
1828.000000	0.339003
1829.000000	0.338959
1830.000000	0.339170
1831.000000	0.339323
1832.000000	0.339302
1833.000000	0.339229
1834.000000	0.339572
1835.000000	0.339386
1836.000000	0.337813
1837.000000	0.337574
1838.000000	0.337947
1839.000000	0.338086
1840.000000	0.338608
1841.000000	0.339685
1842.000000	0.339755
1843.000000	0.338836
1844.000000	0.338777
1845.000000	0.338390
1846.000000	0.338391
1847.000000	0.338926
1848.000000	0.339138
1849.000000	0.339175
1850.000000	0.339255
1851.000000	0.339060
1852.000000	0.338425
1853.000000	0.338461
1854.000000	0.338189
1855.000000	0.338152
1856.000000	0.338711
1857.000000	0.338994
1858.000000	0.338061
1859.000000	0.338133
1860.000000	0.337809
1861.000000	0.336792
1862.000000	0.336169
1863.000000	0.335722
1864.000000	0.335068
1865.000000	0.334441
1866.000000	0.333944
1867.000000	0.333256
1868.000000	0.332885
1869.000000	0.332853
1870.000000	0.332164
1871.000000	0.331416
1872.000000	0.330758
1873.000000	0.330324
1874.000000	0.330083
1875.000000	0.329630
1876.000000	0.329004
1877.000000	0.328218
1878.000000	0.327591
1879.000000	0.326057
1880.000000	0.324727
1881.000000	0.323909
1882.000000	0.322395
1883.000000	0.320880
1884.000000	0.319436
1885.000000	0.317683
1886.000000	0.316072
1887.000000	0.314607
1888.000000	0.312868
1889.000000	0.310972
1890.000000	0.308895
1891.000000	0.306154
1892.000000	0.303043
1893.000000	0.299972
1894.000000	0.297227
1895.000000	0.294583
1896.000000	0.292318
1897.000000	0.290015
1898.000000	0.287736
1899.000000	0.285631
1900.000000	0.283155
1901.000000	0.281295
1902.000000	0.280118
1903.000000	0.279331
1904.000000	0.278462
1905.000000	0.276941
1906.000000	0.275702
1907.000000	0.274370
1908.000000	0.272745
1909.000000	0.271921
1910.000000	0.271879
1911.000000	0.271249
1912.000000	0.271191
1913.000000	0.271400
1914.000000	0.272370
1915.000000	0.274192
1916.000000	0.275118
1917.000000	0.276038
1918.000000	0.277216
1919.000000	0.277603
1920.000000	0.277107
1921.000000	0.277852
1922.000000	0.278786
1923.000000	0.279994
1924.000000	0.281005
1925.000000	0.281751
1926.000000	0.282120
1927.000000	0.281686
1928.000000	0.281891
1929.000000	0.282574
1930.000000	0.283724
1931.000000	0.283788
1932.000000	0.284001
1933.000000	0.284510
1934.000000	0.284607
1935.000000	0.285442
1936.000000	0.286481
1937.000000	0.287409
1938.000000	0.287993
1939.000000	0.288366
1940.000000	0.288444
1941.000000	0.288813
1942.000000	0.289105
1943.000000	0.289392
1944.000000	0.290031
1945.000000	0.290850
1946.000000	0.291275
1947.000000	0.291400
1948.000000	0.291622
1949.000000	0.291942
1950.000000	0.291969
1951.000000	0.291915
1952.000000	0.291936
1953.000000	0.291879
1954.000000	0.291822
1955.000000	0.292122
1956.000000	0.292640
1957.000000	0.293505
1958.000000	0.294265
1959.000000	0.294952
1960.000000	0.295573
1961.000000	0.296011
1962.000000	0.296227
1963.000000	0.296102
1964.000000	0.296071
1965.000000	0.296617
1966.000000	0.296939
1967.000000	0.297401
1968.000000	0.297734
1969.000000	0.297631
1970.000000	0.297373
1971.000000	0.296942
1972.000000	0.297498
1973.000000	0.297764
1974.000000	0.298072
1975.000000	0.298665
1976.000000	0.299869
1977.000000	0.300271
1978.000000	0.300207
1979.000000	0.300429
1980.000000	0.300439
1981.000000	0.300217
1982.000000	0.300898
1983.000000	0.302184
1984.000000	0.302619
1985.000000	0.302745
1986.000000	0.303029
1987.000000	0.303180
1988.000000	0.302945
1989.000000	0.303184
1990.000000	0.303392
1991.000000	0.303519
1992.000000	0.303798
1993.000000	0.304140
1994.000000	0.305087
1995.000000	0.306306
1996.000000	0.306911
1997.000000	0.307425
1998.000000	0.307958
1999.000000	0.308431
2000.000000	0.308529
2001.000000	0.308948
2002.000000	0.309222
2003.000000	0.308928
2004.000000	0.308950
2005.000000	0.309099
2006.000000	0.309919
2007.000000	0.311268
2008.000000	0.311968
2009.000000	0.312501
2010.000000	0.312863
2011.000000	0.312400
2012.000000	0.312472
2013.000000	0.312668
2014.000000	0.312848
2015.000000	0.313097
2016.000000	0.313496
2017.000000	0.313882
2018.000000	0.314588
2019.000000	0.314909
2020.000000	0.315396
2021.000000	0.315605
2022.000000	0.315077
2023.000000	0.315236
2024.000000	0.315880
2025.000000	0.316175
2026.000000	0.316554
2027.000000	0.316616
2028.000000	0.316220
2029.000000	0.316211
2030.000000	0.316751
2031.000000	0.317424
2032.000000	0.318060
2033.000000	0.318625
2034.000000	0.318806
2035.000000	0.318573
2036.000000	0.318352
2037.000000	0.317841
2038.000000	0.317766
2039.000000	0.317820
2040.000000	0.318183
2041.000000	0.318215
2042.000000	0.318592
2043.000000	0.318909
2044.000000	0.318441
2045.000000	0.318782
2046.000000	0.319610
2047.000000	0.319809
2048.000000	0.319860
2049.000000	0.319988
2050.000000	0.318967
2051.000000	0.318830
2052.000000	0.319103
2053.000000	0.319109
2054.000000	0.319598
2055.000000	0.320330
2056.000000	0.320216
2057.000000	0.320301
2058.000000	0.320380
2059.000000	0.320677
2060.000000	0.320933
2061.000000	0.321309
2062.000000	0.321465
2063.000000	0.321707
2064.000000	0.321523
2065.000000	0.321444
2066.000000	0.321268
2067.000000	0.321038
2068.000000	0.320814
2069.000000	0.320983
2070.000000	0.321295
2071.000000	0.321377
2072.000000	0.321444
2073.000000	0.321405
2074.000000	0.321310
2075.000000	0.321450
2076.000000	0.321934
2077.000000	0.322198
2078.000000	0.322424
2079.000000	0.322518
2080.000000	0.322750
2081.000000	0.322518
2082.000000	0.321760
2083.000000	0.321612
2084.000000	0.321075
2085.000000	0.320939
2086.000000	0.321040
2087.000000	0.321012
2088.000000	0.321328
2089.000000	0.321472
2090.000000	0.321669
2091.000000	0.322249
2092.000000	0.322452
2093.000000	0.322537
2094.000000	0.322404
2095.000000	0.322022
2096.000000	0.321871
2097.000000	0.321854
2098.000000	0.321015
2099.000000	0.320085
2100.000000	0.319805
2101.000000	0.319677
2102.000000	0.320372
2103.000000	0.321892
2104.000000	0.322533
2105.000000	0.322802
2106.000000	0.322251
2107.000000	0.322268
2108.000000	0.321957
2109.000000	0.322285
2110.000000	0.323030
2111.000000	0.323304
2112.000000	0.323796
2113.000000	0.323490
2114.000000	0.322826
2115.000000	0.322765
2116.000000	0.322751
2117.000000	0.322662
2118.000000	0.321846
2119.000000	0.321414
2120.000000	0.321366
2121.000000	0.321065
2122.000000	0.321378
2123.000000	0.322781
2124.000000	0.323422
2125.000000	0.324040
2126.000000	0.324274
2127.000000	0.324152
2128.000000	0.324374
2129.000000	0.324265
2130.000000	0.324302
2131.000000	0.325129
2132.000000	0.325415
2133.000000	0.325168
2134.000000	0.324776
2135.000000	0.323875
2136.000000	0.323372
2137.000000	0.323355
2138.000000	0.324015
2139.000000	0.324548
2140.000000	0.325956
2141.000000	0.326027
2142.000000	0.325212
2143.000000	0.324598
2144.000000	0.323193
2145.000000	0.322563
2146.000000	0.322437
2147.000000	0.323423
2148.000000	0.322679
2149.000000	0.321902
2150.000000	0.321616
2151.000000	0.320544
2152.000000	0.319762
2153.000000	0.320560
2154.000000	0.320855
2155.000000	0.320889
2156.000000	0.321319
2157.000000	0.322727
2158.000000	0.322945
2159.000000	0.322417
2160.000000	0.322539
2161.000000	0.322607
2162.000000	0.322720
2163.000000	0.323167
2164.000000	0.323291
2165.000000	0.323257
2166.000000	0.322638
2167.000000	0.322320
2168.000000	0.321766
2169.000000	0.321977
2170.000000	0.321367
2171.000000	0.320819
2172.000000	0.320304
2173.000000	0.320192
2174.000000	0.319599
2175.000000	0.320188
2176.000000	0.322501
2177.000000	0.322868
2178.000000	0.322926
2179.000000	0.322679
2180.000000	0.320023
2181.000000	0.319931
2182.000000	0.320590
2183.000000	0.321851
2184.000000	0.322562
2185.000000	0.323603
2186.000000	0.322393
2187.000000	0.320911
2188.000000	0.320528
2189.000000	0.318245
2190.000000	0.317591
2191.000000	0.317966
2192.000000	0.318493
2193.000000	0.320557
2194.000000	0.321480
2195.000000	0.323028
2196.000000	0.322737
2197.000000	0.320404
2198.000000	0.318454
2199.000000	0.314851
2200.000000	0.312786
2201.000000	0.311259
2202.000000	0.310129
2203.000000	0.309576
2204.000000	0.309481
2205.000000	0.310011
2206.000000	0.312437
2207.000000	0.315058
2208.000000	0.317420
2209.000000	0.317918
2210.000000	0.317176
2211.000000	0.316290
2212.000000	0.315671
2213.000000	0.315130
2214.000000	0.314686
2215.000000	0.314691
2216.000000	0.314500
2217.000000	0.315335
2218.000000	0.316675
2219.000000	0.318876
2220.000000	0.322983
2221.000000	0.324636
2222.000000	0.327206
2223.000000	0.327548
2224.000000	0.324460
2225.000000	0.323583
2226.000000	0.322425
2227.000000	0.318409
2228.000000	0.316678
2229.000000	0.314675
2230.000000	0.315271
2231.000000	0.316762
2232.000000	0.316373
2233.000000	0.317254
2234.000000	0.318362
2235.000000	0.319419
2236.000000	0.320741
2237.000000	0.324720
2238.000000	0.325927
2239.000000	0.325329
2240.000000	0.324508
2241.000000	0.323169
2242.000000	0.320454
2243.000000	0.314830
2244.000000	0.312500
2245.000000	0.310251
2246.000000	0.309469
2247.000000	0.312026
2248.000000	0.313140
2249.000000	0.314312
2250.000000	0.315462
2251.000000	0.314397
2252.000000	0.315073
2253.000000	0.314461
2254.000000	0.313487
2255.000000	0.316102
2256.000000	0.315928
2257.000000	0.315079
2258.000000	0.314957
2259.000000	0.312877
2260.000000	0.311578
2261.000000	0.309801
2262.000000	0.307992
2263.000000	0.306861
2264.000000	0.304420
2265.000000	0.304356
2266.000000	0.307768
2267.000000	0.307751
2268.000000	0.307624
2269.000000	0.306808
2270.000000	0.303625
2271.000000	0.300714
2272.000000	0.297039
2273.000000	0.295507
2274.000000	0.293780
2275.000000	0.293426
2276.000000	0.296452
2277.000000	0.297269
2278.000000	0.294678
2279.000000	0.292396
2280.000000	0.287278
2281.000000	0.282237
2282.000000	0.280943
2283.000000	0.280521
2284.000000	0.282391
2285.000000	0.284501
2286.000000	0.285784
2287.000000	0.287435
2288.000000	0.287439
2289.000000	0.286871
2290.000000	0.287301
2291.000000	0.288235
2292.000000	0.288077
2293.000000	0.287070
2294.000000	0.287657
2295.000000	0.287338
2296.000000	0.288285
2297.000000	0.291949
2298.000000	0.294619
2299.000000	0.297764
2300.000000	0.299199
2301.000000	0.299853
2302.000000	0.300464
2303.000000	0.298727
2304.000000	0.299046
2305.000000	0.301536
2306.000000	0.301855
2307.000000	0.301861
2308.000000	0.301423
2309.000000	0.299644
2310.000000	0.298399
2311.000000	0.297933
2312.000000	0.298728
2313.000000	0.298853
2314.000000	0.298518
2315.000000	0.297638
2316.000000	0.295663
2317.000000	0.295079
2318.000000	0.295605
2319.000000	0.296556
2320.000000	0.297868
2321.000000	0.298703
2322.000000	0.297794
2323.000000	0.298136
2324.000000	0.299928
2325.000000	0.300096
2326.000000	0.299877
2327.000000	0.299042
2328.000000	0.296961
2329.000000	0.297472
2330.000000	0.300610
2331.000000	0.302352
2332.000000	0.303428
2333.000000	0.303603
2334.000000	0.302334
2335.000000	0.301883
2336.000000	0.302046
2337.000000	0.301638
2338.000000	0.299652
2339.000000	0.298786
2340.000000	0.298536
2341.000000	0.298678
2342.000000	0.300423
2343.000000	0.300297
2344.000000	0.297774
2345.000000	0.297131
2346.000000	0.296924
2347.000000	0.297671
2348.000000	0.299821
2349.000000	0.304332
2350.000000	0.304473
2351.000000	0.300675
2352.000000	0.300492
2353.000000	0.300369
2354.000000	0.298171
2355.000000	0.302601
2356.000000	0.304998
2357.000000	0.301573
2358.000000	0.303289
2359.000000	0.300804
2360.000000	0.297851
2361.000000	0.299550
2362.000000	0.295481
2363.000000	0.293509
2364.000000	0.292256
2365.000000	0.289455
2366.000000	0.290648
2367.000000	0.291328
2368.000000	0.291551
2369.000000	0.289375
2370.000000	0.285655
2371.000000	0.285340
2372.000000	0.285044
2373.000000	0.285497
2374.000000	0.284989
2375.000000	0.281602
2376.000000	0.282038
2377.000000	0.281614
2378.000000	0.281263
2379.000000	0.287670
2380.000000	0.288877
2381.000000	0.288634
2382.000000	0.292186
2383.000000	0.292734
2384.000000	0.293717
2385.000000	0.294228
2386.000000	0.292302
2387.000000	0.285652
2388.000000	0.278369
2389.000000	0.276410
2390.000000	0.273255
2391.000000	0.271405
2392.000000	0.275143
2393.000000	0.275414
2394.000000	0.277090
2395.000000	0.283776
2396.000000	0.285528
2397.000000	0.285160
2398.000000	0.280302
2399.000000	0.275391
2400.000000	0.276686
2401.000000	0.274160
2402.000000	0.279581
2403.000000	0.287101
2404.000000	0.281806
2405.000000	0.282656
2406.000000	0.287666
2407.000000	0.286723
2408.000000	0.290147
2409.000000	0.287558
2410.000000	0.275090
2411.000000	0.267388
2412.000000	0.256833
2413.000000	0.248413
2414.000000	0.243251
2415.000000	0.235133
2416.000000	0.236000
2417.000000	0.244515
2418.000000	0.255376
2419.000000	0.264358
2420.000000	0.272765
2421.000000	0.273973
2422.000000	0.263549
2423.000000	0.253565
2424.000000	0.242787
2425.000000	0.237071
2426.000000	0.242429
2427.000000	0.246575
2428.000000	0.240425
2429.000000	0.236405
2430.000000	0.237751
2431.000000	0.242050
2432.000000	0.255719
2433.000000	0.275056
2434.000000	0.295659
2435.000000	0.307004
2436.000000	0.317022
2437.000000	0.315048
2438.000000	0.288109
2439.000000	0.267069
2440.000000	0.257937
2441.000000	0.251680
2442.000000	0.246775
2443.000000	0.239365
2444.000000	0.230552
2445.000000	0.223255
2446.000000	0.222774
2447.000000	0.231092
2448.000000	0.237298
2449.000000	0.242133
2450.000000	0.251958
2451.000000	0.253877
2452.000000	0.255983
2453.000000	0.259101
2454.000000	0.260669
2455.000000	0.269213
2456.000000	0.276559
2457.000000	0.271693
2458.000000	0.259979
2459.000000	0.267638
2460.000000	0.265151
2461.000000	0.267705
2462.000000	0.281592
2463.000000	0.256879
2464.000000	0.251192
2465.000000	0.257157
2466.000000	0.250823
2467.000000	0.259413
2468.000000	0.255105
2469.000000	0.224544
2470.000000	0.209345
2471.000000	0.212018
2472.000000	0.210672
2473.000000	0.234515
2474.000000	0.260502
2475.000000	0.275872
2476.000000	0.282535
2477.000000	0.266141
2478.000000	0.262277
2479.000000	0.251381
2480.000000	0.241814
2481.000000	0.250323
2482.000000	0.234197
2483.000000	0.218635
2484.000000	0.229710
2485.000000	0.238891
2486.000000	0.242250
2487.000000	0.241878
2488.000000	0.209361
2489.000000	0.199188
2490.000000	0.229164
2491.000000	0.218405
2492.000000	0.214709
2493.000000	0.192912
2494.000000	0.178394
2495.000000	0.191370
2496.000000	0.182048
2497.000000	0.140730
2498.000000	0.137720
2499.000000	0.159874
2500.000000	0.181262
