# Wavelength	NAu-2-70_HEX-10_FV7-20_000000001.asd.rts.txt
350.000000	0.088469
351.000000	0.088745
352.000000	0.091705
353.000000	0.087443
354.000000	0.076823
355.000000	0.078754
356.000000	0.080736
357.000000	0.080194
358.000000	0.079456
359.000000	0.080485
360.000000	0.082268
361.000000	0.083029
362.000000	0.082600
363.000000	0.081467
364.000000	0.080373
365.000000	0.081761
366.000000	0.081122
367.000000	0.078908
368.000000	0.080106
369.000000	0.080730
370.000000	0.080317
371.000000	0.079573
372.000000	0.080048
373.000000	0.080251
374.000000	0.079487
375.000000	0.079104
376.000000	0.079845
377.000000	0.081275
378.000000	0.081909
379.000000	0.082602
380.000000	0.082489
381.000000	0.080914
382.000000	0.080847
383.000000	0.081561
384.000000	0.082021
385.000000	0.081071
386.000000	0.081463
387.000000	0.083047
388.000000	0.082329
389.000000	0.082227
390.000000	0.082892
391.000000	0.083430
392.000000	0.083213
393.000000	0.083067
394.000000	0.083561
395.000000	0.083827
396.000000	0.084055
397.000000	0.084258
398.000000	0.084198
399.000000	0.084179
400.000000	0.084152
401.000000	0.083932
402.000000	0.084602
403.000000	0.085210
404.000000	0.085020
405.000000	0.085395
406.000000	0.085690
407.000000	0.085657
408.000000	0.085702
409.000000	0.086158
410.000000	0.086653
411.000000	0.086380
412.000000	0.086769
413.000000	0.087201
414.000000	0.086924
415.000000	0.087202
416.000000	0.087608
417.000000	0.087896
418.000000	0.088524
419.000000	0.088918
420.000000	0.089046
421.000000	0.089320
422.000000	0.089669
423.000000	0.089975
424.000000	0.090173
425.000000	0.090653
426.000000	0.091015
427.000000	0.091042
428.000000	0.091395
429.000000	0.091818
430.000000	0.092166
431.000000	0.092415
432.000000	0.092653
433.000000	0.092939
434.000000	0.093343
435.000000	0.093615
436.000000	0.093873
437.000000	0.094231
438.000000	0.094502
439.000000	0.094782
440.000000	0.095130
441.000000	0.095401
442.000000	0.095568
443.000000	0.095721
444.000000	0.096111
445.000000	0.096465
446.000000	0.096794
447.000000	0.097114
448.000000	0.097483
449.000000	0.097900
450.000000	0.098355
451.000000	0.098826
452.000000	0.099268
453.000000	0.099682
454.000000	0.100217
455.000000	0.100577
456.000000	0.100917
457.000000	0.101480
458.000000	0.101938
459.000000	0.102261
460.000000	0.102537
461.000000	0.102991
462.000000	0.103411
463.000000	0.103680
464.000000	0.104084
465.000000	0.104507
466.000000	0.104862
467.000000	0.105113
468.000000	0.105423
469.000000	0.105755
470.000000	0.106094
471.000000	0.106448
472.000000	0.106813
473.000000	0.107186
474.000000	0.107510
475.000000	0.107876
476.000000	0.108297
477.000000	0.108529
478.000000	0.108822
479.000000	0.109230
480.000000	0.109583
481.000000	0.109930
482.000000	0.110292
483.000000	0.110603
484.000000	0.110978
485.000000	0.111273
486.000000	0.111501
487.000000	0.111713
488.000000	0.111948
489.000000	0.112207
490.000000	0.112453
491.000000	0.112608
492.000000	0.112729
493.000000	0.112850
494.000000	0.113005
495.000000	0.113173
496.000000	0.113297
497.000000	0.113304
498.000000	0.113341
499.000000	0.113462
500.000000	0.113538
501.000000	0.113625
502.000000	0.113758
503.000000	0.113924
504.000000	0.114111
505.000000	0.114310
506.000000	0.114516
507.000000	0.114719
508.000000	0.114994
509.000000	0.115341
510.000000	0.115668
511.000000	0.115975
512.000000	0.116307
513.000000	0.116726
514.000000	0.117149
515.000000	0.117528
516.000000	0.117828
517.000000	0.118264
518.000000	0.118698
519.000000	0.119015
520.000000	0.119522
521.000000	0.120023
522.000000	0.120475
523.000000	0.121079
524.000000	0.121713
525.000000	0.122395
526.000000	0.123224
527.000000	0.124106
528.000000	0.125055
529.000000	0.126128
530.000000	0.127293
531.000000	0.128536
532.000000	0.129815
533.000000	0.131187
534.000000	0.132601
535.000000	0.134029
536.000000	0.135480
537.000000	0.136934
538.000000	0.138351
539.000000	0.139682
540.000000	0.140992
541.000000	0.142281
542.000000	0.143544
543.000000	0.144709
544.000000	0.145864
545.000000	0.147019
546.000000	0.148169
547.000000	0.149357
548.000000	0.150609
549.000000	0.151883
550.000000	0.153217
551.000000	0.154648
552.000000	0.156171
553.000000	0.157762
554.000000	0.159438
555.000000	0.161222
556.000000	0.163129
557.000000	0.165076
558.000000	0.167093
559.000000	0.169133
560.000000	0.171147
561.000000	0.173191
562.000000	0.175281
563.000000	0.177306
564.000000	0.179270
565.000000	0.181133
566.000000	0.182949
567.000000	0.184688
568.000000	0.186305
569.000000	0.187762
570.000000	0.189098
571.000000	0.190332
572.000000	0.191489
573.000000	0.192490
574.000000	0.193360
575.000000	0.194192
576.000000	0.194924
577.000000	0.195523
578.000000	0.196021
579.000000	0.196439
580.000000	0.196788
581.000000	0.197065
582.000000	0.197243
583.000000	0.197361
584.000000	0.197422
585.000000	0.197412
586.000000	0.197293
587.000000	0.197095
588.000000	0.196855
589.000000	0.196562
590.000000	0.196211
591.000000	0.195793
592.000000	0.195275
593.000000	0.194708
594.000000	0.194126
595.000000	0.193551
596.000000	0.192917
597.000000	0.192277
598.000000	0.191654
599.000000	0.190932
600.000000	0.190209
601.000000	0.189522
602.000000	0.188822
603.000000	0.188092
604.000000	0.187341
605.000000	0.186600
606.000000	0.185844
607.000000	0.185078
608.000000	0.184324
609.000000	0.183562
610.000000	0.182817
611.000000	0.182116
612.000000	0.181398
613.000000	0.180694
614.000000	0.180038
615.000000	0.179358
616.000000	0.178735
617.000000	0.178146
618.000000	0.177523
619.000000	0.176934
620.000000	0.176359
621.000000	0.175791
622.000000	0.175278
623.000000	0.174801
624.000000	0.174330
625.000000	0.173852
626.000000	0.173400
627.000000	0.172989
628.000000	0.172589
629.000000	0.172260
630.000000	0.171914
631.000000	0.171546
632.000000	0.171168
633.000000	0.170811
634.000000	0.170494
635.000000	0.170225
636.000000	0.169992
637.000000	0.169779
638.000000	0.169613
639.000000	0.169454
640.000000	0.169323
641.000000	0.169200
642.000000	0.169135
643.000000	0.169120
644.000000	0.169133
645.000000	0.169179
646.000000	0.169236
647.000000	0.169286
648.000000	0.169391
649.000000	0.169548
650.000000	0.169752
651.000000	0.170038
652.000000	0.170277
653.000000	0.170513
654.000000	0.170822
655.000000	0.171170
656.000000	0.171565
657.000000	0.171981
658.000000	0.172409
659.000000	0.172844
660.000000	0.173288
661.000000	0.173800
662.000000	0.174318
663.000000	0.174880
664.000000	0.175515
665.000000	0.176151
666.000000	0.176839
667.000000	0.177616
668.000000	0.178403
669.000000	0.179201
670.000000	0.180031
671.000000	0.180941
672.000000	0.181875
673.000000	0.182832
674.000000	0.183864
675.000000	0.184891
676.000000	0.185940
677.000000	0.187075
678.000000	0.188234
679.000000	0.189434
680.000000	0.190686
681.000000	0.191925
682.000000	0.193245
683.000000	0.194615
684.000000	0.196026
685.000000	0.197464
686.000000	0.198945
687.000000	0.200458
688.000000	0.202001
689.000000	0.203585
690.000000	0.205240
691.000000	0.206923
692.000000	0.208641
693.000000	0.210438
694.000000	0.212277
695.000000	0.214170
696.000000	0.216091
697.000000	0.218007
698.000000	0.219954
699.000000	0.221971
700.000000	0.224073
701.000000	0.226167
702.000000	0.228305
703.000000	0.230489
704.000000	0.232693
705.000000	0.234966
706.000000	0.237270
707.000000	0.239607
708.000000	0.241994
709.000000	0.244412
710.000000	0.246852
711.000000	0.249295
712.000000	0.251779
713.000000	0.254316
714.000000	0.256834
715.000000	0.259356
716.000000	0.261903
717.000000	0.264486
718.000000	0.267125
719.000000	0.269760
720.000000	0.272366
721.000000	0.275035
722.000000	0.277693
723.000000	0.280367
724.000000	0.283058
725.000000	0.285750
726.000000	0.288484
727.000000	0.291171
728.000000	0.293866
729.000000	0.296574
730.000000	0.299238
731.000000	0.301897
732.000000	0.304510
733.000000	0.307105
734.000000	0.309686
735.000000	0.312225
736.000000	0.314821
737.000000	0.317358
738.000000	0.319849
739.000000	0.322347
740.000000	0.324723
741.000000	0.327107
742.000000	0.329486
743.000000	0.331814
744.000000	0.334094
745.000000	0.336296
746.000000	0.338460
747.000000	0.340549
748.000000	0.342635
749.000000	0.344722
750.000000	0.346760
751.000000	0.348713
752.000000	0.350636
753.000000	0.352547
754.000000	0.354410
755.000000	0.356206
756.000000	0.357964
757.000000	0.359665
758.000000	0.361295
759.000000	0.362887
760.000000	0.364391
761.000000	0.365921
762.000000	0.367373
763.000000	0.368708
764.000000	0.370020
765.000000	0.371272
766.000000	0.372476
767.000000	0.373645
768.000000	0.374796
769.000000	0.375901
770.000000	0.376960
771.000000	0.378001
772.000000	0.379035
773.000000	0.379988
774.000000	0.380917
775.000000	0.381760
776.000000	0.382558
777.000000	0.383324
778.000000	0.384052
779.000000	0.384765
780.000000	0.385454
781.000000	0.386050
782.000000	0.386648
783.000000	0.387325
784.000000	0.387906
785.000000	0.388378
786.000000	0.388759
787.000000	0.389081
788.000000	0.389406
789.000000	0.389728
790.000000	0.390038
791.000000	0.390379
792.000000	0.390720
793.000000	0.391048
794.000000	0.391355
795.000000	0.391606
796.000000	0.391790
797.000000	0.391909
798.000000	0.392001
799.000000	0.392105
800.000000	0.392226
801.000000	0.392349
802.000000	0.392440
803.000000	0.392535
804.000000	0.392663
805.000000	0.392647
806.000000	0.392612
807.000000	0.392651
808.000000	0.392644
809.000000	0.392640
810.000000	0.392657
811.000000	0.392679
812.000000	0.392683
813.000000	0.392644
814.000000	0.392561
815.000000	0.392488
816.000000	0.392372
817.000000	0.392259
818.000000	0.392114
819.000000	0.392088
820.000000	0.392092
821.000000	0.392010
822.000000	0.391908
823.000000	0.391780
824.000000	0.391549
825.000000	0.391287
826.000000	0.391065
827.000000	0.390845
828.000000	0.390669
829.000000	0.390590
830.000000	0.390411
831.000000	0.390189
832.000000	0.389903
833.000000	0.389602
834.000000	0.389287
835.000000	0.388999
836.000000	0.388735
837.000000	0.388510
838.000000	0.388312
839.000000	0.388054
840.000000	0.387788
841.000000	0.387555
842.000000	0.387322
843.000000	0.387063
844.000000	0.386771
845.000000	0.386436
846.000000	0.386138
847.000000	0.385873
848.000000	0.385583
849.000000	0.385264
850.000000	0.384962
851.000000	0.384686
852.000000	0.384472
853.000000	0.384269
854.000000	0.383922
855.000000	0.383587
856.000000	0.383264
857.000000	0.382949
858.000000	0.382703
859.000000	0.382435
860.000000	0.382117
861.000000	0.381711
862.000000	0.381325
863.000000	0.381000
864.000000	0.380669
865.000000	0.380353
866.000000	0.380071
867.000000	0.379712
868.000000	0.379408
869.000000	0.379093
870.000000	0.378765
871.000000	0.378382
872.000000	0.378010
873.000000	0.377604
874.000000	0.377139
875.000000	0.376721
876.000000	0.376356
877.000000	0.375928
878.000000	0.375480
879.000000	0.375170
880.000000	0.374875
881.000000	0.374538
882.000000	0.374125
883.000000	0.373709
884.000000	0.373317
885.000000	0.372905
886.000000	0.372512
887.000000	0.372176
888.000000	0.371823
889.000000	0.371488
890.000000	0.371082
891.000000	0.370744
892.000000	0.370372
893.000000	0.370031
894.000000	0.369836
895.000000	0.369493
896.000000	0.369080
897.000000	0.368672
898.000000	0.368330
899.000000	0.368000
900.000000	0.367656
901.000000	0.367286
902.000000	0.367069
903.000000	0.366760
904.000000	0.366410
905.000000	0.366021
906.000000	0.365727
907.000000	0.365421
908.000000	0.365105
909.000000	0.364693
910.000000	0.364338
911.000000	0.364012
912.000000	0.363672
913.000000	0.363285
914.000000	0.362941
915.000000	0.362694
916.000000	0.362358
917.000000	0.361906
918.000000	0.361489
919.000000	0.361185
920.000000	0.360918
921.000000	0.360631
922.000000	0.360298
923.000000	0.359897
924.000000	0.359568
925.000000	0.359236
926.000000	0.358894
927.000000	0.358543
928.000000	0.358293
929.000000	0.358066
930.000000	0.357734
931.000000	0.357294
932.000000	0.356860
933.000000	0.356524
934.000000	0.356222
935.000000	0.355925
936.000000	0.355698
937.000000	0.355467
938.000000	0.355183
939.000000	0.354969
940.000000	0.354749
941.000000	0.354517
942.000000	0.354173
943.000000	0.353897
944.000000	0.353658
945.000000	0.353506
946.000000	0.353246
947.000000	0.352956
948.000000	0.352691
949.000000	0.352351
950.000000	0.352032
951.000000	0.351735
952.000000	0.351503
953.000000	0.351270
954.000000	0.351046
955.000000	0.350768
956.000000	0.350484
957.000000	0.350236
958.000000	0.349959
959.000000	0.349688
960.000000	0.349313
961.000000	0.349099
962.000000	0.349037
963.000000	0.348853
964.000000	0.348671
965.000000	0.348594
966.000000	0.348496
967.000000	0.348221
968.000000	0.347924
969.000000	0.347654
970.000000	0.347543
971.000000	0.347508
972.000000	0.347469
973.000000	0.347297
974.000000	0.347040
975.000000	0.346712
976.000000	0.346453
977.000000	0.346347
978.000000	0.346305
979.000000	0.346361
980.000000	0.346199
981.000000	0.345984
982.000000	0.345910
983.000000	0.345745
984.000000	0.345570
985.000000	0.345619
986.000000	0.345623
987.000000	0.345553
988.000000	0.345350
989.000000	0.345271
990.000000	0.345159
991.000000	0.345001
992.000000	0.344920
993.000000	0.345144
994.000000	0.345126
995.000000	0.345065
996.000000	0.345203
997.000000	0.345078
998.000000	0.344993
999.000000	0.345129
1000.000000	0.345058
1001.000000	0.345201
1002.000000	0.345104
1003.000000	0.344875
1004.000000	0.344747
1005.000000	0.344792
1006.000000	0.344691
1007.000000	0.344581
1008.000000	0.344465
1009.000000	0.344494
1010.000000	0.344503
1011.000000	0.344831
1012.000000	0.345154
1013.000000	0.344833
1014.000000	0.344892
1015.000000	0.344905
1016.000000	0.344662
1017.000000	0.344708
1018.000000	0.344726
1019.000000	0.344852
1020.000000	0.345350
1021.000000	0.345193
1022.000000	0.344999
1023.000000	0.345081
1024.000000	0.344804
1025.000000	0.344682
1026.000000	0.344944
1027.000000	0.345311
1028.000000	0.345629
1029.000000	0.345828
1030.000000	0.345865
1031.000000	0.345837
1032.000000	0.346013
1033.000000	0.346258
1034.000000	0.346488
1035.000000	0.346948
1036.000000	0.347180
1037.000000	0.347241
1038.000000	0.347234
1039.000000	0.347192
1040.000000	0.347373
1041.000000	0.347402
1042.000000	0.347480
1043.000000	0.347822
1044.000000	0.348032
1045.000000	0.348184
1046.000000	0.348450
1047.000000	0.348746
1048.000000	0.349053
1049.000000	0.349197
1050.000000	0.349334
1051.000000	0.349473
1052.000000	0.349314
1053.000000	0.349373
1054.000000	0.349839
1055.000000	0.350189
1056.000000	0.350592
1057.000000	0.351039
1058.000000	0.351287
1059.000000	0.351371
1060.000000	0.351508
1061.000000	0.351700
1062.000000	0.352007
1063.000000	0.352468
1064.000000	0.352798
1065.000000	0.353105
1066.000000	0.353345
1067.000000	0.353413
1068.000000	0.353580
1069.000000	0.353685
1070.000000	0.353877
1071.000000	0.354296
1072.000000	0.354500
1073.000000	0.354547
1074.000000	0.354867
1075.000000	0.355259
1076.000000	0.355564
1077.000000	0.355976
1078.000000	0.356367
1079.000000	0.356662
1080.000000	0.356805
1081.000000	0.357032
1082.000000	0.357445
1083.000000	0.357691
1084.000000	0.357782
1085.000000	0.358109
1086.000000	0.358505
1087.000000	0.358835
1088.000000	0.359243
1089.000000	0.359507
1090.000000	0.359582
1091.000000	0.359587
1092.000000	0.359777
1093.000000	0.360129
1094.000000	0.360375
1095.000000	0.360553
1096.000000	0.360921
1097.000000	0.361400
1098.000000	0.361718
1099.000000	0.362037
1100.000000	0.362401
1101.000000	0.362554
1102.000000	0.362802
1103.000000	0.363134
1104.000000	0.363517
1105.000000	0.363953
1106.000000	0.364285
1107.000000	0.364532
1108.000000	0.364830
1109.000000	0.365221
1110.000000	0.365444
1111.000000	0.365679
1112.000000	0.365979
1113.000000	0.366262
1114.000000	0.366453
1115.000000	0.366677
1116.000000	0.366970
1117.000000	0.367235
1118.000000	0.367374
1119.000000	0.367597
1120.000000	0.368004
1121.000000	0.368220
1122.000000	0.368443
1123.000000	0.368847
1124.000000	0.368907
1125.000000	0.369137
1126.000000	0.369493
1127.000000	0.369687
1128.000000	0.369826
1129.000000	0.369946
1130.000000	0.370154
1131.000000	0.370334
1132.000000	0.370495
1133.000000	0.370809
1134.000000	0.371034
1135.000000	0.371115
1136.000000	0.371212
1137.000000	0.371328
1138.000000	0.371364
1139.000000	0.371346
1140.000000	0.371529
1141.000000	0.371771
1142.000000	0.371954
1143.000000	0.372151
1144.000000	0.372416
1145.000000	0.372442
1146.000000	0.372398
1147.000000	0.372455
1148.000000	0.372404
1149.000000	0.372486
1150.000000	0.372682
1151.000000	0.372834
1152.000000	0.372949
1153.000000	0.373103
1154.000000	0.373190
1155.000000	0.373322
1156.000000	0.373521
1157.000000	0.373688
1158.000000	0.373769
1159.000000	0.373924
1160.000000	0.374072
1161.000000	0.374247
1162.000000	0.374540
1163.000000	0.374978
1164.000000	0.375221
1165.000000	0.375439
1166.000000	0.375672
1167.000000	0.375782
1168.000000	0.375938
1169.000000	0.376168
1170.000000	0.376386
1171.000000	0.376662
1172.000000	0.376917
1173.000000	0.377134
1174.000000	0.377321
1175.000000	0.377447
1176.000000	0.377545
1177.000000	0.377716
1178.000000	0.377858
1179.000000	0.377968
1180.000000	0.378008
1181.000000	0.378086
1182.000000	0.378153
1183.000000	0.378341
1184.000000	0.378556
1185.000000	0.378726
1186.000000	0.378940
1187.000000	0.379118
1188.000000	0.379221
1189.000000	0.379368
1190.000000	0.379637
1191.000000	0.379821
1192.000000	0.380094
1193.000000	0.380400
1194.000000	0.380528
1195.000000	0.380732
1196.000000	0.380914
1197.000000	0.381098
1198.000000	0.381357
1199.000000	0.381552
1200.000000	0.381683
1201.000000	0.381806
1202.000000	0.381971
1203.000000	0.382179
1204.000000	0.382397
1205.000000	0.382631
1206.000000	0.382747
1207.000000	0.382864
1208.000000	0.382991
1209.000000	0.383156
1210.000000	0.383303
1211.000000	0.383480
1212.000000	0.383601
1213.000000	0.383705
1214.000000	0.383873
1215.000000	0.384042
1216.000000	0.384205
1217.000000	0.384355
1218.000000	0.384484
1219.000000	0.384601
1220.000000	0.384804
1221.000000	0.385008
1222.000000	0.385201
1223.000000	0.385411
1224.000000	0.385598
1225.000000	0.385734
1226.000000	0.385927
1227.000000	0.386076
1228.000000	0.386251
1229.000000	0.386372
1230.000000	0.386421
1231.000000	0.386490
1232.000000	0.386694
1233.000000	0.386967
1234.000000	0.387279
1235.000000	0.387506
1236.000000	0.387632
1237.000000	0.387820
1238.000000	0.387899
1239.000000	0.388035
1240.000000	0.388230
1241.000000	0.388411
1242.000000	0.388527
1243.000000	0.388708
1244.000000	0.388921
1245.000000	0.389151
1246.000000	0.389347
1247.000000	0.389636
1248.000000	0.389869
1249.000000	0.390026
1250.000000	0.390245
1251.000000	0.390419
1252.000000	0.390571
1253.000000	0.390773
1254.000000	0.390914
1255.000000	0.390995
1256.000000	0.391089
1257.000000	0.391143
1258.000000	0.391306
1259.000000	0.391419
1260.000000	0.391628
1261.000000	0.391872
1262.000000	0.392106
1263.000000	0.392394
1264.000000	0.392632
1265.000000	0.392937
1266.000000	0.393206
1267.000000	0.393391
1268.000000	0.393595
1269.000000	0.393671
1270.000000	0.393803
1271.000000	0.393992
1272.000000	0.394205
1273.000000	0.394536
1274.000000	0.394796
1275.000000	0.394949
1276.000000	0.395071
1277.000000	0.395252
1278.000000	0.395224
1279.000000	0.395286
1280.000000	0.395340
1281.000000	0.395359
1282.000000	0.395422
1283.000000	0.395582
1284.000000	0.395709
1285.000000	0.395823
1286.000000	0.395921
1287.000000	0.395999
1288.000000	0.396185
1289.000000	0.396324
1290.000000	0.396379
1291.000000	0.396449
1292.000000	0.396504
1293.000000	0.396582
1294.000000	0.396706
1295.000000	0.396914
1296.000000	0.397043
1297.000000	0.397114
1298.000000	0.397295
1299.000000	0.397477
1300.000000	0.397663
1301.000000	0.397824
1302.000000	0.397914
1303.000000	0.398080
1304.000000	0.398156
1305.000000	0.398323
1306.000000	0.398404
1307.000000	0.398450
1308.000000	0.398560
1309.000000	0.398671
1310.000000	0.398745
1311.000000	0.398871
1312.000000	0.398914
1313.000000	0.398921
1314.000000	0.398899
1315.000000	0.398849
1316.000000	0.398952
1317.000000	0.399058
1318.000000	0.399104
1319.000000	0.399099
1320.000000	0.399067
1321.000000	0.398970
1322.000000	0.398894
1323.000000	0.398942
1324.000000	0.398997
1325.000000	0.398969
1326.000000	0.398945
1327.000000	0.398932
1328.000000	0.399008
1329.000000	0.399002
1330.000000	0.399039
1331.000000	0.399085
1332.000000	0.399183
1333.000000	0.399185
1334.000000	0.399251
1335.000000	0.399334
1336.000000	0.399318
1337.000000	0.399343
1338.000000	0.399374
1339.000000	0.399367
1340.000000	0.399304
1341.000000	0.399299
1342.000000	0.399274
1343.000000	0.399179
1344.000000	0.399098
1345.000000	0.399000
1346.000000	0.399003
1347.000000	0.398948
1348.000000	0.398937
1349.000000	0.398869
1350.000000	0.398790
1351.000000	0.398708
1352.000000	0.398628
1353.000000	0.398574
1354.000000	0.398555
1355.000000	0.398488
1356.000000	0.398495
1357.000000	0.398419
1358.000000	0.398317
1359.000000	0.398235
1360.000000	0.398165
1361.000000	0.398177
1362.000000	0.398095
1363.000000	0.397941
1364.000000	0.397853
1365.000000	0.397706
1366.000000	0.397580
1367.000000	0.397486
1368.000000	0.397377
1369.000000	0.397337
1370.000000	0.397101
1371.000000	0.396795
1372.000000	0.396486
1373.000000	0.396101
1374.000000	0.395773
1375.000000	0.395456
1376.000000	0.395174
1377.000000	0.394804
1378.000000	0.394281
1379.000000	0.393603
1380.000000	0.392892
1381.000000	0.392072
1382.000000	0.391167
1383.000000	0.390301
1384.000000	0.389219
1385.000000	0.388004
1386.000000	0.386758
1387.000000	0.385425
1388.000000	0.384011
1389.000000	0.382496
1390.000000	0.380915
1391.000000	0.379148
1392.000000	0.377237
1393.000000	0.375193
1394.000000	0.373016
1395.000000	0.370875
1396.000000	0.368675
1397.000000	0.366347
1398.000000	0.363877
1399.000000	0.361524
1400.000000	0.359015
1401.000000	0.356688
1402.000000	0.354537
1403.000000	0.352431
1404.000000	0.350465
1405.000000	0.348627
1406.000000	0.346885
1407.000000	0.345366
1408.000000	0.343886
1409.000000	0.342580
1410.000000	0.341550
1411.000000	0.340579
1412.000000	0.339734
1413.000000	0.339077
1414.000000	0.338485
1415.000000	0.337995
1416.000000	0.337637
1417.000000	0.337375
1418.000000	0.337093
1419.000000	0.336939
1420.000000	0.336748
1421.000000	0.336607
1422.000000	0.336548
1423.000000	0.336513
1424.000000	0.336406
1425.000000	0.336378
1426.000000	0.336306
1427.000000	0.336280
1428.000000	0.336351
1429.000000	0.336360
1430.000000	0.336402
1431.000000	0.336460
1432.000000	0.336501
1433.000000	0.336551
1434.000000	0.336655
1435.000000	0.336869
1436.000000	0.337074
1437.000000	0.337262
1438.000000	0.337524
1439.000000	0.337804
1440.000000	0.338259
1441.000000	0.338833
1442.000000	0.339563
1443.000000	0.340357
1444.000000	0.341313
1445.000000	0.342393
1446.000000	0.343543
1447.000000	0.344776
1448.000000	0.345997
1449.000000	0.347144
1450.000000	0.348275
1451.000000	0.349360
1452.000000	0.350312
1453.000000	0.351231
1454.000000	0.352033
1455.000000	0.352725
1456.000000	0.353451
1457.000000	0.354137
1458.000000	0.354750
1459.000000	0.355363
1460.000000	0.355930
1461.000000	0.356412
1462.000000	0.356920
1463.000000	0.357355
1464.000000	0.357790
1465.000000	0.358371
1466.000000	0.358910
1467.000000	0.359491
1468.000000	0.360098
1469.000000	0.360690
1470.000000	0.361253
1471.000000	0.361870
1472.000000	0.362491
1473.000000	0.363188
1474.000000	0.363842
1475.000000	0.364508
1476.000000	0.365219
1477.000000	0.365891
1478.000000	0.366544
1479.000000	0.367159
1480.000000	0.367764
1481.000000	0.368354
1482.000000	0.368982
1483.000000	0.369628
1484.000000	0.370296
1485.000000	0.370920
1486.000000	0.371518
1487.000000	0.372109
1488.000000	0.372707
1489.000000	0.373299
1490.000000	0.373729
1491.000000	0.374267
1492.000000	0.374800
1493.000000	0.375296
1494.000000	0.375764
1495.000000	0.376183
1496.000000	0.376515
1497.000000	0.376901
1498.000000	0.377318
1499.000000	0.377710
1500.000000	0.378134
1501.000000	0.378518
1502.000000	0.378842
1503.000000	0.379242
1504.000000	0.379629
1505.000000	0.379987
1506.000000	0.380367
1507.000000	0.380692
1508.000000	0.381060
1509.000000	0.381425
1510.000000	0.381767
1511.000000	0.382175
1512.000000	0.382508
1513.000000	0.382815
1514.000000	0.383187
1515.000000	0.383487
1516.000000	0.383822
1517.000000	0.384131
1518.000000	0.384378
1519.000000	0.384509
1520.000000	0.384654
1521.000000	0.384793
1522.000000	0.384987
1523.000000	0.385306
1524.000000	0.385536
1525.000000	0.385774
1526.000000	0.385961
1527.000000	0.386127
1528.000000	0.386408
1529.000000	0.386633
1530.000000	0.386784
1531.000000	0.387011
1532.000000	0.387211
1533.000000	0.387382
1534.000000	0.387592
1535.000000	0.387819
1536.000000	0.387960
1537.000000	0.388197
1538.000000	0.388470
1539.000000	0.388624
1540.000000	0.388831
1541.000000	0.389092
1542.000000	0.389309
1543.000000	0.389540
1544.000000	0.389745
1545.000000	0.389937
1546.000000	0.390131
1547.000000	0.390317
1548.000000	0.390501
1549.000000	0.390624
1550.000000	0.390680
1551.000000	0.390756
1552.000000	0.390870
1553.000000	0.390998
1554.000000	0.391167
1555.000000	0.391347
1556.000000	0.391514
1557.000000	0.391665
1558.000000	0.391846
1559.000000	0.391997
1560.000000	0.392094
1561.000000	0.392194
1562.000000	0.392304
1563.000000	0.392431
1564.000000	0.392558
1565.000000	0.392717
1566.000000	0.392767
1567.000000	0.392864
1568.000000	0.392974
1569.000000	0.393154
1570.000000	0.393301
1571.000000	0.393442
1572.000000	0.393537
1573.000000	0.393607
1574.000000	0.393708
1575.000000	0.393808
1576.000000	0.393943
1577.000000	0.394102
1578.000000	0.394200
1579.000000	0.394376
1580.000000	0.394482
1581.000000	0.394606
1582.000000	0.394718
1583.000000	0.394798
1584.000000	0.394803
1585.000000	0.394871
1586.000000	0.394941
1587.000000	0.394969
1588.000000	0.394993
1589.000000	0.395031
1590.000000	0.395078
1591.000000	0.395124
1592.000000	0.395211
1593.000000	0.395421
1594.000000	0.395482
1595.000000	0.395545
1596.000000	0.395594
1597.000000	0.395586
1598.000000	0.395623
1599.000000	0.395724
1600.000000	0.395738
1601.000000	0.395823
1602.000000	0.395895
1603.000000	0.395980
1604.000000	0.396048
1605.000000	0.396157
1606.000000	0.396209
1607.000000	0.396271
1608.000000	0.396333
1609.000000	0.396444
1610.000000	0.396508
1611.000000	0.396599
1612.000000	0.396646
1613.000000	0.396782
1614.000000	0.396843
1615.000000	0.396926
1616.000000	0.397029
1617.000000	0.397061
1618.000000	0.397070
1619.000000	0.397025
1620.000000	0.397043
1621.000000	0.397090
1622.000000	0.397219
1623.000000	0.397402
1624.000000	0.397522
1625.000000	0.397457
1626.000000	0.397457
1627.000000	0.397476
1628.000000	0.397576
1629.000000	0.397749
1630.000000	0.397860
1631.000000	0.397893
1632.000000	0.397905
1633.000000	0.397886
1634.000000	0.397908
1635.000000	0.397970
1636.000000	0.398030
1637.000000	0.398143
1638.000000	0.398187
1639.000000	0.398312
1640.000000	0.398350
1641.000000	0.398378
1642.000000	0.398422
1643.000000	0.398481
1644.000000	0.398536
1645.000000	0.398611
1646.000000	0.398599
1647.000000	0.398593
1648.000000	0.398532
1649.000000	0.398496
1650.000000	0.398526
1651.000000	0.398607
1652.000000	0.398711
1653.000000	0.398821
1654.000000	0.398922
1655.000000	0.398944
1656.000000	0.398899
1657.000000	0.398917
1658.000000	0.398916
1659.000000	0.398999
1660.000000	0.399107
1661.000000	0.399128
1662.000000	0.399182
1663.000000	0.399211
1664.000000	0.399276
1665.000000	0.399363
1666.000000	0.399537
1667.000000	0.399673
1668.000000	0.399792
1669.000000	0.399906
1670.000000	0.399924
1671.000000	0.400005
1672.000000	0.400147
1673.000000	0.400264
1674.000000	0.400351
1675.000000	0.400476
1676.000000	0.400545
1677.000000	0.400534
1678.000000	0.400520
1679.000000	0.400525
1680.000000	0.400465
1681.000000	0.400418
1682.000000	0.400444
1683.000000	0.400492
1684.000000	0.400476
1685.000000	0.400502
1686.000000	0.400470
1687.000000	0.400432
1688.000000	0.400419
1689.000000	0.400411
1690.000000	0.400370
1691.000000	0.400395
1692.000000	0.400397
1693.000000	0.400381
1694.000000	0.400300
1695.000000	0.400307
1696.000000	0.400191
1697.000000	0.400093
1698.000000	0.400142
1699.000000	0.400165
1700.000000	0.400178
1701.000000	0.400298
1702.000000	0.400252
1703.000000	0.400161
1704.000000	0.400182
1705.000000	0.400168
1706.000000	0.400135
1707.000000	0.400134
1708.000000	0.400123
1709.000000	0.400044
1710.000000	0.400061
1711.000000	0.400074
1712.000000	0.400111
1713.000000	0.400089
1714.000000	0.400098
1715.000000	0.400090
1716.000000	0.400041
1717.000000	0.400014
1718.000000	0.399969
1719.000000	0.399905
1720.000000	0.399917
1721.000000	0.399860
1722.000000	0.399760
1723.000000	0.399695
1724.000000	0.399620
1725.000000	0.399620
1726.000000	0.399597
1727.000000	0.399536
1728.000000	0.399412
1729.000000	0.399226
1730.000000	0.399114
1731.000000	0.399047
1732.000000	0.399012
1733.000000	0.399043
1734.000000	0.398985
1735.000000	0.398937
1736.000000	0.398854
1737.000000	0.398790
1738.000000	0.398749
1739.000000	0.398703
1740.000000	0.398657
1741.000000	0.398547
1742.000000	0.398404
1743.000000	0.398374
1744.000000	0.398316
1745.000000	0.398285
1746.000000	0.398331
1747.000000	0.398253
1748.000000	0.398139
1749.000000	0.397984
1750.000000	0.397838
1751.000000	0.397871
1752.000000	0.397963
1753.000000	0.397928
1754.000000	0.397904
1755.000000	0.397864
1756.000000	0.397747
1757.000000	0.397540
1758.000000	0.397429
1759.000000	0.397297
1760.000000	0.397163
1761.000000	0.397034
1762.000000	0.396907
1763.000000	0.396780
1764.000000	0.396656
1765.000000	0.396512
1766.000000	0.396410
1767.000000	0.396201
1768.000000	0.396009
1769.000000	0.395983
1770.000000	0.395946
1771.000000	0.395837
1772.000000	0.395747
1773.000000	0.395592
1774.000000	0.395525
1775.000000	0.395563
1776.000000	0.395584
1777.000000	0.395626
1778.000000	0.395613
1779.000000	0.395552
1780.000000	0.395522
1781.000000	0.395435
1782.000000	0.395391
1783.000000	0.395415
1784.000000	0.395443
1785.000000	0.395476
1786.000000	0.395542
1787.000000	0.395586
1788.000000	0.395601
1789.000000	0.395563
1790.000000	0.395553
1791.000000	0.395463
1792.000000	0.395417
1793.000000	0.395388
1794.000000	0.395377
1795.000000	0.395373
1796.000000	0.395375
1797.000000	0.395364
1798.000000	0.395304
1799.000000	0.395260
1800.000000	0.395285
1801.000000	0.395158
1802.000000	0.395379
1803.000000	0.395311
1804.000000	0.395417
1805.000000	0.395497
1806.000000	0.395574
1807.000000	0.395690
1808.000000	0.395758
1809.000000	0.395861
1810.000000	0.395684
1811.000000	0.395720
1812.000000	0.395801
1813.000000	0.395843
1814.000000	0.396169
1815.000000	0.396119
1816.000000	0.395756
1817.000000	0.395439
1818.000000	0.395060
1819.000000	0.394731
1820.000000	0.394651
1821.000000	0.394330
1822.000000	0.394208
1823.000000	0.394083
1824.000000	0.393891
1825.000000	0.393592
1826.000000	0.393574
1827.000000	0.393557
1828.000000	0.393442
1829.000000	0.393443
1830.000000	0.393598
1831.000000	0.393470
1832.000000	0.392978
1833.000000	0.392908
1834.000000	0.392989
1835.000000	0.392923
1836.000000	0.392980
1837.000000	0.392876
1838.000000	0.392454
1839.000000	0.392018
1840.000000	0.391397
1841.000000	0.390924
1842.000000	0.390613
1843.000000	0.390181
1844.000000	0.390018
1845.000000	0.390206
1846.000000	0.390220
1847.000000	0.390101
1848.000000	0.389930
1849.000000	0.389548
1850.000000	0.388861
1851.000000	0.388466
1852.000000	0.387937
1853.000000	0.387552
1854.000000	0.387295
1855.000000	0.386665
1856.000000	0.385694
1857.000000	0.384806
1858.000000	0.383688
1859.000000	0.382643
1860.000000	0.382068
1861.000000	0.381236
1862.000000	0.380299
1863.000000	0.379707
1864.000000	0.378671
1865.000000	0.377278
1866.000000	0.375891
1867.000000	0.374329
1868.000000	0.372625
1869.000000	0.370833
1870.000000	0.368604
1871.000000	0.366575
1872.000000	0.364593
1873.000000	0.362351
1874.000000	0.360041
1875.000000	0.357610
1876.000000	0.354874
1877.000000	0.351460
1878.000000	0.348149
1879.000000	0.344807
1880.000000	0.341084
1881.000000	0.337140
1882.000000	0.332850
1883.000000	0.328298
1884.000000	0.323615
1885.000000	0.318455
1886.000000	0.313193
1887.000000	0.307837
1888.000000	0.301863
1889.000000	0.295690
1890.000000	0.289518
1891.000000	0.283319
1892.000000	0.277194
1893.000000	0.271102
1894.000000	0.265092
1895.000000	0.259044
1896.000000	0.253037
1897.000000	0.247181
1898.000000	0.241438
1899.000000	0.236263
1900.000000	0.231553
1901.000000	0.227241
1902.000000	0.223716
1903.000000	0.220775
1904.000000	0.218467
1905.000000	0.216869
1906.000000	0.215654
1907.000000	0.215066
1908.000000	0.214817
1909.000000	0.214971
1910.000000	0.215531
1911.000000	0.216238
1912.000000	0.217441
1913.000000	0.219076
1914.000000	0.220803
1915.000000	0.222595
1916.000000	0.224315
1917.000000	0.225973
1918.000000	0.227652
1919.000000	0.229218
1920.000000	0.230766
1921.000000	0.232703
1922.000000	0.234481
1923.000000	0.235985
1924.000000	0.237359
1925.000000	0.238529
1926.000000	0.239590
1927.000000	0.240843
1928.000000	0.242048
1929.000000	0.243462
1930.000000	0.244627
1931.000000	0.245657
1932.000000	0.246637
1933.000000	0.247570
1934.000000	0.248362
1935.000000	0.249101
1936.000000	0.249902
1937.000000	0.250480
1938.000000	0.250987
1939.000000	0.251606
1940.000000	0.252293
1941.000000	0.252906
1942.000000	0.253526
1943.000000	0.254129
1944.000000	0.254614
1945.000000	0.254928
1946.000000	0.255249
1947.000000	0.255469
1948.000000	0.255736
1949.000000	0.256155
1950.000000	0.256410
1951.000000	0.256629
1952.000000	0.257023
1953.000000	0.257098
1954.000000	0.257074
1955.000000	0.257327
1956.000000	0.257602
1957.000000	0.258177
1958.000000	0.258791
1959.000000	0.259351
1960.000000	0.259762
1961.000000	0.259978
1962.000000	0.260270
1963.000000	0.260581
1964.000000	0.260952
1965.000000	0.261200
1966.000000	0.261411
1967.000000	0.261665
1968.000000	0.261969
1969.000000	0.262589
1970.000000	0.263573
1971.000000	0.264300
1972.000000	0.264973
1973.000000	0.265568
1974.000000	0.266063
1975.000000	0.266595
1976.000000	0.267187
1977.000000	0.267855
1978.000000	0.268323
1979.000000	0.268972
1980.000000	0.269667
1981.000000	0.270365
1982.000000	0.271258
1983.000000	0.272121
1984.000000	0.272754
1985.000000	0.273291
1986.000000	0.273850
1987.000000	0.274265
1988.000000	0.274867
1989.000000	0.275690
1990.000000	0.276532
1991.000000	0.277310
1992.000000	0.278007
1993.000000	0.278642
1994.000000	0.279571
1995.000000	0.280593
1996.000000	0.281544
1997.000000	0.282453
1998.000000	0.283412
1999.000000	0.284334
2000.000000	0.285213
2001.000000	0.286031
2002.000000	0.286919
2003.000000	0.287948
2004.000000	0.288767
2005.000000	0.289572
2006.000000	0.290667
2007.000000	0.291596
2008.000000	0.292572
2009.000000	0.293644
2010.000000	0.294717
2011.000000	0.295630
2012.000000	0.296552
2013.000000	0.297480
2014.000000	0.298248
2015.000000	0.299029
2016.000000	0.299645
2017.000000	0.300284
2018.000000	0.301153
2019.000000	0.301996
2020.000000	0.302849
2021.000000	0.303703
2022.000000	0.304577
2023.000000	0.305315
2024.000000	0.306012
2025.000000	0.306845
2026.000000	0.307562
2027.000000	0.308182
2028.000000	0.308962
2029.000000	0.309559
2030.000000	0.310171
2031.000000	0.310909
2032.000000	0.311867
2033.000000	0.312933
2034.000000	0.313665
2035.000000	0.314337
2036.000000	0.314960
2037.000000	0.315524
2038.000000	0.316092
2039.000000	0.316773
2040.000000	0.317484
2041.000000	0.317929
2042.000000	0.318466
2043.000000	0.319080
2044.000000	0.319613
2045.000000	0.320230
2046.000000	0.320615
2047.000000	0.321137
2048.000000	0.321603
2049.000000	0.322345
2050.000000	0.322820
2051.000000	0.323442
2052.000000	0.324209
2053.000000	0.324679
2054.000000	0.325326
2055.000000	0.325963
2056.000000	0.326403
2057.000000	0.327054
2058.000000	0.327663
2059.000000	0.328322
2060.000000	0.328634
2061.000000	0.328720
2062.000000	0.328787
2063.000000	0.328465
2064.000000	0.328435
2065.000000	0.328827
2066.000000	0.329075
2067.000000	0.329614
2068.000000	0.330351
2069.000000	0.330952
2070.000000	0.331604
2071.000000	0.331979
2072.000000	0.332435
2073.000000	0.332919
2074.000000	0.333237
2075.000000	0.333584
2076.000000	0.333984
2077.000000	0.334291
2078.000000	0.334437
2079.000000	0.334638
2080.000000	0.334802
2081.000000	0.335171
2082.000000	0.335663
2083.000000	0.336236
2084.000000	0.336737
2085.000000	0.337224
2086.000000	0.337586
2087.000000	0.337965
2088.000000	0.338482
2089.000000	0.338992
2090.000000	0.339318
2091.000000	0.339554
2092.000000	0.339770
2093.000000	0.339797
2094.000000	0.340001
2095.000000	0.340320
2096.000000	0.340662
2097.000000	0.341049
2098.000000	0.341294
2099.000000	0.341484
2100.000000	0.341816
2101.000000	0.342111
2102.000000	0.342534
2103.000000	0.343075
2104.000000	0.343244
2105.000000	0.343508
2106.000000	0.343626
2107.000000	0.343976
2108.000000	0.344444
2109.000000	0.344891
2110.000000	0.345298
2111.000000	0.345605
2112.000000	0.345598
2113.000000	0.345679
2114.000000	0.346043
2115.000000	0.346172
2116.000000	0.346577
2117.000000	0.346560
2118.000000	0.346652
2119.000000	0.347005
2120.000000	0.347377
2121.000000	0.348076
2122.000000	0.348418
2123.000000	0.348603
2124.000000	0.348802
2125.000000	0.348856
2126.000000	0.348902
2127.000000	0.348969
2128.000000	0.349113
2129.000000	0.349137
2130.000000	0.349143
2131.000000	0.349128
2132.000000	0.349208
2133.000000	0.349609
2134.000000	0.350124
2135.000000	0.350436
2136.000000	0.350950
2137.000000	0.351059
2138.000000	0.350676
2139.000000	0.350657
2140.000000	0.350667
2141.000000	0.350585
2142.000000	0.350486
2143.000000	0.350317
2144.000000	0.350186
2145.000000	0.350286
2146.000000	0.350619
2147.000000	0.351363
2148.000000	0.351913
2149.000000	0.352567
2150.000000	0.353298
2151.000000	0.353737
2152.000000	0.353978
2153.000000	0.353810
2154.000000	0.353709
2155.000000	0.353340
2156.000000	0.353230
2157.000000	0.353305
2158.000000	0.353318
2159.000000	0.353469
2160.000000	0.353495
2161.000000	0.353291
2162.000000	0.353353
2163.000000	0.353335
2164.000000	0.353268
2165.000000	0.353224
2166.000000	0.353504
2167.000000	0.353508
2168.000000	0.353536
2169.000000	0.353688
2170.000000	0.353591
2171.000000	0.353448
2172.000000	0.353198
2173.000000	0.353016
2174.000000	0.352632
2175.000000	0.352615
2176.000000	0.352785
2177.000000	0.353051
2178.000000	0.353773
2179.000000	0.354171
2180.000000	0.354524
2181.000000	0.354979
2182.000000	0.354605
2183.000000	0.354436
2184.000000	0.354658
2185.000000	0.353805
2186.000000	0.352964
2187.000000	0.352484
2188.000000	0.351884
2189.000000	0.351454
2190.000000	0.351227
2191.000000	0.351874
2192.000000	0.351818
2193.000000	0.351515
2194.000000	0.351128
2195.000000	0.350385
2196.000000	0.350087
2197.000000	0.349711
2198.000000	0.349776
2199.000000	0.350569
2200.000000	0.351018
2201.000000	0.351975
2202.000000	0.352409
2203.000000	0.352093
2204.000000	0.351961
2205.000000	0.351739
2206.000000	0.350918
2207.000000	0.350253
2208.000000	0.350092
2209.000000	0.349136
2210.000000	0.348711
2211.000000	0.348895
2212.000000	0.348622
2213.000000	0.348677
2214.000000	0.349267
2215.000000	0.349172
2216.000000	0.348996
2217.000000	0.348561
2218.000000	0.347038
2219.000000	0.346795
2220.000000	0.347441
2221.000000	0.347430
2222.000000	0.348235
2223.000000	0.348000
2224.000000	0.346722
2225.000000	0.345381
2226.000000	0.344690
2227.000000	0.343407
2228.000000	0.342979
2229.000000	0.342209
2230.000000	0.341014
2231.000000	0.340256
2232.000000	0.339007
2233.000000	0.338069
2234.000000	0.336554
2235.000000	0.336007
2236.000000	0.335547
2237.000000	0.335516
2238.000000	0.334917
2239.000000	0.334022
2240.000000	0.333619
2241.000000	0.333313
2242.000000	0.332886
2243.000000	0.333043
2244.000000	0.333012
2245.000000	0.332323
2246.000000	0.331937
2247.000000	0.331669
2248.000000	0.331650
2249.000000	0.331935
2250.000000	0.331909
2251.000000	0.332153
2252.000000	0.332447
2253.000000	0.331709
2254.000000	0.331525
2255.000000	0.331683
2256.000000	0.331523
2257.000000	0.332111
2258.000000	0.331980
2259.000000	0.330988
2260.000000	0.330348
2261.000000	0.329685
2262.000000	0.328941
2263.000000	0.328059
2264.000000	0.327143
2265.000000	0.326502
2266.000000	0.325975
2267.000000	0.324900
2268.000000	0.324053
2269.000000	0.322942
2270.000000	0.321071
2271.000000	0.319199
2272.000000	0.317224
2273.000000	0.315643
2274.000000	0.314047
2275.000000	0.312403
2276.000000	0.311364
2277.000000	0.309674
2278.000000	0.306986
2279.000000	0.303900
2280.000000	0.300703
2281.000000	0.297870
2282.000000	0.295306
2283.000000	0.292406
2284.000000	0.289853
2285.000000	0.286573
2286.000000	0.283818
2287.000000	0.281588
2288.000000	0.279302
2289.000000	0.277800
2290.000000	0.275213
2291.000000	0.273297
2292.000000	0.271818
2293.000000	0.269976
2294.000000	0.269076
2295.000000	0.269010
2296.000000	0.268803
2297.000000	0.269296
2298.000000	0.269101
2299.000000	0.268410
2300.000000	0.268414
2301.000000	0.267850
2302.000000	0.268597
2303.000000	0.270714
2304.000000	0.272371
2305.000000	0.274652
2306.000000	0.276543
2307.000000	0.277918
2308.000000	0.280047
2309.000000	0.282013
2310.000000	0.284069
2311.000000	0.286558
2312.000000	0.287761
2313.000000	0.288757
2314.000000	0.289865
2315.000000	0.291883
2316.000000	0.294109
2317.000000	0.295373
2318.000000	0.297244
2319.000000	0.297879
2320.000000	0.297817
2321.000000	0.298619
2322.000000	0.299167
2323.000000	0.299633
2324.000000	0.300107
2325.000000	0.300642
2326.000000	0.301033
2327.000000	0.301923
2328.000000	0.302776
2329.000000	0.303084
2330.000000	0.303244
2331.000000	0.302478
2332.000000	0.301978
2333.000000	0.301642
2334.000000	0.301051
2335.000000	0.301131
2336.000000	0.301028
2337.000000	0.300829
2338.000000	0.301311
2339.000000	0.300843
2340.000000	0.299642
2341.000000	0.298407
2342.000000	0.296510
2343.000000	0.295445
2344.000000	0.294830
2345.000000	0.294452
2346.000000	0.294563
2347.000000	0.294110
2348.000000	0.293579
2349.000000	0.292799
2350.000000	0.291714
2351.000000	0.290831
2352.000000	0.290355
2353.000000	0.289524
2354.000000	0.288307
2355.000000	0.288006
2356.000000	0.287207
2357.000000	0.286076
2358.000000	0.285110
2359.000000	0.283403
2360.000000	0.281925
2361.000000	0.280781
2362.000000	0.279253
2363.000000	0.279403
2364.000000	0.279365
2365.000000	0.278724
2366.000000	0.278037
2367.000000	0.276154
2368.000000	0.274009
2369.000000	0.270722
2370.000000	0.267911
2371.000000	0.265945
2372.000000	0.264584
2373.000000	0.265423
2374.000000	0.265388
2375.000000	0.264548
2376.000000	0.265023
2377.000000	0.263322
2378.000000	0.260789
2379.000000	0.260437
2380.000000	0.258216
2381.000000	0.256632
2382.000000	0.257689
2383.000000	0.255663
2384.000000	0.253010
2385.000000	0.251167
2386.000000	0.247284
2387.000000	0.245263
2388.000000	0.244053
2389.000000	0.241842
2390.000000	0.240210
2391.000000	0.237736
2392.000000	0.236707
2393.000000	0.237874
2394.000000	0.239141
2395.000000	0.241188
2396.000000	0.242768
2397.000000	0.241639
2398.000000	0.241804
2399.000000	0.242513
2400.000000	0.239688
2401.000000	0.239162
2402.000000	0.239414
2403.000000	0.239012
2404.000000	0.242074
2405.000000	0.243181
2406.000000	0.242641
2407.000000	0.241950
2408.000000	0.241394
2409.000000	0.242642
2410.000000	0.240976
2411.000000	0.239283
2412.000000	0.239010
2413.000000	0.236928
2414.000000	0.237673
2415.000000	0.237142
2416.000000	0.236651
2417.000000	0.240332
2418.000000	0.242806
2419.000000	0.247190
2420.000000	0.249656
2421.000000	0.250047
2422.000000	0.249467
2423.000000	0.247716
2424.000000	0.247678
2425.000000	0.241254
2426.000000	0.236372
2427.000000	0.234850
2428.000000	0.231224
2429.000000	0.232798
2430.000000	0.234533
2431.000000	0.235398
2432.000000	0.235699
2433.000000	0.236871
2434.000000	0.240842
2435.000000	0.240420
2436.000000	0.240193
2437.000000	0.240761
2438.000000	0.239798
2439.000000	0.242211
2440.000000	0.246343
2441.000000	0.250513
2442.000000	0.253581
2443.000000	0.250502
2444.000000	0.245088
2445.000000	0.242208
2446.000000	0.237501
2447.000000	0.234166
2448.000000	0.235673
2449.000000	0.236271
2450.000000	0.234961
2451.000000	0.234333
2452.000000	0.233236
2453.000000	0.231476
2454.000000	0.225018
2455.000000	0.218697
2456.000000	0.219175
2457.000000	0.219166
2458.000000	0.223065
2459.000000	0.228712
2460.000000	0.234133
2461.000000	0.239690
2462.000000	0.235633
2463.000000	0.234829
2464.000000	0.230573
2465.000000	0.225494
2466.000000	0.235112
2467.000000	0.234883
2468.000000	0.232058
2469.000000	0.232537
2470.000000	0.219251
2471.000000	0.216707
2472.000000	0.219884
2473.000000	0.206471
2474.000000	0.201350
2475.000000	0.204619
2476.000000	0.200346
2477.000000	0.200460
2478.000000	0.205847
2479.000000	0.201430
2480.000000	0.196061
2481.000000	0.202880
2482.000000	0.203384
2483.000000	0.206432
2484.000000	0.209433
2485.000000	0.196316
2486.000000	0.186825
2487.000000	0.173404
2488.000000	0.163952
2489.000000	0.174301
2490.000000	0.176299
2491.000000	0.188604
2492.000000	0.191901
2493.000000	0.198243
2494.000000	0.202369
2495.000000	0.187193
2496.000000	0.178476
2497.000000	0.172123
2498.000000	0.161948
2499.000000	0.161763
2500.000000	0.157907
