# Wavelength	NAu-2-40_HEX-20_FV7-40_00002.asd.rts.txt
350.000000	0.161022
351.000000	0.144387
352.000000	0.130035
353.000000	0.129381
354.000000	0.138507
355.000000	0.124230
356.000000	0.115719
357.000000	0.119271
358.000000	0.123829
359.000000	0.122394
360.000000	0.120912
361.000000	0.125910
362.000000	0.125647
363.000000	0.124150
364.000000	0.124794
365.000000	0.127484
366.000000	0.131850
367.000000	0.133867
368.000000	0.126132
369.000000	0.120063
370.000000	0.119129
371.000000	0.123425
372.000000	0.129631
373.000000	0.131583
374.000000	0.128434
375.000000	0.132700
376.000000	0.130202
377.000000	0.122392
378.000000	0.126174
379.000000	0.125070
380.000000	0.123962
381.000000	0.132305
382.000000	0.134405
383.000000	0.134239
384.000000	0.135678
385.000000	0.135089
386.000000	0.133658
387.000000	0.132849
388.000000	0.134612
389.000000	0.134482
390.000000	0.133792
391.000000	0.135300
392.000000	0.134861
393.000000	0.134804
394.000000	0.136612
395.000000	0.136426
396.000000	0.135115
397.000000	0.133765
398.000000	0.133881
399.000000	0.134384
400.000000	0.134851
401.000000	0.134992
402.000000	0.134639
403.000000	0.134467
404.000000	0.135137
405.000000	0.136543
406.000000	0.137120
407.000000	0.136701
408.000000	0.137274
409.000000	0.138242
410.000000	0.138963
411.000000	0.138665
412.000000	0.138721
413.000000	0.139115
414.000000	0.139513
415.000000	0.139684
416.000000	0.140121
417.000000	0.140848
418.000000	0.140674
419.000000	0.140745
420.000000	0.141014
421.000000	0.140400
422.000000	0.140442
423.000000	0.140996
424.000000	0.141440
425.000000	0.141609
426.000000	0.141739
427.000000	0.142042
428.000000	0.142510
429.000000	0.143203
430.000000	0.143896
431.000000	0.143895
432.000000	0.143923
433.000000	0.144118
434.000000	0.144430
435.000000	0.144695
436.000000	0.145167
437.000000	0.145899
438.000000	0.145679
439.000000	0.145513
440.000000	0.145937
441.000000	0.146284
442.000000	0.146464
443.000000	0.146574
444.000000	0.146990
445.000000	0.147673
446.000000	0.147984
447.000000	0.147375
448.000000	0.148262
449.000000	0.149034
450.000000	0.148735
451.000000	0.149311
452.000000	0.149823
453.000000	0.149954
454.000000	0.150167
455.000000	0.150529
456.000000	0.151041
457.000000	0.151529
458.000000	0.151837
459.000000	0.152305
460.000000	0.153104
461.000000	0.153154
462.000000	0.153223
463.000000	0.153589
464.000000	0.153927
465.000000	0.154101
466.000000	0.154252
467.000000	0.154807
468.000000	0.154951
469.000000	0.154974
470.000000	0.155451
471.000000	0.155927
472.000000	0.156256
473.000000	0.156426
474.000000	0.156567
475.000000	0.156775
476.000000	0.157113
477.000000	0.157399
478.000000	0.157630
479.000000	0.157947
480.000000	0.158335
481.000000	0.158835
482.000000	0.159209
483.000000	0.159229
484.000000	0.159655
485.000000	0.159995
486.000000	0.160142
487.000000	0.160394
488.000000	0.160586
489.000000	0.160699
490.000000	0.160780
491.000000	0.160948
492.000000	0.161287
493.000000	0.161715
494.000000	0.161811
495.000000	0.161924
496.000000	0.162211
497.000000	0.162154
498.000000	0.162200
499.000000	0.162447
500.000000	0.162439
501.000000	0.162551
502.000000	0.162770
503.000000	0.162884
504.000000	0.163103
505.000000	0.163309
506.000000	0.163415
507.000000	0.163794
508.000000	0.164120
509.000000	0.164258
510.000000	0.164610
511.000000	0.164962
512.000000	0.165291
513.000000	0.165680
514.000000	0.165979
515.000000	0.166291
516.000000	0.166724
517.000000	0.167038
518.000000	0.167376
519.000000	0.167788
520.000000	0.168112
521.000000	0.168424
522.000000	0.168807
523.000000	0.169373
524.000000	0.169900
525.000000	0.170412
526.000000	0.171092
527.000000	0.171823
528.000000	0.172546
529.000000	0.173271
530.000000	0.174078
531.000000	0.175028
532.000000	0.176061
533.000000	0.177089
534.000000	0.178035
535.000000	0.178926
536.000000	0.179932
537.000000	0.180950
538.000000	0.181933
539.000000	0.182848
540.000000	0.183826
541.000000	0.184740
542.000000	0.185525
543.000000	0.186436
544.000000	0.187276
545.000000	0.187954
546.000000	0.188756
547.000000	0.189614
548.000000	0.190499
549.000000	0.191327
550.000000	0.192214
551.000000	0.193199
552.000000	0.194258
553.000000	0.195400
554.000000	0.196568
555.000000	0.197739
556.000000	0.198999
557.000000	0.200329
558.000000	0.201737
559.000000	0.202968
560.000000	0.204273
561.000000	0.205694
562.000000	0.207068
563.000000	0.208322
564.000000	0.209574
565.000000	0.210852
566.000000	0.211984
567.000000	0.213034
568.000000	0.214033
569.000000	0.214959
570.000000	0.215858
571.000000	0.216715
572.000000	0.217480
573.000000	0.218086
574.000000	0.218605
575.000000	0.219197
576.000000	0.219764
577.000000	0.220207
578.000000	0.220528
579.000000	0.220852
580.000000	0.221130
581.000000	0.221337
582.000000	0.221498
583.000000	0.221611
584.000000	0.221695
585.000000	0.221784
586.000000	0.221814
587.000000	0.221811
588.000000	0.221811
589.000000	0.221745
590.000000	0.221613
591.000000	0.221429
592.000000	0.221227
593.000000	0.221049
594.000000	0.220884
595.000000	0.220667
596.000000	0.220395
597.000000	0.220119
598.000000	0.219832
599.000000	0.219528
600.000000	0.219219
601.000000	0.218858
602.000000	0.218487
603.000000	0.218149
604.000000	0.217836
605.000000	0.217416
606.000000	0.216996
607.000000	0.216581
608.000000	0.216114
609.000000	0.215706
610.000000	0.215387
611.000000	0.215134
612.000000	0.214761
613.000000	0.214376
614.000000	0.214073
615.000000	0.213736
616.000000	0.213370
617.000000	0.212997
618.000000	0.212735
619.000000	0.212520
620.000000	0.212261
621.000000	0.211920
622.000000	0.211699
623.000000	0.211498
624.000000	0.211219
625.000000	0.210978
626.000000	0.210789
627.000000	0.210641
628.000000	0.210484
629.000000	0.210338
630.000000	0.210162
631.000000	0.210084
632.000000	0.209989
633.000000	0.209908
634.000000	0.209860
635.000000	0.209698
636.000000	0.209529
637.000000	0.209418
638.000000	0.209361
639.000000	0.209308
640.000000	0.209272
641.000000	0.209205
642.000000	0.209232
643.000000	0.209328
644.000000	0.209417
645.000000	0.209456
646.000000	0.209505
647.000000	0.209600
648.000000	0.209733
649.000000	0.209905
650.000000	0.210099
651.000000	0.210337
652.000000	0.210494
653.000000	0.210644
654.000000	0.210892
655.000000	0.211258
656.000000	0.211637
657.000000	0.211896
658.000000	0.212100
659.000000	0.212379
660.000000	0.212766
661.000000	0.213179
662.000000	0.213614
663.000000	0.214076
664.000000	0.214507
665.000000	0.214943
666.000000	0.215399
667.000000	0.215868
668.000000	0.216444
669.000000	0.217009
670.000000	0.217540
671.000000	0.218239
672.000000	0.218896
673.000000	0.219486
674.000000	0.220141
675.000000	0.220789
676.000000	0.221480
677.000000	0.222283
678.000000	0.223046
679.000000	0.223794
680.000000	0.224573
681.000000	0.225397
682.000000	0.226269
683.000000	0.227134
684.000000	0.228051
685.000000	0.228961
686.000000	0.229906
687.000000	0.230902
688.000000	0.231819
689.000000	0.232731
690.000000	0.233750
691.000000	0.234885
692.000000	0.236008
693.000000	0.237120
694.000000	0.238222
695.000000	0.239408
696.000000	0.240652
697.000000	0.241868
698.000000	0.243036
699.000000	0.244257
700.000000	0.245596
701.000000	0.246910
702.000000	0.248170
703.000000	0.249397
704.000000	0.250737
705.000000	0.252087
706.000000	0.253411
707.000000	0.254770
708.000000	0.256129
709.000000	0.257528
710.000000	0.258989
711.000000	0.260362
712.000000	0.261717
713.000000	0.263109
714.000000	0.264517
715.000000	0.265910
716.000000	0.267291
717.000000	0.268658
718.000000	0.270088
719.000000	0.271532
720.000000	0.272960
721.000000	0.274422
722.000000	0.275838
723.000000	0.277248
724.000000	0.278715
725.000000	0.280045
726.000000	0.281348
727.000000	0.282715
728.000000	0.284126
729.000000	0.285555
730.000000	0.286935
731.000000	0.288320
732.000000	0.289680
733.000000	0.291021
734.000000	0.292282
735.000000	0.293531
736.000000	0.294833
737.000000	0.296008
738.000000	0.297109
739.000000	0.298270
740.000000	0.299411
741.000000	0.300565
742.000000	0.301715
743.000000	0.302825
744.000000	0.303924
745.000000	0.304947
746.000000	0.305957
747.000000	0.306957
748.000000	0.307962
749.000000	0.308960
750.000000	0.309916
751.000000	0.310885
752.000000	0.311840
753.000000	0.312748
754.000000	0.313543
755.000000	0.314350
756.000000	0.315166
757.000000	0.315902
758.000000	0.316535
759.000000	0.317183
760.000000	0.317830
761.000000	0.318445
762.000000	0.319049
763.000000	0.319627
764.000000	0.320223
765.000000	0.320830
766.000000	0.321430
767.000000	0.321981
768.000000	0.322390
769.000000	0.322770
770.000000	0.323198
771.000000	0.323675
772.000000	0.324201
773.000000	0.324664
774.000000	0.325054
775.000000	0.325405
776.000000	0.325773
777.000000	0.326145
778.000000	0.326370
779.000000	0.326575
780.000000	0.326807
781.000000	0.327023
782.000000	0.327269
783.000000	0.327578
784.000000	0.327791
785.000000	0.327949
786.000000	0.328180
787.000000	0.328496
788.000000	0.328693
789.000000	0.328912
790.000000	0.329144
791.000000	0.329359
792.000000	0.329588
793.000000	0.329765
794.000000	0.329839
795.000000	0.329832
796.000000	0.329803
797.000000	0.329810
798.000000	0.329920
799.000000	0.330021
800.000000	0.330132
801.000000	0.330283
802.000000	0.330319
803.000000	0.330336
804.000000	0.330387
805.000000	0.330254
806.000000	0.330121
807.000000	0.330097
808.000000	0.330090
809.000000	0.330078
810.000000	0.330084
811.000000	0.330107
812.000000	0.330141
813.000000	0.330073
814.000000	0.329933
815.000000	0.329897
816.000000	0.329902
817.000000	0.329934
818.000000	0.329901
819.000000	0.329847
820.000000	0.329838
821.000000	0.329817
822.000000	0.329713
823.000000	0.329615
824.000000	0.329484
825.000000	0.329371
826.000000	0.329287
827.000000	0.329195
828.000000	0.329102
829.000000	0.328942
830.000000	0.328801
831.000000	0.328714
832.000000	0.328518
833.000000	0.328397
834.000000	0.328283
835.000000	0.328151
836.000000	0.328076
837.000000	0.328015
838.000000	0.327992
839.000000	0.328017
840.000000	0.327826
841.000000	0.327644
842.000000	0.327628
843.000000	0.327440
844.000000	0.327233
845.000000	0.327029
846.000000	0.326778
847.000000	0.326574
848.000000	0.326420
849.000000	0.326315
850.000000	0.326172
851.000000	0.326008
852.000000	0.325879
853.000000	0.325787
854.000000	0.325475
855.000000	0.325243
856.000000	0.325255
857.000000	0.325034
858.000000	0.324800
859.000000	0.324626
860.000000	0.324547
861.000000	0.324362
862.000000	0.324146
863.000000	0.323978
864.000000	0.323800
865.000000	0.323682
866.000000	0.323633
867.000000	0.323430
868.000000	0.323186
869.000000	0.322908
870.000000	0.322678
871.000000	0.322352
872.000000	0.322066
873.000000	0.321843
874.000000	0.321684
875.000000	0.321458
876.000000	0.321192
877.000000	0.320922
878.000000	0.320760
879.000000	0.320627
880.000000	0.320333
881.000000	0.320058
882.000000	0.319736
883.000000	0.319430
884.000000	0.319178
885.000000	0.319050
886.000000	0.318804
887.000000	0.318419
888.000000	0.318256
889.000000	0.318006
890.000000	0.317647
891.000000	0.317483
892.000000	0.317412
893.000000	0.317292
894.000000	0.317132
895.000000	0.316771
896.000000	0.316328
897.000000	0.315969
898.000000	0.315808
899.000000	0.315522
900.000000	0.315280
901.000000	0.315085
902.000000	0.314798
903.000000	0.314542
904.000000	0.314384
905.000000	0.314241
906.000000	0.314118
907.000000	0.313900
908.000000	0.313661
909.000000	0.313486
910.000000	0.313315
911.000000	0.313054
912.000000	0.312695
913.000000	0.312473
914.000000	0.312171
915.000000	0.311845
916.000000	0.311578
917.000000	0.311223
918.000000	0.310908
919.000000	0.310707
920.000000	0.310554
921.000000	0.310212
922.000000	0.309836
923.000000	0.309700
924.000000	0.309368
925.000000	0.309086
926.000000	0.308960
927.000000	0.308587
928.000000	0.308486
929.000000	0.308346
930.000000	0.307775
931.000000	0.307553
932.000000	0.307478
933.000000	0.307328
934.000000	0.306820
935.000000	0.306589
936.000000	0.306416
937.000000	0.305973
938.000000	0.305733
939.000000	0.305508
940.000000	0.305220
941.000000	0.305034
942.000000	0.304976
943.000000	0.304861
944.000000	0.304481
945.000000	0.304063
946.000000	0.303910
947.000000	0.303869
948.000000	0.303596
949.000000	0.303150
950.000000	0.302919
951.000000	0.302868
952.000000	0.302667
953.000000	0.302284
954.000000	0.301973
955.000000	0.301767
956.000000	0.301247
957.000000	0.300945
958.000000	0.300716
959.000000	0.300336
960.000000	0.300148
961.000000	0.300055
962.000000	0.299899
963.000000	0.299567
964.000000	0.299326
965.000000	0.299238
966.000000	0.299161
967.000000	0.299053
968.000000	0.298785
969.000000	0.298398
970.000000	0.298145
971.000000	0.298024
972.000000	0.297900
973.000000	0.297674
974.000000	0.297497
975.000000	0.297196
976.000000	0.296932
977.000000	0.296798
978.000000	0.296496
979.000000	0.296527
980.000000	0.296385
981.000000	0.295810
982.000000	0.295715
983.000000	0.295502
984.000000	0.295222
985.000000	0.295490
986.000000	0.295315
987.000000	0.295011
988.000000	0.294768
989.000000	0.294333
990.000000	0.294132
991.000000	0.294085
992.000000	0.294035
993.000000	0.294196
994.000000	0.293959
995.000000	0.293690
996.000000	0.293973
997.000000	0.294084
998.000000	0.293799
999.000000	0.293375
1000.000000	0.293385
1001.000000	0.294378
1002.000000	0.293260
1003.000000	0.292921
1004.000000	0.292908
1005.000000	0.293230
1006.000000	0.293089
1007.000000	0.293237
1008.000000	0.293143
1009.000000	0.293002
1010.000000	0.293054
1011.000000	0.293182
1012.000000	0.293099
1013.000000	0.292655
1014.000000	0.291971
1015.000000	0.291538
1016.000000	0.291756
1017.000000	0.292061
1018.000000	0.292122
1019.000000	0.292309
1020.000000	0.293140
1021.000000	0.292903
1022.000000	0.291857
1023.000000	0.291878
1024.000000	0.291578
1025.000000	0.292266
1026.000000	0.293397
1027.000000	0.294270
1028.000000	0.294510
1029.000000	0.294008
1030.000000	0.293695
1031.000000	0.293199
1032.000000	0.292854
1033.000000	0.293037
1034.000000	0.293216
1035.000000	0.293532
1036.000000	0.293825
1037.000000	0.294623
1038.000000	0.294646
1039.000000	0.294298
1040.000000	0.293942
1041.000000	0.293784
1042.000000	0.293373
1043.000000	0.293451
1044.000000	0.293817
1045.000000	0.293729
1046.000000	0.293680
1047.000000	0.294025
1048.000000	0.294667
1049.000000	0.294908
1050.000000	0.295285
1051.000000	0.295619
1052.000000	0.295597
1053.000000	0.295515
1054.000000	0.295656
1055.000000	0.295833
1056.000000	0.295759
1057.000000	0.296006
1058.000000	0.296496
1059.000000	0.296770
1060.000000	0.296861
1061.000000	0.296942
1062.000000	0.296904
1063.000000	0.297011
1064.000000	0.297115
1065.000000	0.297020
1066.000000	0.297385
1067.000000	0.298242
1068.000000	0.298461
1069.000000	0.298608
1070.000000	0.298753
1071.000000	0.298222
1072.000000	0.298288
1073.000000	0.298985
1074.000000	0.299603
1075.000000	0.299332
1076.000000	0.299523
1077.000000	0.299645
1078.000000	0.299419
1079.000000	0.299651
1080.000000	0.300518
1081.000000	0.300888
1082.000000	0.301209
1083.000000	0.301506
1084.000000	0.301773
1085.000000	0.302070
1086.000000	0.302164
1087.000000	0.302494
1088.000000	0.302971
1089.000000	0.303301
1090.000000	0.303818
1091.000000	0.304008
1092.000000	0.303804
1093.000000	0.303724
1094.000000	0.303856
1095.000000	0.303880
1096.000000	0.304157
1097.000000	0.304917
1098.000000	0.305147
1099.000000	0.304975
1100.000000	0.305245
1101.000000	0.305580
1102.000000	0.305761
1103.000000	0.306055
1104.000000	0.306305
1105.000000	0.306408
1106.000000	0.306487
1107.000000	0.306510
1108.000000	0.306630
1109.000000	0.306810
1110.000000	0.306784
1111.000000	0.307018
1112.000000	0.307516
1113.000000	0.307816
1114.000000	0.308106
1115.000000	0.308341
1116.000000	0.308474
1117.000000	0.308746
1118.000000	0.309107
1119.000000	0.309268
1120.000000	0.309416
1121.000000	0.309550
1122.000000	0.309751
1123.000000	0.309900
1124.000000	0.309488
1125.000000	0.309639
1126.000000	0.310028
1127.000000	0.310179
1128.000000	0.310377
1129.000000	0.310978
1130.000000	0.311237
1131.000000	0.311137
1132.000000	0.311263
1133.000000	0.311700
1134.000000	0.311789
1135.000000	0.311584
1136.000000	0.311547
1137.000000	0.311332
1138.000000	0.311327
1139.000000	0.311676
1140.000000	0.311875
1141.000000	0.311974
1142.000000	0.312173
1143.000000	0.312295
1144.000000	0.312532
1145.000000	0.312741
1146.000000	0.312918
1147.000000	0.312980
1148.000000	0.312855
1149.000000	0.312799
1150.000000	0.312628
1151.000000	0.312719
1152.000000	0.312893
1153.000000	0.313023
1154.000000	0.313290
1155.000000	0.313375
1156.000000	0.313316
1157.000000	0.313338
1158.000000	0.313221
1159.000000	0.313252
1160.000000	0.313390
1161.000000	0.313478
1162.000000	0.313674
1163.000000	0.313971
1164.000000	0.314060
1165.000000	0.314104
1166.000000	0.314255
1167.000000	0.314393
1168.000000	0.314464
1169.000000	0.314570
1170.000000	0.314711
1171.000000	0.314850
1172.000000	0.314988
1173.000000	0.315182
1174.000000	0.315301
1175.000000	0.315329
1176.000000	0.315320
1177.000000	0.315285
1178.000000	0.315356
1179.000000	0.315563
1180.000000	0.315520
1181.000000	0.315434
1182.000000	0.315417
1183.000000	0.315453
1184.000000	0.315472
1185.000000	0.315610
1186.000000	0.316047
1187.000000	0.316181
1188.000000	0.316185
1189.000000	0.316153
1190.000000	0.316028
1191.000000	0.316087
1192.000000	0.316305
1193.000000	0.316485
1194.000000	0.316681
1195.000000	0.316769
1196.000000	0.316574
1197.000000	0.316618
1198.000000	0.316819
1199.000000	0.316946
1200.000000	0.317123
1201.000000	0.317330
1202.000000	0.317300
1203.000000	0.317263
1204.000000	0.317321
1205.000000	0.317336
1206.000000	0.317330
1207.000000	0.317494
1208.000000	0.317465
1209.000000	0.317275
1210.000000	0.317359
1211.000000	0.317583
1212.000000	0.317690
1213.000000	0.317960
1214.000000	0.318125
1215.000000	0.318071
1216.000000	0.318150
1217.000000	0.318347
1218.000000	0.318386
1219.000000	0.318302
1220.000000	0.318441
1221.000000	0.318593
1222.000000	0.318620
1223.000000	0.318692
1224.000000	0.318764
1225.000000	0.318652
1226.000000	0.318586
1227.000000	0.318646
1228.000000	0.318836
1229.000000	0.318929
1230.000000	0.319046
1231.000000	0.319059
1232.000000	0.319078
1233.000000	0.319187
1234.000000	0.319326
1235.000000	0.319417
1236.000000	0.319430
1237.000000	0.319471
1238.000000	0.319410
1239.000000	0.319360
1240.000000	0.319272
1241.000000	0.319323
1242.000000	0.319318
1243.000000	0.319337
1244.000000	0.319395
1245.000000	0.319427
1246.000000	0.319558
1247.000000	0.319716
1248.000000	0.319749
1249.000000	0.320013
1250.000000	0.320186
1251.000000	0.320040
1252.000000	0.320052
1253.000000	0.320124
1254.000000	0.320154
1255.000000	0.320272
1256.000000	0.320252
1257.000000	0.320065
1258.000000	0.320073
1259.000000	0.319997
1260.000000	0.320028
1261.000000	0.320151
1262.000000	0.320329
1263.000000	0.320569
1264.000000	0.320797
1265.000000	0.321086
1266.000000	0.321211
1267.000000	0.321260
1268.000000	0.321177
1269.000000	0.320968
1270.000000	0.321080
1271.000000	0.321132
1272.000000	0.321114
1273.000000	0.321362
1274.000000	0.321532
1275.000000	0.321613
1276.000000	0.321709
1277.000000	0.321770
1278.000000	0.321578
1279.000000	0.321587
1280.000000	0.321598
1281.000000	0.321574
1282.000000	0.321691
1283.000000	0.321814
1284.000000	0.321832
1285.000000	0.321858
1286.000000	0.321876
1287.000000	0.321937
1288.000000	0.322027
1289.000000	0.322105
1290.000000	0.322141
1291.000000	0.322163
1292.000000	0.322279
1293.000000	0.322289
1294.000000	0.322326
1295.000000	0.322490
1296.000000	0.322375
1297.000000	0.322235
1298.000000	0.322285
1299.000000	0.322295
1300.000000	0.322371
1301.000000	0.322491
1302.000000	0.322422
1303.000000	0.322234
1304.000000	0.322259
1305.000000	0.322425
1306.000000	0.322495
1307.000000	0.322873
1308.000000	0.322948
1309.000000	0.322677
1310.000000	0.322571
1311.000000	0.322409
1312.000000	0.322397
1313.000000	0.322559
1314.000000	0.322591
1315.000000	0.322566
1316.000000	0.322488
1317.000000	0.322309
1318.000000	0.322360
1319.000000	0.322592
1320.000000	0.322763
1321.000000	0.322805
1322.000000	0.322831
1323.000000	0.322794
1324.000000	0.322646
1325.000000	0.322481
1326.000000	0.322342
1327.000000	0.322283
1328.000000	0.322343
1329.000000	0.322310
1330.000000	0.322369
1331.000000	0.322356
1332.000000	0.322341
1333.000000	0.322297
1334.000000	0.322319
1335.000000	0.322333
1336.000000	0.322200
1337.000000	0.322105
1338.000000	0.321992
1339.000000	0.321962
1340.000000	0.321877
1341.000000	0.321894
1342.000000	0.321920
1343.000000	0.321843
1344.000000	0.321823
1345.000000	0.321835
1346.000000	0.321926
1347.000000	0.321991
1348.000000	0.321971
1349.000000	0.321959
1350.000000	0.321957
1351.000000	0.321899
1352.000000	0.321800
1353.000000	0.321577
1354.000000	0.321554
1355.000000	0.321497
1356.000000	0.321465
1357.000000	0.321572
1358.000000	0.321466
1359.000000	0.321270
1360.000000	0.321166
1361.000000	0.321107
1362.000000	0.321053
1363.000000	0.321084
1364.000000	0.321057
1365.000000	0.320954
1366.000000	0.320840
1367.000000	0.320710
1368.000000	0.320504
1369.000000	0.320423
1370.000000	0.320332
1371.000000	0.320058
1372.000000	0.319755
1373.000000	0.319505
1374.000000	0.319260
1375.000000	0.318939
1376.000000	0.318785
1377.000000	0.318576
1378.000000	0.318321
1379.000000	0.318265
1380.000000	0.318243
1381.000000	0.317964
1382.000000	0.317442
1383.000000	0.317045
1384.000000	0.316448
1385.000000	0.315751
1386.000000	0.315361
1387.000000	0.314910
1388.000000	0.314280
1389.000000	0.313662
1390.000000	0.313065
1391.000000	0.312277
1392.000000	0.311440
1393.000000	0.310611
1394.000000	0.309827
1395.000000	0.309011
1396.000000	0.308246
1397.000000	0.307248
1398.000000	0.306051
1399.000000	0.304997
1400.000000	0.303821
1401.000000	0.302706
1402.000000	0.301730
1403.000000	0.300739
1404.000000	0.299822
1405.000000	0.298944
1406.000000	0.298182
1407.000000	0.297472
1408.000000	0.296672
1409.000000	0.296091
1410.000000	0.295633
1411.000000	0.295174
1412.000000	0.294750
1413.000000	0.294299
1414.000000	0.293839
1415.000000	0.293473
1416.000000	0.293227
1417.000000	0.292981
1418.000000	0.292648
1419.000000	0.292400
1420.000000	0.292104
1421.000000	0.291829
1422.000000	0.291671
1423.000000	0.291598
1424.000000	0.291287
1425.000000	0.291006
1426.000000	0.290788
1427.000000	0.290454
1428.000000	0.290208
1429.000000	0.290011
1430.000000	0.289826
1431.000000	0.289814
1432.000000	0.289688
1433.000000	0.289582
1434.000000	0.289471
1435.000000	0.289351
1436.000000	0.289273
1437.000000	0.289271
1438.000000	0.289272
1439.000000	0.289275
1440.000000	0.289326
1441.000000	0.289425
1442.000000	0.289593
1443.000000	0.289720
1444.000000	0.290020
1445.000000	0.290390
1446.000000	0.290761
1447.000000	0.291045
1448.000000	0.291332
1449.000000	0.291643
1450.000000	0.291969
1451.000000	0.292412
1452.000000	0.292728
1453.000000	0.292928
1454.000000	0.293061
1455.000000	0.293215
1456.000000	0.293516
1457.000000	0.293812
1458.000000	0.294003
1459.000000	0.294143
1460.000000	0.294290
1461.000000	0.294399
1462.000000	0.294572
1463.000000	0.294783
1464.000000	0.294874
1465.000000	0.294983
1466.000000	0.295177
1467.000000	0.295340
1468.000000	0.295489
1469.000000	0.295717
1470.000000	0.295831
1471.000000	0.295995
1472.000000	0.296257
1473.000000	0.296507
1474.000000	0.296774
1475.000000	0.297176
1476.000000	0.297478
1477.000000	0.297767
1478.000000	0.298099
1479.000000	0.298208
1480.000000	0.298416
1481.000000	0.298654
1482.000000	0.298952
1483.000000	0.299246
1484.000000	0.299616
1485.000000	0.299905
1486.000000	0.300156
1487.000000	0.300455
1488.000000	0.300731
1489.000000	0.301059
1490.000000	0.301329
1491.000000	0.301630
1492.000000	0.301948
1493.000000	0.302252
1494.000000	0.302533
1495.000000	0.302748
1496.000000	0.302909
1497.000000	0.303059
1498.000000	0.303170
1499.000000	0.303291
1500.000000	0.303477
1501.000000	0.303735
1502.000000	0.303943
1503.000000	0.304129
1504.000000	0.304368
1505.000000	0.304566
1506.000000	0.304712
1507.000000	0.304903
1508.000000	0.305137
1509.000000	0.305291
1510.000000	0.305577
1511.000000	0.306005
1512.000000	0.306282
1513.000000	0.306515
1514.000000	0.306781
1515.000000	0.306893
1516.000000	0.306914
1517.000000	0.307009
1518.000000	0.307062
1519.000000	0.306934
1520.000000	0.307036
1521.000000	0.307111
1522.000000	0.307106
1523.000000	0.307315
1524.000000	0.307361
1525.000000	0.307352
1526.000000	0.307443
1527.000000	0.307501
1528.000000	0.307594
1529.000000	0.307686
1530.000000	0.307676
1531.000000	0.307742
1532.000000	0.307857
1533.000000	0.307928
1534.000000	0.308072
1535.000000	0.308149
1536.000000	0.308072
1537.000000	0.308173
1538.000000	0.308303
1539.000000	0.308418
1540.000000	0.308606
1541.000000	0.308650
1542.000000	0.308610
1543.000000	0.308620
1544.000000	0.308686
1545.000000	0.308836
1546.000000	0.308945
1547.000000	0.308896
1548.000000	0.308777
1549.000000	0.308702
1550.000000	0.308661
1551.000000	0.308666
1552.000000	0.308708
1553.000000	0.308692
1554.000000	0.308630
1555.000000	0.308678
1556.000000	0.308753
1557.000000	0.308753
1558.000000	0.308831
1559.000000	0.308921
1560.000000	0.308937
1561.000000	0.308971
1562.000000	0.309028
1563.000000	0.309073
1564.000000	0.309109
1565.000000	0.309190
1566.000000	0.309240
1567.000000	0.309386
1568.000000	0.309427
1569.000000	0.309504
1570.000000	0.309535
1571.000000	0.309419
1572.000000	0.309405
1573.000000	0.309504
1574.000000	0.309470
1575.000000	0.309351
1576.000000	0.309391
1577.000000	0.309424
1578.000000	0.309444
1579.000000	0.309648
1580.000000	0.309769
1581.000000	0.309908
1582.000000	0.309942
1583.000000	0.309884
1584.000000	0.309868
1585.000000	0.309900
1586.000000	0.309939
1587.000000	0.310050
1588.000000	0.310081
1589.000000	0.309979
1590.000000	0.309996
1591.000000	0.310125
1592.000000	0.310198
1593.000000	0.310371
1594.000000	0.310376
1595.000000	0.310319
1596.000000	0.310290
1597.000000	0.310147
1598.000000	0.310091
1599.000000	0.310169
1600.000000	0.310102
1601.000000	0.310074
1602.000000	0.310062
1603.000000	0.309996
1604.000000	0.310006
1605.000000	0.310142
1606.000000	0.310134
1607.000000	0.310157
1608.000000	0.310115
1609.000000	0.309987
1610.000000	0.309925
1611.000000	0.309847
1612.000000	0.309848
1613.000000	0.310097
1614.000000	0.310131
1615.000000	0.310165
1616.000000	0.310230
1617.000000	0.310080
1618.000000	0.310109
1619.000000	0.310310
1620.000000	0.310420
1621.000000	0.310573
1622.000000	0.310694
1623.000000	0.310767
1624.000000	0.310796
1625.000000	0.310611
1626.000000	0.310533
1627.000000	0.310441
1628.000000	0.310486
1629.000000	0.310652
1630.000000	0.310788
1631.000000	0.310952
1632.000000	0.311041
1633.000000	0.311130
1634.000000	0.311135
1635.000000	0.311065
1636.000000	0.311045
1637.000000	0.311015
1638.000000	0.310959
1639.000000	0.310978
1640.000000	0.310993
1641.000000	0.310991
1642.000000	0.311065
1643.000000	0.311335
1644.000000	0.311397
1645.000000	0.311351
1646.000000	0.311326
1647.000000	0.311269
1648.000000	0.311142
1649.000000	0.311039
1650.000000	0.311079
1651.000000	0.311168
1652.000000	0.311263
1653.000000	0.311477
1654.000000	0.311590
1655.000000	0.311510
1656.000000	0.311476
1657.000000	0.311526
1658.000000	0.311599
1659.000000	0.311812
1660.000000	0.311941
1661.000000	0.311966
1662.000000	0.312106
1663.000000	0.312219
1664.000000	0.312324
1665.000000	0.312579
1666.000000	0.312654
1667.000000	0.312461
1668.000000	0.312456
1669.000000	0.312426
1670.000000	0.312409
1671.000000	0.312605
1672.000000	0.312619
1673.000000	0.312481
1674.000000	0.312501
1675.000000	0.312531
1676.000000	0.312598
1677.000000	0.312829
1678.000000	0.312878
1679.000000	0.312884
1680.000000	0.312961
1681.000000	0.312906
1682.000000	0.313004
1683.000000	0.313269
1684.000000	0.313445
1685.000000	0.313637
1686.000000	0.313614
1687.000000	0.313471
1688.000000	0.313396
1689.000000	0.313366
1690.000000	0.313388
1691.000000	0.313480
1692.000000	0.313418
1693.000000	0.313275
1694.000000	0.313090
1695.000000	0.312996
1696.000000	0.312923
1697.000000	0.312868
1698.000000	0.312952
1699.000000	0.313051
1700.000000	0.313218
1701.000000	0.313400
1702.000000	0.313441
1703.000000	0.313435
1704.000000	0.313351
1705.000000	0.313448
1706.000000	0.313850
1707.000000	0.313942
1708.000000	0.313976
1709.000000	0.313880
1710.000000	0.313384
1711.000000	0.313303
1712.000000	0.313605
1713.000000	0.313623
1714.000000	0.313698
1715.000000	0.313744
1716.000000	0.313602
1717.000000	0.313535
1718.000000	0.313577
1719.000000	0.313508
1720.000000	0.313315
1721.000000	0.313292
1722.000000	0.313350
1723.000000	0.313399
1724.000000	0.313595
1725.000000	0.313682
1726.000000	0.313606
1727.000000	0.313615
1728.000000	0.313567
1729.000000	0.313492
1730.000000	0.313539
1731.000000	0.313576
1732.000000	0.313614
1733.000000	0.313719
1734.000000	0.313750
1735.000000	0.313804
1736.000000	0.313866
1737.000000	0.313852
1738.000000	0.313821
1739.000000	0.313821
1740.000000	0.313734
1741.000000	0.313751
1742.000000	0.313912
1743.000000	0.313887
1744.000000	0.313751
1745.000000	0.313763
1746.000000	0.313737
1747.000000	0.313827
1748.000000	0.313798
1749.000000	0.313563
1750.000000	0.313389
1751.000000	0.313367
1752.000000	0.313412
1753.000000	0.313354
1754.000000	0.313346
1755.000000	0.313385
1756.000000	0.313338
1757.000000	0.313229
1758.000000	0.313201
1759.000000	0.313120
1760.000000	0.313093
1761.000000	0.313156
1762.000000	0.313139
1763.000000	0.313062
1764.000000	0.313074
1765.000000	0.313091
1766.000000	0.313110
1767.000000	0.313111
1768.000000	0.313074
1769.000000	0.313132
1770.000000	0.313118
1771.000000	0.313013
1772.000000	0.312963
1773.000000	0.312744
1774.000000	0.312744
1775.000000	0.313071
1776.000000	0.313036
1777.000000	0.312851
1778.000000	0.312773
1779.000000	0.312469
1780.000000	0.312439
1781.000000	0.312645
1782.000000	0.312693
1783.000000	0.312775
1784.000000	0.312880
1785.000000	0.312845
1786.000000	0.312854
1787.000000	0.312888
1788.000000	0.312799
1789.000000	0.312767
1790.000000	0.312706
1791.000000	0.312630
1792.000000	0.312739
1793.000000	0.312723
1794.000000	0.312605
1795.000000	0.312624
1796.000000	0.312635
1797.000000	0.312650
1798.000000	0.312774
1799.000000	0.312828
1800.000000	0.312910
1801.000000	0.313259
1802.000000	0.313064
1803.000000	0.312188
1804.000000	0.311590
1805.000000	0.310371
1806.000000	0.310333
1807.000000	0.310898
1808.000000	0.311392
1809.000000	0.312810
1810.000000	0.313819
1811.000000	0.314386
1812.000000	0.314924
1813.000000	0.314514
1814.000000	0.312989
1815.000000	0.312507
1816.000000	0.311813
1817.000000	0.311045
1818.000000	0.310456
1819.000000	0.310666
1820.000000	0.310547
1821.000000	0.310196
1822.000000	0.310760
1823.000000	0.312910
1824.000000	0.313271
1825.000000	0.313131
1826.000000	0.313076
1827.000000	0.312403
1828.000000	0.311143
1829.000000	0.310607
1830.000000	0.310853
1831.000000	0.310981
1832.000000	0.311326
1833.000000	0.311507
1834.000000	0.311954
1835.000000	0.312067
1836.000000	0.312034
1837.000000	0.311887
1838.000000	0.311446
1839.000000	0.310959
1840.000000	0.310369
1841.000000	0.309481
1842.000000	0.309394
1843.000000	0.309781
1844.000000	0.310079
1845.000000	0.311244
1846.000000	0.311465
1847.000000	0.311104
1848.000000	0.310585
1849.000000	0.309843
1850.000000	0.309069
1851.000000	0.308643
1852.000000	0.308355
1853.000000	0.308384
1854.000000	0.308464
1855.000000	0.308400
1856.000000	0.308692
1857.000000	0.308593
1858.000000	0.307796
1859.000000	0.307254
1860.000000	0.306426
1861.000000	0.305700
1862.000000	0.305046
1863.000000	0.304678
1864.000000	0.304280
1865.000000	0.304006
1866.000000	0.303360
1867.000000	0.302710
1868.000000	0.301618
1869.000000	0.300225
1870.000000	0.299296
1871.000000	0.298134
1872.000000	0.296684
1873.000000	0.295200
1874.000000	0.293021
1875.000000	0.291632
1876.000000	0.290406
1877.000000	0.289087
1878.000000	0.287495
1879.000000	0.286179
1880.000000	0.284560
1881.000000	0.282173
1882.000000	0.279653
1883.000000	0.277364
1884.000000	0.275051
1885.000000	0.272297
1886.000000	0.269723
1887.000000	0.267778
1888.000000	0.264651
1889.000000	0.260658
1890.000000	0.256852
1891.000000	0.252973
1892.000000	0.249829
1893.000000	0.247349
1894.000000	0.245084
1895.000000	0.242378
1896.000000	0.239837
1897.000000	0.236619
1898.000000	0.233325
1899.000000	0.229947
1900.000000	0.226363
1901.000000	0.223233
1902.000000	0.220493
1903.000000	0.218176
1904.000000	0.216660
1905.000000	0.215369
1906.000000	0.214337
1907.000000	0.213741
1908.000000	0.213293
1909.000000	0.213072
1910.000000	0.213459
1911.000000	0.213228
1912.000000	0.213420
1913.000000	0.213492
1914.000000	0.213088
1915.000000	0.213605
1916.000000	0.214539
1917.000000	0.215193
1918.000000	0.216195
1919.000000	0.216943
1920.000000	0.217328
1921.000000	0.217196
1922.000000	0.216638
1923.000000	0.216984
1924.000000	0.218257
1925.000000	0.219285
1926.000000	0.219876
1927.000000	0.220320
1928.000000	0.220424
1929.000000	0.219632
1930.000000	0.219056
1931.000000	0.219174
1932.000000	0.219265
1933.000000	0.219635
1934.000000	0.220373
1935.000000	0.221233
1936.000000	0.222130
1937.000000	0.223004
1938.000000	0.223018
1939.000000	0.222992
1940.000000	0.222668
1941.000000	0.222485
1942.000000	0.221902
1943.000000	0.221871
1944.000000	0.222221
1945.000000	0.222568
1946.000000	0.222969
1947.000000	0.223316
1948.000000	0.223673
1949.000000	0.223397
1950.000000	0.223378
1951.000000	0.223637
1952.000000	0.224375
1953.000000	0.224115
1954.000000	0.224533
1955.000000	0.225298
1956.000000	0.224830
1957.000000	0.224950
1958.000000	0.224769
1959.000000	0.223705
1960.000000	0.223475
1961.000000	0.223644
1962.000000	0.223746
1963.000000	0.224191
1964.000000	0.224933
1965.000000	0.225170
1966.000000	0.224993
1967.000000	0.224773
1968.000000	0.224913
1969.000000	0.225087
1970.000000	0.225159
1971.000000	0.225287
1972.000000	0.225162
1973.000000	0.225202
1974.000000	0.225405
1975.000000	0.225608
1976.000000	0.225806
1977.000000	0.226388
1978.000000	0.226996
1979.000000	0.227492
1980.000000	0.227863
1981.000000	0.228522
1982.000000	0.229475
1983.000000	0.230001
1984.000000	0.230499
1985.000000	0.231485
1986.000000	0.231605
1987.000000	0.230847
1988.000000	0.231057
1989.000000	0.231136
1990.000000	0.230948
1991.000000	0.231266
1992.000000	0.231115
1993.000000	0.231408
1994.000000	0.232488
1995.000000	0.233376
1996.000000	0.234714
1997.000000	0.235605
1998.000000	0.235976
1999.000000	0.236629
2000.000000	0.237549
2001.000000	0.237854
2002.000000	0.238331
2003.000000	0.239035
2004.000000	0.239329
2005.000000	0.239447
2006.000000	0.239827
2007.000000	0.240456
2008.000000	0.240917
2009.000000	0.241389
2010.000000	0.242132
2011.000000	0.242913
2012.000000	0.243380
2013.000000	0.243781
2014.000000	0.244133
2015.000000	0.244644
2016.000000	0.245105
2017.000000	0.246171
2018.000000	0.247489
2019.000000	0.248248
2020.000000	0.248672
2021.000000	0.249022
2022.000000	0.248745
2023.000000	0.249086
2024.000000	0.249610
2025.000000	0.250341
2026.000000	0.251414
2027.000000	0.252351
2028.000000	0.252778
2029.000000	0.252795
2030.000000	0.252754
2031.000000	0.252585
2032.000000	0.252797
2033.000000	0.253410
2034.000000	0.253984
2035.000000	0.254707
2036.000000	0.255372
2037.000000	0.256768
2038.000000	0.257363
2039.000000	0.257555
2040.000000	0.257777
2041.000000	0.257912
2042.000000	0.257646
2043.000000	0.258364
2044.000000	0.259274
2045.000000	0.260004
2046.000000	0.260455
2047.000000	0.260840
2048.000000	0.260932
2049.000000	0.261186
2050.000000	0.260805
2051.000000	0.261202
2052.000000	0.261897
2053.000000	0.262286
2054.000000	0.263113
2055.000000	0.264261
2056.000000	0.264974
2057.000000	0.264996
2058.000000	0.264707
2059.000000	0.264375
2060.000000	0.264159
2061.000000	0.263342
2062.000000	0.263568
2063.000000	0.264696
2064.000000	0.265120
2065.000000	0.266072
2066.000000	0.266401
2067.000000	0.266389
2068.000000	0.266627
2069.000000	0.266899
2070.000000	0.266547
2071.000000	0.266361
2072.000000	0.266588
2073.000000	0.266781
2074.000000	0.267317
2075.000000	0.267813
2076.000000	0.268650
2077.000000	0.269035
2078.000000	0.269358
2079.000000	0.269460
2080.000000	0.268977
2081.000000	0.268945
2082.000000	0.268890
2083.000000	0.269245
2084.000000	0.269229
2085.000000	0.270335
2086.000000	0.271187
2087.000000	0.270855
2088.000000	0.271721
2089.000000	0.272262
2090.000000	0.272550
2091.000000	0.273058
2092.000000	0.273266
2093.000000	0.272807
2094.000000	0.272861
2095.000000	0.272804
2096.000000	0.273001
2097.000000	0.273558
2098.000000	0.274015
2099.000000	0.273789
2100.000000	0.274792
2101.000000	0.275240
2102.000000	0.275360
2103.000000	0.276426
2104.000000	0.276542
2105.000000	0.276764
2106.000000	0.276877
2107.000000	0.277151
2108.000000	0.277175
2109.000000	0.277570
2110.000000	0.278258
2111.000000	0.278607
2112.000000	0.278803
2113.000000	0.278768
2114.000000	0.278590
2115.000000	0.278450
2116.000000	0.278815
2117.000000	0.279093
2118.000000	0.278988
2119.000000	0.278872
2120.000000	0.278796
2121.000000	0.278109
2122.000000	0.277913
2123.000000	0.278324
2124.000000	0.278369
2125.000000	0.278255
2126.000000	0.278277
2127.000000	0.278048
2128.000000	0.278318
2129.000000	0.278821
2130.000000	0.279484
2131.000000	0.279827
2132.000000	0.280386
2133.000000	0.280563
2134.000000	0.280562
2135.000000	0.280595
2136.000000	0.280792
2137.000000	0.281228
2138.000000	0.281891
2139.000000	0.282213
2140.000000	0.282773
2141.000000	0.283109
2142.000000	0.282893
2143.000000	0.282885
2144.000000	0.283227
2145.000000	0.283408
2146.000000	0.283506
2147.000000	0.284261
2148.000000	0.283717
2149.000000	0.283828
2150.000000	0.284226
2151.000000	0.283661
2152.000000	0.284003
2153.000000	0.283937
2154.000000	0.283757
2155.000000	0.283121
2156.000000	0.283014
2157.000000	0.283458
2158.000000	0.283249
2159.000000	0.282732
2160.000000	0.282697
2161.000000	0.282186
2162.000000	0.282247
2163.000000	0.283445
2164.000000	0.283581
2165.000000	0.283534
2166.000000	0.282820
2167.000000	0.281756
2168.000000	0.280895
2169.000000	0.280725
2170.000000	0.281417
2171.000000	0.281443
2172.000000	0.281612
2173.000000	0.282011
2174.000000	0.282082
2175.000000	0.282301
2176.000000	0.283351
2177.000000	0.283527
2178.000000	0.283282
2179.000000	0.282974
2180.000000	0.281559
2181.000000	0.281688
2182.000000	0.282097
2183.000000	0.282468
2184.000000	0.282338
2185.000000	0.281959
2186.000000	0.281048
2187.000000	0.279044
2188.000000	0.279109
2189.000000	0.280713
2190.000000	0.280782
2191.000000	0.281464
2192.000000	0.281466
2193.000000	0.280099
2194.000000	0.279677
2195.000000	0.279665
2196.000000	0.279988
2197.000000	0.280786
2198.000000	0.281939
2199.000000	0.284081
2200.000000	0.285098
2201.000000	0.286089
2202.000000	0.286604
2203.000000	0.285801
2204.000000	0.285189
2205.000000	0.285130
2206.000000	0.284336
2207.000000	0.283815
2208.000000	0.284462
2209.000000	0.284571
2210.000000	0.284356
2211.000000	0.282426
2212.000000	0.281320
2213.000000	0.279654
2214.000000	0.276684
2215.000000	0.275541
2216.000000	0.275263
2217.000000	0.274248
2218.000000	0.273264
2219.000000	0.273711
2220.000000	0.274695
2221.000000	0.275619
2222.000000	0.278636
2223.000000	0.279690
2224.000000	0.279417
2225.000000	0.279126
2226.000000	0.278986
2227.000000	0.275449
2228.000000	0.273167
2229.000000	0.272048
2230.000000	0.270678
2231.000000	0.273094
2232.000000	0.275625
2233.000000	0.277315
2234.000000	0.279102
2235.000000	0.279048
2236.000000	0.278925
2237.000000	0.277817
2238.000000	0.276658
2239.000000	0.275188
2240.000000	0.273670
2241.000000	0.270064
2242.000000	0.269589
2243.000000	0.271500
2244.000000	0.271891
2245.000000	0.273652
2246.000000	0.274512
2247.000000	0.273350
2248.000000	0.272960
2249.000000	0.273384
2250.000000	0.273775
2251.000000	0.272014
2252.000000	0.271542
2253.000000	0.270238
2254.000000	0.268377
2255.000000	0.268898
2256.000000	0.268795
2257.000000	0.269030
2258.000000	0.270309
2259.000000	0.271298
2260.000000	0.272119
2261.000000	0.272179
2262.000000	0.272183
2263.000000	0.272121
2264.000000	0.271290
2265.000000	0.270475
2266.000000	0.270166
2267.000000	0.268021
2268.000000	0.263200
2269.000000	0.262405
2270.000000	0.262745
2271.000000	0.263243
2272.000000	0.267235
2273.000000	0.268659
2274.000000	0.268258
2275.000000	0.267978
2276.000000	0.267890
2277.000000	0.266114
2278.000000	0.263727
2279.000000	0.262774
2280.000000	0.261655
2281.000000	0.258878
2282.000000	0.256906
2283.000000	0.254971
2284.000000	0.252540
2285.000000	0.251092
2286.000000	0.249318
2287.000000	0.248542
2288.000000	0.248999
2289.000000	0.249754
2290.000000	0.249814
2291.000000	0.249602
2292.000000	0.248291
2293.000000	0.246316
2294.000000	0.244480
2295.000000	0.241187
2296.000000	0.240975
2297.000000	0.241557
2298.000000	0.242773
2299.000000	0.248700
2300.000000	0.249231
2301.000000	0.246035
2302.000000	0.245937
2303.000000	0.244895
2304.000000	0.244461
2305.000000	0.246304
2306.000000	0.247460
2307.000000	0.247305
2308.000000	0.247716
2309.000000	0.251771
2310.000000	0.253596
2311.000000	0.255677
2312.000000	0.255153
2313.000000	0.252203
2314.000000	0.251672
2315.000000	0.251689
2316.000000	0.253563
2317.000000	0.254117
2318.000000	0.254812
2319.000000	0.257109
2320.000000	0.257377
2321.000000	0.257827
2322.000000	0.258420
2323.000000	0.256728
2324.000000	0.254667
2325.000000	0.254533
2326.000000	0.254576
2327.000000	0.254748
2328.000000	0.255287
2329.000000	0.255840
2330.000000	0.255579
2331.000000	0.254022
2332.000000	0.253978
2333.000000	0.253876
2334.000000	0.251892
2335.000000	0.250939
2336.000000	0.250402
2337.000000	0.248486
2338.000000	0.245262
2339.000000	0.244193
2340.000000	0.242676
2341.000000	0.242728
2342.000000	0.246055
2343.000000	0.246670
2344.000000	0.246403
2345.000000	0.246490
2346.000000	0.245720
2347.000000	0.245376
2348.000000	0.245494
2349.000000	0.245837
2350.000000	0.244139
2351.000000	0.243685
2352.000000	0.244418
2353.000000	0.242112
2354.000000	0.241124
2355.000000	0.238929
2356.000000	0.235862
2357.000000	0.236026
2358.000000	0.237895
2359.000000	0.240525
2360.000000	0.240949
2361.000000	0.240960
2362.000000	0.238152
2363.000000	0.233301
2364.000000	0.229931
2365.000000	0.225370
2366.000000	0.225398
2367.000000	0.229326
2368.000000	0.228897
2369.000000	0.231847
2370.000000	0.234763
2371.000000	0.228128
2372.000000	0.225124
2373.000000	0.223006
2374.000000	0.217634
2375.000000	0.221483
2376.000000	0.223006
2377.000000	0.220971
2378.000000	0.224954
2379.000000	0.222473
2380.000000	0.218129
2381.000000	0.221101
2382.000000	0.219356
2383.000000	0.214529
2384.000000	0.214300
2385.000000	0.213538
2386.000000	0.215591
2387.000000	0.220707
2388.000000	0.225279
2389.000000	0.226411
2390.000000	0.220042
2391.000000	0.211533
2392.000000	0.207159
2393.000000	0.207412
2394.000000	0.209620
2395.000000	0.211346
2396.000000	0.212583
2397.000000	0.216433
2398.000000	0.216986
2399.000000	0.215971
2400.000000	0.217648
2401.000000	0.211359
2402.000000	0.203600
2403.000000	0.203224
2404.000000	0.199654
2405.000000	0.195902
2406.000000	0.198790
2407.000000	0.199533
2408.000000	0.198659
2409.000000	0.201027
2410.000000	0.203073
2411.000000	0.203407
2412.000000	0.204256
2413.000000	0.205671
2414.000000	0.209417
2415.000000	0.209268
2416.000000	0.207702
2417.000000	0.212101
2418.000000	0.208134
2419.000000	0.207738
2420.000000	0.210189
2421.000000	0.203270
2422.000000	0.204806
2423.000000	0.202149
2424.000000	0.206139
2425.000000	0.212974
2426.000000	0.206031
2427.000000	0.210183
2428.000000	0.203855
2429.000000	0.194707
2430.000000	0.195907
2431.000000	0.186910
2432.000000	0.186537
2433.000000	0.190594
2434.000000	0.188010
2435.000000	0.186840
2436.000000	0.184203
2437.000000	0.178870
2438.000000	0.179374
2439.000000	0.187666
2440.000000	0.188886
2441.000000	0.187083
2442.000000	0.186535
2443.000000	0.181137
2444.000000	0.176153
2445.000000	0.173291
2446.000000	0.173963
2447.000000	0.173112
2448.000000	0.175032
2449.000000	0.192644
2450.000000	0.200922
2451.000000	0.208664
2452.000000	0.215546
2453.000000	0.187766
2454.000000	0.171297
2455.000000	0.173490
2456.000000	0.174674
2457.000000	0.190015
2458.000000	0.204978
2459.000000	0.202675
2460.000000	0.198328
2461.000000	0.196170
2462.000000	0.174054
2463.000000	0.160973
2464.000000	0.156647
2465.000000	0.158435
2466.000000	0.188146
2467.000000	0.202270
2468.000000	0.201677
2469.000000	0.197683
2470.000000	0.187099
2471.000000	0.186137
2472.000000	0.193030
2473.000000	0.196461
2474.000000	0.186192
2475.000000	0.176260
2476.000000	0.164961
2477.000000	0.148440
2478.000000	0.158723
2479.000000	0.159748
2480.000000	0.137089
2481.000000	0.129680
2482.000000	0.132615
2483.000000	0.146560
2484.000000	0.161128
2485.000000	0.158127
2486.000000	0.128418
2487.000000	0.120111
2488.000000	0.143921
2489.000000	0.168543
2490.000000	0.197380
2491.000000	0.164752
2492.000000	0.160007
2493.000000	0.178696
2494.000000	0.184189
2495.000000	0.199281
2496.000000	0.189621
2497.000000	0.144007
2498.000000	0.128413
2499.000000	0.117518
2500.000000	0.104316
