# Wavelength	NAu-1-30_HEX-20_FV7-50_00000.asd.rts.txt
350.000000	0.154947
351.000000	0.157559
352.000000	0.163024
353.000000	0.159261
354.000000	0.146727
355.000000	0.143599
356.000000	0.152268
357.000000	0.164716
358.000000	0.163441
359.000000	0.156373
360.000000	0.151193
361.000000	0.153113
362.000000	0.157950
363.000000	0.159923
364.000000	0.156968
365.000000	0.157105
366.000000	0.158434
367.000000	0.160099
368.000000	0.162373
369.000000	0.160082
370.000000	0.159858
371.000000	0.168905
372.000000	0.168150
373.000000	0.166366
374.000000	0.169388
375.000000	0.166217
376.000000	0.163295
377.000000	0.163738
378.000000	0.168066
379.000000	0.171037
380.000000	0.171678
381.000000	0.171264
382.000000	0.170233
383.000000	0.169229
384.000000	0.169308
385.000000	0.172331
386.000000	0.176590
387.000000	0.179465
388.000000	0.176101
389.000000	0.174837
390.000000	0.176179
391.000000	0.177612
392.000000	0.177864
393.000000	0.178058
394.000000	0.179141
395.000000	0.180281
396.000000	0.182348
397.000000	0.184520
398.000000	0.183159
399.000000	0.185420
400.000000	0.189025
401.000000	0.188016
402.000000	0.188528
403.000000	0.190214
404.000000	0.191784
405.000000	0.192385
406.000000	0.193284
407.000000	0.194720
408.000000	0.194908
409.000000	0.195585
410.000000	0.196634
411.000000	0.196909
412.000000	0.197961
413.000000	0.199213
414.000000	0.199870
415.000000	0.200771
416.000000	0.201204
417.000000	0.201063
418.000000	0.201784
419.000000	0.202547
420.000000	0.203156
421.000000	0.203885
422.000000	0.204319
423.000000	0.204339
424.000000	0.204108
425.000000	0.204712
426.000000	0.205058
427.000000	0.204540
428.000000	0.204926
429.000000	0.205380
430.000000	0.205514
431.000000	0.205484
432.000000	0.205175
433.000000	0.205016
434.000000	0.205695
435.000000	0.205605
436.000000	0.205489
437.000000	0.206047
438.000000	0.205630
439.000000	0.205288
440.000000	0.205528
441.000000	0.205316
442.000000	0.205297
443.000000	0.205421
444.000000	0.205320
445.000000	0.205380
446.000000	0.205565
447.000000	0.205622
448.000000	0.205820
449.000000	0.206509
450.000000	0.207688
451.000000	0.208311
452.000000	0.209318
453.000000	0.210840
454.000000	0.212321
455.000000	0.213797
456.000000	0.215445
457.000000	0.217324
458.000000	0.218726
459.000000	0.219950
460.000000	0.221394
461.000000	0.222875
462.000000	0.224125
463.000000	0.224957
464.000000	0.225727
465.000000	0.226481
466.000000	0.227259
467.000000	0.228203
468.000000	0.228993
469.000000	0.229405
470.000000	0.229532
471.000000	0.230114
472.000000	0.230818
473.000000	0.231367
474.000000	0.231808
475.000000	0.232289
476.000000	0.232889
477.000000	0.233282
478.000000	0.233659
479.000000	0.234116
480.000000	0.234402
481.000000	0.234623
482.000000	0.235027
483.000000	0.235560
484.000000	0.236006
485.000000	0.236208
486.000000	0.236403
487.000000	0.237031
488.000000	0.237505
489.000000	0.237840
490.000000	0.238416
491.000000	0.238973
492.000000	0.239483
493.000000	0.239857
494.000000	0.240257
495.000000	0.240632
496.000000	0.240980
497.000000	0.241722
498.000000	0.242309
499.000000	0.242693
500.000000	0.243249
501.000000	0.243700
502.000000	0.244177
503.000000	0.244876
504.000000	0.245394
505.000000	0.245789
506.000000	0.246214
507.000000	0.246776
508.000000	0.247321
509.000000	0.247778
510.000000	0.248410
511.000000	0.249028
512.000000	0.249622
513.000000	0.250262
514.000000	0.250850
515.000000	0.251469
516.000000	0.252170
517.000000	0.252781
518.000000	0.253351
519.000000	0.253893
520.000000	0.254587
521.000000	0.255187
522.000000	0.255667
523.000000	0.256327
524.000000	0.257020
525.000000	0.257693
526.000000	0.258374
527.000000	0.258936
528.000000	0.259551
529.000000	0.260429
530.000000	0.261179
531.000000	0.261866
532.000000	0.262500
533.000000	0.263199
534.000000	0.263928
535.000000	0.264652
536.000000	0.265373
537.000000	0.266055
538.000000	0.266751
539.000000	0.267523
540.000000	0.268183
541.000000	0.268784
542.000000	0.269438
543.000000	0.270126
544.000000	0.270811
545.000000	0.271435
546.000000	0.272138
547.000000	0.272888
548.000000	0.273663
549.000000	0.274340
550.000000	0.275060
551.000000	0.275809
552.000000	0.276485
553.000000	0.277146
554.000000	0.277837
555.000000	0.278576
556.000000	0.279291
557.000000	0.279912
558.000000	0.280536
559.000000	0.281105
560.000000	0.281679
561.000000	0.282336
562.000000	0.283000
563.000000	0.283616
564.000000	0.284240
565.000000	0.284828
566.000000	0.285385
567.000000	0.285965
568.000000	0.286559
569.000000	0.287092
570.000000	0.287636
571.000000	0.288164
572.000000	0.288578
573.000000	0.289141
574.000000	0.289706
575.000000	0.290073
576.000000	0.290487
577.000000	0.290899
578.000000	0.291305
579.000000	0.291716
580.000000	0.292094
581.000000	0.292423
582.000000	0.292714
583.000000	0.293054
584.000000	0.293441
585.000000	0.293823
586.000000	0.294097
587.000000	0.294351
588.000000	0.294697
589.000000	0.295051
590.000000	0.295358
591.000000	0.295594
592.000000	0.295771
593.000000	0.295984
594.000000	0.296238
595.000000	0.296446
596.000000	0.296672
597.000000	0.296893
598.000000	0.296971
599.000000	0.297178
600.000000	0.297396
601.000000	0.297444
602.000000	0.297614
603.000000	0.297765
604.000000	0.297862
605.000000	0.298044
606.000000	0.298174
607.000000	0.298268
608.000000	0.298437
609.000000	0.298572
610.000000	0.298716
611.000000	0.298920
612.000000	0.299062
613.000000	0.299127
614.000000	0.299183
615.000000	0.299316
616.000000	0.299454
617.000000	0.299559
618.000000	0.299740
619.000000	0.299850
620.000000	0.299878
621.000000	0.299928
622.000000	0.299991
623.000000	0.300083
624.000000	0.300198
625.000000	0.300268
626.000000	0.300326
627.000000	0.300393
628.000000	0.300456
629.000000	0.300594
630.000000	0.300699
631.000000	0.300844
632.000000	0.300965
633.000000	0.301091
634.000000	0.301234
635.000000	0.301347
636.000000	0.301505
637.000000	0.301714
638.000000	0.301872
639.000000	0.302031
640.000000	0.302235
641.000000	0.302365
642.000000	0.302489
643.000000	0.302651
644.000000	0.302874
645.000000	0.302968
646.000000	0.303090
647.000000	0.303311
648.000000	0.303420
649.000000	0.303506
650.000000	0.303611
651.000000	0.303789
652.000000	0.303980
653.000000	0.304175
654.000000	0.304301
655.000000	0.304451
656.000000	0.304683
657.000000	0.304949
658.000000	0.305109
659.000000	0.305297
660.000000	0.305537
661.000000	0.305693
662.000000	0.305900
663.000000	0.306174
664.000000	0.306360
665.000000	0.306542
666.000000	0.306710
667.000000	0.306834
668.000000	0.307119
669.000000	0.307401
670.000000	0.307613
671.000000	0.307931
672.000000	0.308224
673.000000	0.308451
674.000000	0.308652
675.000000	0.308854
676.000000	0.309037
677.000000	0.309206
678.000000	0.309522
679.000000	0.309810
680.000000	0.309976
681.000000	0.310179
682.000000	0.310480
683.000000	0.310793
684.000000	0.311101
685.000000	0.311366
686.000000	0.311612
687.000000	0.311844
688.000000	0.312154
689.000000	0.312453
690.000000	0.312722
691.000000	0.313099
692.000000	0.313384
693.000000	0.313625
694.000000	0.313978
695.000000	0.314349
696.000000	0.314681
697.000000	0.314941
698.000000	0.315244
699.000000	0.315550
700.000000	0.315827
701.000000	0.316129
702.000000	0.316459
703.000000	0.316778
704.000000	0.317039
705.000000	0.317356
706.000000	0.317662
707.000000	0.317914
708.000000	0.318151
709.000000	0.318435
710.000000	0.318811
711.000000	0.319159
712.000000	0.319466
713.000000	0.319753
714.000000	0.320015
715.000000	0.320289
716.000000	0.320587
717.000000	0.320878
718.000000	0.321168
719.000000	0.321392
720.000000	0.321561
721.000000	0.321922
722.000000	0.322226
723.000000	0.322443
724.000000	0.322653
725.000000	0.322949
726.000000	0.323327
727.000000	0.323563
728.000000	0.323823
729.000000	0.324115
730.000000	0.324367
731.000000	0.324601
732.000000	0.324813
733.000000	0.325065
734.000000	0.325386
735.000000	0.325596
736.000000	0.325835
737.000000	0.326095
738.000000	0.326292
739.000000	0.326480
740.000000	0.326559
741.000000	0.326759
742.000000	0.326898
743.000000	0.326950
744.000000	0.327148
745.000000	0.327318
746.000000	0.327490
747.000000	0.327644
748.000000	0.327832
749.000000	0.328038
750.000000	0.328209
751.000000	0.328373
752.000000	0.328486
753.000000	0.328594
754.000000	0.328789
755.000000	0.328932
756.000000	0.328998
757.000000	0.328972
758.000000	0.329066
759.000000	0.329251
760.000000	0.329415
761.000000	0.329603
762.000000	0.329761
763.000000	0.329860
764.000000	0.329970
765.000000	0.329983
766.000000	0.329949
767.000000	0.329918
768.000000	0.329831
769.000000	0.329828
770.000000	0.329927
771.000000	0.329946
772.000000	0.329962
773.000000	0.329989
774.000000	0.330144
775.000000	0.330205
776.000000	0.330238
777.000000	0.330267
778.000000	0.330134
779.000000	0.330049
780.000000	0.330042
781.000000	0.329952
782.000000	0.329879
783.000000	0.329931
784.000000	0.329986
785.000000	0.329950
786.000000	0.329862
787.000000	0.329764
788.000000	0.329706
789.000000	0.329627
790.000000	0.329557
791.000000	0.329609
792.000000	0.329542
793.000000	0.329394
794.000000	0.329243
795.000000	0.329092
796.000000	0.328991
797.000000	0.328935
798.000000	0.328881
799.000000	0.328875
800.000000	0.328865
801.000000	0.328788
802.000000	0.328672
803.000000	0.328509
804.000000	0.328352
805.000000	0.328250
806.000000	0.328086
807.000000	0.327951
808.000000	0.327862
809.000000	0.327669
810.000000	0.327523
811.000000	0.327503
812.000000	0.327392
813.000000	0.327214
814.000000	0.327035
815.000000	0.326988
816.000000	0.326846
817.000000	0.326687
818.000000	0.326548
819.000000	0.326475
820.000000	0.326437
821.000000	0.326352
822.000000	0.326232
823.000000	0.326171
824.000000	0.326093
825.000000	0.326001
826.000000	0.325941
827.000000	0.325766
828.000000	0.325491
829.000000	0.325334
830.000000	0.325131
831.000000	0.324957
832.000000	0.324814
833.000000	0.324621
834.000000	0.324381
835.000000	0.324143
836.000000	0.323897
837.000000	0.323678
838.000000	0.323487
839.000000	0.323248
840.000000	0.323007
841.000000	0.322842
842.000000	0.322753
843.000000	0.322665
844.000000	0.322608
845.000000	0.322545
846.000000	0.322449
847.000000	0.322301
848.000000	0.322069
849.000000	0.321779
850.000000	0.321513
851.000000	0.321313
852.000000	0.321214
853.000000	0.321134
854.000000	0.321017
855.000000	0.320877
856.000000	0.320577
857.000000	0.320295
858.000000	0.320072
859.000000	0.319863
860.000000	0.319770
861.000000	0.319649
862.000000	0.319507
863.000000	0.319331
864.000000	0.319183
865.000000	0.319086
866.000000	0.319002
867.000000	0.318671
868.000000	0.318514
869.000000	0.318425
870.000000	0.318222
871.000000	0.318001
872.000000	0.317791
873.000000	0.317584
874.000000	0.317545
875.000000	0.317442
876.000000	0.317231
877.000000	0.316902
878.000000	0.316655
879.000000	0.316382
880.000000	0.315959
881.000000	0.315838
882.000000	0.315814
883.000000	0.315812
884.000000	0.315722
885.000000	0.315448
886.000000	0.315132
887.000000	0.314909
888.000000	0.314792
889.000000	0.314638
890.000000	0.314294
891.000000	0.313889
892.000000	0.313629
893.000000	0.313449
894.000000	0.313352
895.000000	0.313078
896.000000	0.312827
897.000000	0.312689
898.000000	0.312671
899.000000	0.312542
900.000000	0.312382
901.000000	0.312177
902.000000	0.311884
903.000000	0.311653
904.000000	0.311500
905.000000	0.311306
906.000000	0.311246
907.000000	0.311029
908.000000	0.310675
909.000000	0.310374
910.000000	0.310209
911.000000	0.310078
912.000000	0.309892
913.000000	0.309721
914.000000	0.309616
915.000000	0.309509
916.000000	0.309100
917.000000	0.308838
918.000000	0.308747
919.000000	0.308700
920.000000	0.308498
921.000000	0.308302
922.000000	0.308165
923.000000	0.308036
924.000000	0.307782
925.000000	0.307543
926.000000	0.307384
927.000000	0.307059
928.000000	0.306794
929.000000	0.306631
930.000000	0.306531
931.000000	0.306416
932.000000	0.306152
933.000000	0.305802
934.000000	0.305536
935.000000	0.305318
936.000000	0.305218
937.000000	0.305155
938.000000	0.304995
939.000000	0.304924
940.000000	0.304821
941.000000	0.304577
942.000000	0.304422
943.000000	0.304283
944.000000	0.304027
945.000000	0.303941
946.000000	0.303856
947.000000	0.303675
948.000000	0.303313
949.000000	0.303011
950.000000	0.302891
951.000000	0.302845
952.000000	0.302669
953.000000	0.302243
954.000000	0.301968
955.000000	0.301988
956.000000	0.301861
957.000000	0.301583
958.000000	0.301324
959.000000	0.301378
960.000000	0.301233
961.000000	0.301024
962.000000	0.300872
963.000000	0.300874
964.000000	0.300916
965.000000	0.300735
966.000000	0.300191
967.000000	0.300103
968.000000	0.299915
969.000000	0.299540
970.000000	0.299275
971.000000	0.299265
972.000000	0.299329
973.000000	0.299267
974.000000	0.299098
975.000000	0.298934
976.000000	0.298671
977.000000	0.298311
978.000000	0.298345
979.000000	0.298351
980.000000	0.298116
981.000000	0.298038
982.000000	0.298174
983.000000	0.298099
984.000000	0.297850
985.000000	0.297807
986.000000	0.297576
987.000000	0.297484
988.000000	0.297565
989.000000	0.297317
990.000000	0.297344
991.000000	0.297369
992.000000	0.297057
993.000000	0.297056
994.000000	0.297255
995.000000	0.297441
996.000000	0.297076
997.000000	0.297258
998.000000	0.297212
999.000000	0.296839
1000.000000	0.297094
1001.000000	0.296608
1002.000000	0.297434
1003.000000	0.297102
1004.000000	0.297042
1005.000000	0.297548
1006.000000	0.297568
1007.000000	0.297002
1008.000000	0.296778
1009.000000	0.297463
1010.000000	0.297111
1011.000000	0.297154
1012.000000	0.297888
1013.000000	0.297798
1014.000000	0.297147
1015.000000	0.296588
1016.000000	0.296288
1017.000000	0.296667
1018.000000	0.297573
1019.000000	0.297992
1020.000000	0.298732
1021.000000	0.298761
1022.000000	0.298253
1023.000000	0.298272
1024.000000	0.298046
1025.000000	0.298401
1026.000000	0.298879
1027.000000	0.298482
1028.000000	0.298426
1029.000000	0.298268
1030.000000	0.297965
1031.000000	0.297989
1032.000000	0.297676
1033.000000	0.297585
1034.000000	0.297689
1035.000000	0.297910
1036.000000	0.298239
1037.000000	0.298976
1038.000000	0.299195
1039.000000	0.299224
1040.000000	0.299665
1041.000000	0.299644
1042.000000	0.299702
1043.000000	0.300252
1044.000000	0.300503
1045.000000	0.300797
1046.000000	0.301186
1047.000000	0.301278
1048.000000	0.300867
1049.000000	0.301006
1050.000000	0.301412
1051.000000	0.301538
1052.000000	0.301762
1053.000000	0.301931
1054.000000	0.301787
1055.000000	0.302029
1056.000000	0.302723
1057.000000	0.303239
1058.000000	0.303569
1059.000000	0.303872
1060.000000	0.303691
1061.000000	0.304070
1062.000000	0.304257
1063.000000	0.304268
1064.000000	0.304751
1065.000000	0.305623
1066.000000	0.305938
1067.000000	0.306237
1068.000000	0.306542
1069.000000	0.306482
1070.000000	0.306560
1071.000000	0.306819
1072.000000	0.307121
1073.000000	0.307546
1074.000000	0.307660
1075.000000	0.308028
1076.000000	0.308450
1077.000000	0.308237
1078.000000	0.308199
1079.000000	0.308484
1080.000000	0.309012
1081.000000	0.309273
1082.000000	0.309871
1083.000000	0.310257
1084.000000	0.310202
1085.000000	0.310555
1086.000000	0.311200
1087.000000	0.311710
1088.000000	0.312297
1089.000000	0.312722
1090.000000	0.313152
1091.000000	0.313240
1092.000000	0.313294
1093.000000	0.313353
1094.000000	0.313561
1095.000000	0.313730
1096.000000	0.313995
1097.000000	0.314352
1098.000000	0.314814
1099.000000	0.315411
1100.000000	0.315843
1101.000000	0.316288
1102.000000	0.316616
1103.000000	0.316757
1104.000000	0.316871
1105.000000	0.316756
1106.000000	0.316996
1107.000000	0.317291
1108.000000	0.317578
1109.000000	0.318368
1110.000000	0.318837
1111.000000	0.319071
1112.000000	0.318934
1113.000000	0.319208
1114.000000	0.319452
1115.000000	0.319775
1116.000000	0.320419
1117.000000	0.320782
1118.000000	0.320838
1119.000000	0.321147
1120.000000	0.321626
1121.000000	0.321939
1122.000000	0.322350
1123.000000	0.322901
1124.000000	0.323283
1125.000000	0.323546
1126.000000	0.323703
1127.000000	0.323848
1128.000000	0.323914
1129.000000	0.323686
1130.000000	0.323985
1131.000000	0.324700
1132.000000	0.324875
1133.000000	0.325015
1134.000000	0.325283
1135.000000	0.325220
1136.000000	0.325378
1137.000000	0.325909
1138.000000	0.326150
1139.000000	0.326319
1140.000000	0.326528
1141.000000	0.326510
1142.000000	0.326753
1143.000000	0.327074
1144.000000	0.327447
1145.000000	0.327869
1146.000000	0.328253
1147.000000	0.328323
1148.000000	0.327988
1149.000000	0.328031
1150.000000	0.328081
1151.000000	0.328112
1152.000000	0.328248
1153.000000	0.328320
1154.000000	0.328145
1155.000000	0.328194
1156.000000	0.328362
1157.000000	0.328583
1158.000000	0.329009
1159.000000	0.329153
1160.000000	0.329125
1161.000000	0.329219
1162.000000	0.329323
1163.000000	0.329402
1164.000000	0.329569
1165.000000	0.329788
1166.000000	0.329990
1167.000000	0.330118
1168.000000	0.330179
1169.000000	0.330275
1170.000000	0.330365
1171.000000	0.330324
1172.000000	0.330500
1173.000000	0.330834
1174.000000	0.331051
1175.000000	0.331291
1176.000000	0.331427
1177.000000	0.331620
1178.000000	0.331677
1179.000000	0.331546
1180.000000	0.331493
1181.000000	0.331429
1182.000000	0.331463
1183.000000	0.331680
1184.000000	0.331781
1185.000000	0.331855
1186.000000	0.331894
1187.000000	0.331907
1188.000000	0.331843
1189.000000	0.331878
1190.000000	0.331996
1191.000000	0.332048
1192.000000	0.332251
1193.000000	0.332437
1194.000000	0.332423
1195.000000	0.332515
1196.000000	0.332584
1197.000000	0.332680
1198.000000	0.332824
1199.000000	0.332955
1200.000000	0.333143
1201.000000	0.333223
1202.000000	0.333227
1203.000000	0.333445
1204.000000	0.333541
1205.000000	0.333604
1206.000000	0.333696
1207.000000	0.333923
1208.000000	0.333998
1209.000000	0.334114
1210.000000	0.334176
1211.000000	0.334146
1212.000000	0.334119
1213.000000	0.334113
1214.000000	0.334120
1215.000000	0.334068
1216.000000	0.334069
1217.000000	0.334110
1218.000000	0.334095
1219.000000	0.334078
1220.000000	0.334125
1221.000000	0.334136
1222.000000	0.334090
1223.000000	0.334175
1224.000000	0.334279
1225.000000	0.334320
1226.000000	0.334363
1227.000000	0.334363
1228.000000	0.334369
1229.000000	0.334305
1230.000000	0.334156
1231.000000	0.334066
1232.000000	0.334031
1233.000000	0.334190
1234.000000	0.334570
1235.000000	0.334690
1236.000000	0.334702
1237.000000	0.334700
1238.000000	0.334402
1239.000000	0.334333
1240.000000	0.334405
1241.000000	0.334421
1242.000000	0.334437
1243.000000	0.334538
1244.000000	0.334536
1245.000000	0.334503
1246.000000	0.334654
1247.000000	0.334805
1248.000000	0.334809
1249.000000	0.334960
1250.000000	0.335087
1251.000000	0.334959
1252.000000	0.334889
1253.000000	0.334868
1254.000000	0.334860
1255.000000	0.334796
1256.000000	0.334730
1257.000000	0.334711
1258.000000	0.334731
1259.000000	0.334626
1260.000000	0.334678
1261.000000	0.334825
1262.000000	0.334893
1263.000000	0.334978
1264.000000	0.335036
1265.000000	0.335119
1266.000000	0.335143
1267.000000	0.335170
1268.000000	0.335273
1269.000000	0.335213
1270.000000	0.335222
1271.000000	0.335241
1272.000000	0.335195
1273.000000	0.335371
1274.000000	0.335489
1275.000000	0.335491
1276.000000	0.335485
1277.000000	0.335552
1278.000000	0.335416
1279.000000	0.335350
1280.000000	0.335275
1281.000000	0.335185
1282.000000	0.335127
1283.000000	0.335176
1284.000000	0.335256
1285.000000	0.335316
1286.000000	0.335346
1287.000000	0.335366
1288.000000	0.335526
1289.000000	0.335570
1290.000000	0.335521
1291.000000	0.335522
1292.000000	0.335454
1293.000000	0.335350
1294.000000	0.335349
1295.000000	0.335348
1296.000000	0.335407
1297.000000	0.335526
1298.000000	0.335563
1299.000000	0.335614
1300.000000	0.335571
1301.000000	0.335377
1302.000000	0.335328
1303.000000	0.335553
1304.000000	0.335489
1305.000000	0.335492
1306.000000	0.335484
1307.000000	0.335348
1308.000000	0.335280
1309.000000	0.335243
1310.000000	0.335255
1311.000000	0.335309
1312.000000	0.335319
1313.000000	0.335325
1314.000000	0.335329
1315.000000	0.335164
1316.000000	0.335047
1317.000000	0.335113
1318.000000	0.335171
1319.000000	0.335050
1320.000000	0.334969
1321.000000	0.334889
1322.000000	0.334689
1323.000000	0.334584
1324.000000	0.334576
1325.000000	0.334440
1326.000000	0.334363
1327.000000	0.334373
1328.000000	0.334427
1329.000000	0.334264
1330.000000	0.333895
1331.000000	0.333708
1332.000000	0.333493
1333.000000	0.333401
1334.000000	0.333666
1335.000000	0.333790
1336.000000	0.333861
1337.000000	0.333805
1338.000000	0.333613
1339.000000	0.333406
1340.000000	0.333162
1341.000000	0.333023
1342.000000	0.333030
1343.000000	0.332978
1344.000000	0.332851
1345.000000	0.332593
1346.000000	0.332389
1347.000000	0.332168
1348.000000	0.331911
1349.000000	0.331790
1350.000000	0.331763
1351.000000	0.331683
1352.000000	0.331676
1353.000000	0.331658
1354.000000	0.331702
1355.000000	0.331587
1356.000000	0.331495
1357.000000	0.331469
1358.000000	0.331317
1359.000000	0.331231
1360.000000	0.331202
1361.000000	0.331322
1362.000000	0.331270
1363.000000	0.331130
1364.000000	0.331113
1365.000000	0.331026
1366.000000	0.330942
1367.000000	0.330960
1368.000000	0.330919
1369.000000	0.330815
1370.000000	0.330596
1371.000000	0.330281
1372.000000	0.329947
1373.000000	0.329659
1374.000000	0.329396
1375.000000	0.329227
1376.000000	0.329272
1377.000000	0.329139
1378.000000	0.328988
1379.000000	0.328835
1380.000000	0.328463
1381.000000	0.328181
1382.000000	0.327955
1383.000000	0.327723
1384.000000	0.327401
1385.000000	0.326804
1386.000000	0.326270
1387.000000	0.325860
1388.000000	0.325362
1389.000000	0.325039
1390.000000	0.324725
1391.000000	0.323943
1392.000000	0.323149
1393.000000	0.322587
1394.000000	0.322126
1395.000000	0.321629
1396.000000	0.321390
1397.000000	0.320944
1398.000000	0.320255
1399.000000	0.319668
1400.000000	0.319087
1401.000000	0.318476
1402.000000	0.317899
1403.000000	0.317304
1404.000000	0.316699
1405.000000	0.316064
1406.000000	0.315306
1407.000000	0.314617
1408.000000	0.313992
1409.000000	0.313394
1410.000000	0.312872
1411.000000	0.312236
1412.000000	0.311541
1413.000000	0.310967
1414.000000	0.310521
1415.000000	0.310191
1416.000000	0.309820
1417.000000	0.309546
1418.000000	0.309304
1419.000000	0.309062
1420.000000	0.308857
1421.000000	0.308709
1422.000000	0.308488
1423.000000	0.308217
1424.000000	0.307775
1425.000000	0.307378
1426.000000	0.307066
1427.000000	0.306780
1428.000000	0.306623
1429.000000	0.306517
1430.000000	0.306323
1431.000000	0.306121
1432.000000	0.305865
1433.000000	0.305531
1434.000000	0.305331
1435.000000	0.305246
1436.000000	0.305186
1437.000000	0.305133
1438.000000	0.305182
1439.000000	0.305293
1440.000000	0.305494
1441.000000	0.305960
1442.000000	0.306359
1443.000000	0.306698
1444.000000	0.307072
1445.000000	0.307437
1446.000000	0.307717
1447.000000	0.307980
1448.000000	0.308129
1449.000000	0.308230
1450.000000	0.308348
1451.000000	0.308502
1452.000000	0.308663
1453.000000	0.308794
1454.000000	0.308894
1455.000000	0.309028
1456.000000	0.309045
1457.000000	0.309056
1458.000000	0.309227
1459.000000	0.309264
1460.000000	0.309309
1461.000000	0.309399
1462.000000	0.309223
1463.000000	0.308960
1464.000000	0.308913
1465.000000	0.308985
1466.000000	0.308972
1467.000000	0.309012
1468.000000	0.309082
1469.000000	0.309053
1470.000000	0.309049
1471.000000	0.309231
1472.000000	0.309337
1473.000000	0.309545
1474.000000	0.309746
1475.000000	0.309841
1476.000000	0.309987
1477.000000	0.310081
1478.000000	0.310248
1479.000000	0.310540
1480.000000	0.310807
1481.000000	0.310964
1482.000000	0.311096
1483.000000	0.311246
1484.000000	0.311309
1485.000000	0.311457
1486.000000	0.311644
1487.000000	0.311836
1488.000000	0.312069
1489.000000	0.312307
1490.000000	0.312461
1491.000000	0.312676
1492.000000	0.312841
1493.000000	0.313014
1494.000000	0.313221
1495.000000	0.313387
1496.000000	0.313475
1497.000000	0.313673
1498.000000	0.313945
1499.000000	0.314097
1500.000000	0.314404
1501.000000	0.314682
1502.000000	0.314838
1503.000000	0.315072
1504.000000	0.315246
1505.000000	0.315510
1506.000000	0.315783
1507.000000	0.315887
1508.000000	0.316076
1509.000000	0.316175
1510.000000	0.316183
1511.000000	0.316406
1512.000000	0.316606
1513.000000	0.316702
1514.000000	0.316853
1515.000000	0.316820
1516.000000	0.316733
1517.000000	0.316679
1518.000000	0.316628
1519.000000	0.316663
1520.000000	0.316800
1521.000000	0.316943
1522.000000	0.317088
1523.000000	0.317189
1524.000000	0.317163
1525.000000	0.317089
1526.000000	0.317058
1527.000000	0.317110
1528.000000	0.317208
1529.000000	0.317299
1530.000000	0.317285
1531.000000	0.317261
1532.000000	0.317250
1533.000000	0.317219
1534.000000	0.317190
1535.000000	0.317274
1536.000000	0.317336
1537.000000	0.317506
1538.000000	0.317799
1539.000000	0.317872
1540.000000	0.317965
1541.000000	0.318061
1542.000000	0.318050
1543.000000	0.318253
1544.000000	0.318478
1545.000000	0.318668
1546.000000	0.318864
1547.000000	0.318869
1548.000000	0.318827
1549.000000	0.318834
1550.000000	0.318787
1551.000000	0.318766
1552.000000	0.318782
1553.000000	0.318770
1554.000000	0.318775
1555.000000	0.318936
1556.000000	0.319137
1557.000000	0.319136
1558.000000	0.319160
1559.000000	0.319081
1560.000000	0.319043
1561.000000	0.319007
1562.000000	0.318976
1563.000000	0.319044
1564.000000	0.319025
1565.000000	0.318927
1566.000000	0.318827
1567.000000	0.318756
1568.000000	0.318753
1569.000000	0.318916
1570.000000	0.318947
1571.000000	0.318945
1572.000000	0.318910
1573.000000	0.318795
1574.000000	0.318732
1575.000000	0.318693
1576.000000	0.318691
1577.000000	0.318662
1578.000000	0.318655
1579.000000	0.318804
1580.000000	0.318864
1581.000000	0.318950
1582.000000	0.319010
1583.000000	0.318981
1584.000000	0.318973
1585.000000	0.319122
1586.000000	0.319158
1587.000000	0.319107
1588.000000	0.319154
1589.000000	0.319235
1590.000000	0.319255
1591.000000	0.319346
1592.000000	0.319335
1593.000000	0.319237
1594.000000	0.319160
1595.000000	0.319087
1596.000000	0.319086
1597.000000	0.319151
1598.000000	0.319118
1599.000000	0.319153
1600.000000	0.319096
1601.000000	0.318989
1602.000000	0.318951
1603.000000	0.318952
1604.000000	0.318897
1605.000000	0.318888
1606.000000	0.318820
1607.000000	0.318721
1608.000000	0.318706
1609.000000	0.318753
1610.000000	0.318778
1611.000000	0.318916
1612.000000	0.318911
1613.000000	0.318856
1614.000000	0.318905
1615.000000	0.319074
1616.000000	0.319130
1617.000000	0.319132
1618.000000	0.319198
1619.000000	0.319137
1620.000000	0.319194
1621.000000	0.319497
1622.000000	0.319654
1623.000000	0.319689
1624.000000	0.319713
1625.000000	0.319533
1626.000000	0.319455
1627.000000	0.319405
1628.000000	0.319461
1629.000000	0.319572
1630.000000	0.319700
1631.000000	0.319852
1632.000000	0.319939
1633.000000	0.320077
1634.000000	0.320124
1635.000000	0.320119
1636.000000	0.320093
1637.000000	0.319969
1638.000000	0.319954
1639.000000	0.320102
1640.000000	0.320084
1641.000000	0.320077
1642.000000	0.320132
1643.000000	0.320172
1644.000000	0.320177
1645.000000	0.320246
1646.000000	0.320210
1647.000000	0.320070
1648.000000	0.320008
1649.000000	0.320058
1650.000000	0.320139
1651.000000	0.320335
1652.000000	0.320368
1653.000000	0.320316
1654.000000	0.320341
1655.000000	0.320224
1656.000000	0.320123
1657.000000	0.320136
1658.000000	0.320109
1659.000000	0.320127
1660.000000	0.320204
1661.000000	0.320283
1662.000000	0.320330
1663.000000	0.320340
1664.000000	0.320342
1665.000000	0.320340
1666.000000	0.320382
1667.000000	0.320320
1668.000000	0.320347
1669.000000	0.320380
1670.000000	0.320389
1671.000000	0.320539
1672.000000	0.320703
1673.000000	0.320853
1674.000000	0.320913
1675.000000	0.321012
1676.000000	0.320884
1677.000000	0.320904
1678.000000	0.321154
1679.000000	0.321326
1680.000000	0.321440
1681.000000	0.321536
1682.000000	0.321553
1683.000000	0.321459
1684.000000	0.321347
1685.000000	0.321287
1686.000000	0.321157
1687.000000	0.321030
1688.000000	0.320965
1689.000000	0.321011
1690.000000	0.320989
1691.000000	0.321077
1692.000000	0.321238
1693.000000	0.321291
1694.000000	0.321302
1695.000000	0.321420
1696.000000	0.321380
1697.000000	0.321347
1698.000000	0.321429
1699.000000	0.321443
1700.000000	0.321390
1701.000000	0.321460
1702.000000	0.321363
1703.000000	0.321263
1704.000000	0.321302
1705.000000	0.321309
1706.000000	0.321326
1707.000000	0.321337
1708.000000	0.321274
1709.000000	0.321266
1710.000000	0.321466
1711.000000	0.321500
1712.000000	0.321526
1713.000000	0.321534
1714.000000	0.321400
1715.000000	0.321382
1716.000000	0.321527
1717.000000	0.321537
1718.000000	0.321448
1719.000000	0.321398
1720.000000	0.321357
1721.000000	0.321343
1722.000000	0.321345
1723.000000	0.321419
1724.000000	0.321584
1725.000000	0.321709
1726.000000	0.321821
1727.000000	0.321872
1728.000000	0.321751
1729.000000	0.321717
1730.000000	0.321844
1731.000000	0.321912
1732.000000	0.322046
1733.000000	0.322142
1734.000000	0.322014
1735.000000	0.322061
1736.000000	0.322133
1737.000000	0.322197
1738.000000	0.322399
1739.000000	0.322396
1740.000000	0.322271
1741.000000	0.322144
1742.000000	0.321896
1743.000000	0.321871
1744.000000	0.321922
1745.000000	0.321876
1746.000000	0.321881
1747.000000	0.321765
1748.000000	0.321669
1749.000000	0.321694
1750.000000	0.321618
1751.000000	0.321609
1752.000000	0.321674
1753.000000	0.321559
1754.000000	0.321516
1755.000000	0.321516
1756.000000	0.321461
1757.000000	0.321326
1758.000000	0.321338
1759.000000	0.321409
1760.000000	0.321456
1761.000000	0.321555
1762.000000	0.321636
1763.000000	0.321755
1764.000000	0.321759
1765.000000	0.321656
1766.000000	0.321653
1767.000000	0.321536
1768.000000	0.321374
1769.000000	0.321330
1770.000000	0.321349
1771.000000	0.321267
1772.000000	0.321247
1773.000000	0.321340
1774.000000	0.321335
1775.000000	0.321296
1776.000000	0.321271
1777.000000	0.321212
1778.000000	0.321174
1779.000000	0.321105
1780.000000	0.321093
1781.000000	0.321102
1782.000000	0.321084
1783.000000	0.321088
1784.000000	0.321269
1785.000000	0.321296
1786.000000	0.321213
1787.000000	0.321292
1788.000000	0.321212
1789.000000	0.321101
1790.000000	0.321092
1791.000000	0.321040
1792.000000	0.321029
1793.000000	0.321015
1794.000000	0.321100
1795.000000	0.321127
1796.000000	0.321047
1797.000000	0.321054
1798.000000	0.320954
1799.000000	0.321065
1800.000000	0.321541
1801.000000	0.320583
1802.000000	0.321050
1803.000000	0.321928
1804.000000	0.322137
1805.000000	0.322346
1806.000000	0.322405
1807.000000	0.321737
1808.000000	0.321547
1809.000000	0.321274
1810.000000	0.321996
1811.000000	0.322010
1812.000000	0.321914
1813.000000	0.321758
1814.000000	0.321632
1815.000000	0.321184
1816.000000	0.320092
1817.000000	0.319672
1818.000000	0.319378
1819.000000	0.319415
1820.000000	0.319635
1821.000000	0.320240
1822.000000	0.320446
1823.000000	0.320280
1824.000000	0.320168
1825.000000	0.319666
1826.000000	0.319874
1827.000000	0.320131
1828.000000	0.320960
1829.000000	0.321591
1830.000000	0.321644
1831.000000	0.321375
1832.000000	0.320066
1833.000000	0.319649
1834.000000	0.319510
1835.000000	0.319180
1836.000000	0.318678
1837.000000	0.318599
1838.000000	0.318412
1839.000000	0.318622
1840.000000	0.318653
1841.000000	0.318928
1842.000000	0.318758
1843.000000	0.317749
1844.000000	0.317337
1845.000000	0.316918
1846.000000	0.316734
1847.000000	0.316453
1848.000000	0.316742
1849.000000	0.317049
1850.000000	0.317272
1851.000000	0.317251
1852.000000	0.317092
1853.000000	0.316797
1854.000000	0.316057
1855.000000	0.315374
1856.000000	0.314268
1857.000000	0.313645
1858.000000	0.313402
1859.000000	0.313218
1860.000000	0.313479
1861.000000	0.313589
1862.000000	0.313721
1863.000000	0.314192
1864.000000	0.314040
1865.000000	0.313831
1866.000000	0.313523
1867.000000	0.312995
1868.000000	0.311472
1869.000000	0.310550
1870.000000	0.309101
1871.000000	0.308275
1872.000000	0.308249
1873.000000	0.307623
1874.000000	0.307356
1875.000000	0.306732
1876.000000	0.305586
1877.000000	0.303670
1878.000000	0.302015
1879.000000	0.300591
1880.000000	0.299422
1881.000000	0.298275
1882.000000	0.297217
1883.000000	0.295892
1884.000000	0.294307
1885.000000	0.291668
1886.000000	0.289813
1887.000000	0.288275
1888.000000	0.286350
1889.000000	0.284633
1890.000000	0.282809
1891.000000	0.280072
1892.000000	0.277808
1893.000000	0.275303
1894.000000	0.272485
1895.000000	0.269772
1896.000000	0.267355
1897.000000	0.264435
1898.000000	0.261452
1899.000000	0.259364
1900.000000	0.257886
1901.000000	0.256635
1902.000000	0.255293
1903.000000	0.253594
1904.000000	0.251524
1905.000000	0.249031
1906.000000	0.247278
1907.000000	0.245975
1908.000000	0.245174
1909.000000	0.244252
1910.000000	0.243720
1911.000000	0.242663
1912.000000	0.241546
1913.000000	0.241203
1914.000000	0.240489
1915.000000	0.239849
1916.000000	0.239628
1917.000000	0.239113
1918.000000	0.238240
1919.000000	0.237882
1920.000000	0.237910
1921.000000	0.238295
1922.000000	0.238911
1923.000000	0.239275
1924.000000	0.239574
1925.000000	0.239540
1926.000000	0.239252
1927.000000	0.238970
1928.000000	0.238910
1929.000000	0.239014
1930.000000	0.239226
1931.000000	0.239421
1932.000000	0.239949
1933.000000	0.240374
1934.000000	0.240101
1935.000000	0.240303
1936.000000	0.240740
1937.000000	0.240899
1938.000000	0.241478
1939.000000	0.241687
1940.000000	0.241595
1941.000000	0.241403
1942.000000	0.241417
1943.000000	0.241403
1944.000000	0.241681
1945.000000	0.241545
1946.000000	0.242020
1947.000000	0.242511
1948.000000	0.242382
1949.000000	0.242892
1950.000000	0.242781
1951.000000	0.242603
1952.000000	0.242154
1953.000000	0.242133
1954.000000	0.241811
1955.000000	0.242181
1956.000000	0.242510
1957.000000	0.242626
1958.000000	0.242754
1959.000000	0.242629
1960.000000	0.242521
1961.000000	0.242445
1962.000000	0.242406
1963.000000	0.242628
1964.000000	0.242566
1965.000000	0.242394
1966.000000	0.242332
1967.000000	0.242156
1968.000000	0.242184
1969.000000	0.242190
1970.000000	0.242756
1971.000000	0.243693
1972.000000	0.244550
1973.000000	0.244868
1974.000000	0.244987
1975.000000	0.245026
1976.000000	0.244611
1977.000000	0.244259
1978.000000	0.244507
1979.000000	0.244684
1980.000000	0.244670
1981.000000	0.245080
1982.000000	0.245373
1983.000000	0.245799
1984.000000	0.246047
1985.000000	0.246284
1986.000000	0.246566
1987.000000	0.246685
1988.000000	0.247125
1989.000000	0.248097
1990.000000	0.248647
1991.000000	0.249305
1992.000000	0.250096
1993.000000	0.250098
1994.000000	0.250584
1995.000000	0.251541
1996.000000	0.251966
1997.000000	0.252294
1998.000000	0.252695
1999.000000	0.253116
2000.000000	0.253107
2001.000000	0.253478
2002.000000	0.254299
2003.000000	0.255400
2004.000000	0.256597
2005.000000	0.257420
2006.000000	0.258128
2007.000000	0.258696
2008.000000	0.259155
2009.000000	0.259037
2010.000000	0.259586
2011.000000	0.260528
2012.000000	0.261022
2013.000000	0.261528
2014.000000	0.261752
2015.000000	0.261757
2016.000000	0.261989
2017.000000	0.262520
2018.000000	0.263131
2019.000000	0.263511
2020.000000	0.263285
2021.000000	0.263462
2022.000000	0.263660
2023.000000	0.263760
2024.000000	0.263964
2025.000000	0.264302
2026.000000	0.264361
2027.000000	0.264437
2028.000000	0.265071
2029.000000	0.266186
2030.000000	0.267421
2031.000000	0.268190
2032.000000	0.269220
2033.000000	0.269967
2034.000000	0.270272
2035.000000	0.270200
2036.000000	0.270450
2037.000000	0.270496
2038.000000	0.270635
2039.000000	0.271196
2040.000000	0.271385
2041.000000	0.271352
2042.000000	0.271989
2043.000000	0.272334
2044.000000	0.273028
2045.000000	0.273461
2046.000000	0.273323
2047.000000	0.273796
2048.000000	0.274442
2049.000000	0.275129
2050.000000	0.276018
2051.000000	0.276571
2052.000000	0.276692
2053.000000	0.276941
2054.000000	0.277484
2055.000000	0.277774
2056.000000	0.277900
2057.000000	0.278140
2058.000000	0.278315
2059.000000	0.278701
2060.000000	0.278940
2061.000000	0.279470
2062.000000	0.279535
2063.000000	0.279169
2064.000000	0.278924
2065.000000	0.278860
2066.000000	0.278603
2067.000000	0.278380
2068.000000	0.278434
2069.000000	0.278701
2070.000000	0.279146
2071.000000	0.279294
2072.000000	0.279771
2073.000000	0.280032
2074.000000	0.279902
2075.000000	0.280477
2076.000000	0.281880
2077.000000	0.282516
2078.000000	0.283310
2079.000000	0.283751
2080.000000	0.283490
2081.000000	0.283502
2082.000000	0.283739
2083.000000	0.283553
2084.000000	0.282933
2085.000000	0.283222
2086.000000	0.283475
2087.000000	0.283711
2088.000000	0.284634
2089.000000	0.285459
2090.000000	0.285838
2091.000000	0.285927
2092.000000	0.286115
2093.000000	0.286037
2094.000000	0.286089
2095.000000	0.286154
2096.000000	0.286393
2097.000000	0.286743
2098.000000	0.286759
2099.000000	0.286923
2100.000000	0.287869
2101.000000	0.288201
2102.000000	0.288414
2103.000000	0.288707
2104.000000	0.288597
2105.000000	0.288852
2106.000000	0.289259
2107.000000	0.289583
2108.000000	0.289987
2109.000000	0.290501
2110.000000	0.290936
2111.000000	0.291348
2112.000000	0.292085
2113.000000	0.291914
2114.000000	0.291603
2115.000000	0.291557
2116.000000	0.290963
2117.000000	0.290440
2118.000000	0.290175
2119.000000	0.289533
2120.000000	0.289693
2121.000000	0.290729
2122.000000	0.291081
2123.000000	0.291674
2124.000000	0.291843
2125.000000	0.291095
2126.000000	0.291104
2127.000000	0.291205
2128.000000	0.291761
2129.000000	0.292988
2130.000000	0.293975
2131.000000	0.294826
2132.000000	0.295481
2133.000000	0.295105
2134.000000	0.295289
2135.000000	0.295319
2136.000000	0.295645
2137.000000	0.295757
2138.000000	0.296238
2139.000000	0.296043
2140.000000	0.295308
2141.000000	0.294824
2142.000000	0.293656
2143.000000	0.293337
2144.000000	0.294045
2145.000000	0.293969
2146.000000	0.294005
2147.000000	0.294715
2148.000000	0.293711
2149.000000	0.293078
2150.000000	0.292604
2151.000000	0.291765
2152.000000	0.292275
2153.000000	0.292366
2154.000000	0.292720
2155.000000	0.293817
2156.000000	0.294510
2157.000000	0.295147
2158.000000	0.295540
2159.000000	0.295949
2160.000000	0.296141
2161.000000	0.295989
2162.000000	0.295879
2163.000000	0.295547
2164.000000	0.295114
2165.000000	0.294289
2166.000000	0.293628
2167.000000	0.293749
2168.000000	0.293808
2169.000000	0.294545
2170.000000	0.294541
2171.000000	0.294217
2172.000000	0.293400
2173.000000	0.292893
2174.000000	0.291892
2175.000000	0.291712
2176.000000	0.292186
2177.000000	0.291949
2178.000000	0.291568
2179.000000	0.291632
2180.000000	0.291620
2181.000000	0.291778
2182.000000	0.291872
2183.000000	0.292088
2184.000000	0.291782
2185.000000	0.291616
2186.000000	0.291286
2187.000000	0.291423
2188.000000	0.292547
2189.000000	0.292280
2190.000000	0.291548
2191.000000	0.291275
2192.000000	0.291202
2193.000000	0.290450
2194.000000	0.290487
2195.000000	0.292184
2196.000000	0.292577
2197.000000	0.292502
2198.000000	0.291868
2199.000000	0.289965
2200.000000	0.289069
2201.000000	0.287371
2202.000000	0.286745
2203.000000	0.286378
2204.000000	0.288665
2205.000000	0.290206
2206.000000	0.292715
2207.000000	0.295162
2208.000000	0.294509
2209.000000	0.292959
2210.000000	0.291745
2211.000000	0.291794
2212.000000	0.293799
2213.000000	0.294269
2214.000000	0.295665
2215.000000	0.295845
2216.000000	0.294316
2217.000000	0.293619
2218.000000	0.292945
2219.000000	0.293279
2220.000000	0.294277
2221.000000	0.294267
2222.000000	0.294039
2223.000000	0.294211
2224.000000	0.293685
2225.000000	0.294006
2226.000000	0.294283
2227.000000	0.296460
2228.000000	0.296661
2229.000000	0.295421
2230.000000	0.295996
2231.000000	0.296091
2232.000000	0.294000
2233.000000	0.293477
2234.000000	0.294223
2235.000000	0.293517
2236.000000	0.293579
2237.000000	0.295982
2238.000000	0.296080
2239.000000	0.293576
2240.000000	0.293735
2241.000000	0.295716
2242.000000	0.295646
2243.000000	0.295788
2244.000000	0.295716
2245.000000	0.293827
2246.000000	0.292426
2247.000000	0.290643
2248.000000	0.290247
2249.000000	0.290142
2250.000000	0.291097
2251.000000	0.292555
2252.000000	0.292447
2253.000000	0.290264
2254.000000	0.288855
2255.000000	0.287469
2256.000000	0.285918
2257.000000	0.286399
2258.000000	0.285684
2259.000000	0.285724
2260.000000	0.287014
2261.000000	0.286830
2262.000000	0.286084
2263.000000	0.285446
2264.000000	0.283524
2265.000000	0.283598
2266.000000	0.285863
2267.000000	0.284803
2268.000000	0.282564
2269.000000	0.281368
2270.000000	0.278230
2271.000000	0.276287
2272.000000	0.275710
2273.000000	0.276153
2274.000000	0.277260
2275.000000	0.277569
2276.000000	0.279690
2277.000000	0.279268
2278.000000	0.278085
2279.000000	0.276152
2280.000000	0.273712
2281.000000	0.272265
2282.000000	0.270131
2283.000000	0.269109
2284.000000	0.267822
2285.000000	0.268775
2286.000000	0.271366
2287.000000	0.271180
2288.000000	0.272883
2289.000000	0.273560
2290.000000	0.272518
2291.000000	0.273933
2292.000000	0.274999
2293.000000	0.273847
2294.000000	0.272948
2295.000000	0.271146
2296.000000	0.270000
2297.000000	0.268281
2298.000000	0.269186
2299.000000	0.271944
2300.000000	0.272807
2301.000000	0.274285
2302.000000	0.275031
2303.000000	0.273943
2304.000000	0.273877
2305.000000	0.274725
2306.000000	0.275160
2307.000000	0.274070
2308.000000	0.276580
2309.000000	0.279837
2310.000000	0.280598
2311.000000	0.282350
2312.000000	0.281355
2313.000000	0.277851
2314.000000	0.278180
2315.000000	0.278848
2316.000000	0.279208
2317.000000	0.279078
2318.000000	0.277684
2319.000000	0.276661
2320.000000	0.274804
2321.000000	0.273697
2322.000000	0.273968
2323.000000	0.274082
2324.000000	0.275022
2325.000000	0.274931
2326.000000	0.275015
2327.000000	0.274498
2328.000000	0.271704
2329.000000	0.272215
2330.000000	0.270704
2331.000000	0.269148
2332.000000	0.270911
2333.000000	0.269981
2334.000000	0.269632
2335.000000	0.269714
2336.000000	0.268709
2337.000000	0.268109
2338.000000	0.268075
2339.000000	0.268717
2340.000000	0.269285
2341.000000	0.269474
2342.000000	0.271183
2343.000000	0.271602
2344.000000	0.271016
2345.000000	0.270345
2346.000000	0.269362
2347.000000	0.267774
2348.000000	0.265155
2349.000000	0.262816
2350.000000	0.262771
2351.000000	0.262582
2352.000000	0.263119
2353.000000	0.263906
2354.000000	0.261110
2355.000000	0.258433
2356.000000	0.254460
2357.000000	0.250348
2358.000000	0.248983
2359.000000	0.246450
2360.000000	0.244204
2361.000000	0.244715
2362.000000	0.244008
2363.000000	0.243904
2364.000000	0.242846
2365.000000	0.242590
2366.000000	0.245355
2367.000000	0.246596
2368.000000	0.251047
2369.000000	0.251551
2370.000000	0.245438
2371.000000	0.241181
2372.000000	0.235248
2373.000000	0.230794
2374.000000	0.229717
2375.000000	0.229142
2376.000000	0.230450
2377.000000	0.234828
2378.000000	0.238467
2379.000000	0.239020
2380.000000	0.239331
2381.000000	0.236410
2382.000000	0.233095
2383.000000	0.233500
2384.000000	0.234791
2385.000000	0.237156
2386.000000	0.237301
2387.000000	0.235206
2388.000000	0.235088
2389.000000	0.234017
2390.000000	0.232577
2391.000000	0.234992
2392.000000	0.235044
2393.000000	0.236267
2394.000000	0.241346
2395.000000	0.243712
2396.000000	0.249237
2397.000000	0.252449
2398.000000	0.254092
2399.000000	0.254701
2400.000000	0.248045
2401.000000	0.242562
2402.000000	0.237015
2403.000000	0.235985
2404.000000	0.237797
2405.000000	0.235844
2406.000000	0.238149
2407.000000	0.238856
2408.000000	0.233004
2409.000000	0.225744
2410.000000	0.217737
2411.000000	0.210637
2412.000000	0.208892
2413.000000	0.216998
2414.000000	0.224520
2415.000000	0.228002
2416.000000	0.235904
2417.000000	0.235793
2418.000000	0.230084
2419.000000	0.227354
2420.000000	0.220627
2421.000000	0.218156
2422.000000	0.220659
2423.000000	0.219858
2424.000000	0.218692
2425.000000	0.219740
2426.000000	0.219784
2427.000000	0.218146
2428.000000	0.213391
2429.000000	0.202244
2430.000000	0.193862
2431.000000	0.189110
2432.000000	0.195978
2433.000000	0.215895
2434.000000	0.232277
2435.000000	0.252585
2436.000000	0.258961
2437.000000	0.245266
2438.000000	0.234107
2439.000000	0.217806
2440.000000	0.209659
2441.000000	0.207127
2442.000000	0.198631
2443.000000	0.198783
2444.000000	0.199838
2445.000000	0.205660
2446.000000	0.216056
2447.000000	0.220169
2448.000000	0.219601
2449.000000	0.206731
2450.000000	0.205617
2451.000000	0.214092
2452.000000	0.211180
2453.000000	0.216620
2454.000000	0.224038
2455.000000	0.208564
2456.000000	0.197213
2457.000000	0.198201
2458.000000	0.182183
2459.000000	0.177373
2460.000000	0.191620
2461.000000	0.195341
2462.000000	0.200581
2463.000000	0.202296
2464.000000	0.202577
2465.000000	0.213767
2466.000000	0.214312
2467.000000	0.230983
2468.000000	0.243291
2469.000000	0.218352
2470.000000	0.208457
2471.000000	0.195836
2472.000000	0.170440
2473.000000	0.174659
2474.000000	0.192440
2475.000000	0.208506
2476.000000	0.221627
2477.000000	0.222057
2478.000000	0.222666
2479.000000	0.195495
2480.000000	0.185378
2481.000000	0.222796
2482.000000	0.222125
2483.000000	0.214084
2484.000000	0.241401
2485.000000	0.225527
2486.000000	0.211138
2487.000000	0.254082
2488.000000	0.250431
2489.000000	0.227462
2490.000000	0.233426
2491.000000	0.233953
2492.000000	0.235910
2493.000000	0.260678
2494.000000	0.254847
2495.000000	0.206629
2496.000000	0.181139
2497.000000	0.125887
2498.000000	0.109888
2499.000000	0.178296
2500.000000	0.185825
