# Wavelength	NAu-1-40_HEX-40_FV7-20_00000.asd.rts.txt
350.000000	0.150206
351.000000	0.174586
352.000000	0.167890
353.000000	0.152410
354.000000	0.144449
355.000000	0.137282
356.000000	0.141989
357.000000	0.153849
358.000000	0.155289
359.000000	0.150324
360.000000	0.146690
361.000000	0.151012
362.000000	0.155732
363.000000	0.158958
364.000000	0.159515
365.000000	0.157996
366.000000	0.153254
367.000000	0.148290
368.000000	0.150521
369.000000	0.149315
370.000000	0.148163
371.000000	0.153120
372.000000	0.154015
373.000000	0.155430
374.000000	0.159995
375.000000	0.160380
376.000000	0.158558
377.000000	0.157151
378.000000	0.160146
379.000000	0.161248
380.000000	0.160588
381.000000	0.160784
382.000000	0.160965
383.000000	0.160941
384.000000	0.161078
385.000000	0.162745
386.000000	0.162949
387.000000	0.162654
388.000000	0.167118
389.000000	0.170820
390.000000	0.172379
391.000000	0.171850
392.000000	0.172269
393.000000	0.172738
394.000000	0.172802
395.000000	0.175768
396.000000	0.178101
397.000000	0.178619
398.000000	0.178912
399.000000	0.180562
400.000000	0.183152
401.000000	0.185225
402.000000	0.187158
403.000000	0.188563
404.000000	0.189326
405.000000	0.190138
406.000000	0.190800
407.000000	0.191470
408.000000	0.193000
409.000000	0.194013
410.000000	0.194751
411.000000	0.196329
412.000000	0.197785
413.000000	0.198857
414.000000	0.199513
415.000000	0.199844
416.000000	0.200203
417.000000	0.200802
418.000000	0.201630
419.000000	0.202249
420.000000	0.202537
421.000000	0.202597
422.000000	0.203013
423.000000	0.203561
424.000000	0.203841
425.000000	0.203883
426.000000	0.203959
427.000000	0.204278
428.000000	0.204993
429.000000	0.205106
430.000000	0.204514
431.000000	0.204195
432.000000	0.204506
433.000000	0.205001
434.000000	0.204893
435.000000	0.204429
436.000000	0.203998
437.000000	0.203857
438.000000	0.203549
439.000000	0.203269
440.000000	0.203113
441.000000	0.202599
442.000000	0.202337
443.000000	0.202254
444.000000	0.201941
445.000000	0.202050
446.000000	0.202293
447.000000	0.202174
448.000000	0.203008
449.000000	0.204186
450.000000	0.205255
451.000000	0.206719
452.000000	0.208361
453.000000	0.210121
454.000000	0.212306
455.000000	0.214635
456.000000	0.217101
457.000000	0.219639
458.000000	0.222235
459.000000	0.224510
460.000000	0.226318
461.000000	0.228440
462.000000	0.230508
463.000000	0.232168
464.000000	0.233607
465.000000	0.234762
466.000000	0.235705
467.000000	0.236719
468.000000	0.237718
469.000000	0.238711
470.000000	0.239815
471.000000	0.240508
472.000000	0.241101
473.000000	0.241815
474.000000	0.242302
475.000000	0.242890
476.000000	0.243660
477.000000	0.244067
478.000000	0.244592
479.000000	0.245307
480.000000	0.245798
481.000000	0.246262
482.000000	0.246708
483.000000	0.247008
484.000000	0.247794
485.000000	0.248505
486.000000	0.249037
487.000000	0.249570
488.000000	0.250198
489.000000	0.250922
490.000000	0.251646
491.000000	0.252056
492.000000	0.252498
493.000000	0.253268
494.000000	0.253952
495.000000	0.254509
496.000000	0.254979
497.000000	0.255683
498.000000	0.256384
499.000000	0.257046
500.000000	0.257668
501.000000	0.258320
502.000000	0.259048
503.000000	0.259791
504.000000	0.260489
505.000000	0.261148
506.000000	0.261801
507.000000	0.262458
508.000000	0.263284
509.000000	0.264222
510.000000	0.264877
511.000000	0.265575
512.000000	0.266390
513.000000	0.267159
514.000000	0.268006
515.000000	0.268873
516.000000	0.269611
517.000000	0.270466
518.000000	0.271422
519.000000	0.272326
520.000000	0.273110
521.000000	0.273949
522.000000	0.274875
523.000000	0.275652
524.000000	0.276671
525.000000	0.277821
526.000000	0.278773
527.000000	0.279808
528.000000	0.280801
529.000000	0.281664
530.000000	0.282682
531.000000	0.283763
532.000000	0.284761
533.000000	0.285839
534.000000	0.286967
535.000000	0.288090
536.000000	0.289157
537.000000	0.290267
538.000000	0.291358
539.000000	0.292318
540.000000	0.293406
541.000000	0.294533
542.000000	0.295620
543.000000	0.296691
544.000000	0.297739
545.000000	0.298745
546.000000	0.299938
547.000000	0.301133
548.000000	0.302266
549.000000	0.303239
550.000000	0.304284
551.000000	0.305379
552.000000	0.306392
553.000000	0.307500
554.000000	0.308593
555.000000	0.309614
556.000000	0.310746
557.000000	0.311780
558.000000	0.312777
559.000000	0.313735
560.000000	0.314628
561.000000	0.315583
562.000000	0.316619
563.000000	0.317499
564.000000	0.318330
565.000000	0.319149
566.000000	0.320001
567.000000	0.320859
568.000000	0.321669
569.000000	0.322431
570.000000	0.323059
571.000000	0.323615
572.000000	0.324344
573.000000	0.325018
574.000000	0.325602
575.000000	0.326186
576.000000	0.326749
577.000000	0.327316
578.000000	0.327954
579.000000	0.328514
580.000000	0.329053
581.000000	0.329564
582.000000	0.329936
583.000000	0.330291
584.000000	0.330652
585.000000	0.330990
586.000000	0.331354
587.000000	0.331751
588.000000	0.332160
589.000000	0.332421
590.000000	0.332672
591.000000	0.332985
592.000000	0.333194
593.000000	0.333435
594.000000	0.333737
595.000000	0.334040
596.000000	0.334214
597.000000	0.334341
598.000000	0.334475
599.000000	0.334611
600.000000	0.334765
601.000000	0.334862
602.000000	0.334973
603.000000	0.335107
604.000000	0.335258
605.000000	0.335352
606.000000	0.335450
607.000000	0.335564
608.000000	0.335671
609.000000	0.335754
610.000000	0.335835
611.000000	0.335929
612.000000	0.335954
613.000000	0.335963
614.000000	0.336020
615.000000	0.336001
616.000000	0.336066
617.000000	0.336182
618.000000	0.336237
619.000000	0.336282
620.000000	0.336328
621.000000	0.336436
622.000000	0.336486
623.000000	0.336526
624.000000	0.336588
625.000000	0.336549
626.000000	0.336540
627.000000	0.336619
628.000000	0.336722
629.000000	0.336921
630.000000	0.337037
631.000000	0.337080
632.000000	0.337219
633.000000	0.337383
634.000000	0.337458
635.000000	0.337588
636.000000	0.337747
637.000000	0.337891
638.000000	0.338020
639.000000	0.338213
640.000000	0.338459
641.000000	0.338478
642.000000	0.338603
643.000000	0.338801
644.000000	0.338933
645.000000	0.339012
646.000000	0.339158
647.000000	0.339384
648.000000	0.339462
649.000000	0.339569
650.000000	0.339743
651.000000	0.339914
652.000000	0.340109
653.000000	0.340332
654.000000	0.340487
655.000000	0.340700
656.000000	0.340949
657.000000	0.341145
658.000000	0.341402
659.000000	0.341670
660.000000	0.341914
661.000000	0.342200
662.000000	0.342376
663.000000	0.342552
664.000000	0.342875
665.000000	0.343167
666.000000	0.343453
667.000000	0.343757
668.000000	0.344077
669.000000	0.344380
670.000000	0.344657
671.000000	0.344925
672.000000	0.345227
673.000000	0.345565
674.000000	0.345932
675.000000	0.346286
676.000000	0.346612
677.000000	0.346928
678.000000	0.347249
679.000000	0.347560
680.000000	0.347862
681.000000	0.348152
682.000000	0.348476
683.000000	0.348787
684.000000	0.349205
685.000000	0.349589
686.000000	0.349964
687.000000	0.350351
688.000000	0.350796
689.000000	0.351222
690.000000	0.351615
691.000000	0.352010
692.000000	0.352417
693.000000	0.352887
694.000000	0.353308
695.000000	0.353729
696.000000	0.354156
697.000000	0.354584
698.000000	0.355009
699.000000	0.355446
700.000000	0.355910
701.000000	0.356373
702.000000	0.356844
703.000000	0.357302
704.000000	0.357744
705.000000	0.358254
706.000000	0.358767
707.000000	0.359262
708.000000	0.359684
709.000000	0.360074
710.000000	0.360510
711.000000	0.361027
712.000000	0.361529
713.000000	0.361991
714.000000	0.362407
715.000000	0.362910
716.000000	0.363457
717.000000	0.363897
718.000000	0.364356
719.000000	0.364812
720.000000	0.365259
721.000000	0.365758
722.000000	0.366189
723.000000	0.366588
724.000000	0.366999
725.000000	0.367388
726.000000	0.367844
727.000000	0.368299
728.000000	0.368763
729.000000	0.369197
730.000000	0.369521
731.000000	0.369862
732.000000	0.370215
733.000000	0.370608
734.000000	0.370972
735.000000	0.371345
736.000000	0.371807
737.000000	0.372151
738.000000	0.372440
739.000000	0.372780
740.000000	0.373054
741.000000	0.373418
742.000000	0.373761
743.000000	0.374041
744.000000	0.374396
745.000000	0.374589
746.000000	0.374739
747.000000	0.374950
748.000000	0.375249
749.000000	0.375536
750.000000	0.375724
751.000000	0.375953
752.000000	0.376244
753.000000	0.376562
754.000000	0.376786
755.000000	0.377009
756.000000	0.377240
757.000000	0.377401
758.000000	0.377473
759.000000	0.377575
760.000000	0.377690
761.000000	0.377846
762.000000	0.377981
763.000000	0.378062
764.000000	0.378170
765.000000	0.378278
766.000000	0.378334
767.000000	0.378309
768.000000	0.378336
769.000000	0.378321
770.000000	0.378258
771.000000	0.378266
772.000000	0.378319
773.000000	0.378314
774.000000	0.378285
775.000000	0.378253
776.000000	0.378248
777.000000	0.378247
778.000000	0.378167
779.000000	0.378104
780.000000	0.378057
781.000000	0.377906
782.000000	0.377757
783.000000	0.377724
784.000000	0.377667
785.000000	0.377531
786.000000	0.377358
787.000000	0.377182
788.000000	0.377031
789.000000	0.376927
790.000000	0.376823
791.000000	0.376703
792.000000	0.376612
793.000000	0.376473
794.000000	0.376237
795.000000	0.375971
796.000000	0.375766
797.000000	0.375624
798.000000	0.375469
799.000000	0.375250
800.000000	0.375040
801.000000	0.374934
802.000000	0.374872
803.000000	0.374672
804.000000	0.374317
805.000000	0.373946
806.000000	0.373559
807.000000	0.373260
808.000000	0.373003
809.000000	0.372740
810.000000	0.372504
811.000000	0.372289
812.000000	0.371998
813.000000	0.371769
814.000000	0.371595
815.000000	0.371370
816.000000	0.371108
817.000000	0.370825
818.000000	0.370451
819.000000	0.370117
820.000000	0.369876
821.000000	0.369638
822.000000	0.369290
823.000000	0.369013
824.000000	0.368769
825.000000	0.368582
826.000000	0.368325
827.000000	0.368016
828.000000	0.367727
829.000000	0.367428
830.000000	0.367144
831.000000	0.366901
832.000000	0.366532
833.000000	0.366209
834.000000	0.365951
835.000000	0.365745
836.000000	0.365400
837.000000	0.365045
838.000000	0.364720
839.000000	0.364346
840.000000	0.364021
841.000000	0.363709
842.000000	0.363345
843.000000	0.363129
844.000000	0.362984
845.000000	0.362834
846.000000	0.362696
847.000000	0.362474
848.000000	0.362169
849.000000	0.361859
850.000000	0.361556
851.000000	0.361248
852.000000	0.360967
853.000000	0.360677
854.000000	0.360305
855.000000	0.360010
856.000000	0.359766
857.000000	0.359488
858.000000	0.359252
859.000000	0.359028
860.000000	0.358893
861.000000	0.358632
862.000000	0.358271
863.000000	0.357877
864.000000	0.357796
865.000000	0.357701
866.000000	0.357442
867.000000	0.357197
868.000000	0.356896
869.000000	0.356496
870.000000	0.356108
871.000000	0.355797
872.000000	0.355576
873.000000	0.355350
874.000000	0.355077
875.000000	0.354816
876.000000	0.354582
877.000000	0.354279
878.000000	0.353832
879.000000	0.353530
880.000000	0.353317
881.000000	0.352981
882.000000	0.352677
883.000000	0.352509
884.000000	0.352449
885.000000	0.352322
886.000000	0.352167
887.000000	0.352039
888.000000	0.351889
889.000000	0.351708
890.000000	0.351441
891.000000	0.351262
892.000000	0.350945
893.000000	0.350630
894.000000	0.350519
895.000000	0.350415
896.000000	0.350230
897.000000	0.350047
898.000000	0.349962
899.000000	0.349670
900.000000	0.349403
901.000000	0.349227
902.000000	0.349086
903.000000	0.348810
904.000000	0.348569
905.000000	0.348434
906.000000	0.348208
907.000000	0.348036
908.000000	0.347994
909.000000	0.347874
910.000000	0.347779
911.000000	0.347707
912.000000	0.347644
913.000000	0.347524
914.000000	0.347292
915.000000	0.347062
916.000000	0.346884
917.000000	0.346666
918.000000	0.346482
919.000000	0.346359
920.000000	0.346246
921.000000	0.346081
922.000000	0.345935
923.000000	0.345881
924.000000	0.345720
925.000000	0.345496
926.000000	0.345310
927.000000	0.345186
928.000000	0.344952
929.000000	0.344764
930.000000	0.344811
931.000000	0.344804
932.000000	0.344725
933.000000	0.344626
934.000000	0.344500
935.000000	0.344319
936.000000	0.344224
937.000000	0.344171
938.000000	0.343922
939.000000	0.343815
940.000000	0.343797
941.000000	0.343756
942.000000	0.343531
943.000000	0.343378
944.000000	0.343276
945.000000	0.343080
946.000000	0.343040
947.000000	0.343120
948.000000	0.343094
949.000000	0.342853
950.000000	0.342721
951.000000	0.342657
952.000000	0.342412
953.000000	0.342278
954.000000	0.342223
955.000000	0.342101
956.000000	0.341976
957.000000	0.341934
958.000000	0.341884
959.000000	0.341832
960.000000	0.341893
961.000000	0.341880
962.000000	0.341730
963.000000	0.341617
964.000000	0.341464
965.000000	0.341419
966.000000	0.341419
967.000000	0.341268
968.000000	0.341128
969.000000	0.341070
970.000000	0.341199
971.000000	0.340991
972.000000	0.340938
973.000000	0.341111
974.000000	0.341184
975.000000	0.341208
976.000000	0.341230
977.000000	0.341210
978.000000	0.340838
979.000000	0.340797
980.000000	0.340822
981.000000	0.340852
982.000000	0.341249
983.000000	0.341211
984.000000	0.340863
985.000000	0.341132
986.000000	0.341097
987.000000	0.341019
988.000000	0.341044
989.000000	0.341040
990.000000	0.341177
991.000000	0.341414
992.000000	0.341660
993.000000	0.341724
994.000000	0.341531
995.000000	0.341383
996.000000	0.341358
997.000000	0.341363
998.000000	0.341515
999.000000	0.341869
1000.000000	0.342074
1001.000000	0.342055
1002.000000	0.341521
1003.000000	0.341882
1004.000000	0.342368
1005.000000	0.342821
1006.000000	0.343003
1007.000000	0.343644
1008.000000	0.343956
1009.000000	0.343574
1010.000000	0.343176
1011.000000	0.343001
1012.000000	0.343134
1013.000000	0.343366
1014.000000	0.343736
1015.000000	0.343799
1016.000000	0.344153
1017.000000	0.344092
1018.000000	0.343633
1019.000000	0.343918
1020.000000	0.345007
1021.000000	0.344883
1022.000000	0.344928
1023.000000	0.345440
1024.000000	0.345445
1025.000000	0.345503
1026.000000	0.346177
1027.000000	0.346152
1028.000000	0.346614
1029.000000	0.347445
1030.000000	0.347613
1031.000000	0.347802
1032.000000	0.347640
1033.000000	0.346926
1034.000000	0.346923
1035.000000	0.347782
1036.000000	0.348177
1037.000000	0.348538
1038.000000	0.348730
1039.000000	0.349030
1040.000000	0.348821
1041.000000	0.349156
1042.000000	0.350242
1043.000000	0.350391
1044.000000	0.350949
1045.000000	0.351569
1046.000000	0.351086
1047.000000	0.351410
1048.000000	0.352478
1049.000000	0.352766
1050.000000	0.352782
1051.000000	0.352846
1052.000000	0.352345
1053.000000	0.352376
1054.000000	0.353005
1055.000000	0.353441
1056.000000	0.354165
1057.000000	0.354606
1058.000000	0.354646
1059.000000	0.354790
1060.000000	0.355535
1061.000000	0.356279
1062.000000	0.357145
1063.000000	0.357860
1064.000000	0.358302
1065.000000	0.358060
1066.000000	0.358561
1067.000000	0.359386
1068.000000	0.359780
1069.000000	0.360294
1070.000000	0.360584
1071.000000	0.360330
1072.000000	0.360547
1073.000000	0.361046
1074.000000	0.361595
1075.000000	0.362127
1076.000000	0.362544
1077.000000	0.363021
1078.000000	0.363503
1079.000000	0.364025
1080.000000	0.364871
1081.000000	0.365293
1082.000000	0.365469
1083.000000	0.365911
1084.000000	0.366378
1085.000000	0.366816
1086.000000	0.367265
1087.000000	0.367865
1088.000000	0.368649
1089.000000	0.368995
1090.000000	0.369239
1091.000000	0.369352
1092.000000	0.369094
1093.000000	0.369356
1094.000000	0.369659
1095.000000	0.370200
1096.000000	0.370741
1097.000000	0.371387
1098.000000	0.371886
1099.000000	0.372276
1100.000000	0.372976
1101.000000	0.373733
1102.000000	0.374368
1103.000000	0.375230
1104.000000	0.375887
1105.000000	0.376445
1106.000000	0.376760
1107.000000	0.376487
1108.000000	0.376759
1109.000000	0.377394
1110.000000	0.377623
1111.000000	0.378075
1112.000000	0.378960
1113.000000	0.379560
1114.000000	0.380090
1115.000000	0.380258
1116.000000	0.380124
1117.000000	0.380446
1118.000000	0.380453
1119.000000	0.380792
1120.000000	0.381928
1121.000000	0.382493
1122.000000	0.382883
1123.000000	0.383449
1124.000000	0.383608
1125.000000	0.383936
1126.000000	0.384209
1127.000000	0.384485
1128.000000	0.384778
1129.000000	0.385174
1130.000000	0.385523
1131.000000	0.385887
1132.000000	0.386184
1133.000000	0.386467
1134.000000	0.386879
1135.000000	0.387327
1136.000000	0.387631
1137.000000	0.387929
1138.000000	0.388193
1139.000000	0.388417
1140.000000	0.388753
1141.000000	0.389097
1142.000000	0.389466
1143.000000	0.389926
1144.000000	0.390265
1145.000000	0.390288
1146.000000	0.390271
1147.000000	0.390404
1148.000000	0.390220
1149.000000	0.390469
1150.000000	0.391157
1151.000000	0.391525
1152.000000	0.391776
1153.000000	0.392121
1154.000000	0.392373
1155.000000	0.392648
1156.000000	0.393047
1157.000000	0.393333
1158.000000	0.393534
1159.000000	0.393642
1160.000000	0.393495
1161.000000	0.393600
1162.000000	0.393811
1163.000000	0.394238
1164.000000	0.394487
1165.000000	0.394841
1166.000000	0.395100
1167.000000	0.395101
1168.000000	0.395243
1169.000000	0.395536
1170.000000	0.395770
1171.000000	0.395949
1172.000000	0.396333
1173.000000	0.396907
1174.000000	0.397185
1175.000000	0.397370
1176.000000	0.397552
1177.000000	0.397577
1178.000000	0.397757
1179.000000	0.398207
1180.000000	0.398354
1181.000000	0.398450
1182.000000	0.398525
1183.000000	0.398574
1184.000000	0.398729
1185.000000	0.398961
1186.000000	0.399406
1187.000000	0.399579
1188.000000	0.399729
1189.000000	0.399744
1190.000000	0.399553
1191.000000	0.399579
1192.000000	0.399721
1193.000000	0.400017
1194.000000	0.400410
1195.000000	0.400653
1196.000000	0.400816
1197.000000	0.400976
1198.000000	0.400986
1199.000000	0.401170
1200.000000	0.401489
1201.000000	0.401764
1202.000000	0.401909
1203.000000	0.402047
1204.000000	0.402140
1205.000000	0.402259
1206.000000	0.402313
1207.000000	0.402550
1208.000000	0.402632
1209.000000	0.402614
1210.000000	0.402704
1211.000000	0.402822
1212.000000	0.402954
1213.000000	0.403226
1214.000000	0.403416
1215.000000	0.403591
1216.000000	0.403721
1217.000000	0.403649
1218.000000	0.403694
1219.000000	0.403749
1220.000000	0.404038
1221.000000	0.404227
1222.000000	0.404356
1223.000000	0.404481
1224.000000	0.404461
1225.000000	0.404502
1226.000000	0.404819
1227.000000	0.404902
1228.000000	0.404867
1229.000000	0.404916
1230.000000	0.404852
1231.000000	0.404846
1232.000000	0.405158
1233.000000	0.405369
1234.000000	0.405443
1235.000000	0.405592
1236.000000	0.405668
1237.000000	0.405786
1238.000000	0.405895
1239.000000	0.405977
1240.000000	0.406008
1241.000000	0.406086
1242.000000	0.406241
1243.000000	0.406359
1244.000000	0.406468
1245.000000	0.406893
1246.000000	0.407256
1247.000000	0.407463
1248.000000	0.407630
1249.000000	0.407601
1250.000000	0.407396
1251.000000	0.407428
1252.000000	0.407436
1253.000000	0.407507
1254.000000	0.407575
1255.000000	0.407693
1256.000000	0.407725
1257.000000	0.407793
1258.000000	0.407885
1259.000000	0.407872
1260.000000	0.407924
1261.000000	0.407870
1262.000000	0.407898
1263.000000	0.407991
1264.000000	0.408056
1265.000000	0.408163
1266.000000	0.408335
1267.000000	0.408456
1268.000000	0.408487
1269.000000	0.408417
1270.000000	0.408438
1271.000000	0.408482
1272.000000	0.408623
1273.000000	0.408806
1274.000000	0.408888
1275.000000	0.408917
1276.000000	0.408821
1277.000000	0.408915
1278.000000	0.408995
1279.000000	0.408989
1280.000000	0.408892
1281.000000	0.408823
1282.000000	0.408753
1283.000000	0.408807
1284.000000	0.408929
1285.000000	0.408931
1286.000000	0.408747
1287.000000	0.408798
1288.000000	0.409044
1289.000000	0.409164
1290.000000	0.409405
1291.000000	0.409620
1292.000000	0.409553
1293.000000	0.409538
1294.000000	0.409562
1295.000000	0.409523
1296.000000	0.409518
1297.000000	0.409556
1298.000000	0.409686
1299.000000	0.409738
1300.000000	0.409775
1301.000000	0.409733
1302.000000	0.409594
1303.000000	0.409510
1304.000000	0.409363
1305.000000	0.409199
1306.000000	0.409092
1307.000000	0.409088
1308.000000	0.409034
1309.000000	0.409039
1310.000000	0.408975
1311.000000	0.408900
1312.000000	0.408659
1313.000000	0.408544
1314.000000	0.408449
1315.000000	0.408416
1316.000000	0.408502
1317.000000	0.408448
1318.000000	0.408361
1319.000000	0.408160
1320.000000	0.407939
1321.000000	0.407899
1322.000000	0.407763
1323.000000	0.407557
1324.000000	0.407560
1325.000000	0.407453
1326.000000	0.407257
1327.000000	0.407227
1328.000000	0.407190
1329.000000	0.407016
1330.000000	0.406752
1331.000000	0.406662
1332.000000	0.406702
1333.000000	0.406539
1334.000000	0.406438
1335.000000	0.406377
1336.000000	0.406122
1337.000000	0.405972
1338.000000	0.405953
1339.000000	0.405829
1340.000000	0.405358
1341.000000	0.405065
1342.000000	0.404813
1343.000000	0.404536
1344.000000	0.404575
1345.000000	0.404463
1346.000000	0.404210
1347.000000	0.403885
1348.000000	0.403517
1349.000000	0.403225
1350.000000	0.403115
1351.000000	0.402892
1352.000000	0.402613
1353.000000	0.402419
1354.000000	0.402139
1355.000000	0.401812
1356.000000	0.401653
1357.000000	0.401360
1358.000000	0.401188
1359.000000	0.401167
1360.000000	0.401016
1361.000000	0.400891
1362.000000	0.400728
1363.000000	0.400439
1364.000000	0.400198
1365.000000	0.399944
1366.000000	0.399675
1367.000000	0.399347
1368.000000	0.399124
1369.000000	0.398924
1370.000000	0.398653
1371.000000	0.398259
1372.000000	0.397722
1373.000000	0.397320
1374.000000	0.396889
1375.000000	0.396395
1376.000000	0.396010
1377.000000	0.395485
1378.000000	0.395037
1379.000000	0.394655
1380.000000	0.394128
1381.000000	0.393345
1382.000000	0.392524
1383.000000	0.391819
1384.000000	0.390947
1385.000000	0.390110
1386.000000	0.389222
1387.000000	0.388153
1388.000000	0.387054
1389.000000	0.385970
1390.000000	0.384954
1391.000000	0.383700
1392.000000	0.382376
1393.000000	0.381062
1394.000000	0.379693
1395.000000	0.378371
1396.000000	0.377165
1397.000000	0.375772
1398.000000	0.374256
1399.000000	0.372814
1400.000000	0.371296
1401.000000	0.369736
1402.000000	0.368291
1403.000000	0.366617
1404.000000	0.365016
1405.000000	0.363411
1406.000000	0.361700
1407.000000	0.360173
1408.000000	0.358620
1409.000000	0.357020
1410.000000	0.355531
1411.000000	0.354058
1412.000000	0.352570
1413.000000	0.351245
1414.000000	0.350039
1415.000000	0.348853
1416.000000	0.347802
1417.000000	0.346898
1418.000000	0.346021
1419.000000	0.345351
1420.000000	0.344662
1421.000000	0.343965
1422.000000	0.343265
1423.000000	0.342610
1424.000000	0.341798
1425.000000	0.340894
1426.000000	0.339975
1427.000000	0.338998
1428.000000	0.337916
1429.000000	0.336819
1430.000000	0.335854
1431.000000	0.334948
1432.000000	0.334183
1433.000000	0.333656
1434.000000	0.333201
1435.000000	0.332862
1436.000000	0.332723
1437.000000	0.332757
1438.000000	0.332883
1439.000000	0.333254
1440.000000	0.333634
1441.000000	0.334144
1442.000000	0.334658
1443.000000	0.335158
1444.000000	0.335683
1445.000000	0.336244
1446.000000	0.336830
1447.000000	0.337391
1448.000000	0.337798
1449.000000	0.338055
1450.000000	0.338312
1451.000000	0.338491
1452.000000	0.338531
1453.000000	0.338594
1454.000000	0.338494
1455.000000	0.338303
1456.000000	0.338325
1457.000000	0.338283
1458.000000	0.338167
1459.000000	0.338121
1460.000000	0.337936
1461.000000	0.337755
1462.000000	0.337688
1463.000000	0.337622
1464.000000	0.337631
1465.000000	0.337656
1466.000000	0.337634
1467.000000	0.337657
1468.000000	0.337658
1469.000000	0.337831
1470.000000	0.338070
1471.000000	0.338223
1472.000000	0.338420
1473.000000	0.338692
1474.000000	0.338842
1475.000000	0.339184
1476.000000	0.339723
1477.000000	0.340063
1478.000000	0.340407
1479.000000	0.340905
1480.000000	0.341262
1481.000000	0.341619
1482.000000	0.342098
1483.000000	0.342614
1484.000000	0.343056
1485.000000	0.343563
1486.000000	0.344245
1487.000000	0.344739
1488.000000	0.345124
1489.000000	0.345633
1490.000000	0.345918
1491.000000	0.346404
1492.000000	0.347022
1493.000000	0.347578
1494.000000	0.348168
1495.000000	0.348663
1496.000000	0.349066
1497.000000	0.349522
1498.000000	0.349935
1499.000000	0.350466
1500.000000	0.351001
1501.000000	0.351471
1502.000000	0.351924
1503.000000	0.352418
1504.000000	0.353000
1505.000000	0.353496
1506.000000	0.353872
1507.000000	0.354113
1508.000000	0.354365
1509.000000	0.354651
1510.000000	0.354880
1511.000000	0.355216
1512.000000	0.355519
1513.000000	0.355773
1514.000000	0.356140
1515.000000	0.356417
1516.000000	0.356678
1517.000000	0.356908
1518.000000	0.357100
1519.000000	0.357312
1520.000000	0.357444
1521.000000	0.357466
1522.000000	0.357677
1523.000000	0.357938
1524.000000	0.358086
1525.000000	0.358407
1526.000000	0.358660
1527.000000	0.358698
1528.000000	0.358901
1529.000000	0.359114
1530.000000	0.359069
1531.000000	0.359174
1532.000000	0.359346
1533.000000	0.359439
1534.000000	0.359485
1535.000000	0.359525
1536.000000	0.359603
1537.000000	0.359693
1538.000000	0.359915
1539.000000	0.360162
1540.000000	0.360296
1541.000000	0.360464
1542.000000	0.360589
1543.000000	0.360739
1544.000000	0.360947
1545.000000	0.361145
1546.000000	0.361401
1547.000000	0.361632
1548.000000	0.361825
1549.000000	0.362002
1550.000000	0.362094
1551.000000	0.362167
1552.000000	0.362229
1553.000000	0.362252
1554.000000	0.362234
1555.000000	0.362184
1556.000000	0.362237
1557.000000	0.362384
1558.000000	0.362508
1559.000000	0.362684
1560.000000	0.362724
1561.000000	0.362687
1562.000000	0.362650
1563.000000	0.362596
1564.000000	0.362601
1565.000000	0.362650
1566.000000	0.362604
1567.000000	0.362639
1568.000000	0.362675
1569.000000	0.362735
1570.000000	0.362802
1571.000000	0.362909
1572.000000	0.362910
1573.000000	0.362891
1574.000000	0.362881
1575.000000	0.362804
1576.000000	0.362864
1577.000000	0.362990
1578.000000	0.363040
1579.000000	0.363198
1580.000000	0.363254
1581.000000	0.363289
1582.000000	0.363365
1583.000000	0.363441
1584.000000	0.363460
1585.000000	0.363597
1586.000000	0.363624
1587.000000	0.363558
1588.000000	0.363473
1589.000000	0.363311
1590.000000	0.363278
1591.000000	0.363307
1592.000000	0.363283
1593.000000	0.363350
1594.000000	0.363351
1595.000000	0.363331
1596.000000	0.363357
1597.000000	0.363443
1598.000000	0.363470
1599.000000	0.363499
1600.000000	0.363514
1601.000000	0.363624
1602.000000	0.363696
1603.000000	0.363819
1604.000000	0.363811
1605.000000	0.363702
1606.000000	0.363688
1607.000000	0.363706
1608.000000	0.363728
1609.000000	0.363905
1610.000000	0.364012
1611.000000	0.364060
1612.000000	0.364155
1613.000000	0.364439
1614.000000	0.364556
1615.000000	0.364707
1616.000000	0.364820
1617.000000	0.364743
1618.000000	0.364756
1619.000000	0.364761
1620.000000	0.364795
1621.000000	0.364906
1622.000000	0.365087
1623.000000	0.365290
1624.000000	0.365389
1625.000000	0.365270
1626.000000	0.365276
1627.000000	0.365289
1628.000000	0.365456
1629.000000	0.365815
1630.000000	0.366038
1631.000000	0.366143
1632.000000	0.366255
1633.000000	0.366306
1634.000000	0.366475
1635.000000	0.366795
1636.000000	0.366970
1637.000000	0.367127
1638.000000	0.367345
1639.000000	0.367621
1640.000000	0.367794
1641.000000	0.368126
1642.000000	0.368250
1643.000000	0.368088
1644.000000	0.368258
1645.000000	0.368582
1646.000000	0.368729
1647.000000	0.369026
1648.000000	0.369184
1649.000000	0.369211
1650.000000	0.369365
1651.000000	0.369644
1652.000000	0.369896
1653.000000	0.370089
1654.000000	0.370320
1655.000000	0.370557
1656.000000	0.370591
1657.000000	0.370608
1658.000000	0.370655
1659.000000	0.370713
1660.000000	0.370862
1661.000000	0.371011
1662.000000	0.371067
1663.000000	0.371063
1664.000000	0.371077
1665.000000	0.371015
1666.000000	0.371155
1667.000000	0.371250
1668.000000	0.371463
1669.000000	0.371825
1670.000000	0.371961
1671.000000	0.372191
1672.000000	0.372473
1673.000000	0.372628
1674.000000	0.372930
1675.000000	0.373216
1676.000000	0.373313
1677.000000	0.373494
1678.000000	0.373691
1679.000000	0.373897
1680.000000	0.374092
1681.000000	0.374271
1682.000000	0.374449
1683.000000	0.374603
1684.000000	0.374762
1685.000000	0.374883
1686.000000	0.374891
1687.000000	0.374977
1688.000000	0.375115
1689.000000	0.375221
1690.000000	0.375240
1691.000000	0.375274
1692.000000	0.375277
1693.000000	0.375286
1694.000000	0.375185
1695.000000	0.375246
1696.000000	0.375236
1697.000000	0.375204
1698.000000	0.375515
1699.000000	0.375604
1700.000000	0.375435
1701.000000	0.375478
1702.000000	0.375298
1703.000000	0.375147
1704.000000	0.375221
1705.000000	0.375210
1706.000000	0.375117
1707.000000	0.375164
1708.000000	0.375277
1709.000000	0.375308
1710.000000	0.375534
1711.000000	0.375665
1712.000000	0.375729
1713.000000	0.375769
1714.000000	0.375817
1715.000000	0.375892
1716.000000	0.375925
1717.000000	0.376040
1718.000000	0.376231
1719.000000	0.376318
1720.000000	0.376458
1721.000000	0.376585
1722.000000	0.376642
1723.000000	0.376740
1724.000000	0.376932
1725.000000	0.377059
1726.000000	0.377029
1727.000000	0.377084
1728.000000	0.377094
1729.000000	0.377035
1730.000000	0.377133
1731.000000	0.377135
1732.000000	0.377021
1733.000000	0.377158
1734.000000	0.377248
1735.000000	0.377336
1736.000000	0.377527
1737.000000	0.377579
1738.000000	0.377519
1739.000000	0.377570
1740.000000	0.377651
1741.000000	0.377630
1742.000000	0.377568
1743.000000	0.377720
1744.000000	0.377912
1745.000000	0.377920
1746.000000	0.377986
1747.000000	0.377986
1748.000000	0.377848
1749.000000	0.377713
1750.000000	0.377637
1751.000000	0.377581
1752.000000	0.377652
1753.000000	0.377790
1754.000000	0.377875
1755.000000	0.377749
1756.000000	0.377805
1757.000000	0.378095
1758.000000	0.378205
1759.000000	0.378293
1760.000000	0.378356
1761.000000	0.378138
1762.000000	0.378125
1763.000000	0.378373
1764.000000	0.378405
1765.000000	0.378351
1766.000000	0.378304
1767.000000	0.377954
1768.000000	0.377832
1769.000000	0.377992
1770.000000	0.378068
1771.000000	0.378132
1772.000000	0.378204
1773.000000	0.378166
1774.000000	0.378251
1775.000000	0.378554
1776.000000	0.378652
1777.000000	0.378656
1778.000000	0.378632
1779.000000	0.378456
1780.000000	0.378398
1781.000000	0.378321
1782.000000	0.378345
1783.000000	0.378476
1784.000000	0.378675
1785.000000	0.378731
1786.000000	0.378734
1787.000000	0.378995
1788.000000	0.379310
1789.000000	0.379461
1790.000000	0.379573
1791.000000	0.379615
1792.000000	0.379611
1793.000000	0.379661
1794.000000	0.379755
1795.000000	0.379872
1796.000000	0.380024
1797.000000	0.380104
1798.000000	0.380144
1799.000000	0.380205
1800.000000	0.380267
1801.000000	0.379776
1802.000000	0.380075
1803.000000	0.380765
1804.000000	0.380794
1805.000000	0.380342
1806.000000	0.380259
1807.000000	0.379986
1808.000000	0.379846
1809.000000	0.379729
1810.000000	0.380000
1811.000000	0.380266
1812.000000	0.380564
1813.000000	0.380844
1814.000000	0.381883
1815.000000	0.381769
1816.000000	0.380379
1817.000000	0.379963
1818.000000	0.379252
1819.000000	0.379594
1820.000000	0.379792
1821.000000	0.380249
1822.000000	0.380327
1823.000000	0.379669
1824.000000	0.379352
1825.000000	0.379138
1826.000000	0.379100
1827.000000	0.378974
1828.000000	0.378890
1829.000000	0.379259
1830.000000	0.379046
1831.000000	0.378915
1832.000000	0.378717
1833.000000	0.378548
1834.000000	0.378198
1835.000000	0.378213
1836.000000	0.378437
1837.000000	0.378338
1838.000000	0.378248
1839.000000	0.377779
1840.000000	0.377192
1841.000000	0.376656
1842.000000	0.376523
1843.000000	0.376791
1844.000000	0.376779
1845.000000	0.377133
1846.000000	0.377055
1847.000000	0.376486
1848.000000	0.375728
1849.000000	0.375010
1850.000000	0.373903
1851.000000	0.373437
1852.000000	0.373251
1853.000000	0.372806
1854.000000	0.372525
1855.000000	0.371835
1856.000000	0.370314
1857.000000	0.369540
1858.000000	0.369513
1859.000000	0.369009
1860.000000	0.368431
1861.000000	0.367983
1862.000000	0.366856
1863.000000	0.364534
1864.000000	0.363385
1865.000000	0.362830
1866.000000	0.361804
1867.000000	0.361127
1868.000000	0.360096
1869.000000	0.358074
1870.000000	0.355197
1871.000000	0.352610
1872.000000	0.350824
1873.000000	0.349047
1874.000000	0.348410
1875.000000	0.346290
1876.000000	0.343453
1877.000000	0.340149
1878.000000	0.335918
1879.000000	0.331803
1880.000000	0.328930
1881.000000	0.325442
1882.000000	0.321970
1883.000000	0.318969
1884.000000	0.315713
1885.000000	0.311956
1886.000000	0.308259
1887.000000	0.304774
1888.000000	0.300682
1889.000000	0.296115
1890.000000	0.291653
1891.000000	0.287130
1892.000000	0.282297
1893.000000	0.277878
1894.000000	0.273236
1895.000000	0.268200
1896.000000	0.262943
1897.000000	0.257959
1898.000000	0.252676
1899.000000	0.248180
1900.000000	0.244112
1901.000000	0.239656
1902.000000	0.235668
1903.000000	0.231664
1904.000000	0.227737
1905.000000	0.224475
1906.000000	0.221417
1907.000000	0.218654
1908.000000	0.216166
1909.000000	0.214145
1910.000000	0.212402
1911.000000	0.210494
1912.000000	0.208781
1913.000000	0.206991
1914.000000	0.204887
1915.000000	0.203513
1916.000000	0.202698
1917.000000	0.202025
1918.000000	0.201925
1919.000000	0.202110
1920.000000	0.201754
1921.000000	0.200932
1922.000000	0.199841
1923.000000	0.198754
1924.000000	0.198690
1925.000000	0.199385
1926.000000	0.199728
1927.000000	0.200311
1928.000000	0.200199
1929.000000	0.199432
1930.000000	0.198280
1931.000000	0.197988
1932.000000	0.198299
1933.000000	0.199760
1934.000000	0.200657
1935.000000	0.201322
1936.000000	0.201664
1937.000000	0.201182
1938.000000	0.201091
1939.000000	0.200943
1940.000000	0.200648
1941.000000	0.200584
1942.000000	0.200602
1943.000000	0.200329
1944.000000	0.200609
1945.000000	0.200830
1946.000000	0.201320
1947.000000	0.202101
1948.000000	0.202246
1949.000000	0.202582
1950.000000	0.202879
1951.000000	0.202749
1952.000000	0.202353
1953.000000	0.202259
1954.000000	0.201951
1955.000000	0.201398
1956.000000	0.200946
1957.000000	0.200379
1958.000000	0.199458
1959.000000	0.198445
1960.000000	0.198309
1961.000000	0.198937
1962.000000	0.199301
1963.000000	0.200124
1964.000000	0.200995
1965.000000	0.201214
1966.000000	0.200727
1967.000000	0.200098
1968.000000	0.199737
1969.000000	0.199593
1970.000000	0.199879
1971.000000	0.200662
1972.000000	0.201526
1973.000000	0.202270
1974.000000	0.203108
1975.000000	0.203920
1976.000000	0.204975
1977.000000	0.205649
1978.000000	0.205529
1979.000000	0.205509
1980.000000	0.205108
1981.000000	0.205327
1982.000000	0.206603
1983.000000	0.207405
1984.000000	0.207926
1985.000000	0.208390
1986.000000	0.208660
1987.000000	0.208343
1988.000000	0.208791
1989.000000	0.209320
1990.000000	0.209816
1991.000000	0.210738
1992.000000	0.211523
1993.000000	0.212268
1994.000000	0.212968
1995.000000	0.213571
1996.000000	0.214166
1997.000000	0.214940
1998.000000	0.215949
1999.000000	0.217067
2000.000000	0.218258
2001.000000	0.219709
2002.000000	0.221048
2003.000000	0.222282
2004.000000	0.223263
2005.000000	0.223497
2006.000000	0.224272
2007.000000	0.225539
2008.000000	0.226836
2009.000000	0.228800
2010.000000	0.230196
2011.000000	0.231282
2012.000000	0.232312
2013.000000	0.233119
2014.000000	0.233536
2015.000000	0.234667
2016.000000	0.235649
2017.000000	0.236274
2018.000000	0.237923
2019.000000	0.239237
2020.000000	0.240298
2021.000000	0.241395
2022.000000	0.242394
2023.000000	0.243529
2024.000000	0.244763
2025.000000	0.245876
2026.000000	0.247025
2027.000000	0.247987
2028.000000	0.248994
2029.000000	0.249791
2030.000000	0.251049
2031.000000	0.252773
2032.000000	0.253135
2033.000000	0.253641
2034.000000	0.254136
2035.000000	0.253898
2036.000000	0.254139
2037.000000	0.255026
2038.000000	0.255745
2039.000000	0.256229
2040.000000	0.257495
2041.000000	0.258996
2042.000000	0.260321
2043.000000	0.261471
2044.000000	0.262450
2045.000000	0.262901
2046.000000	0.263276
2047.000000	0.263878
2048.000000	0.264292
2049.000000	0.265305
2050.000000	0.266457
2051.000000	0.267400
2052.000000	0.268736
2053.000000	0.269636
2054.000000	0.270379
2055.000000	0.271074
2056.000000	0.272102
2057.000000	0.272834
2058.000000	0.273223
2059.000000	0.273954
2060.000000	0.274510
2061.000000	0.274731
2062.000000	0.275327
2063.000000	0.276302
2064.000000	0.276949
2065.000000	0.277737
2066.000000	0.278276
2067.000000	0.278892
2068.000000	0.279455
2069.000000	0.280126
2070.000000	0.281303
2071.000000	0.281682
2072.000000	0.282015
2073.000000	0.281890
2074.000000	0.281484
2075.000000	0.281929
2076.000000	0.282769
2077.000000	0.283832
2078.000000	0.285881
2079.000000	0.287032
2080.000000	0.288018
2081.000000	0.288971
2082.000000	0.289362
2083.000000	0.290195
2084.000000	0.291497
2085.000000	0.292350
2086.000000	0.293033
2087.000000	0.293316
2088.000000	0.293112
2089.000000	0.293466
2090.000000	0.293805
2091.000000	0.294356
2092.000000	0.294873
2093.000000	0.295363
2094.000000	0.296022
2095.000000	0.297116
2096.000000	0.297862
2097.000000	0.298652
2098.000000	0.298941
2099.000000	0.299291
2100.000000	0.299497
2101.000000	0.299857
2102.000000	0.300700
2103.000000	0.301076
2104.000000	0.301598
2105.000000	0.302261
2106.000000	0.302975
2107.000000	0.303727
2108.000000	0.304871
2109.000000	0.305430
2110.000000	0.305294
2111.000000	0.305605
2112.000000	0.305794
2113.000000	0.305739
2114.000000	0.306419
2115.000000	0.307430
2116.000000	0.308579
2117.000000	0.310021
2118.000000	0.310758
2119.000000	0.311326
2120.000000	0.311687
2121.000000	0.311391
2122.000000	0.311329
2123.000000	0.311272
2124.000000	0.311050
2125.000000	0.310262
2126.000000	0.310168
2127.000000	0.310641
2128.000000	0.311082
2129.000000	0.311621
2130.000000	0.312606
2131.000000	0.312783
2132.000000	0.312403
2133.000000	0.313179
2134.000000	0.313696
2135.000000	0.314251
2136.000000	0.315366
2137.000000	0.315294
2138.000000	0.313828
2139.000000	0.313604
2140.000000	0.312996
2141.000000	0.313060
2142.000000	0.314638
2143.000000	0.314789
2144.000000	0.314825
2145.000000	0.314788
2146.000000	0.314131
2147.000000	0.313641
2148.000000	0.313450
2149.000000	0.313630
2150.000000	0.314661
2151.000000	0.315571
2152.000000	0.316380
2153.000000	0.316966
2154.000000	0.316344
2155.000000	0.313705
2156.000000	0.313131
2157.000000	0.312608
2158.000000	0.312615
2159.000000	0.314522
2160.000000	0.315321
2161.000000	0.315421
2162.000000	0.315748
2163.000000	0.316224
2164.000000	0.316207
2165.000000	0.315574
2166.000000	0.315840
2167.000000	0.314796
2168.000000	0.313309
2169.000000	0.312368
2170.000000	0.310600
2171.000000	0.310863
2172.000000	0.312645
2173.000000	0.313391
2174.000000	0.315302
2175.000000	0.316289
2176.000000	0.316451
2177.000000	0.316877
2178.000000	0.317506
2179.000000	0.317877
2180.000000	0.317099
2181.000000	0.317477
2182.000000	0.318241
2183.000000	0.318487
2184.000000	0.318153
2185.000000	0.319073
2186.000000	0.319267
2187.000000	0.318199
2188.000000	0.317561
2189.000000	0.316665
2190.000000	0.315967
2191.000000	0.316222
2192.000000	0.315906
2193.000000	0.316098
2194.000000	0.315978
2195.000000	0.314982
2196.000000	0.315054
2197.000000	0.316084
2198.000000	0.316271
2199.000000	0.316960
2200.000000	0.316763
2201.000000	0.315275
2202.000000	0.314947
2203.000000	0.314736
2204.000000	0.313814
2205.000000	0.314916
2206.000000	0.313729
2207.000000	0.312054
2208.000000	0.311883
2209.000000	0.311604
2210.000000	0.313110
2211.000000	0.313070
2212.000000	0.314171
2213.000000	0.314600
2214.000000	0.313324
2215.000000	0.314078
2216.000000	0.316548
2217.000000	0.317355
2218.000000	0.318266
2219.000000	0.318631
2220.000000	0.318462
2221.000000	0.317517
2222.000000	0.316656
2223.000000	0.315575
2224.000000	0.313076
2225.000000	0.310559
2226.000000	0.310531
2227.000000	0.309224
2228.000000	0.313274
2229.000000	0.316241
2230.000000	0.316180
2231.000000	0.317037
2232.000000	0.313114
2233.000000	0.309773
2234.000000	0.309947
2235.000000	0.310468
2236.000000	0.310903
2237.000000	0.312817
2238.000000	0.313269
2239.000000	0.312379
2240.000000	0.312703
2241.000000	0.313650
2242.000000	0.313875
2243.000000	0.314111
2244.000000	0.314368
2245.000000	0.313947
2246.000000	0.313289
2247.000000	0.313494
2248.000000	0.313380
2249.000000	0.312624
2250.000000	0.311312
2251.000000	0.311397
2252.000000	0.309763
2253.000000	0.309092
2254.000000	0.310923
2255.000000	0.313465
2256.000000	0.314136
2257.000000	0.313669
2258.000000	0.312735
2259.000000	0.311087
2260.000000	0.310487
2261.000000	0.308672
2262.000000	0.306476
2263.000000	0.304883
2264.000000	0.302501
2265.000000	0.300413
2266.000000	0.299269
2267.000000	0.297188
2268.000000	0.293513
2269.000000	0.292874
2270.000000	0.294645
2271.000000	0.294002
2272.000000	0.293382
2273.000000	0.292424
2274.000000	0.289230
2275.000000	0.287636
2276.000000	0.286883
2277.000000	0.288021
2278.000000	0.287175
2279.000000	0.285227
2280.000000	0.281753
2281.000000	0.276692
2282.000000	0.273683
2283.000000	0.270607
2284.000000	0.268345
2285.000000	0.269198
2286.000000	0.269458
2287.000000	0.269535
2288.000000	0.271709
2289.000000	0.273657
2290.000000	0.274331
2291.000000	0.274347
2292.000000	0.272623
2293.000000	0.270103
2294.000000	0.270221
2295.000000	0.271286
2296.000000	0.272967
2297.000000	0.278197
2298.000000	0.279700
2299.000000	0.279194
2300.000000	0.279474
2301.000000	0.279355
2302.000000	0.278244
2303.000000	0.275922
2304.000000	0.275034
2305.000000	0.272740
2306.000000	0.272293
2307.000000	0.273887
2308.000000	0.275986
2309.000000	0.278312
2310.000000	0.280299
2311.000000	0.280265
2312.000000	0.280169
2313.000000	0.280667
2314.000000	0.282048
2315.000000	0.283252
2316.000000	0.284955
2317.000000	0.283385
2318.000000	0.281266
2319.000000	0.281912
2320.000000	0.281715
2321.000000	0.282833
2322.000000	0.282351
2323.000000	0.280196
2324.000000	0.278927
2325.000000	0.276187
2326.000000	0.274916
2327.000000	0.272993
2328.000000	0.270069
2329.000000	0.269520
2330.000000	0.266710
2331.000000	0.267170
2332.000000	0.269997
2333.000000	0.270200
2334.000000	0.272443
2335.000000	0.271867
2336.000000	0.266436
2337.000000	0.264654
2338.000000	0.263308
2339.000000	0.261479
2340.000000	0.261742
2341.000000	0.260838
2342.000000	0.256916
2343.000000	0.256146
2344.000000	0.257899
2345.000000	0.257249
2346.000000	0.258070
2347.000000	0.257438
2348.000000	0.254009
2349.000000	0.253618
2350.000000	0.252044
2351.000000	0.249257
2352.000000	0.247769
2353.000000	0.240733
2354.000000	0.236419
2355.000000	0.235545
2356.000000	0.236098
2357.000000	0.242090
2358.000000	0.244097
2359.000000	0.243695
2360.000000	0.243877
2361.000000	0.240910
2362.000000	0.237287
2363.000000	0.235451
2364.000000	0.232702
2365.000000	0.229929
2366.000000	0.231594
2367.000000	0.229829
2368.000000	0.227738
2369.000000	0.227639
2370.000000	0.223105
2371.000000	0.224130
2372.000000	0.225909
2373.000000	0.225124
2374.000000	0.222503
2375.000000	0.218425
2376.000000	0.223807
2377.000000	0.225382
2378.000000	0.229312
2379.000000	0.238816
2380.000000	0.233039
2381.000000	0.227495
2382.000000	0.221680
2383.000000	0.212937
2384.000000	0.212488
2385.000000	0.210794
2386.000000	0.209691
2387.000000	0.209138
2388.000000	0.205740
2389.000000	0.205009
2390.000000	0.204077
2391.000000	0.203847
2392.000000	0.202957
2393.000000	0.196645
2394.000000	0.192863
2395.000000	0.190732
2396.000000	0.191631
2397.000000	0.200587
2398.000000	0.205632
2399.000000	0.204023
2400.000000	0.201712
2401.000000	0.202646
2402.000000	0.206880
2403.000000	0.213267
2404.000000	0.220567
2405.000000	0.215637
2406.000000	0.203814
2407.000000	0.201623
2408.000000	0.198248
2409.000000	0.195098
2410.000000	0.188305
2411.000000	0.175169
2412.000000	0.171895
2413.000000	0.171273
2414.000000	0.188726
2415.000000	0.206208
2416.000000	0.205485
2417.000000	0.213544
2418.000000	0.201948
2419.000000	0.183967
2420.000000	0.179716
2421.000000	0.171936
2422.000000	0.173082
2423.000000	0.177376
2424.000000	0.177005
2425.000000	0.179853
2426.000000	0.184477
2427.000000	0.186870
2428.000000	0.191618
2429.000000	0.196493
2430.000000	0.198458
2431.000000	0.198907
2432.000000	0.199841
2433.000000	0.200015
2434.000000	0.189488
2435.000000	0.178507
2436.000000	0.169835
2437.000000	0.166668
2438.000000	0.171580
2439.000000	0.173111
2440.000000	0.178398
2441.000000	0.177003
2442.000000	0.171587
2443.000000	0.172608
2444.000000	0.166464
2445.000000	0.160274
2446.000000	0.153955
2447.000000	0.146885
2448.000000	0.146745
2449.000000	0.152875
2450.000000	0.158768
2451.000000	0.165422
2452.000000	0.173782
2453.000000	0.164960
2454.000000	0.163875
2455.000000	0.171606
2456.000000	0.171794
2457.000000	0.180414
2458.000000	0.177449
2459.000000	0.171340
2460.000000	0.170853
2461.000000	0.169750
2462.000000	0.175613
2463.000000	0.169813
2464.000000	0.161369
2465.000000	0.176948
2466.000000	0.196206
2467.000000	0.199475
2468.000000	0.210179
2469.000000	0.206073
2470.000000	0.185171
2471.000000	0.180281
2472.000000	0.168675
2473.000000	0.163325
2474.000000	0.169109
2475.000000	0.182714
2476.000000	0.199988
2477.000000	0.186110
2478.000000	0.143865
2479.000000	0.088634
2480.000000	0.060155
2481.000000	0.055729
2482.000000	0.099376
2483.000000	0.167501
2484.000000	0.176385
2485.000000	0.154104
2486.000000	0.106671
2487.000000	0.040937
2488.000000	0.014166
2489.000000	0.025302
2490.000000	0.038462
2491.000000	0.087209
2492.000000	0.109957
2493.000000	0.143912
2494.000000	0.165617
2495.000000	0.135880
2496.000000	0.129084
2497.000000	0.120337
2498.000000	0.130881
2499.000000	0.195376
2500.000000	0.211313
