# Wavelength	NAu-2-40_HEX-10_FV7-50_00000.asd.rts.txt
350.000000	0.125597
351.000000	0.133366
352.000000	0.147098
353.000000	0.152156
354.000000	0.146681
355.000000	0.146976
356.000000	0.140005
357.000000	0.131139
358.000000	0.137828
359.000000	0.130784
360.000000	0.124229
361.000000	0.136476
362.000000	0.139796
363.000000	0.139152
364.000000	0.138625
365.000000	0.132659
366.000000	0.136505
367.000000	0.144686
368.000000	0.133168
369.000000	0.139328
370.000000	0.149643
371.000000	0.140984
372.000000	0.138448
373.000000	0.140012
374.000000	0.141348
375.000000	0.138729
376.000000	0.136295
377.000000	0.135547
378.000000	0.135854
379.000000	0.137908
380.000000	0.139683
381.000000	0.139233
382.000000	0.138358
383.000000	0.138881
384.000000	0.141087
385.000000	0.140896
386.000000	0.140020
387.000000	0.139917
388.000000	0.141991
389.000000	0.142390
390.000000	0.141317
391.000000	0.140399
392.000000	0.141864
393.000000	0.143205
394.000000	0.142598
395.000000	0.142395
396.000000	0.142331
397.000000	0.142058
398.000000	0.141034
399.000000	0.141304
400.000000	0.142405
401.000000	0.142743
402.000000	0.142556
403.000000	0.142606
404.000000	0.143374
405.000000	0.143310
406.000000	0.143563
407.000000	0.144307
408.000000	0.143745
409.000000	0.143673
410.000000	0.144338
411.000000	0.145128
412.000000	0.145767
413.000000	0.146100
414.000000	0.146162
415.000000	0.146615
416.000000	0.147026
417.000000	0.147221
418.000000	0.147832
419.000000	0.148118
420.000000	0.148060
421.000000	0.148230
422.000000	0.148352
423.000000	0.148452
424.000000	0.148700
425.000000	0.149347
426.000000	0.149869
427.000000	0.149875
428.000000	0.149515
429.000000	0.149695
430.000000	0.150559
431.000000	0.151377
432.000000	0.151274
433.000000	0.150976
434.000000	0.151980
435.000000	0.152318
436.000000	0.152409
437.000000	0.152922
438.000000	0.153591
439.000000	0.153879
440.000000	0.153674
441.000000	0.153342
442.000000	0.153647
443.000000	0.154243
444.000000	0.154032
445.000000	0.154371
446.000000	0.154954
447.000000	0.155040
448.000000	0.155344
449.000000	0.155652
450.000000	0.155890
451.000000	0.156647
452.000000	0.157192
453.000000	0.157421
454.000000	0.158097
455.000000	0.158681
456.000000	0.159060
457.000000	0.159197
458.000000	0.159602
459.000000	0.159916
460.000000	0.159908
461.000000	0.160377
462.000000	0.160635
463.000000	0.160447
464.000000	0.160773
465.000000	0.161286
466.000000	0.161727
467.000000	0.161909
468.000000	0.161913
469.000000	0.162052
470.000000	0.162680
471.000000	0.163176
472.000000	0.163317
473.000000	0.163255
474.000000	0.163985
475.000000	0.164489
476.000000	0.164592
477.000000	0.164742
478.000000	0.165162
479.000000	0.165672
480.000000	0.165718
481.000000	0.165858
482.000000	0.166111
483.000000	0.166301
484.000000	0.166699
485.000000	0.166917
486.000000	0.166975
487.000000	0.167261
488.000000	0.167697
489.000000	0.168057
490.000000	0.167954
491.000000	0.168257
492.000000	0.168753
493.000000	0.168904
494.000000	0.168942
495.000000	0.169074
496.000000	0.169353
497.000000	0.169568
498.000000	0.169671
499.000000	0.169747
500.000000	0.169935
501.000000	0.170093
502.000000	0.170219
503.000000	0.170322
504.000000	0.170553
505.000000	0.170811
506.000000	0.171000
507.000000	0.171304
508.000000	0.171506
509.000000	0.171583
510.000000	0.172071
511.000000	0.172460
512.000000	0.172733
513.000000	0.173216
514.000000	0.173571
515.000000	0.173865
516.000000	0.174230
517.000000	0.174588
518.000000	0.174902
519.000000	0.175147
520.000000	0.175602
521.000000	0.176093
522.000000	0.176544
523.000000	0.177005
524.000000	0.177452
525.000000	0.177964
526.000000	0.178697
527.000000	0.179319
528.000000	0.179934
529.000000	0.180742
530.000000	0.181567
531.000000	0.182421
532.000000	0.183297
533.000000	0.184380
534.000000	0.185400
535.000000	0.186306
536.000000	0.187293
537.000000	0.188242
538.000000	0.189162
539.000000	0.190097
540.000000	0.190974
541.000000	0.191745
542.000000	0.192441
543.000000	0.193233
544.000000	0.194111
545.000000	0.194978
546.000000	0.195760
547.000000	0.196517
548.000000	0.197321
549.000000	0.198200
550.000000	0.199124
551.000000	0.200140
552.000000	0.201245
553.000000	0.202201
554.000000	0.203219
555.000000	0.204441
556.000000	0.205632
557.000000	0.206865
558.000000	0.208210
559.000000	0.209443
560.000000	0.210686
561.000000	0.211999
562.000000	0.213305
563.000000	0.214541
564.000000	0.215760
565.000000	0.216941
566.000000	0.218068
567.000000	0.219088
568.000000	0.219984
569.000000	0.220893
570.000000	0.221682
571.000000	0.222365
572.000000	0.223110
573.000000	0.223742
574.000000	0.224280
575.000000	0.224843
576.000000	0.225289
577.000000	0.225665
578.000000	0.226070
579.000000	0.226463
580.000000	0.226803
581.000000	0.227068
582.000000	0.227271
583.000000	0.227395
584.000000	0.227488
585.000000	0.227631
586.000000	0.227691
587.000000	0.227677
588.000000	0.227632
589.000000	0.227553
590.000000	0.227424
591.000000	0.227259
592.000000	0.227151
593.000000	0.227039
594.000000	0.226874
595.000000	0.226602
596.000000	0.226343
597.000000	0.226126
598.000000	0.225863
599.000000	0.225513
600.000000	0.225184
601.000000	0.224887
602.000000	0.224481
603.000000	0.224083
604.000000	0.223758
605.000000	0.223456
606.000000	0.223176
607.000000	0.222880
608.000000	0.222509
609.000000	0.222239
610.000000	0.221986
611.000000	0.221631
612.000000	0.221313
613.000000	0.221037
614.000000	0.220799
615.000000	0.220502
616.000000	0.220133
617.000000	0.219754
618.000000	0.219601
619.000000	0.219314
620.000000	0.218917
621.000000	0.218619
622.000000	0.218355
623.000000	0.218097
624.000000	0.217827
625.000000	0.217567
626.000000	0.217364
627.000000	0.217212
628.000000	0.217002
629.000000	0.216823
630.000000	0.216634
631.000000	0.216537
632.000000	0.216475
633.000000	0.216430
634.000000	0.216382
635.000000	0.216353
636.000000	0.216308
637.000000	0.216245
638.000000	0.216290
639.000000	0.216270
640.000000	0.216228
641.000000	0.216273
642.000000	0.216284
643.000000	0.216272
644.000000	0.216286
645.000000	0.216345
646.000000	0.216448
647.000000	0.216566
648.000000	0.216690
649.000000	0.216840
650.000000	0.217005
651.000000	0.217163
652.000000	0.217386
653.000000	0.217671
654.000000	0.217915
655.000000	0.218112
656.000000	0.218358
657.000000	0.218688
658.000000	0.219049
659.000000	0.219391
660.000000	0.219696
661.000000	0.220012
662.000000	0.220392
663.000000	0.220843
664.000000	0.221266
665.000000	0.221681
666.000000	0.222113
667.000000	0.222560
668.000000	0.223035
669.000000	0.223574
670.000000	0.224167
671.000000	0.224696
672.000000	0.225286
673.000000	0.225945
674.000000	0.226605
675.000000	0.227238
676.000000	0.227841
677.000000	0.228452
678.000000	0.229168
679.000000	0.229953
680.000000	0.230754
681.000000	0.231484
682.000000	0.232295
683.000000	0.233147
684.000000	0.233974
685.000000	0.234851
686.000000	0.235773
687.000000	0.236677
688.000000	0.237589
689.000000	0.238512
690.000000	0.239476
691.000000	0.240488
692.000000	0.241492
693.000000	0.242511
694.000000	0.243515
695.000000	0.244579
696.000000	0.245676
697.000000	0.246744
698.000000	0.247873
699.000000	0.249029
700.000000	0.250184
701.000000	0.251378
702.000000	0.252562
703.000000	0.253719
704.000000	0.254914
705.000000	0.256194
706.000000	0.257488
707.000000	0.258752
708.000000	0.260013
709.000000	0.261220
710.000000	0.262388
711.000000	0.263737
712.000000	0.265127
713.000000	0.266483
714.000000	0.267768
715.000000	0.269051
716.000000	0.270350
717.000000	0.271645
718.000000	0.273027
719.000000	0.274379
720.000000	0.275632
721.000000	0.276943
722.000000	0.278213
723.000000	0.279463
724.000000	0.280730
725.000000	0.281980
726.000000	0.283314
727.000000	0.284716
728.000000	0.285992
729.000000	0.287237
730.000000	0.288490
731.000000	0.289670
732.000000	0.290812
733.000000	0.291986
734.000000	0.293208
735.000000	0.294328
736.000000	0.295470
737.000000	0.296615
738.000000	0.297720
739.000000	0.298854
740.000000	0.299905
741.000000	0.300953
742.000000	0.301979
743.000000	0.302948
744.000000	0.303898
745.000000	0.304827
746.000000	0.305760
747.000000	0.306639
748.000000	0.307591
749.000000	0.308504
750.000000	0.309295
751.000000	0.310144
752.000000	0.310962
753.000000	0.311729
754.000000	0.312454
755.000000	0.313179
756.000000	0.313882
757.000000	0.314498
758.000000	0.315164
759.000000	0.315823
760.000000	0.316387
761.000000	0.317019
762.000000	0.317571
763.000000	0.318032
764.000000	0.318545
765.000000	0.318989
766.000000	0.319415
767.000000	0.319881
768.000000	0.320364
769.000000	0.320810
770.000000	0.321226
771.000000	0.321716
772.000000	0.322146
773.000000	0.322461
774.000000	0.322782
775.000000	0.323089
776.000000	0.323368
777.000000	0.323619
778.000000	0.323970
779.000000	0.324302
780.000000	0.324576
781.000000	0.324799
782.000000	0.324977
783.000000	0.325229
784.000000	0.325482
785.000000	0.325679
786.000000	0.325863
787.000000	0.326026
788.000000	0.326052
789.000000	0.326085
790.000000	0.326147
791.000000	0.326248
792.000000	0.326294
793.000000	0.326412
794.000000	0.326668
795.000000	0.326769
796.000000	0.326873
797.000000	0.326988
798.000000	0.326967
799.000000	0.327034
800.000000	0.327147
801.000000	0.327207
802.000000	0.327291
803.000000	0.327315
804.000000	0.327288
805.000000	0.327278
806.000000	0.327305
807.000000	0.327381
808.000000	0.327356
809.000000	0.327370
810.000000	0.327411
811.000000	0.327427
812.000000	0.327379
813.000000	0.327307
814.000000	0.327207
815.000000	0.327062
816.000000	0.326948
817.000000	0.326875
818.000000	0.326755
819.000000	0.326696
820.000000	0.326690
821.000000	0.326672
822.000000	0.326671
823.000000	0.326629
824.000000	0.326492
825.000000	0.326359
826.000000	0.326318
827.000000	0.326260
828.000000	0.326159
829.000000	0.326035
830.000000	0.325865
831.000000	0.325746
832.000000	0.325652
833.000000	0.325599
834.000000	0.325575
835.000000	0.325553
836.000000	0.325313
837.000000	0.325123
838.000000	0.325051
839.000000	0.324957
840.000000	0.324804
841.000000	0.324679
842.000000	0.324611
843.000000	0.324511
844.000000	0.324407
845.000000	0.324276
846.000000	0.324125
847.000000	0.324060
848.000000	0.324024
849.000000	0.323947
850.000000	0.323732
851.000000	0.323476
852.000000	0.323296
853.000000	0.323212
854.000000	0.323068
855.000000	0.322968
856.000000	0.322874
857.000000	0.322721
858.000000	0.322545
859.000000	0.322302
860.000000	0.322050
861.000000	0.321865
862.000000	0.321736
863.000000	0.321543
864.000000	0.321409
865.000000	0.321243
866.000000	0.321022
867.000000	0.320781
868.000000	0.320698
869.000000	0.320599
870.000000	0.320312
871.000000	0.320001
872.000000	0.319724
873.000000	0.319446
874.000000	0.319179
875.000000	0.318961
876.000000	0.318757
877.000000	0.318459
878.000000	0.318274
879.000000	0.318185
880.000000	0.318025
881.000000	0.317941
882.000000	0.317710
883.000000	0.317451
884.000000	0.317313
885.000000	0.317027
886.000000	0.316683
887.000000	0.316391
888.000000	0.316152
889.000000	0.315953
890.000000	0.315667
891.000000	0.315370
892.000000	0.315074
893.000000	0.314682
894.000000	0.314323
895.000000	0.314092
896.000000	0.313873
897.000000	0.313647
898.000000	0.313424
899.000000	0.313118
900.000000	0.312907
901.000000	0.312804
902.000000	0.312728
903.000000	0.312416
904.000000	0.312068
905.000000	0.311829
906.000000	0.311552
907.000000	0.311216
908.000000	0.310893
909.000000	0.310567
910.000000	0.310365
911.000000	0.310105
912.000000	0.309678
913.000000	0.309379
914.000000	0.309145
915.000000	0.308941
916.000000	0.308591
917.000000	0.308288
918.000000	0.308050
919.000000	0.307850
920.000000	0.307750
921.000000	0.307595
922.000000	0.307341
923.000000	0.307002
924.000000	0.306849
925.000000	0.306636
926.000000	0.306326
927.000000	0.306245
928.000000	0.305991
929.000000	0.305593
930.000000	0.305213
931.000000	0.304843
932.000000	0.304468
933.000000	0.304152
934.000000	0.303931
935.000000	0.303635
936.000000	0.303333
937.000000	0.303005
938.000000	0.302618
939.000000	0.302356
940.000000	0.302134
941.000000	0.301879
942.000000	0.301664
943.000000	0.301522
944.000000	0.301322
945.000000	0.301083
946.000000	0.300823
947.000000	0.300573
948.000000	0.300304
949.000000	0.300097
950.000000	0.299901
951.000000	0.299582
952.000000	0.299086
953.000000	0.298890
954.000000	0.298740
955.000000	0.298361
956.000000	0.298086
957.000000	0.297957
958.000000	0.297761
959.000000	0.297375
960.000000	0.297190
961.000000	0.296971
962.000000	0.296703
963.000000	0.296727
964.000000	0.296417
965.000000	0.295988
966.000000	0.295628
967.000000	0.295399
968.000000	0.295159
969.000000	0.294916
970.000000	0.294851
971.000000	0.294712
972.000000	0.294623
973.000000	0.294518
974.000000	0.294262
975.000000	0.294051
976.000000	0.293820
977.000000	0.293513
978.000000	0.293305
979.000000	0.293156
980.000000	0.292860
981.000000	0.292640
982.000000	0.292516
983.000000	0.292174
984.000000	0.291846
985.000000	0.292131
986.000000	0.292064
987.000000	0.291930
988.000000	0.291894
989.000000	0.291720
990.000000	0.291273
991.000000	0.290854
992.000000	0.290808
993.000000	0.290572
994.000000	0.290488
995.000000	0.290615
996.000000	0.290447
997.000000	0.290557
998.000000	0.290448
999.000000	0.290100
1000.000000	0.290109
1001.000000	0.290281
1002.000000	0.290355
1003.000000	0.290021
1004.000000	0.290183
1005.000000	0.290817
1006.000000	0.290454
1007.000000	0.289658
1008.000000	0.289891
1009.000000	0.289581
1010.000000	0.289268
1011.000000	0.289874
1012.000000	0.290525
1013.000000	0.290765
1014.000000	0.290489
1015.000000	0.290523
1016.000000	0.290654
1017.000000	0.289828
1018.000000	0.289493
1019.000000	0.289429
1020.000000	0.289404
1021.000000	0.289167
1022.000000	0.289786
1023.000000	0.290029
1024.000000	0.289808
1025.000000	0.289493
1026.000000	0.289748
1027.000000	0.289096
1028.000000	0.288691
1029.000000	0.289362
1030.000000	0.289184
1031.000000	0.289029
1032.000000	0.289410
1033.000000	0.288835
1034.000000	0.288593
1035.000000	0.288420
1036.000000	0.288643
1037.000000	0.288836
1038.000000	0.289240
1039.000000	0.290272
1040.000000	0.291252
1041.000000	0.291313
1042.000000	0.291092
1043.000000	0.291024
1044.000000	0.290675
1045.000000	0.290385
1046.000000	0.290686
1047.000000	0.290605
1048.000000	0.289853
1049.000000	0.289942
1050.000000	0.290543
1051.000000	0.290894
1052.000000	0.291688
1053.000000	0.292047
1054.000000	0.292169
1055.000000	0.292334
1056.000000	0.292379
1057.000000	0.292604
1058.000000	0.292740
1059.000000	0.292744
1060.000000	0.293148
1061.000000	0.293413
1062.000000	0.293463
1063.000000	0.293976
1064.000000	0.294274
1065.000000	0.294447
1066.000000	0.294563
1067.000000	0.294610
1068.000000	0.294667
1069.000000	0.294474
1070.000000	0.294455
1071.000000	0.294581
1072.000000	0.294832
1073.000000	0.295231
1074.000000	0.295750
1075.000000	0.295970
1076.000000	0.296175
1077.000000	0.296252
1078.000000	0.296172
1079.000000	0.296454
1080.000000	0.297207
1081.000000	0.297626
1082.000000	0.298314
1083.000000	0.298376
1084.000000	0.298007
1085.000000	0.297867
1086.000000	0.296975
1087.000000	0.297105
1088.000000	0.298194
1089.000000	0.298575
1090.000000	0.298965
1091.000000	0.299345
1092.000000	0.299713
1093.000000	0.299939
1094.000000	0.300047
1095.000000	0.300318
1096.000000	0.300488
1097.000000	0.300198
1098.000000	0.300292
1099.000000	0.300712
1100.000000	0.300921
1101.000000	0.300921
1102.000000	0.301093
1103.000000	0.301160
1104.000000	0.301569
1105.000000	0.302446
1106.000000	0.302887
1107.000000	0.303309
1108.000000	0.303619
1109.000000	0.303694
1110.000000	0.303585
1111.000000	0.303769
1112.000000	0.304187
1113.000000	0.304334
1114.000000	0.304414
1115.000000	0.304569
1116.000000	0.304503
1117.000000	0.304802
1118.000000	0.305559
1119.000000	0.305765
1120.000000	0.305802
1121.000000	0.305939
1122.000000	0.305930
1123.000000	0.306105
1124.000000	0.306141
1125.000000	0.306400
1126.000000	0.306701
1127.000000	0.306879
1128.000000	0.307077
1129.000000	0.307567
1130.000000	0.307692
1131.000000	0.307531
1132.000000	0.307538
1133.000000	0.307544
1134.000000	0.307652
1135.000000	0.307812
1136.000000	0.307889
1137.000000	0.307985
1138.000000	0.308020
1139.000000	0.307965
1140.000000	0.308139
1141.000000	0.308487
1142.000000	0.308647
1143.000000	0.308670
1144.000000	0.308906
1145.000000	0.309005
1146.000000	0.308947
1147.000000	0.309073
1148.000000	0.309297
1149.000000	0.309446
1150.000000	0.309605
1151.000000	0.309715
1152.000000	0.309745
1153.000000	0.309840
1154.000000	0.309853
1155.000000	0.309925
1156.000000	0.310069
1157.000000	0.310197
1158.000000	0.310255
1159.000000	0.310379
1160.000000	0.310621
1161.000000	0.310709
1162.000000	0.310739
1163.000000	0.310979
1164.000000	0.311037
1165.000000	0.310877
1166.000000	0.310862
1167.000000	0.310767
1168.000000	0.310778
1169.000000	0.310934
1170.000000	0.310972
1171.000000	0.310996
1172.000000	0.311134
1173.000000	0.311210
1174.000000	0.311342
1175.000000	0.311680
1176.000000	0.311768
1177.000000	0.311730
1178.000000	0.311785
1179.000000	0.311802
1180.000000	0.311775
1181.000000	0.311886
1182.000000	0.311924
1183.000000	0.311891
1184.000000	0.312016
1185.000000	0.312139
1186.000000	0.312371
1187.000000	0.312394
1188.000000	0.312339
1189.000000	0.312295
1190.000000	0.312189
1191.000000	0.312132
1192.000000	0.312178
1193.000000	0.312371
1194.000000	0.312449
1195.000000	0.312633
1196.000000	0.313050
1197.000000	0.313210
1198.000000	0.313223
1199.000000	0.313351
1200.000000	0.313408
1201.000000	0.313494
1202.000000	0.313705
1203.000000	0.313779
1204.000000	0.313803
1205.000000	0.313769
1206.000000	0.313740
1207.000000	0.313804
1208.000000	0.313790
1209.000000	0.313809
1210.000000	0.313834
1211.000000	0.313840
1212.000000	0.313780
1213.000000	0.313644
1214.000000	0.313710
1215.000000	0.313862
1216.000000	0.313973
1217.000000	0.314253
1218.000000	0.314325
1219.000000	0.314284
1220.000000	0.314166
1221.000000	0.314073
1222.000000	0.314134
1223.000000	0.314227
1224.000000	0.314374
1225.000000	0.314545
1226.000000	0.314658
1227.000000	0.314590
1228.000000	0.314561
1229.000000	0.314562
1230.000000	0.314472
1231.000000	0.314446
1232.000000	0.314697
1233.000000	0.314818
1234.000000	0.314853
1235.000000	0.314894
1236.000000	0.314761
1237.000000	0.314825
1238.000000	0.314906
1239.000000	0.315029
1240.000000	0.315352
1241.000000	0.315420
1242.000000	0.315505
1243.000000	0.315678
1244.000000	0.315723
1245.000000	0.315805
1246.000000	0.315869
1247.000000	0.315842
1248.000000	0.315752
1249.000000	0.315913
1250.000000	0.316041
1251.000000	0.316147
1252.000000	0.316218
1253.000000	0.316351
1254.000000	0.316299
1255.000000	0.316074
1256.000000	0.315973
1257.000000	0.315891
1258.000000	0.315797
1259.000000	0.315585
1260.000000	0.315632
1261.000000	0.315793
1262.000000	0.315799
1263.000000	0.315859
1264.000000	0.315990
1265.000000	0.316050
1266.000000	0.315932
1267.000000	0.315989
1268.000000	0.316137
1269.000000	0.316164
1270.000000	0.316327
1271.000000	0.316566
1272.000000	0.316712
1273.000000	0.316737
1274.000000	0.316661
1275.000000	0.316618
1276.000000	0.316518
1277.000000	0.316629
1278.000000	0.316758
1279.000000	0.316813
1280.000000	0.316932
1281.000000	0.316918
1282.000000	0.316717
1283.000000	0.316851
1284.000000	0.317064
1285.000000	0.317173
1286.000000	0.317352
1287.000000	0.317583
1288.000000	0.317543
1289.000000	0.317544
1290.000000	0.317385
1291.000000	0.317209
1292.000000	0.317286
1293.000000	0.317333
1294.000000	0.317360
1295.000000	0.317477
1296.000000	0.317527
1297.000000	0.317457
1298.000000	0.317550
1299.000000	0.317665
1300.000000	0.317654
1301.000000	0.317700
1302.000000	0.317638
1303.000000	0.317606
1304.000000	0.317539
1305.000000	0.317496
1306.000000	0.317451
1307.000000	0.317474
1308.000000	0.317507
1309.000000	0.317578
1310.000000	0.317587
1311.000000	0.317542
1312.000000	0.317569
1313.000000	0.317786
1314.000000	0.317714
1315.000000	0.317645
1316.000000	0.317816
1317.000000	0.317721
1318.000000	0.317667
1319.000000	0.317761
1320.000000	0.317670
1321.000000	0.317608
1322.000000	0.317727
1323.000000	0.317809
1324.000000	0.317960
1325.000000	0.318023
1326.000000	0.317887
1327.000000	0.317906
1328.000000	0.317884
1329.000000	0.317793
1330.000000	0.317738
1331.000000	0.317722
1332.000000	0.317708
1333.000000	0.317644
1334.000000	0.317639
1335.000000	0.317672
1336.000000	0.317608
1337.000000	0.317676
1338.000000	0.317913
1339.000000	0.317888
1340.000000	0.317775
1341.000000	0.317716
1342.000000	0.317551
1343.000000	0.317549
1344.000000	0.317558
1345.000000	0.317472
1346.000000	0.317493
1347.000000	0.317332
1348.000000	0.317275
1349.000000	0.317285
1350.000000	0.317204
1351.000000	0.317102
1352.000000	0.317101
1353.000000	0.317159
1354.000000	0.317213
1355.000000	0.317254
1356.000000	0.317304
1357.000000	0.317204
1358.000000	0.317176
1359.000000	0.317219
1360.000000	0.317211
1361.000000	0.317195
1362.000000	0.317238
1363.000000	0.317385
1364.000000	0.317360
1365.000000	0.317240
1366.000000	0.317120
1367.000000	0.316909
1368.000000	0.316556
1369.000000	0.316521
1370.000000	0.316566
1371.000000	0.316339
1372.000000	0.316164
1373.000000	0.315969
1374.000000	0.315672
1375.000000	0.315550
1376.000000	0.315491
1377.000000	0.315441
1378.000000	0.315497
1379.000000	0.315335
1380.000000	0.315146
1381.000000	0.314928
1382.000000	0.314369
1383.000000	0.313865
1384.000000	0.313400
1385.000000	0.312936
1386.000000	0.312613
1387.000000	0.312262
1388.000000	0.311880
1389.000000	0.311244
1390.000000	0.310483
1391.000000	0.309731
1392.000000	0.308960
1393.000000	0.308230
1394.000000	0.307601
1395.000000	0.306860
1396.000000	0.306134
1397.000000	0.305334
1398.000000	0.304312
1399.000000	0.303546
1400.000000	0.302897
1401.000000	0.302117
1402.000000	0.301391
1403.000000	0.300715
1404.000000	0.300014
1405.000000	0.299379
1406.000000	0.298838
1407.000000	0.298317
1408.000000	0.297753
1409.000000	0.297279
1410.000000	0.297002
1411.000000	0.296740
1412.000000	0.296356
1413.000000	0.296092
1414.000000	0.295942
1415.000000	0.295799
1416.000000	0.295651
1417.000000	0.295425
1418.000000	0.295056
1419.000000	0.294761
1420.000000	0.294674
1421.000000	0.294717
1422.000000	0.294691
1423.000000	0.294696
1424.000000	0.294482
1425.000000	0.294322
1426.000000	0.294330
1427.000000	0.294316
1428.000000	0.294374
1429.000000	0.294343
1430.000000	0.294188
1431.000000	0.294152
1432.000000	0.294088
1433.000000	0.294074
1434.000000	0.294087
1435.000000	0.294149
1436.000000	0.294178
1437.000000	0.294259
1438.000000	0.294320
1439.000000	0.294387
1440.000000	0.294494
1441.000000	0.294619
1442.000000	0.294796
1443.000000	0.294909
1444.000000	0.295190
1445.000000	0.295518
1446.000000	0.295832
1447.000000	0.296173
1448.000000	0.296534
1449.000000	0.296934
1450.000000	0.297251
1451.000000	0.297568
1452.000000	0.297922
1453.000000	0.298212
1454.000000	0.298502
1455.000000	0.298812
1456.000000	0.299073
1457.000000	0.299379
1458.000000	0.299722
1459.000000	0.299961
1460.000000	0.300140
1461.000000	0.300305
1462.000000	0.300348
1463.000000	0.300317
1464.000000	0.300471
1465.000000	0.300648
1466.000000	0.300761
1467.000000	0.301030
1468.000000	0.301249
1469.000000	0.301444
1470.000000	0.301737
1471.000000	0.301964
1472.000000	0.302094
1473.000000	0.302413
1474.000000	0.302538
1475.000000	0.302668
1476.000000	0.303017
1477.000000	0.303227
1478.000000	0.303418
1479.000000	0.303621
1480.000000	0.303791
1481.000000	0.303942
1482.000000	0.304094
1483.000000	0.304334
1484.000000	0.304595
1485.000000	0.304813
1486.000000	0.305067
1487.000000	0.305300
1488.000000	0.305544
1489.000000	0.305786
1490.000000	0.305856
1491.000000	0.306097
1492.000000	0.306395
1493.000000	0.306597
1494.000000	0.306853
1495.000000	0.306954
1496.000000	0.306780
1497.000000	0.306870
1498.000000	0.307060
1499.000000	0.307232
1500.000000	0.307524
1501.000000	0.307780
1502.000000	0.307934
1503.000000	0.308158
1504.000000	0.308333
1505.000000	0.308427
1506.000000	0.308578
1507.000000	0.308681
1508.000000	0.308895
1509.000000	0.309182
1510.000000	0.309302
1511.000000	0.309479
1512.000000	0.309509
1513.000000	0.309477
1514.000000	0.309650
1515.000000	0.309583
1516.000000	0.309551
1517.000000	0.309674
1518.000000	0.309523
1519.000000	0.309382
1520.000000	0.309527
1521.000000	0.309478
1522.000000	0.309484
1523.000000	0.309728
1524.000000	0.309809
1525.000000	0.309860
1526.000000	0.309962
1527.000000	0.310112
1528.000000	0.310244
1529.000000	0.310295
1530.000000	0.310281
1531.000000	0.310278
1532.000000	0.310316
1533.000000	0.310415
1534.000000	0.310551
1535.000000	0.310626
1536.000000	0.310684
1537.000000	0.310802
1538.000000	0.310868
1539.000000	0.310987
1540.000000	0.311050
1541.000000	0.310962
1542.000000	0.310850
1543.000000	0.310747
1544.000000	0.310713
1545.000000	0.310834
1546.000000	0.311067
1547.000000	0.311323
1548.000000	0.311448
1549.000000	0.311386
1550.000000	0.311347
1551.000000	0.311331
1552.000000	0.311411
1553.000000	0.311553
1554.000000	0.311628
1555.000000	0.311884
1556.000000	0.312044
1557.000000	0.312035
1558.000000	0.312075
1559.000000	0.311936
1560.000000	0.311979
1561.000000	0.312215
1562.000000	0.312260
1563.000000	0.312362
1564.000000	0.312414
1565.000000	0.312283
1566.000000	0.312230
1567.000000	0.312368
1568.000000	0.312445
1569.000000	0.312535
1570.000000	0.312571
1571.000000	0.312628
1572.000000	0.312621
1573.000000	0.312525
1574.000000	0.312457
1575.000000	0.312396
1576.000000	0.312415
1577.000000	0.312491
1578.000000	0.312439
1579.000000	0.312362
1580.000000	0.312379
1581.000000	0.312412
1582.000000	0.312445
1583.000000	0.312639
1584.000000	0.312677
1585.000000	0.312678
1586.000000	0.312719
1587.000000	0.312740
1588.000000	0.312744
1589.000000	0.312722
1590.000000	0.312742
1591.000000	0.312813
1592.000000	0.312889
1593.000000	0.313042
1594.000000	0.313062
1595.000000	0.313115
1596.000000	0.313083
1597.000000	0.312905
1598.000000	0.312886
1599.000000	0.312958
1600.000000	0.312918
1601.000000	0.312985
1602.000000	0.313014
1603.000000	0.312976
1604.000000	0.312930
1605.000000	0.312973
1606.000000	0.312921
1607.000000	0.312857
1608.000000	0.312731
1609.000000	0.312532
1610.000000	0.312471
1611.000000	0.312448
1612.000000	0.312359
1613.000000	0.312477
1614.000000	0.312483
1615.000000	0.312396
1616.000000	0.312413
1617.000000	0.312429
1618.000000	0.312473
1619.000000	0.312526
1620.000000	0.312574
1621.000000	0.312719
1622.000000	0.312836
1623.000000	0.312841
1624.000000	0.312935
1625.000000	0.312992
1626.000000	0.312945
1627.000000	0.312911
1628.000000	0.312872
1629.000000	0.312681
1630.000000	0.312671
1631.000000	0.312742
1632.000000	0.312692
1633.000000	0.312633
1634.000000	0.312624
1635.000000	0.312582
1636.000000	0.312583
1637.000000	0.312735
1638.000000	0.312740
1639.000000	0.312719
1640.000000	0.312715
1641.000000	0.312732
1642.000000	0.312755
1643.000000	0.312839
1644.000000	0.312835
1645.000000	0.312765
1646.000000	0.312729
1647.000000	0.312705
1648.000000	0.312732
1649.000000	0.312925
1650.000000	0.312987
1651.000000	0.313052
1652.000000	0.313103
1653.000000	0.312997
1654.000000	0.313091
1655.000000	0.313265
1656.000000	0.313238
1657.000000	0.313289
1658.000000	0.313269
1659.000000	0.313184
1660.000000	0.313208
1661.000000	0.313216
1662.000000	0.313231
1663.000000	0.313240
1664.000000	0.313217
1665.000000	0.313166
1666.000000	0.313270
1667.000000	0.313319
1668.000000	0.313431
1669.000000	0.313653
1670.000000	0.313694
1671.000000	0.313793
1672.000000	0.313834
1673.000000	0.313731
1674.000000	0.313766
1675.000000	0.313856
1676.000000	0.313874
1677.000000	0.314040
1678.000000	0.314244
1679.000000	0.314232
1680.000000	0.314248
1681.000000	0.314307
1682.000000	0.314240
1683.000000	0.314201
1684.000000	0.314083
1685.000000	0.313922
1686.000000	0.313841
1687.000000	0.313807
1688.000000	0.313749
1689.000000	0.313792
1690.000000	0.313646
1691.000000	0.313510
1692.000000	0.313487
1693.000000	0.313417
1694.000000	0.313467
1695.000000	0.313543
1696.000000	0.313712
1697.000000	0.313753
1698.000000	0.313817
1699.000000	0.313870
1700.000000	0.313783
1701.000000	0.313844
1702.000000	0.313889
1703.000000	0.313797
1704.000000	0.313747
1705.000000	0.313673
1706.000000	0.313478
1707.000000	0.313393
1708.000000	0.313303
1709.000000	0.313249
1710.000000	0.313465
1711.000000	0.313484
1712.000000	0.313402
1713.000000	0.313435
1714.000000	0.313441
1715.000000	0.313500
1716.000000	0.313831
1717.000000	0.313883
1718.000000	0.313693
1719.000000	0.313584
1720.000000	0.313377
1721.000000	0.313331
1722.000000	0.313406
1723.000000	0.313487
1724.000000	0.313749
1725.000000	0.313815
1726.000000	0.313720
1727.000000	0.313654
1728.000000	0.313348
1729.000000	0.313245
1730.000000	0.313416
1731.000000	0.313462
1732.000000	0.313628
1733.000000	0.313625
1734.000000	0.313316
1735.000000	0.313212
1736.000000	0.313058
1737.000000	0.312979
1738.000000	0.313032
1739.000000	0.313033
1740.000000	0.313015
1741.000000	0.312951
1742.000000	0.312877
1743.000000	0.312936
1744.000000	0.312977
1745.000000	0.313026
1746.000000	0.313218
1747.000000	0.313006
1748.000000	0.312902
1749.000000	0.312819
1750.000000	0.312710
1751.000000	0.312822
1752.000000	0.312961
1753.000000	0.312888
1754.000000	0.312919
1755.000000	0.313060
1756.000000	0.313067
1757.000000	0.312988
1758.000000	0.313005
1759.000000	0.312956
1760.000000	0.312951
1761.000000	0.313053
1762.000000	0.313056
1763.000000	0.312987
1764.000000	0.312981
1765.000000	0.312994
1766.000000	0.312925
1767.000000	0.312685
1768.000000	0.312591
1769.000000	0.312625
1770.000000	0.312623
1771.000000	0.312705
1772.000000	0.312679
1773.000000	0.312455
1774.000000	0.312345
1775.000000	0.312292
1776.000000	0.312338
1777.000000	0.312433
1778.000000	0.312459
1779.000000	0.312567
1780.000000	0.312559
1781.000000	0.312403
1782.000000	0.312306
1783.000000	0.312297
1784.000000	0.312120
1785.000000	0.311764
1786.000000	0.311529
1787.000000	0.311541
1788.000000	0.311676
1789.000000	0.311756
1790.000000	0.311706
1791.000000	0.311660
1792.000000	0.311720
1793.000000	0.311743
1794.000000	0.311802
1795.000000	0.311846
1796.000000	0.311761
1797.000000	0.311766
1798.000000	0.311846
1799.000000	0.311886
1800.000000	0.312072
1801.000000	0.311480
1802.000000	0.311908
1803.000000	0.312417
1804.000000	0.312535
1805.000000	0.312719
1806.000000	0.312411
1807.000000	0.311123
1808.000000	0.310674
1809.000000	0.310585
1810.000000	0.309821
1811.000000	0.309956
1812.000000	0.311101
1813.000000	0.311186
1814.000000	0.311281
1815.000000	0.311153
1816.000000	0.309918
1817.000000	0.309687
1818.000000	0.310010
1819.000000	0.310444
1820.000000	0.311202
1821.000000	0.311664
1822.000000	0.311349
1823.000000	0.309723
1824.000000	0.309204
1825.000000	0.308386
1826.000000	0.308254
1827.000000	0.308500
1828.000000	0.309511
1829.000000	0.310402
1830.000000	0.310382
1831.000000	0.310373
1832.000000	0.309765
1833.000000	0.309836
1834.000000	0.310004
1835.000000	0.310264
1836.000000	0.311589
1837.000000	0.311720
1838.000000	0.311132
1839.000000	0.310032
1840.000000	0.308614
1841.000000	0.307750
1842.000000	0.307563
1843.000000	0.308177
1844.000000	0.308393
1845.000000	0.309175
1846.000000	0.309260
1847.000000	0.308509
1848.000000	0.308385
1849.000000	0.308008
1850.000000	0.308107
1851.000000	0.308174
1852.000000	0.308433
1853.000000	0.308722
1854.000000	0.308981
1855.000000	0.308861
1856.000000	0.308602
1857.000000	0.308290
1858.000000	0.307950
1859.000000	0.307646
1860.000000	0.307117
1861.000000	0.306547
1862.000000	0.306170
1863.000000	0.306004
1864.000000	0.305442
1865.000000	0.304927
1866.000000	0.304311
1867.000000	0.303465
1868.000000	0.301755
1869.000000	0.300736
1870.000000	0.300342
1871.000000	0.300131
1872.000000	0.300280
1873.000000	0.299730
1874.000000	0.299027
1875.000000	0.298311
1876.000000	0.297014
1877.000000	0.295188
1878.000000	0.294358
1879.000000	0.292798
1880.000000	0.290875
1881.000000	0.289401
1882.000000	0.286983
1883.000000	0.285064
1884.000000	0.283172
1885.000000	0.281089
1886.000000	0.278697
1887.000000	0.276369
1888.000000	0.273694
1889.000000	0.270934
1890.000000	0.268128
1891.000000	0.265294
1892.000000	0.262750
1893.000000	0.259943
1894.000000	0.257258
1895.000000	0.254620
1896.000000	0.252294
1897.000000	0.250047
1898.000000	0.247515
1899.000000	0.245101
1900.000000	0.242752
1901.000000	0.240268
1902.000000	0.238545
1903.000000	0.236622
1904.000000	0.234649
1905.000000	0.233416
1906.000000	0.232571
1907.000000	0.231806
1908.000000	0.231857
1909.000000	0.232500
1910.000000	0.233095
1911.000000	0.233300
1912.000000	0.233596
1913.000000	0.234522
1914.000000	0.235388
1915.000000	0.236145
1916.000000	0.237201
1917.000000	0.238082
1918.000000	0.239033
1919.000000	0.239719
1920.000000	0.240419
1921.000000	0.241209
1922.000000	0.241389
1923.000000	0.241533
1924.000000	0.241880
1925.000000	0.241692
1926.000000	0.242062
1927.000000	0.243017
1928.000000	0.243481
1929.000000	0.243835
1930.000000	0.244364
1931.000000	0.244898
1932.000000	0.245179
1933.000000	0.245368
1934.000000	0.246123
1935.000000	0.246941
1936.000000	0.247376
1937.000000	0.248453
1938.000000	0.248962
1939.000000	0.249081
1940.000000	0.248560
1941.000000	0.248554
1942.000000	0.248744
1943.000000	0.248616
1944.000000	0.249170
1945.000000	0.249730
1946.000000	0.249049
1947.000000	0.249142
1948.000000	0.249383
1949.000000	0.249175
1950.000000	0.249649
1951.000000	0.249700
1952.000000	0.249637
1953.000000	0.249358
1954.000000	0.249225
1955.000000	0.249046
1956.000000	0.249167
1957.000000	0.249126
1958.000000	0.249039
1959.000000	0.248916
1960.000000	0.248863
1961.000000	0.249192
1962.000000	0.249440
1963.000000	0.249907
1964.000000	0.250351
1965.000000	0.250616
1966.000000	0.250529
1967.000000	0.250506
1968.000000	0.250832
1969.000000	0.250963
1970.000000	0.251311
1971.000000	0.251820
1972.000000	0.252176
1973.000000	0.252472
1974.000000	0.252935
1975.000000	0.253406
1976.000000	0.253994
1977.000000	0.254065
1978.000000	0.254539
1979.000000	0.255187
1980.000000	0.255104
1981.000000	0.256009
1982.000000	0.256186
1983.000000	0.255635
1984.000000	0.255783
1985.000000	0.255998
1986.000000	0.256324
1987.000000	0.256968
1988.000000	0.258024
1989.000000	0.259321
1990.000000	0.260422
1991.000000	0.260673
1992.000000	0.261131
1993.000000	0.260675
1994.000000	0.259563
1995.000000	0.259785
1996.000000	0.260285
1997.000000	0.260541
1998.000000	0.261400
1999.000000	0.261962
2000.000000	0.262217
2001.000000	0.262087
2002.000000	0.262913
2003.000000	0.263351
2004.000000	0.263910
2005.000000	0.264658
2006.000000	0.265451
2007.000000	0.266159
2008.000000	0.266366
2009.000000	0.266189
2010.000000	0.266368
2011.000000	0.265848
2012.000000	0.265951
2013.000000	0.266464
2014.000000	0.266941
2015.000000	0.267839
2016.000000	0.268574
2017.000000	0.269114
2018.000000	0.269922
2019.000000	0.270332
2020.000000	0.270581
2021.000000	0.270821
2022.000000	0.270891
2023.000000	0.271149
2024.000000	0.271563
2025.000000	0.271654
2026.000000	0.271680
2027.000000	0.271525
2028.000000	0.270945
2029.000000	0.271294
2030.000000	0.271857
2031.000000	0.272383
2032.000000	0.272958
2033.000000	0.272963
2034.000000	0.273116
2035.000000	0.273244
2036.000000	0.273423
2037.000000	0.273693
2038.000000	0.274137
2039.000000	0.274827
2040.000000	0.275250
2041.000000	0.276099
2042.000000	0.276608
2043.000000	0.276580
2044.000000	0.276673
2045.000000	0.276386
2046.000000	0.276486
2047.000000	0.276676
2048.000000	0.276993
2049.000000	0.277408
2050.000000	0.277728
2051.000000	0.277882
2052.000000	0.277808
2053.000000	0.277986
2054.000000	0.278540
2055.000000	0.278939
2056.000000	0.279146
2057.000000	0.279648
2058.000000	0.279674
2059.000000	0.279388
2060.000000	0.279103
2061.000000	0.278591
2062.000000	0.278501
2063.000000	0.278351
2064.000000	0.278394
2065.000000	0.279391
2066.000000	0.279624
2067.000000	0.279812
2068.000000	0.279941
2069.000000	0.279825
2070.000000	0.280073
2071.000000	0.280209
2072.000000	0.280665
2073.000000	0.281737
2074.000000	0.281882
2075.000000	0.282045
2076.000000	0.282265
2077.000000	0.282157
2078.000000	0.281258
2079.000000	0.281203
2080.000000	0.281418
2081.000000	0.281670
2082.000000	0.282507
2083.000000	0.283005
2084.000000	0.282941
2085.000000	0.283008
2086.000000	0.282918
2087.000000	0.283192
2088.000000	0.283256
2089.000000	0.283131
2090.000000	0.283242
2091.000000	0.283171
2092.000000	0.283281
2093.000000	0.283929
2094.000000	0.284312
2095.000000	0.284758
2096.000000	0.284972
2097.000000	0.285201
2098.000000	0.284728
2099.000000	0.284393
2100.000000	0.283616
2101.000000	0.283140
2102.000000	0.283056
2103.000000	0.282878
2104.000000	0.283438
2105.000000	0.283652
2106.000000	0.283733
2107.000000	0.284039
2108.000000	0.284298
2109.000000	0.284980
2110.000000	0.286360
2111.000000	0.287087
2112.000000	0.288150
2113.000000	0.287558
2114.000000	0.287142
2115.000000	0.286668
2116.000000	0.286302
2117.000000	0.286538
2118.000000	0.286658
2119.000000	0.286805
2120.000000	0.287288
2121.000000	0.288315
2122.000000	0.288634
2123.000000	0.289122
2124.000000	0.288950
2125.000000	0.287674
2126.000000	0.287167
2127.000000	0.286531
2128.000000	0.286439
2129.000000	0.287003
2130.000000	0.287284
2131.000000	0.287213
2132.000000	0.287430
2133.000000	0.286927
2134.000000	0.286853
2135.000000	0.288003
2136.000000	0.288789
2137.000000	0.289042
2138.000000	0.289524
2139.000000	0.289494
2140.000000	0.288025
2141.000000	0.287958
2142.000000	0.288642
2143.000000	0.288722
2144.000000	0.289580
2145.000000	0.289655
2146.000000	0.288858
2147.000000	0.288910
2148.000000	0.289133
2149.000000	0.289202
2150.000000	0.289413
2151.000000	0.289850
2152.000000	0.289376
2153.000000	0.288820
2154.000000	0.288632
2155.000000	0.288517
2156.000000	0.288667
2157.000000	0.289380
2158.000000	0.289587
2159.000000	0.289836
2160.000000	0.289912
2161.000000	0.289563
2162.000000	0.289528
2163.000000	0.289582
2164.000000	0.289465
2165.000000	0.289198
2166.000000	0.289100
2167.000000	0.288908
2168.000000	0.289133
2169.000000	0.289763
2170.000000	0.289603
2171.000000	0.289579
2172.000000	0.289572
2173.000000	0.289350
2174.000000	0.288861
2175.000000	0.288728
2176.000000	0.288681
2177.000000	0.288154
2178.000000	0.287583
2179.000000	0.287159
2180.000000	0.285856
2181.000000	0.285859
2182.000000	0.286461
2183.000000	0.286596
2184.000000	0.286799
2185.000000	0.287907
2186.000000	0.288677
2187.000000	0.289985
2188.000000	0.290709
2189.000000	0.290860
2190.000000	0.290745
2191.000000	0.289601
2192.000000	0.288998
2193.000000	0.288242
2194.000000	0.288212
2195.000000	0.288504
2196.000000	0.289057
2197.000000	0.291207
2198.000000	0.291627
2199.000000	0.291259
2200.000000	0.291015
2201.000000	0.289247
2202.000000	0.288557
2203.000000	0.288464
2204.000000	0.288196
2205.000000	0.287351
2206.000000	0.286287
2207.000000	0.285832
2208.000000	0.285951
2209.000000	0.286126
2210.000000	0.286564
2211.000000	0.288149
2212.000000	0.290524
2213.000000	0.291882
2214.000000	0.296008
2215.000000	0.294755
2216.000000	0.288273
2217.000000	0.285778
2218.000000	0.281183
2219.000000	0.280075
2220.000000	0.283337
2221.000000	0.284904
2222.000000	0.287597
2223.000000	0.288514
2224.000000	0.289094
2225.000000	0.288315
2226.000000	0.285991
2227.000000	0.284194
2228.000000	0.284276
2229.000000	0.283524
2230.000000	0.281032
2231.000000	0.281297
2232.000000	0.279648
2233.000000	0.275826
2234.000000	0.276235
2235.000000	0.276587
2236.000000	0.276785
2237.000000	0.278340
2238.000000	0.279332
2239.000000	0.279390
2240.000000	0.279915
2241.000000	0.281483
2242.000000	0.281481
2243.000000	0.280074
2244.000000	0.279926
2245.000000	0.279094
2246.000000	0.279035
2247.000000	0.281156
2248.000000	0.281145
2249.000000	0.279669
2250.000000	0.279473
2251.000000	0.278419
2252.000000	0.277997
2253.000000	0.278599
2254.000000	0.280084
2255.000000	0.280252
2256.000000	0.279004
2257.000000	0.279647
2258.000000	0.278545
2259.000000	0.277925
2260.000000	0.280499
2261.000000	0.280527
2262.000000	0.278963
2263.000000	0.279377
2264.000000	0.280128
2265.000000	0.280058
2266.000000	0.282074
2267.000000	0.281507
2268.000000	0.278356
2269.000000	0.276430
2270.000000	0.273608
2271.000000	0.270909
2272.000000	0.267853
2273.000000	0.266738
2274.000000	0.266019
2275.000000	0.266761
2276.000000	0.271221
2277.000000	0.271888
2278.000000	0.270934
2279.000000	0.269539
2280.000000	0.266992
2281.000000	0.265635
2282.000000	0.264599
2283.000000	0.265246
2284.000000	0.263848
2285.000000	0.261343
2286.000000	0.259008
2287.000000	0.255728
2288.000000	0.254938
2289.000000	0.253591
2290.000000	0.253481
2291.000000	0.254220
2292.000000	0.254156
2293.000000	0.255395
2294.000000	0.254002
2295.000000	0.249896
2296.000000	0.249427
2297.000000	0.247913
2298.000000	0.248635
2299.000000	0.254184
2300.000000	0.256533
2301.000000	0.257108
2302.000000	0.258977
2303.000000	0.261664
2304.000000	0.262446
2305.000000	0.263723
2306.000000	0.263758
2307.000000	0.260997
2308.000000	0.259451
2309.000000	0.261072
2310.000000	0.261925
2311.000000	0.263520
2312.000000	0.265273
2313.000000	0.264287
2314.000000	0.263016
2315.000000	0.262725
2316.000000	0.262908
2317.000000	0.263410
2318.000000	0.262918
2319.000000	0.262501
2320.000000	0.261195
2321.000000	0.259270
2322.000000	0.259205
2323.000000	0.259699
2324.000000	0.259428
2325.000000	0.259625
2326.000000	0.261314
2327.000000	0.263946
2328.000000	0.265584
2329.000000	0.268072
2330.000000	0.270843
2331.000000	0.270515
2332.000000	0.271129
2333.000000	0.269395
2334.000000	0.263791
2335.000000	0.261237
2336.000000	0.258175
2337.000000	0.256694
2338.000000	0.257988
2339.000000	0.258132
2340.000000	0.257204
2341.000000	0.257349
2342.000000	0.257688
2343.000000	0.258162
2344.000000	0.260823
2345.000000	0.261577
2346.000000	0.262121
2347.000000	0.262904
2348.000000	0.263401
2349.000000	0.261080
2350.000000	0.260774
2351.000000	0.257792
2352.000000	0.255746
2353.000000	0.257261
2354.000000	0.256944
2355.000000	0.256130
2356.000000	0.256803
2357.000000	0.255760
2358.000000	0.255253
2359.000000	0.259003
2360.000000	0.259476
2361.000000	0.259525
2362.000000	0.260179
2363.000000	0.256717
2364.000000	0.253164
2365.000000	0.249846
2366.000000	0.244713
2367.000000	0.242174
2368.000000	0.245931
2369.000000	0.251113
2370.000000	0.254574
2371.000000	0.260288
2372.000000	0.263145
2373.000000	0.259773
2374.000000	0.255333
2375.000000	0.249496
2376.000000	0.244173
2377.000000	0.240762
2378.000000	0.243608
2379.000000	0.243632
2380.000000	0.238665
2381.000000	0.236428
2382.000000	0.231518
2383.000000	0.232185
2384.000000	0.236947
2385.000000	0.239192
2386.000000	0.240688
2387.000000	0.239591
2388.000000	0.239017
2389.000000	0.241678
2390.000000	0.241178
2391.000000	0.237226
2392.000000	0.229520
2393.000000	0.220469
2394.000000	0.219856
2395.000000	0.224276
2396.000000	0.234130
2397.000000	0.245046
2398.000000	0.248343
2399.000000	0.248370
2400.000000	0.246202
2401.000000	0.244908
2402.000000	0.243450
2403.000000	0.234171
2404.000000	0.228862
2405.000000	0.225101
2406.000000	0.220217
2407.000000	0.222897
2408.000000	0.225441
2409.000000	0.230195
2410.000000	0.242321
2411.000000	0.254635
2412.000000	0.254599
2413.000000	0.248148
2414.000000	0.232670
2415.000000	0.214887
2416.000000	0.215980
2417.000000	0.224151
2418.000000	0.234361
2419.000000	0.243390
2420.000000	0.247006
2421.000000	0.238723
2422.000000	0.233385
2423.000000	0.233531
2424.000000	0.226518
2425.000000	0.230760
2426.000000	0.229674
2427.000000	0.227924
2428.000000	0.239404
2429.000000	0.244399
2430.000000	0.249348
2431.000000	0.258330
2432.000000	0.256371
2433.000000	0.247885
2434.000000	0.247134
2435.000000	0.241552
2436.000000	0.226351
2437.000000	0.216178
2438.000000	0.208201
2439.000000	0.189668
2440.000000	0.179597
2441.000000	0.185251
2442.000000	0.192525
2443.000000	0.203459
2444.000000	0.205566
2445.000000	0.201683
2446.000000	0.197359
2447.000000	0.191589
2448.000000	0.212030
2449.000000	0.238247
2450.000000	0.245200
2451.000000	0.255020
2452.000000	0.253280
2453.000000	0.235743
2454.000000	0.219260
2455.000000	0.200746
2456.000000	0.193985
2457.000000	0.199259
2458.000000	0.207913
2459.000000	0.222080
2460.000000	0.225281
2461.000000	0.217684
2462.000000	0.206901
2463.000000	0.202222
2464.000000	0.211003
2465.000000	0.208735
2466.000000	0.214949
2467.000000	0.235851
2468.000000	0.232227
2469.000000	0.235113
2470.000000	0.245637
2471.000000	0.232839
2472.000000	0.229308
2473.000000	0.219823
2474.000000	0.205497
2475.000000	0.230782
2476.000000	0.247378
2477.000000	0.245205
2478.000000	0.254525
2479.000000	0.207470
2480.000000	0.154233
2481.000000	0.163657
2482.000000	0.156386
2483.000000	0.146667
2484.000000	0.166361
2485.000000	0.189747
2486.000000	0.205382
2487.000000	0.240932
2488.000000	0.271032
2489.000000	0.237004
2490.000000	0.220091
2491.000000	0.203686
2492.000000	0.182875
2493.000000	0.156319
2494.000000	0.138326
2495.000000	0.112344
2496.000000	0.114172
2497.000000	0.167684
2498.000000	0.172522
2499.000000	0.169834
2500.000000	0.158371
