# Wavelength	NAu-2-50_HEX-30_FV7-20_000000002.asd.rts.txt
350.000000	0.114436
351.000000	0.119456
352.000000	0.119046
353.000000	0.114006
354.000000	0.108474
355.000000	0.107966
356.000000	0.108592
357.000000	0.109989
358.000000	0.112368
359.000000	0.111619
360.000000	0.109877
361.000000	0.109981
362.000000	0.109975
363.000000	0.109248
364.000000	0.107942
365.000000	0.108959
366.000000	0.108093
367.000000	0.106097
368.000000	0.108416
369.000000	0.109309
370.000000	0.109343
371.000000	0.110516
372.000000	0.110488
373.000000	0.109883
374.000000	0.109805
375.000000	0.111164
376.000000	0.111546
377.000000	0.110876
378.000000	0.111485
379.000000	0.112183
380.000000	0.111937
381.000000	0.110490
382.000000	0.110376
383.000000	0.111245
384.000000	0.112231
385.000000	0.111491
386.000000	0.111733
387.000000	0.112942
388.000000	0.111832
389.000000	0.112311
390.000000	0.113683
391.000000	0.113709
392.000000	0.113792
393.000000	0.113923
394.000000	0.114051
395.000000	0.114759
396.000000	0.115159
397.000000	0.114891
398.000000	0.114153
399.000000	0.114244
400.000000	0.114904
401.000000	0.115123
402.000000	0.115107
403.000000	0.115089
404.000000	0.115373
405.000000	0.116257
406.000000	0.116745
407.000000	0.116559
408.000000	0.116475
409.000000	0.116722
410.000000	0.117158
411.000000	0.117369
412.000000	0.117810
413.000000	0.118120
414.000000	0.117973
415.000000	0.118183
416.000000	0.118556
417.000000	0.118910
418.000000	0.119271
419.000000	0.119573
420.000000	0.119796
421.000000	0.119941
422.000000	0.120393
423.000000	0.120928
424.000000	0.121218
425.000000	0.121616
426.000000	0.121912
427.000000	0.122003
428.000000	0.122374
429.000000	0.122649
430.000000	0.122801
431.000000	0.123285
432.000000	0.123596
433.000000	0.123753
434.000000	0.124047
435.000000	0.124326
436.000000	0.124658
437.000000	0.125068
438.000000	0.125295
439.000000	0.125501
440.000000	0.125809
441.000000	0.126076
442.000000	0.126296
443.000000	0.126497
444.000000	0.126830
445.000000	0.127046
446.000000	0.127294
447.000000	0.127694
448.000000	0.128088
449.000000	0.128535
450.000000	0.129058
451.000000	0.129479
452.000000	0.129917
453.000000	0.130355
454.000000	0.130741
455.000000	0.131005
456.000000	0.131352
457.000000	0.131970
458.000000	0.132333
459.000000	0.132615
460.000000	0.133045
461.000000	0.133387
462.000000	0.133738
463.000000	0.134086
464.000000	0.134495
465.000000	0.134944
466.000000	0.135308
467.000000	0.135454
468.000000	0.135719
469.000000	0.136054
470.000000	0.136400
471.000000	0.136718
472.000000	0.137052
473.000000	0.137419
474.000000	0.137659
475.000000	0.138002
476.000000	0.138478
477.000000	0.138690
478.000000	0.138884
479.000000	0.139214
480.000000	0.139601
481.000000	0.139935
482.000000	0.140245
483.000000	0.140482
484.000000	0.140860
485.000000	0.141129
486.000000	0.141291
487.000000	0.141496
488.000000	0.141777
489.000000	0.142084
490.000000	0.142273
491.000000	0.142492
492.000000	0.142708
493.000000	0.142792
494.000000	0.142946
495.000000	0.143131
496.000000	0.143282
497.000000	0.143425
498.000000	0.143545
499.000000	0.143658
500.000000	0.143700
501.000000	0.143826
502.000000	0.144016
503.000000	0.144126
504.000000	0.144271
505.000000	0.144455
506.000000	0.144669
507.000000	0.144910
508.000000	0.145196
509.000000	0.145509
510.000000	0.145833
511.000000	0.146143
512.000000	0.146455
513.000000	0.146786
514.000000	0.147197
515.000000	0.147628
516.000000	0.147962
517.000000	0.148385
518.000000	0.148809
519.000000	0.149140
520.000000	0.149616
521.000000	0.150089
522.000000	0.150516
523.000000	0.150998
524.000000	0.151591
525.000000	0.152264
526.000000	0.152960
527.000000	0.153786
528.000000	0.154695
529.000000	0.155642
530.000000	0.156617
531.000000	0.157703
532.000000	0.158880
533.000000	0.160072
534.000000	0.161297
535.000000	0.162540
536.000000	0.163783
537.000000	0.165060
538.000000	0.166328
539.000000	0.167513
540.000000	0.168673
541.000000	0.169793
542.000000	0.170873
543.000000	0.171894
544.000000	0.172935
545.000000	0.173977
546.000000	0.174969
547.000000	0.175980
548.000000	0.177065
549.000000	0.178217
550.000000	0.179433
551.000000	0.180711
552.000000	0.182020
553.000000	0.183420
554.000000	0.184909
555.000000	0.186481
556.000000	0.188125
557.000000	0.189796
558.000000	0.191541
559.000000	0.193270
560.000000	0.195021
561.000000	0.196823
562.000000	0.198597
563.000000	0.200314
564.000000	0.201988
565.000000	0.203573
566.000000	0.205155
567.000000	0.206677
568.000000	0.208084
569.000000	0.209387
570.000000	0.210603
571.000000	0.211730
572.000000	0.212774
573.000000	0.213666
574.000000	0.214434
575.000000	0.215171
576.000000	0.215797
577.000000	0.216350
578.000000	0.216892
579.000000	0.217259
580.000000	0.217570
581.000000	0.217863
582.000000	0.218046
583.000000	0.218162
584.000000	0.218231
585.000000	0.218270
586.000000	0.218227
587.000000	0.218109
588.000000	0.217940
589.000000	0.217767
590.000000	0.217549
591.000000	0.217253
592.000000	0.216857
593.000000	0.216476
594.000000	0.216106
595.000000	0.215624
596.000000	0.215139
597.000000	0.214686
598.000000	0.214193
599.000000	0.213631
600.000000	0.213050
601.000000	0.212451
602.000000	0.211895
603.000000	0.211321
604.000000	0.210711
605.000000	0.210089
606.000000	0.209492
607.000000	0.208895
608.000000	0.208226
609.000000	0.207604
610.000000	0.207027
611.000000	0.206457
612.000000	0.205871
613.000000	0.205284
614.000000	0.204734
615.000000	0.204205
616.000000	0.203697
617.000000	0.203199
618.000000	0.202761
619.000000	0.202325
620.000000	0.201862
621.000000	0.201411
622.000000	0.201024
623.000000	0.200659
624.000000	0.200282
625.000000	0.199947
626.000000	0.199607
627.000000	0.199254
628.000000	0.198928
629.000000	0.198673
630.000000	0.198389
631.000000	0.198093
632.000000	0.197844
633.000000	0.197616
634.000000	0.197363
635.000000	0.197142
636.000000	0.196966
637.000000	0.196823
638.000000	0.196695
639.000000	0.196589
640.000000	0.196532
641.000000	0.196464
642.000000	0.196436
643.000000	0.196440
644.000000	0.196461
645.000000	0.196522
646.000000	0.196599
647.000000	0.196662
648.000000	0.196761
649.000000	0.196903
650.000000	0.197084
651.000000	0.197335
652.000000	0.197553
653.000000	0.197779
654.000000	0.198059
655.000000	0.198404
656.000000	0.198784
657.000000	0.199140
658.000000	0.199559
659.000000	0.199998
660.000000	0.200433
661.000000	0.200921
662.000000	0.201395
663.000000	0.201903
664.000000	0.202480
665.000000	0.203043
666.000000	0.203634
667.000000	0.204285
668.000000	0.204938
669.000000	0.205612
670.000000	0.206335
671.000000	0.207149
672.000000	0.207978
673.000000	0.208812
674.000000	0.209707
675.000000	0.210592
676.000000	0.211497
677.000000	0.212483
678.000000	0.213468
679.000000	0.214465
680.000000	0.215500
681.000000	0.216577
682.000000	0.217724
683.000000	0.218893
684.000000	0.220119
685.000000	0.221349
686.000000	0.222628
687.000000	0.223981
688.000000	0.225323
689.000000	0.226693
690.000000	0.228151
691.000000	0.229666
692.000000	0.231162
693.000000	0.232684
694.000000	0.234280
695.000000	0.235878
696.000000	0.237480
697.000000	0.239115
698.000000	0.240778
699.000000	0.242507
700.000000	0.244320
701.000000	0.246124
702.000000	0.247963
703.000000	0.249833
704.000000	0.251715
705.000000	0.253674
706.000000	0.255647
707.000000	0.257603
708.000000	0.259579
709.000000	0.261584
710.000000	0.263630
711.000000	0.265679
712.000000	0.267750
713.000000	0.269859
714.000000	0.271966
715.000000	0.274055
716.000000	0.276154
717.000000	0.278298
718.000000	0.280496
719.000000	0.282703
720.000000	0.284899
721.000000	0.287112
722.000000	0.289287
723.000000	0.291475
724.000000	0.293693
725.000000	0.295863
726.000000	0.298058
727.000000	0.300247
728.000000	0.302433
729.000000	0.304626
730.000000	0.306785
731.000000	0.308955
732.000000	0.311108
733.000000	0.313250
734.000000	0.315294
735.000000	0.317333
736.000000	0.319447
737.000000	0.321445
738.000000	0.323427
739.000000	0.325423
740.000000	0.327280
741.000000	0.329151
742.000000	0.331029
743.000000	0.332880
744.000000	0.334737
745.000000	0.336536
746.000000	0.338297
747.000000	0.339969
748.000000	0.341650
749.000000	0.343304
750.000000	0.344865
751.000000	0.346377
752.000000	0.347870
753.000000	0.349355
754.000000	0.350797
755.000000	0.352209
756.000000	0.353599
757.000000	0.354917
758.000000	0.356143
759.000000	0.357328
760.000000	0.358429
761.000000	0.359517
762.000000	0.360601
763.000000	0.361642
764.000000	0.362663
765.000000	0.363643
766.000000	0.364613
767.000000	0.365581
768.000000	0.366489
769.000000	0.367320
770.000000	0.368097
771.000000	0.368886
772.000000	0.369659
773.000000	0.370362
774.000000	0.371087
775.000000	0.371732
776.000000	0.372339
777.000000	0.372933
778.000000	0.373549
779.000000	0.374119
780.000000	0.374623
781.000000	0.375060
782.000000	0.375514
783.000000	0.376046
784.000000	0.376484
785.000000	0.376866
786.000000	0.377214
787.000000	0.377542
788.000000	0.377883
789.000000	0.378186
790.000000	0.378422
791.000000	0.378633
792.000000	0.378888
793.000000	0.379127
794.000000	0.379309
795.000000	0.379491
796.000000	0.379661
797.000000	0.379805
798.000000	0.379915
799.000000	0.380011
800.000000	0.380128
801.000000	0.380291
802.000000	0.380433
803.000000	0.380531
804.000000	0.380619
805.000000	0.380677
806.000000	0.380676
807.000000	0.380691
808.000000	0.380657
809.000000	0.380637
810.000000	0.380635
811.000000	0.380617
812.000000	0.380544
813.000000	0.380463
814.000000	0.380387
815.000000	0.380324
816.000000	0.380208
817.000000	0.380118
818.000000	0.380042
819.000000	0.380015
820.000000	0.379971
821.000000	0.379843
822.000000	0.379749
823.000000	0.379730
824.000000	0.379656
825.000000	0.379500
826.000000	0.379347
827.000000	0.379149
828.000000	0.378947
829.000000	0.378823
830.000000	0.378600
831.000000	0.378388
832.000000	0.378235
833.000000	0.378049
834.000000	0.377842
835.000000	0.377660
836.000000	0.377396
837.000000	0.377193
838.000000	0.377101
839.000000	0.377043
840.000000	0.376938
841.000000	0.376797
842.000000	0.376598
843.000000	0.376380
844.000000	0.376201
845.000000	0.376030
846.000000	0.375836
847.000000	0.375693
848.000000	0.375496
849.000000	0.375191
850.000000	0.374954
851.000000	0.374714
852.000000	0.374492
853.000000	0.374321
854.000000	0.374038
855.000000	0.373762
856.000000	0.373456
857.000000	0.373097
858.000000	0.372870
859.000000	0.372725
860.000000	0.372527
861.000000	0.372260
862.000000	0.372027
863.000000	0.371854
864.000000	0.371612
865.000000	0.371327
866.000000	0.371036
867.000000	0.370655
868.000000	0.370401
869.000000	0.370200
870.000000	0.369986
871.000000	0.369673
872.000000	0.369338
873.000000	0.368985
874.000000	0.368715
875.000000	0.368394
876.000000	0.368047
877.000000	0.367682
878.000000	0.367335
879.000000	0.367091
880.000000	0.366820
881.000000	0.366578
882.000000	0.366271
883.000000	0.365934
884.000000	0.365577
885.000000	0.365223
886.000000	0.364888
887.000000	0.364599
888.000000	0.364292
889.000000	0.363990
890.000000	0.363628
891.000000	0.363369
892.000000	0.363053
893.000000	0.362711
894.000000	0.362479
895.000000	0.362164
896.000000	0.361797
897.000000	0.361433
898.000000	0.361127
899.000000	0.360845
900.000000	0.360515
901.000000	0.360126
902.000000	0.359911
903.000000	0.359738
904.000000	0.359553
905.000000	0.359227
906.000000	0.358968
907.000000	0.358696
908.000000	0.358437
909.000000	0.358125
910.000000	0.357852
911.000000	0.357571
912.000000	0.357244
913.000000	0.356878
914.000000	0.356513
915.000000	0.356199
916.000000	0.355805
917.000000	0.355454
918.000000	0.355175
919.000000	0.354939
920.000000	0.354727
921.000000	0.354473
922.000000	0.354192
923.000000	0.353911
924.000000	0.353675
925.000000	0.353437
926.000000	0.353208
927.000000	0.352984
928.000000	0.352762
929.000000	0.352464
930.000000	0.352038
931.000000	0.351665
932.000000	0.351329
933.000000	0.351070
934.000000	0.350869
935.000000	0.350552
936.000000	0.350262
937.000000	0.350003
938.000000	0.349629
939.000000	0.349382
940.000000	0.349185
941.000000	0.348959
942.000000	0.348598
943.000000	0.348322
944.000000	0.348089
945.000000	0.347802
946.000000	0.347563
947.000000	0.347387
948.000000	0.347173
949.000000	0.346935
950.000000	0.346612
951.000000	0.346242
952.000000	0.346080
953.000000	0.345860
954.000000	0.345603
955.000000	0.345288
956.000000	0.344978
957.000000	0.344785
958.000000	0.344580
959.000000	0.344319
960.000000	0.344153
961.000000	0.343997
962.000000	0.343783
963.000000	0.343564
964.000000	0.343452
965.000000	0.343354
966.000000	0.343077
967.000000	0.342897
968.000000	0.342647
969.000000	0.342323
970.000000	0.342128
971.000000	0.341889
972.000000	0.341689
973.000000	0.341490
974.000000	0.341302
975.000000	0.341135
976.000000	0.341035
977.000000	0.340993
978.000000	0.340868
979.000000	0.340842
980.000000	0.340650
981.000000	0.340453
982.000000	0.340475
983.000000	0.340372
984.000000	0.340179
985.000000	0.340178
986.000000	0.340180
987.000000	0.340119
988.000000	0.339880
989.000000	0.339649
990.000000	0.339573
991.000000	0.339587
992.000000	0.339596
993.000000	0.339499
994.000000	0.339357
995.000000	0.339335
996.000000	0.339218
997.000000	0.339192
998.000000	0.339167
999.000000	0.339164
1000.000000	0.339123
1001.000000	0.339249
1002.000000	0.339181
1003.000000	0.339025
1004.000000	0.338769
1005.000000	0.338173
1006.000000	0.337915
1007.000000	0.337745
1008.000000	0.337730
1009.000000	0.338031
1010.000000	0.338311
1011.000000	0.338775
1012.000000	0.338943
1013.000000	0.338534
1014.000000	0.338289
1015.000000	0.337976
1016.000000	0.337742
1017.000000	0.337782
1018.000000	0.338111
1019.000000	0.338313
1020.000000	0.338818
1021.000000	0.338677
1022.000000	0.338372
1023.000000	0.338387
1024.000000	0.338087
1025.000000	0.338107
1026.000000	0.338355
1027.000000	0.338508
1028.000000	0.338612
1029.000000	0.338786
1030.000000	0.338921
1031.000000	0.339018
1032.000000	0.339229
1033.000000	0.339471
1034.000000	0.339613
1035.000000	0.339712
1036.000000	0.339845
1037.000000	0.339933
1038.000000	0.339888
1039.000000	0.339884
1040.000000	0.340028
1041.000000	0.340017
1042.000000	0.340186
1043.000000	0.340549
1044.000000	0.340910
1045.000000	0.341006
1046.000000	0.341049
1047.000000	0.341321
1048.000000	0.341607
1049.000000	0.341700
1050.000000	0.341935
1051.000000	0.342090
1052.000000	0.341875
1053.000000	0.341881
1054.000000	0.342293
1055.000000	0.342559
1056.000000	0.342784
1057.000000	0.343132
1058.000000	0.343221
1059.000000	0.343195
1060.000000	0.343517
1061.000000	0.343785
1062.000000	0.344072
1063.000000	0.344578
1064.000000	0.344888
1065.000000	0.344910
1066.000000	0.345106
1067.000000	0.345319
1068.000000	0.345547
1069.000000	0.345740
1070.000000	0.345974
1071.000000	0.346425
1072.000000	0.346651
1073.000000	0.346778
1074.000000	0.346970
1075.000000	0.347196
1076.000000	0.347401
1077.000000	0.347467
1078.000000	0.347586
1079.000000	0.347818
1080.000000	0.348059
1081.000000	0.348259
1082.000000	0.348724
1083.000000	0.349058
1084.000000	0.349260
1085.000000	0.349557
1086.000000	0.349968
1087.000000	0.350269
1088.000000	0.350334
1089.000000	0.350529
1090.000000	0.350721
1091.000000	0.350886
1092.000000	0.351163
1093.000000	0.351652
1094.000000	0.351951
1095.000000	0.352145
1096.000000	0.352429
1097.000000	0.352709
1098.000000	0.352955
1099.000000	0.353122
1100.000000	0.353441
1101.000000	0.353738
1102.000000	0.354006
1103.000000	0.354375
1104.000000	0.354671
1105.000000	0.354813
1106.000000	0.355066
1107.000000	0.355349
1108.000000	0.355563
1109.000000	0.355874
1110.000000	0.356092
1111.000000	0.356328
1112.000000	0.356520
1113.000000	0.356766
1114.000000	0.357052
1115.000000	0.357293
1116.000000	0.357581
1117.000000	0.357743
1118.000000	0.357732
1119.000000	0.357853
1120.000000	0.357947
1121.000000	0.358109
1122.000000	0.358554
1123.000000	0.359020
1124.000000	0.359229
1125.000000	0.359499
1126.000000	0.359708
1127.000000	0.359855
1128.000000	0.359968
1129.000000	0.360083
1130.000000	0.360249
1131.000000	0.360414
1132.000000	0.360538
1133.000000	0.360768
1134.000000	0.360933
1135.000000	0.360963
1136.000000	0.361040
1137.000000	0.361149
1138.000000	0.361172
1139.000000	0.361219
1140.000000	0.361368
1141.000000	0.361457
1142.000000	0.361584
1143.000000	0.361743
1144.000000	0.361962
1145.000000	0.362013
1146.000000	0.361980
1147.000000	0.362018
1148.000000	0.361927
1149.000000	0.361943
1150.000000	0.362011
1151.000000	0.362150
1152.000000	0.362275
1153.000000	0.362444
1154.000000	0.362708
1155.000000	0.362813
1156.000000	0.362820
1157.000000	0.362912
1158.000000	0.362882
1159.000000	0.362950
1160.000000	0.363130
1161.000000	0.363243
1162.000000	0.363403
1163.000000	0.363685
1164.000000	0.363833
1165.000000	0.363980
1166.000000	0.364126
1167.000000	0.364204
1168.000000	0.364268
1169.000000	0.364353
1170.000000	0.364446
1171.000000	0.364555
1172.000000	0.364720
1173.000000	0.364876
1174.000000	0.365021
1175.000000	0.365166
1176.000000	0.365259
1177.000000	0.365427
1178.000000	0.365548
1179.000000	0.365630
1180.000000	0.365641
1181.000000	0.365677
1182.000000	0.365703
1183.000000	0.365780
1184.000000	0.365988
1185.000000	0.366122
1186.000000	0.366304
1187.000000	0.366403
1188.000000	0.366435
1189.000000	0.366474
1190.000000	0.366546
1191.000000	0.366619
1192.000000	0.366792
1193.000000	0.367038
1194.000000	0.367191
1195.000000	0.367360
1196.000000	0.367494
1197.000000	0.367625
1198.000000	0.367783
1199.000000	0.367921
1200.000000	0.368012
1201.000000	0.368151
1202.000000	0.368283
1203.000000	0.368389
1204.000000	0.368480
1205.000000	0.368610
1206.000000	0.368678
1207.000000	0.368810
1208.000000	0.368889
1209.000000	0.368997
1210.000000	0.369127
1211.000000	0.369269
1212.000000	0.369370
1213.000000	0.369526
1214.000000	0.369680
1215.000000	0.369779
1216.000000	0.369889
1217.000000	0.369982
1218.000000	0.370055
1219.000000	0.370118
1220.000000	0.370249
1221.000000	0.370363
1222.000000	0.370497
1223.000000	0.370650
1224.000000	0.370774
1225.000000	0.370859
1226.000000	0.370971
1227.000000	0.371030
1228.000000	0.371149
1229.000000	0.371228
1230.000000	0.371294
1231.000000	0.371303
1232.000000	0.371403
1233.000000	0.371591
1234.000000	0.371750
1235.000000	0.371934
1236.000000	0.372094
1237.000000	0.372307
1238.000000	0.372519
1239.000000	0.372676
1240.000000	0.372836
1241.000000	0.372978
1242.000000	0.373050
1243.000000	0.373130
1244.000000	0.373277
1245.000000	0.373467
1246.000000	0.373571
1247.000000	0.373772
1248.000000	0.373950
1249.000000	0.374036
1250.000000	0.374233
1251.000000	0.374431
1252.000000	0.374559
1253.000000	0.374709
1254.000000	0.374836
1255.000000	0.374887
1256.000000	0.374965
1257.000000	0.375071
1258.000000	0.375242
1259.000000	0.375337
1260.000000	0.375533
1261.000000	0.375755
1262.000000	0.375934
1263.000000	0.376154
1264.000000	0.376329
1265.000000	0.376530
1266.000000	0.376661
1267.000000	0.376673
1268.000000	0.376719
1269.000000	0.376724
1270.000000	0.376848
1271.000000	0.377009
1272.000000	0.377189
1273.000000	0.377443
1274.000000	0.377578
1275.000000	0.377678
1276.000000	0.377808
1277.000000	0.377976
1278.000000	0.377958
1279.000000	0.378024
1280.000000	0.378075
1281.000000	0.378111
1282.000000	0.378208
1283.000000	0.378381
1284.000000	0.378540
1285.000000	0.378659
1286.000000	0.378756
1287.000000	0.378788
1288.000000	0.378908
1289.000000	0.378993
1290.000000	0.378989
1291.000000	0.379062
1292.000000	0.379157
1293.000000	0.379250
1294.000000	0.379333
1295.000000	0.379450
1296.000000	0.379507
1297.000000	0.379522
1298.000000	0.379689
1299.000000	0.379856
1300.000000	0.380012
1301.000000	0.380125
1302.000000	0.380184
1303.000000	0.380355
1304.000000	0.380415
1305.000000	0.380513
1306.000000	0.380577
1307.000000	0.380644
1308.000000	0.380701
1309.000000	0.380746
1310.000000	0.380788
1311.000000	0.380843
1312.000000	0.380832
1313.000000	0.380891
1314.000000	0.380910
1315.000000	0.380838
1316.000000	0.380869
1317.000000	0.380903
1318.000000	0.380898
1319.000000	0.380871
1320.000000	0.380823
1321.000000	0.380677
1322.000000	0.380501
1323.000000	0.380484
1324.000000	0.380540
1325.000000	0.380476
1326.000000	0.380406
1327.000000	0.380324
1328.000000	0.380264
1329.000000	0.380157
1330.000000	0.380104
1331.000000	0.380069
1332.000000	0.380077
1333.000000	0.380004
1334.000000	0.380006
1335.000000	0.380025
1336.000000	0.379966
1337.000000	0.379939
1338.000000	0.379922
1339.000000	0.379866
1340.000000	0.379763
1341.000000	0.379658
1342.000000	0.379533
1343.000000	0.379411
1344.000000	0.379266
1345.000000	0.379099
1346.000000	0.379025
1347.000000	0.378822
1348.000000	0.378643
1349.000000	0.378460
1350.000000	0.378308
1351.000000	0.378095
1352.000000	0.377872
1353.000000	0.377697
1354.000000	0.377564
1355.000000	0.377362
1356.000000	0.377170
1357.000000	0.376966
1358.000000	0.376742
1359.000000	0.376562
1360.000000	0.376407
1361.000000	0.376351
1362.000000	0.376213
1363.000000	0.376040
1364.000000	0.375916
1365.000000	0.375756
1366.000000	0.375625
1367.000000	0.375527
1368.000000	0.375369
1369.000000	0.375322
1370.000000	0.375156
1371.000000	0.374915
1372.000000	0.374642
1373.000000	0.374301
1374.000000	0.373994
1375.000000	0.373660
1376.000000	0.373418
1377.000000	0.373175
1378.000000	0.372766
1379.000000	0.372251
1380.000000	0.371737
1381.000000	0.371052
1382.000000	0.370262
1383.000000	0.369535
1384.000000	0.368583
1385.000000	0.367581
1386.000000	0.366696
1387.000000	0.365683
1388.000000	0.364590
1389.000000	0.363388
1390.000000	0.362074
1391.000000	0.360682
1392.000000	0.359223
1393.000000	0.357645
1394.000000	0.356028
1395.000000	0.354361
1396.000000	0.352595
1397.000000	0.350724
1398.000000	0.348722
1399.000000	0.346793
1400.000000	0.344741
1401.000000	0.342782
1402.000000	0.340935
1403.000000	0.339074
1404.000000	0.337366
1405.000000	0.335678
1406.000000	0.334077
1407.000000	0.332662
1408.000000	0.331182
1409.000000	0.329907
1410.000000	0.328876
1411.000000	0.327817
1412.000000	0.326848
1413.000000	0.326044
1414.000000	0.325248
1415.000000	0.324528
1416.000000	0.323865
1417.000000	0.323250
1418.000000	0.322640
1419.000000	0.322066
1420.000000	0.321489
1421.000000	0.320984
1422.000000	0.320489
1423.000000	0.320087
1424.000000	0.319632
1425.000000	0.319201
1426.000000	0.318749
1427.000000	0.318323
1428.000000	0.317964
1429.000000	0.317608
1430.000000	0.317321
1431.000000	0.317049
1432.000000	0.316738
1433.000000	0.316442
1434.000000	0.316158
1435.000000	0.315915
1436.000000	0.315720
1437.000000	0.315538
1438.000000	0.315416
1439.000000	0.315344
1440.000000	0.315391
1441.000000	0.315556
1442.000000	0.315807
1443.000000	0.316090
1444.000000	0.316444
1445.000000	0.316891
1446.000000	0.317362
1447.000000	0.317912
1448.000000	0.318507
1449.000000	0.319043
1450.000000	0.319539
1451.000000	0.320026
1452.000000	0.320470
1453.000000	0.320930
1454.000000	0.321348
1455.000000	0.321702
1456.000000	0.322066
1457.000000	0.322402
1458.000000	0.322696
1459.000000	0.323003
1460.000000	0.323274
1461.000000	0.323505
1462.000000	0.323762
1463.000000	0.323935
1464.000000	0.324139
1465.000000	0.324421
1466.000000	0.324624
1467.000000	0.324907
1468.000000	0.325243
1469.000000	0.325606
1470.000000	0.325942
1471.000000	0.326293
1472.000000	0.326643
1473.000000	0.327070
1474.000000	0.327504
1475.000000	0.327956
1476.000000	0.328397
1477.000000	0.328819
1478.000000	0.329281
1479.000000	0.329798
1480.000000	0.330364
1481.000000	0.330887
1482.000000	0.331470
1483.000000	0.332049
1484.000000	0.332598
1485.000000	0.333163
1486.000000	0.333741
1487.000000	0.334313
1488.000000	0.334908
1489.000000	0.335504
1490.000000	0.335989
1491.000000	0.336527
1492.000000	0.337002
1493.000000	0.337521
1494.000000	0.338043
1495.000000	0.338505
1496.000000	0.338975
1497.000000	0.339424
1498.000000	0.339849
1499.000000	0.340219
1500.000000	0.340651
1501.000000	0.341026
1502.000000	0.341357
1503.000000	0.341763
1504.000000	0.342144
1505.000000	0.342463
1506.000000	0.342817
1507.000000	0.343180
1508.000000	0.343551
1509.000000	0.343914
1510.000000	0.344227
1511.000000	0.344526
1512.000000	0.344780
1513.000000	0.345037
1514.000000	0.345376
1515.000000	0.345632
1516.000000	0.345897
1517.000000	0.346168
1518.000000	0.346347
1519.000000	0.346473
1520.000000	0.346662
1521.000000	0.346779
1522.000000	0.346941
1523.000000	0.347188
1524.000000	0.347344
1525.000000	0.347570
1526.000000	0.347790
1527.000000	0.347971
1528.000000	0.348188
1529.000000	0.348374
1530.000000	0.348477
1531.000000	0.348686
1532.000000	0.348945
1533.000000	0.349105
1534.000000	0.349300
1535.000000	0.349494
1536.000000	0.349558
1537.000000	0.349769
1538.000000	0.350006
1539.000000	0.350104
1540.000000	0.350260
1541.000000	0.350423
1542.000000	0.350521
1543.000000	0.350702
1544.000000	0.350883
1545.000000	0.351049
1546.000000	0.351260
1547.000000	0.351415
1548.000000	0.351542
1549.000000	0.351643
1550.000000	0.351667
1551.000000	0.351710
1552.000000	0.351781
1553.000000	0.351831
1554.000000	0.351878
1555.000000	0.351943
1556.000000	0.352037
1557.000000	0.352129
1558.000000	0.352249
1559.000000	0.352357
1560.000000	0.352450
1561.000000	0.352571
1562.000000	0.352651
1563.000000	0.352762
1564.000000	0.352879
1565.000000	0.352997
1566.000000	0.353003
1567.000000	0.353087
1568.000000	0.353109
1569.000000	0.353092
1570.000000	0.353133
1571.000000	0.353177
1572.000000	0.353201
1573.000000	0.353242
1574.000000	0.353292
1575.000000	0.353345
1576.000000	0.353461
1577.000000	0.353634
1578.000000	0.353701
1579.000000	0.353823
1580.000000	0.353899
1581.000000	0.353958
1582.000000	0.354023
1583.000000	0.354089
1584.000000	0.354093
1585.000000	0.354124
1586.000000	0.354206
1587.000000	0.354310
1588.000000	0.354373
1589.000000	0.354495
1590.000000	0.354546
1591.000000	0.354523
1592.000000	0.354576
1593.000000	0.354689
1594.000000	0.354730
1595.000000	0.354828
1596.000000	0.354883
1597.000000	0.354897
1598.000000	0.354928
1599.000000	0.355019
1600.000000	0.355029
1601.000000	0.355066
1602.000000	0.355099
1603.000000	0.355132
1604.000000	0.355160
1605.000000	0.355238
1606.000000	0.355286
1607.000000	0.355377
1608.000000	0.355421
1609.000000	0.355471
1610.000000	0.355519
1611.000000	0.355590
1612.000000	0.355630
1613.000000	0.355784
1614.000000	0.355867
1615.000000	0.355952
1616.000000	0.356073
1617.000000	0.356149
1618.000000	0.356223
1619.000000	0.356264
1620.000000	0.356344
1621.000000	0.356461
1622.000000	0.356659
1623.000000	0.356869
1624.000000	0.357076
1625.000000	0.357183
1626.000000	0.357277
1627.000000	0.357399
1628.000000	0.357549
1629.000000	0.357667
1630.000000	0.357819
1631.000000	0.357936
1632.000000	0.357991
1633.000000	0.358042
1634.000000	0.358113
1635.000000	0.358177
1636.000000	0.358275
1637.000000	0.358439
1638.000000	0.358531
1639.000000	0.358680
1640.000000	0.358762
1641.000000	0.358839
1642.000000	0.358959
1643.000000	0.359131
1644.000000	0.359275
1645.000000	0.359431
1646.000000	0.359537
1647.000000	0.359639
1648.000000	0.359701
1649.000000	0.359847
1650.000000	0.359987
1651.000000	0.360145
1652.000000	0.360304
1653.000000	0.360402
1654.000000	0.360562
1655.000000	0.360672
1656.000000	0.360718
1657.000000	0.360859
1658.000000	0.360952
1659.000000	0.361099
1660.000000	0.361282
1661.000000	0.361388
1662.000000	0.361539
1663.000000	0.361665
1664.000000	0.361827
1665.000000	0.362038
1666.000000	0.362282
1667.000000	0.362461
1668.000000	0.362644
1669.000000	0.362802
1670.000000	0.362907
1671.000000	0.363123
1672.000000	0.363296
1673.000000	0.363385
1674.000000	0.363506
1675.000000	0.363678
1676.000000	0.363772
1677.000000	0.363853
1678.000000	0.363916
1679.000000	0.363937
1680.000000	0.363992
1681.000000	0.364074
1682.000000	0.364164
1683.000000	0.364281
1684.000000	0.364355
1685.000000	0.364429
1686.000000	0.364445
1687.000000	0.364489
1688.000000	0.364522
1689.000000	0.364573
1690.000000	0.364618
1691.000000	0.364688
1692.000000	0.364685
1693.000000	0.364667
1694.000000	0.364670
1695.000000	0.364724
1696.000000	0.364680
1697.000000	0.364601
1698.000000	0.364489
1699.000000	0.364463
1700.000000	0.364498
1701.000000	0.364613
1702.000000	0.364604
1703.000000	0.364568
1704.000000	0.364604
1705.000000	0.364664
1706.000000	0.364811
1707.000000	0.364907
1708.000000	0.364984
1709.000000	0.364978
1710.000000	0.364974
1711.000000	0.365031
1712.000000	0.365161
1713.000000	0.365204
1714.000000	0.365279
1715.000000	0.365340
1716.000000	0.365337
1717.000000	0.365372
1718.000000	0.365398
1719.000000	0.365431
1720.000000	0.365539
1721.000000	0.365603
1722.000000	0.365665
1723.000000	0.365744
1724.000000	0.365826
1725.000000	0.365955
1726.000000	0.366038
1727.000000	0.366122
1728.000000	0.366165
1729.000000	0.366125
1730.000000	0.366188
1731.000000	0.366219
1732.000000	0.366204
1733.000000	0.366301
1734.000000	0.366277
1735.000000	0.366350
1736.000000	0.366477
1737.000000	0.366530
1738.000000	0.366614
1739.000000	0.366663
1740.000000	0.366631
1741.000000	0.366629
1742.000000	0.366640
1743.000000	0.366739
1744.000000	0.366847
1745.000000	0.366898
1746.000000	0.366982
1747.000000	0.366976
1748.000000	0.366938
1749.000000	0.366923
1750.000000	0.366873
1751.000000	0.366951
1752.000000	0.367074
1753.000000	0.367055
1754.000000	0.367044
1755.000000	0.366970
1756.000000	0.366881
1757.000000	0.366743
1758.000000	0.366691
1759.000000	0.366664
1760.000000	0.366619
1761.000000	0.366537
1762.000000	0.366515
1763.000000	0.366538
1764.000000	0.366551
1765.000000	0.366580
1766.000000	0.366634
1767.000000	0.366579
1768.000000	0.366535
1769.000000	0.366676
1770.000000	0.366734
1771.000000	0.366690
1772.000000	0.366643
1773.000000	0.366475
1774.000000	0.366415
1775.000000	0.366460
1776.000000	0.366448
1777.000000	0.366437
1778.000000	0.366381
1779.000000	0.366225
1780.000000	0.366200
1781.000000	0.366192
1782.000000	0.366162
1783.000000	0.366234
1784.000000	0.366272
1785.000000	0.366165
1786.000000	0.366165
1787.000000	0.366299
1788.000000	0.366419
1789.000000	0.366536
1790.000000	0.366703
1791.000000	0.366777
1792.000000	0.366956
1793.000000	0.367062
1794.000000	0.367072
1795.000000	0.367181
1796.000000	0.367323
1797.000000	0.367387
1798.000000	0.367448
1799.000000	0.367481
1800.000000	0.367462
1801.000000	0.367366
1802.000000	0.367498
1803.000000	0.367526
1804.000000	0.367616
1805.000000	0.367758
1806.000000	0.367766
1807.000000	0.367460
1808.000000	0.367554
1809.000000	0.367728
1810.000000	0.367937
1811.000000	0.368285
1812.000000	0.369107
1813.000000	0.369421
1814.000000	0.369709
1815.000000	0.369769
1816.000000	0.369640
1817.000000	0.369308
1818.000000	0.368581
1819.000000	0.368210
1820.000000	0.368289
1821.000000	0.368084
1822.000000	0.368088
1823.000000	0.368500
1824.000000	0.368452
1825.000000	0.367914
1826.000000	0.367838
1827.000000	0.367900
1828.000000	0.367707
1829.000000	0.367314
1830.000000	0.367339
1831.000000	0.367078
1832.000000	0.366322
1833.000000	0.366177
1834.000000	0.366448
1835.000000	0.366382
1836.000000	0.366388
1837.000000	0.366257
1838.000000	0.365820
1839.000000	0.365276
1840.000000	0.364767
1841.000000	0.364507
1842.000000	0.364180
1843.000000	0.363714
1844.000000	0.363560
1845.000000	0.363485
1846.000000	0.363457
1847.000000	0.363523
1848.000000	0.363446
1849.000000	0.363348
1850.000000	0.362855
1851.000000	0.362541
1852.000000	0.362180
1853.000000	0.361816
1854.000000	0.361245
1855.000000	0.360648
1856.000000	0.359893
1857.000000	0.359047
1858.000000	0.358285
1859.000000	0.357548
1860.000000	0.356622
1861.000000	0.355416
1862.000000	0.354204
1863.000000	0.352839
1864.000000	0.351621
1865.000000	0.350648
1866.000000	0.349273
1867.000000	0.347761
1868.000000	0.346014
1869.000000	0.343913
1870.000000	0.341620
1871.000000	0.339347
1872.000000	0.337126
1873.000000	0.334962
1874.000000	0.333014
1875.000000	0.330715
1876.000000	0.328142
1877.000000	0.325151
1878.000000	0.322317
1879.000000	0.318948
1880.000000	0.315545
1881.000000	0.312271
1882.000000	0.308315
1883.000000	0.304428
1884.000000	0.300419
1885.000000	0.296170
1886.000000	0.291500
1887.000000	0.286636
1888.000000	0.281241
1889.000000	0.275438
1890.000000	0.269938
1891.000000	0.264604
1892.000000	0.259176
1893.000000	0.253706
1894.000000	0.248268
1895.000000	0.242800
1896.000000	0.237315
1897.000000	0.231888
1898.000000	0.226812
1899.000000	0.222205
1900.000000	0.217755
1901.000000	0.213802
1902.000000	0.210276
1903.000000	0.207096
1904.000000	0.204547
1905.000000	0.202308
1906.000000	0.200378
1907.000000	0.198916
1908.000000	0.197718
1909.000000	0.196572
1910.000000	0.195935
1911.000000	0.195486
1912.000000	0.195176
1913.000000	0.195438
1914.000000	0.195823
1915.000000	0.196207
1916.000000	0.196686
1917.000000	0.196968
1918.000000	0.197210
1919.000000	0.197399
1920.000000	0.197520
1921.000000	0.197768
1922.000000	0.198134
1923.000000	0.198527
1924.000000	0.199026
1925.000000	0.199592
1926.000000	0.200070
1927.000000	0.200590
1928.000000	0.201019
1929.000000	0.201409
1930.000000	0.201713
1931.000000	0.202258
1932.000000	0.202802
1933.000000	0.203357
1934.000000	0.203990
1935.000000	0.204585
1936.000000	0.205163
1937.000000	0.205633
1938.000000	0.206018
1939.000000	0.206406
1940.000000	0.206730
1941.000000	0.206951
1942.000000	0.207089
1943.000000	0.207316
1944.000000	0.207482
1945.000000	0.207606
1946.000000	0.207926
1947.000000	0.208031
1948.000000	0.207937
1949.000000	0.207975
1950.000000	0.207964
1951.000000	0.207798
1952.000000	0.207643
1953.000000	0.207414
1954.000000	0.207216
1955.000000	0.207074
1956.000000	0.207060
1957.000000	0.207154
1958.000000	0.207129
1959.000000	0.207081
1960.000000	0.206899
1961.000000	0.206840
1962.000000	0.206988
1963.000000	0.207317
1964.000000	0.207710
1965.000000	0.208201
1966.000000	0.208677
1967.000000	0.209104
1968.000000	0.209340
1969.000000	0.209571
1970.000000	0.209917
1971.000000	0.209908
1972.000000	0.209973
1973.000000	0.210106
1974.000000	0.210320
1975.000000	0.210632
1976.000000	0.211127
1977.000000	0.211599
1978.000000	0.212042
1979.000000	0.212499
1980.000000	0.212858
1981.000000	0.213408
1982.000000	0.214090
1983.000000	0.214667
1984.000000	0.215217
1985.000000	0.215890
1986.000000	0.216337
1987.000000	0.216577
1988.000000	0.217119
1989.000000	0.217728
1990.000000	0.218432
1991.000000	0.219208
1992.000000	0.219954
1993.000000	0.220858
1994.000000	0.221820
1995.000000	0.222755
1996.000000	0.223874
1997.000000	0.224863
1998.000000	0.225768
1999.000000	0.226717
2000.000000	0.227744
2001.000000	0.228561
2002.000000	0.229497
2003.000000	0.230339
2004.000000	0.231119
2005.000000	0.231888
2006.000000	0.232704
2007.000000	0.233517
2008.000000	0.234388
2009.000000	0.235353
2010.000000	0.236387
2011.000000	0.237431
2012.000000	0.238302
2013.000000	0.239108
2014.000000	0.239743
2015.000000	0.240546
2016.000000	0.241394
2017.000000	0.242464
2018.000000	0.243688
2019.000000	0.244709
2020.000000	0.245670
2021.000000	0.246621
2022.000000	0.247507
2023.000000	0.248366
2024.000000	0.249130
2025.000000	0.250127
2026.000000	0.251163
2027.000000	0.252014
2028.000000	0.253030
2029.000000	0.254066
2030.000000	0.254841
2031.000000	0.255626
2032.000000	0.256399
2033.000000	0.257149
2034.000000	0.257943
2035.000000	0.258826
2036.000000	0.259632
2037.000000	0.260681
2038.000000	0.261534
2039.000000	0.262380
2040.000000	0.263133
2041.000000	0.263731
2042.000000	0.264339
2043.000000	0.264796
2044.000000	0.265337
2045.000000	0.265955
2046.000000	0.266470
2047.000000	0.267250
2048.000000	0.268189
2049.000000	0.269224
2050.000000	0.270239
2051.000000	0.271077
2052.000000	0.271818
2053.000000	0.272376
2054.000000	0.272992
2055.000000	0.273558
2056.000000	0.273962
2057.000000	0.274591
2058.000000	0.275092
2059.000000	0.275694
2060.000000	0.276280
2061.000000	0.276922
2062.000000	0.277411
2063.000000	0.277865
2064.000000	0.278254
2065.000000	0.278809
2066.000000	0.279224
2067.000000	0.279821
2068.000000	0.280416
2069.000000	0.280926
2070.000000	0.281528
2071.000000	0.282051
2072.000000	0.282809
2073.000000	0.283565
2074.000000	0.284148
2075.000000	0.284689
2076.000000	0.285072
2077.000000	0.285592
2078.000000	0.286064
2079.000000	0.286584
2080.000000	0.287334
2081.000000	0.287964
2082.000000	0.288535
2083.000000	0.289136
2084.000000	0.289702
2085.000000	0.290138
2086.000000	0.290691
2087.000000	0.291282
2088.000000	0.291724
2089.000000	0.292258
2090.000000	0.292814
2091.000000	0.293266
2092.000000	0.293990
2093.000000	0.295081
2094.000000	0.295879
2095.000000	0.296887
2096.000000	0.297572
2097.000000	0.297927
2098.000000	0.298081
2099.000000	0.298422
2100.000000	0.298562
2101.000000	0.298981
2102.000000	0.299700
2103.000000	0.300104
2104.000000	0.300615
2105.000000	0.300996
2106.000000	0.301067
2107.000000	0.301465
2108.000000	0.301976
2109.000000	0.302509
2110.000000	0.303015
2111.000000	0.303559
2112.000000	0.304044
2113.000000	0.304437
2114.000000	0.304903
2115.000000	0.305409
2116.000000	0.305594
2117.000000	0.305642
2118.000000	0.305923
2119.000000	0.306018
2120.000000	0.306385
2121.000000	0.307086
2122.000000	0.307541
2123.000000	0.307923
2124.000000	0.308389
2125.000000	0.308873
2126.000000	0.309281
2127.000000	0.309865
2128.000000	0.310332
2129.000000	0.310716
2130.000000	0.310741
2131.000000	0.310623
2132.000000	0.310528
2133.000000	0.310625
2134.000000	0.311000
2135.000000	0.311351
2136.000000	0.311493
2137.000000	0.311565
2138.000000	0.311199
2139.000000	0.311411
2140.000000	0.311981
2141.000000	0.312325
2142.000000	0.312855
2143.000000	0.313034
2144.000000	0.313121
2145.000000	0.313266
2146.000000	0.313379
2147.000000	0.313887
2148.000000	0.314300
2149.000000	0.314629
2150.000000	0.314699
2151.000000	0.314748
2152.000000	0.314723
2153.000000	0.314445
2154.000000	0.314409
2155.000000	0.314549
2156.000000	0.314730
2157.000000	0.315145
2158.000000	0.315277
2159.000000	0.315503
2160.000000	0.315685
2161.000000	0.315543
2162.000000	0.315615
2163.000000	0.315686
2164.000000	0.315693
2165.000000	0.315643
2166.000000	0.315651
2167.000000	0.316006
2168.000000	0.316076
2169.000000	0.315845
2170.000000	0.315770
2171.000000	0.315566
2172.000000	0.314943
2173.000000	0.314890
2174.000000	0.315189
2175.000000	0.315276
2176.000000	0.315495
2177.000000	0.315660
2178.000000	0.315954
2179.000000	0.316068
2180.000000	0.315926
2181.000000	0.316208
2182.000000	0.316084
2183.000000	0.315742
2184.000000	0.315562
2185.000000	0.315110
2186.000000	0.314461
2187.000000	0.314019
2188.000000	0.313946
2189.000000	0.314182
2190.000000	0.314581
2191.000000	0.315462
2192.000000	0.315626
2193.000000	0.315434
2194.000000	0.315330
2195.000000	0.314775
2196.000000	0.314492
2197.000000	0.314448
2198.000000	0.314293
2199.000000	0.313919
2200.000000	0.314027
2201.000000	0.314522
2202.000000	0.314907
2203.000000	0.315519
2204.000000	0.315829
2205.000000	0.315722
2206.000000	0.315898
2207.000000	0.315111
2208.000000	0.314748
2209.000000	0.314607
2210.000000	0.314679
2211.000000	0.315040
2212.000000	0.315095
2213.000000	0.314686
2214.000000	0.313552
2215.000000	0.312451
2216.000000	0.310786
2217.000000	0.310318
2218.000000	0.309802
2219.000000	0.309963
2220.000000	0.311860
2221.000000	0.312113
2222.000000	0.312038
2223.000000	0.311919
2224.000000	0.310854
2225.000000	0.310385
2226.000000	0.309981
2227.000000	0.308618
2228.000000	0.308017
2229.000000	0.306759
2230.000000	0.305846
2231.000000	0.305876
2232.000000	0.306056
2233.000000	0.306276
2234.000000	0.305996
2235.000000	0.306144
2236.000000	0.305885
2237.000000	0.304559
2238.000000	0.304499
2239.000000	0.305484
2240.000000	0.305404
2241.000000	0.305818
2242.000000	0.305389
2243.000000	0.302873
2244.000000	0.302421
2245.000000	0.302947
2246.000000	0.302979
2247.000000	0.303886
2248.000000	0.304320
2249.000000	0.304464
2250.000000	0.304138
2251.000000	0.303417
2252.000000	0.303446
2253.000000	0.302773
2254.000000	0.302022
2255.000000	0.302383
2256.000000	0.302556
2257.000000	0.302936
2258.000000	0.303336
2259.000000	0.303097
2260.000000	0.302607
2261.000000	0.302025
2262.000000	0.301214
2263.000000	0.300470
2264.000000	0.299342
2265.000000	0.299051
2266.000000	0.299477
2267.000000	0.298690
2268.000000	0.297847
2269.000000	0.297104
2270.000000	0.295609
2271.000000	0.294284
2272.000000	0.293478
2273.000000	0.292250
2274.000000	0.290000
2275.000000	0.288545
2276.000000	0.287643
2277.000000	0.286634
2278.000000	0.284961
2279.000000	0.283429
2280.000000	0.281139
2281.000000	0.278657
2282.000000	0.277070
2283.000000	0.275365
2284.000000	0.273497
2285.000000	0.271714
2286.000000	0.268874
2287.000000	0.266118
2288.000000	0.264398
2289.000000	0.261903
2290.000000	0.259517
2291.000000	0.258056
2292.000000	0.255987
2293.000000	0.254264
2294.000000	0.253291
2295.000000	0.253160
2296.000000	0.252665
2297.000000	0.252236
2298.000000	0.252370
2299.000000	0.252894
2300.000000	0.253520
2301.000000	0.254806
2302.000000	0.255797
2303.000000	0.256531
2304.000000	0.257174
2305.000000	0.257578
2306.000000	0.258533
2307.000000	0.259476
2308.000000	0.261031
2309.000000	0.262810
2310.000000	0.264200
2311.000000	0.265604
2312.000000	0.266102
2313.000000	0.266170
2314.000000	0.266555
2315.000000	0.266519
2316.000000	0.266870
2317.000000	0.267761
2318.000000	0.268965
2319.000000	0.270021
2320.000000	0.270216
2321.000000	0.270497
2322.000000	0.270274
2323.000000	0.269706
2324.000000	0.269906
2325.000000	0.269578
2326.000000	0.268897
2327.000000	0.268237
2328.000000	0.267713
2329.000000	0.267447
2330.000000	0.267415
2331.000000	0.267390
2332.000000	0.266679
2333.000000	0.266299
2334.000000	0.265604
2335.000000	0.265376
2336.000000	0.265275
2337.000000	0.264729
2338.000000	0.264597
2339.000000	0.263329
2340.000000	0.260799
2341.000000	0.259161
2342.000000	0.256624
2343.000000	0.255589
2344.000000	0.255862
2345.000000	0.255782
2346.000000	0.256959
2347.000000	0.256455
2348.000000	0.255115
2349.000000	0.253817
2350.000000	0.252004
2351.000000	0.250106
2352.000000	0.247954
2353.000000	0.246887
2354.000000	0.245307
2355.000000	0.244717
2356.000000	0.245908
2357.000000	0.245345
2358.000000	0.243839
2359.000000	0.242636
2360.000000	0.240637
2361.000000	0.239578
2362.000000	0.239473
2363.000000	0.239169
2364.000000	0.238257
2365.000000	0.237207
2366.000000	0.236515
2367.000000	0.234989
2368.000000	0.233623
2369.000000	0.231375
2370.000000	0.228240
2371.000000	0.226116
2372.000000	0.225110
2373.000000	0.226851
2374.000000	0.227455
2375.000000	0.226964
2376.000000	0.227097
2377.000000	0.223267
2378.000000	0.221550
2379.000000	0.222110
2380.000000	0.218847
2381.000000	0.217641
2382.000000	0.215876
2383.000000	0.213435
2384.000000	0.214219
2385.000000	0.212733
2386.000000	0.211687
2387.000000	0.209715
2388.000000	0.205978
2389.000000	0.205300
2390.000000	0.204721
2391.000000	0.204833
2392.000000	0.205051
2393.000000	0.205796
2394.000000	0.206295
2395.000000	0.205020
2396.000000	0.205159
2397.000000	0.204899
2398.000000	0.205115
2399.000000	0.204758
2400.000000	0.202689
2401.000000	0.200737
2402.000000	0.198566
2403.000000	0.198637
2404.000000	0.199214
2405.000000	0.199144
2406.000000	0.201138
2407.000000	0.203005
2408.000000	0.206012
2409.000000	0.210467
2410.000000	0.210753
2411.000000	0.209182
2412.000000	0.206723
2413.000000	0.204017
2414.000000	0.202867
2415.000000	0.199774
2416.000000	0.198953
2417.000000	0.198772
2418.000000	0.196716
2419.000000	0.198399
2420.000000	0.200192
2421.000000	0.199374
2422.000000	0.200150
2423.000000	0.202665
2424.000000	0.205367
2425.000000	0.206492
2426.000000	0.205561
2427.000000	0.204212
2428.000000	0.200696
2429.000000	0.198294
2430.000000	0.198214
2431.000000	0.200388
2432.000000	0.201336
2433.000000	0.197834
2434.000000	0.197499
2435.000000	0.191678
2436.000000	0.184034
2437.000000	0.185657
2438.000000	0.187016
2439.000000	0.192082
2440.000000	0.201900
2441.000000	0.205147
2442.000000	0.204346
2443.000000	0.203947
2444.000000	0.195268
2445.000000	0.189948
2446.000000	0.190057
2447.000000	0.182282
2448.000000	0.184964
2449.000000	0.190087
2450.000000	0.189909
2451.000000	0.195736
2452.000000	0.194143
2453.000000	0.189379
2454.000000	0.187912
2455.000000	0.185122
2456.000000	0.183448
2457.000000	0.183032
2458.000000	0.178429
2459.000000	0.168764
2460.000000	0.165686
2461.000000	0.168291
2462.000000	0.170318
2463.000000	0.173983
2464.000000	0.176956
2465.000000	0.176221
2466.000000	0.174247
2467.000000	0.180749
2468.000000	0.183877
2469.000000	0.177319
2470.000000	0.176891
2471.000000	0.173091
2472.000000	0.171243
2473.000000	0.173668
2474.000000	0.167884
2475.000000	0.158894
2476.000000	0.147108
2477.000000	0.143904
2478.000000	0.151150
2479.000000	0.155553
2480.000000	0.160038
2481.000000	0.166544
2482.000000	0.161437
2483.000000	0.154327
2484.000000	0.149372
2485.000000	0.138801
2486.000000	0.130991
2487.000000	0.131013
2488.000000	0.139388
2489.000000	0.142972
2490.000000	0.143636
2491.000000	0.149302
2492.000000	0.148566
2493.000000	0.148848
2494.000000	0.148931
2495.000000	0.143022
2496.000000	0.135733
2497.000000	0.125810
2498.000000	0.121246
2499.000000	0.119480
2500.000000	0.120274
