# Wavelength	NAu-2-20_HEX-30_FV7-50_00001.asd.rts.txt
350.000000	0.135134
351.000000	0.145629
352.000000	0.160609
353.000000	0.167109
354.000000	0.161454
355.000000	0.149839
356.000000	0.140091
357.000000	0.138633
358.000000	0.150476
359.000000	0.154699
360.000000	0.151595
361.000000	0.147388
362.000000	0.149725
363.000000	0.150933
364.000000	0.147761
365.000000	0.152637
366.000000	0.158054
367.000000	0.158180
368.000000	0.147239
369.000000	0.151254
370.000000	0.159550
371.000000	0.154191
372.000000	0.153062
373.000000	0.154238
374.000000	0.154088
375.000000	0.147955
376.000000	0.145575
377.000000	0.148095
378.000000	0.149071
379.000000	0.148225
380.000000	0.148937
381.000000	0.155052
382.000000	0.156754
383.000000	0.156586
384.000000	0.157571
385.000000	0.159366
386.000000	0.160697
387.000000	0.161670
388.000000	0.163862
389.000000	0.162055
390.000000	0.159265
391.000000	0.160685
392.000000	0.161941
393.000000	0.162384
394.000000	0.162340
395.000000	0.163792
396.000000	0.162999
397.000000	0.160239
398.000000	0.161521
399.000000	0.161633
400.000000	0.161578
401.000000	0.164408
402.000000	0.164707
403.000000	0.164707
404.000000	0.166488
405.000000	0.165082
406.000000	0.164430
407.000000	0.165707
408.000000	0.164924
409.000000	0.164833
410.000000	0.165914
411.000000	0.167446
412.000000	0.167758
413.000000	0.167405
414.000000	0.167349
415.000000	0.167256
416.000000	0.167373
417.000000	0.167762
418.000000	0.168006
419.000000	0.168408
420.000000	0.168911
421.000000	0.169147
422.000000	0.169134
423.000000	0.169301
424.000000	0.170157
425.000000	0.170988
426.000000	0.171396
427.000000	0.171263
428.000000	0.171058
429.000000	0.171204
430.000000	0.171776
431.000000	0.172483
432.000000	0.172534
433.000000	0.172270
434.000000	0.172638
435.000000	0.173015
436.000000	0.173207
437.000000	0.173206
438.000000	0.173553
439.000000	0.174017
440.000000	0.174325
441.000000	0.173755
442.000000	0.173982
443.000000	0.174769
444.000000	0.174631
445.000000	0.174554
446.000000	0.174752
447.000000	0.175091
448.000000	0.175429
449.000000	0.175826
450.000000	0.176337
451.000000	0.176939
452.000000	0.177402
453.000000	0.177668
454.000000	0.178028
455.000000	0.178378
456.000000	0.178733
457.000000	0.179022
458.000000	0.179439
459.000000	0.179628
460.000000	0.179458
461.000000	0.179935
462.000000	0.180235
463.000000	0.180042
464.000000	0.180395
465.000000	0.180877
466.000000	0.181265
467.000000	0.181493
468.000000	0.181668
469.000000	0.181793
470.000000	0.181996
471.000000	0.182498
472.000000	0.182695
473.000000	0.182439
474.000000	0.182902
475.000000	0.183207
476.000000	0.183254
477.000000	0.183494
478.000000	0.183817
479.000000	0.184280
480.000000	0.184703
481.000000	0.184716
482.000000	0.184705
483.000000	0.184919
484.000000	0.185393
485.000000	0.185714
486.000000	0.185848
487.000000	0.186008
488.000000	0.186233
489.000000	0.186454
490.000000	0.186488
491.000000	0.186834
492.000000	0.187309
493.000000	0.187488
494.000000	0.187584
495.000000	0.187735
496.000000	0.187971
497.000000	0.188160
498.000000	0.188438
499.000000	0.188803
500.000000	0.188928
501.000000	0.188986
502.000000	0.189114
503.000000	0.189380
504.000000	0.189658
505.000000	0.189856
506.000000	0.189949
507.000000	0.190129
508.000000	0.190347
509.000000	0.190576
510.000000	0.190972
511.000000	0.191407
512.000000	0.191789
513.000000	0.191990
514.000000	0.192321
515.000000	0.192727
516.000000	0.193008
517.000000	0.193294
518.000000	0.193612
519.000000	0.193907
520.000000	0.194201
521.000000	0.194600
522.000000	0.195078
523.000000	0.195368
524.000000	0.195669
525.000000	0.196054
526.000000	0.196579
527.000000	0.197078
528.000000	0.197563
529.000000	0.198118
530.000000	0.198660
531.000000	0.199307
532.000000	0.200024
533.000000	0.200618
534.000000	0.201342
535.000000	0.202167
536.000000	0.202800
537.000000	0.203449
538.000000	0.204102
539.000000	0.204662
540.000000	0.205248
541.000000	0.205796
542.000000	0.206280
543.000000	0.206803
544.000000	0.207334
545.000000	0.207838
546.000000	0.208487
547.000000	0.209071
548.000000	0.209623
549.000000	0.210273
550.000000	0.210960
551.000000	0.211649
552.000000	0.212280
553.000000	0.212928
554.000000	0.213683
555.000000	0.214567
556.000000	0.215395
557.000000	0.216152
558.000000	0.216957
559.000000	0.217826
560.000000	0.218620
561.000000	0.219433
562.000000	0.220345
563.000000	0.221130
564.000000	0.221900
565.000000	0.222710
566.000000	0.223495
567.000000	0.224275
568.000000	0.225006
569.000000	0.225541
570.000000	0.226030
571.000000	0.226547
572.000000	0.227140
573.000000	0.227673
574.000000	0.228137
575.000000	0.228604
576.000000	0.228913
577.000000	0.229193
578.000000	0.229593
579.000000	0.229918
580.000000	0.230246
581.000000	0.230586
582.000000	0.230842
583.000000	0.231028
584.000000	0.231176
585.000000	0.231341
586.000000	0.231499
587.000000	0.231624
588.000000	0.231696
589.000000	0.231752
590.000000	0.231785
591.000000	0.231790
592.000000	0.231747
593.000000	0.231770
594.000000	0.231837
595.000000	0.231787
596.000000	0.231768
597.000000	0.231788
598.000000	0.231721
599.000000	0.231609
600.000000	0.231480
601.000000	0.231301
602.000000	0.231141
603.000000	0.231046
604.000000	0.230990
605.000000	0.230776
606.000000	0.230603
607.000000	0.230470
608.000000	0.230257
609.000000	0.230148
610.000000	0.230073
611.000000	0.229921
612.000000	0.229803
613.000000	0.229714
614.000000	0.229661
615.000000	0.229595
616.000000	0.229474
617.000000	0.229322
618.000000	0.229318
619.000000	0.229237
620.000000	0.229079
621.000000	0.228973
622.000000	0.228891
623.000000	0.228816
624.000000	0.228749
625.000000	0.228744
626.000000	0.228770
627.000000	0.228782
628.000000	0.228692
629.000000	0.228663
630.000000	0.228632
631.000000	0.228642
632.000000	0.228666
633.000000	0.228662
634.000000	0.228586
635.000000	0.228478
636.000000	0.228428
637.000000	0.228455
638.000000	0.228475
639.000000	0.228513
640.000000	0.228618
641.000000	0.228739
642.000000	0.228816
643.000000	0.228874
644.000000	0.228965
645.000000	0.229091
646.000000	0.229199
647.000000	0.229252
648.000000	0.229365
649.000000	0.229522
650.000000	0.229682
651.000000	0.229801
652.000000	0.229982
653.000000	0.230236
654.000000	0.230467
655.000000	0.230682
656.000000	0.230933
657.000000	0.231216
658.000000	0.231478
659.000000	0.231736
660.000000	0.231991
661.000000	0.232259
662.000000	0.232517
663.000000	0.232802
664.000000	0.233105
665.000000	0.233462
666.000000	0.233864
667.000000	0.234255
668.000000	0.234578
669.000000	0.234913
670.000000	0.235303
671.000000	0.235650
672.000000	0.236098
673.000000	0.236616
674.000000	0.237051
675.000000	0.237511
676.000000	0.237965
677.000000	0.238375
678.000000	0.238819
679.000000	0.239305
680.000000	0.239826
681.000000	0.240323
682.000000	0.240885
683.000000	0.241451
684.000000	0.241994
685.000000	0.242559
686.000000	0.243146
687.000000	0.243702
688.000000	0.244299
689.000000	0.244897
690.000000	0.245496
691.000000	0.246150
692.000000	0.246765
693.000000	0.247378
694.000000	0.248032
695.000000	0.248687
696.000000	0.249346
697.000000	0.250024
698.000000	0.250699
699.000000	0.251438
700.000000	0.252262
701.000000	0.252978
702.000000	0.253670
703.000000	0.254383
704.000000	0.255155
705.000000	0.255935
706.000000	0.256695
707.000000	0.257488
708.000000	0.258241
709.000000	0.258966
710.000000	0.259711
711.000000	0.260531
712.000000	0.261373
713.000000	0.262213
714.000000	0.263016
715.000000	0.263873
716.000000	0.264744
717.000000	0.265514
718.000000	0.266262
719.000000	0.266988
720.000000	0.267705
721.000000	0.268477
722.000000	0.269226
723.000000	0.269968
724.000000	0.270683
725.000000	0.271400
726.000000	0.272173
727.000000	0.272914
728.000000	0.273635
729.000000	0.274373
730.000000	0.275105
731.000000	0.275815
732.000000	0.276523
733.000000	0.277258
734.000000	0.277967
735.000000	0.278611
736.000000	0.279277
737.000000	0.279872
738.000000	0.280411
739.000000	0.281026
740.000000	0.281645
741.000000	0.282265
742.000000	0.282861
743.000000	0.283399
744.000000	0.283912
745.000000	0.284392
746.000000	0.284892
747.000000	0.285392
748.000000	0.285945
749.000000	0.286480
750.000000	0.286935
751.000000	0.287438
752.000000	0.287948
753.000000	0.288431
754.000000	0.288829
755.000000	0.289257
756.000000	0.289676
757.000000	0.289993
758.000000	0.290389
759.000000	0.290831
760.000000	0.291211
761.000000	0.291566
762.000000	0.291874
763.000000	0.292137
764.000000	0.292445
765.000000	0.292688
766.000000	0.292935
767.000000	0.293244
768.000000	0.293538
769.000000	0.293734
770.000000	0.293866
771.000000	0.294137
772.000000	0.294394
773.000000	0.294534
774.000000	0.294611
775.000000	0.294764
776.000000	0.294980
777.000000	0.295203
778.000000	0.295390
779.000000	0.295597
780.000000	0.295827
781.000000	0.296007
782.000000	0.296168
783.000000	0.296407
784.000000	0.296631
785.000000	0.296738
786.000000	0.296830
787.000000	0.296938
788.000000	0.296951
789.000000	0.296954
790.000000	0.296988
791.000000	0.297114
792.000000	0.297227
793.000000	0.297305
794.000000	0.297359
795.000000	0.297443
796.000000	0.297505
797.000000	0.297524
798.000000	0.297515
799.000000	0.297589
800.000000	0.297658
801.000000	0.297622
802.000000	0.297693
803.000000	0.297740
804.000000	0.297743
805.000000	0.297818
806.000000	0.297850
807.000000	0.297898
808.000000	0.297946
809.000000	0.297944
810.000000	0.297969
811.000000	0.298045
812.000000	0.298042
813.000000	0.298031
814.000000	0.298000
815.000000	0.297887
816.000000	0.297821
817.000000	0.297799
818.000000	0.297713
819.000000	0.297645
820.000000	0.297656
821.000000	0.297698
822.000000	0.297721
823.000000	0.297699
824.000000	0.297602
825.000000	0.297521
826.000000	0.297394
827.000000	0.297259
828.000000	0.297196
829.000000	0.297212
830.000000	0.297194
831.000000	0.297182
832.000000	0.297136
833.000000	0.297111
834.000000	0.297076
835.000000	0.297029
836.000000	0.296937
837.000000	0.296896
838.000000	0.296900
839.000000	0.296822
840.000000	0.296771
841.000000	0.296729
842.000000	0.296627
843.000000	0.296496
844.000000	0.296353
845.000000	0.296199
846.000000	0.296101
847.000000	0.296013
848.000000	0.295932
849.000000	0.295876
850.000000	0.295700
851.000000	0.295564
852.000000	0.295537
853.000000	0.295454
854.000000	0.295329
855.000000	0.295267
856.000000	0.295215
857.000000	0.295196
858.000000	0.295124
859.000000	0.294927
860.000000	0.294806
861.000000	0.294669
862.000000	0.294519
863.000000	0.294319
864.000000	0.294194
865.000000	0.294100
866.000000	0.293984
867.000000	0.293716
868.000000	0.293538
869.000000	0.293439
870.000000	0.293394
871.000000	0.293183
872.000000	0.292979
873.000000	0.292835
874.000000	0.292718
875.000000	0.292539
876.000000	0.292321
877.000000	0.292074
878.000000	0.291858
879.000000	0.291753
880.000000	0.291654
881.000000	0.291589
882.000000	0.291435
883.000000	0.291294
884.000000	0.291262
885.000000	0.291070
886.000000	0.290851
887.000000	0.290688
888.000000	0.290408
889.000000	0.290133
890.000000	0.289839
891.000000	0.289663
892.000000	0.289545
893.000000	0.289351
894.000000	0.289149
895.000000	0.288956
896.000000	0.288740
897.000000	0.288491
898.000000	0.288210
899.000000	0.287907
900.000000	0.287659
901.000000	0.287501
902.000000	0.287524
903.000000	0.287358
904.000000	0.287131
905.000000	0.286971
906.000000	0.286850
907.000000	0.286653
908.000000	0.286422
909.000000	0.286199
910.000000	0.285883
911.000000	0.285581
912.000000	0.285397
913.000000	0.285169
914.000000	0.284998
915.000000	0.284865
916.000000	0.284522
917.000000	0.284289
918.000000	0.284072
919.000000	0.283750
920.000000	0.283396
921.000000	0.283138
922.000000	0.282995
923.000000	0.282880
924.000000	0.282656
925.000000	0.282396
926.000000	0.282231
927.000000	0.282242
928.000000	0.281985
929.000000	0.281584
930.000000	0.281307
931.000000	0.280938
932.000000	0.280654
933.000000	0.280479
934.000000	0.280154
935.000000	0.279930
936.000000	0.279779
937.000000	0.279527
938.000000	0.279174
939.000000	0.278949
940.000000	0.278779
941.000000	0.278573
942.000000	0.278469
943.000000	0.278370
944.000000	0.278096
945.000000	0.277776
946.000000	0.277400
947.000000	0.277141
948.000000	0.277079
949.000000	0.277003
950.000000	0.276683
951.000000	0.276175
952.000000	0.275911
953.000000	0.275695
954.000000	0.275461
955.000000	0.275152
956.000000	0.274947
957.000000	0.274834
958.000000	0.274652
959.000000	0.274363
960.000000	0.274282
961.000000	0.274172
962.000000	0.273954
963.000000	0.273826
964.000000	0.273562
965.000000	0.273249
966.000000	0.272901
967.000000	0.272561
968.000000	0.272375
969.000000	0.272268
970.000000	0.272165
971.000000	0.271968
972.000000	0.271747
973.000000	0.271481
974.000000	0.271192
975.000000	0.270929
976.000000	0.270769
977.000000	0.270678
978.000000	0.270289
979.000000	0.270102
980.000000	0.269934
981.000000	0.269776
982.000000	0.269707
983.000000	0.269323
984.000000	0.268828
985.000000	0.268888
986.000000	0.268808
987.000000	0.268719
988.000000	0.268669
989.000000	0.268582
990.000000	0.268223
991.000000	0.267815
992.000000	0.267672
993.000000	0.267356
994.000000	0.267568
995.000000	0.267963
996.000000	0.267251
997.000000	0.267086
998.000000	0.267091
999.000000	0.267064
1000.000000	0.267190
1001.000000	0.267428
1002.000000	0.267352
1003.000000	0.266565
1004.000000	0.266379
1005.000000	0.266491
1006.000000	0.266179
1007.000000	0.265936
1008.000000	0.265677
1009.000000	0.265286
1010.000000	0.264914
1011.000000	0.265184
1012.000000	0.266002
1013.000000	0.266369
1014.000000	0.266212
1015.000000	0.265116
1016.000000	0.264255
1017.000000	0.264120
1018.000000	0.264165
1019.000000	0.264403
1020.000000	0.266019
1021.000000	0.265981
1022.000000	0.264876
1023.000000	0.264819
1024.000000	0.264641
1025.000000	0.264557
1026.000000	0.264809
1027.000000	0.264945
1028.000000	0.264886
1029.000000	0.264831
1030.000000	0.265112
1031.000000	0.265360
1032.000000	0.265278
1033.000000	0.265258
1034.000000	0.265280
1035.000000	0.265240
1036.000000	0.265440
1037.000000	0.266010
1038.000000	0.266072
1039.000000	0.266252
1040.000000	0.265855
1041.000000	0.265459
1042.000000	0.265480
1043.000000	0.265938
1044.000000	0.266776
1045.000000	0.266927
1046.000000	0.266695
1047.000000	0.266799
1048.000000	0.266540
1049.000000	0.266429
1050.000000	0.266691
1051.000000	0.266855
1052.000000	0.266609
1053.000000	0.266615
1054.000000	0.267194
1055.000000	0.267540
1056.000000	0.267730
1057.000000	0.268099
1058.000000	0.268471
1059.000000	0.268394
1060.000000	0.268438
1061.000000	0.268715
1062.000000	0.268928
1063.000000	0.269586
1064.000000	0.269752
1065.000000	0.269601
1066.000000	0.269650
1067.000000	0.269472
1068.000000	0.269434
1069.000000	0.269485
1070.000000	0.269718
1071.000000	0.270231
1072.000000	0.270402
1073.000000	0.270546
1074.000000	0.270857
1075.000000	0.270655
1076.000000	0.270927
1077.000000	0.271663
1078.000000	0.271796
1079.000000	0.272038
1080.000000	0.272381
1081.000000	0.272489
1082.000000	0.272366
1083.000000	0.272485
1084.000000	0.272513
1085.000000	0.272726
1086.000000	0.273209
1087.000000	0.273594
1088.000000	0.274094
1089.000000	0.274323
1090.000000	0.274349
1091.000000	0.274264
1092.000000	0.274224
1093.000000	0.274382
1094.000000	0.274671
1095.000000	0.275184
1096.000000	0.275526
1097.000000	0.275950
1098.000000	0.276267
1099.000000	0.276445
1100.000000	0.276691
1101.000000	0.276897
1102.000000	0.277069
1103.000000	0.277197
1104.000000	0.277344
1105.000000	0.277431
1106.000000	0.277562
1107.000000	0.277602
1108.000000	0.277773
1109.000000	0.278186
1110.000000	0.278458
1111.000000	0.278645
1112.000000	0.278827
1113.000000	0.279019
1114.000000	0.279003
1115.000000	0.279266
1116.000000	0.279801
1117.000000	0.280103
1118.000000	0.280452
1119.000000	0.280594
1120.000000	0.280494
1121.000000	0.280517
1122.000000	0.280596
1123.000000	0.280792
1124.000000	0.280761
1125.000000	0.280946
1126.000000	0.281296
1127.000000	0.281440
1128.000000	0.281545
1129.000000	0.281764
1130.000000	0.281847
1131.000000	0.281727
1132.000000	0.281718
1133.000000	0.281717
1134.000000	0.281923
1135.000000	0.282211
1136.000000	0.282393
1137.000000	0.282749
1138.000000	0.282884
1139.000000	0.282907
1140.000000	0.282987
1141.000000	0.282935
1142.000000	0.282995
1143.000000	0.283030
1144.000000	0.283144
1145.000000	0.283166
1146.000000	0.283215
1147.000000	0.283292
1148.000000	0.283237
1149.000000	0.283383
1150.000000	0.283770
1151.000000	0.283893
1152.000000	0.283855
1153.000000	0.283983
1154.000000	0.284026
1155.000000	0.284076
1156.000000	0.284345
1157.000000	0.284404
1158.000000	0.284098
1159.000000	0.284098
1160.000000	0.284232
1161.000000	0.284280
1162.000000	0.284384
1163.000000	0.284812
1164.000000	0.284832
1165.000000	0.284704
1166.000000	0.284719
1167.000000	0.284659
1168.000000	0.284621
1169.000000	0.284651
1170.000000	0.284720
1171.000000	0.284803
1172.000000	0.284946
1173.000000	0.285166
1174.000000	0.285302
1175.000000	0.285435
1176.000000	0.285480
1177.000000	0.285448
1178.000000	0.285544
1179.000000	0.285759
1180.000000	0.285747
1181.000000	0.285743
1182.000000	0.285771
1183.000000	0.285649
1184.000000	0.285569
1185.000000	0.285556
1186.000000	0.285636
1187.000000	0.285678
1188.000000	0.285747
1189.000000	0.285743
1190.000000	0.285798
1191.000000	0.285790
1192.000000	0.285730
1193.000000	0.285849
1194.000000	0.285940
1195.000000	0.286032
1196.000000	0.286198
1197.000000	0.286260
1198.000000	0.286268
1199.000000	0.286280
1200.000000	0.286230
1201.000000	0.286202
1202.000000	0.286156
1203.000000	0.286046
1204.000000	0.286163
1205.000000	0.286327
1206.000000	0.286339
1207.000000	0.286541
1208.000000	0.286482
1209.000000	0.286144
1210.000000	0.286078
1211.000000	0.286065
1212.000000	0.286045
1213.000000	0.286172
1214.000000	0.286265
1215.000000	0.286319
1216.000000	0.286383
1217.000000	0.286512
1218.000000	0.286510
1219.000000	0.286398
1220.000000	0.286355
1221.000000	0.286485
1222.000000	0.286500
1223.000000	0.286590
1224.000000	0.286727
1225.000000	0.286616
1226.000000	0.286588
1227.000000	0.286652
1228.000000	0.286674
1229.000000	0.286671
1230.000000	0.286650
1231.000000	0.286626
1232.000000	0.286675
1233.000000	0.286800
1234.000000	0.286990
1235.000000	0.287043
1236.000000	0.286946
1237.000000	0.286991
1238.000000	0.287020
1239.000000	0.287014
1240.000000	0.287059
1241.000000	0.287073
1242.000000	0.286996
1243.000000	0.287008
1244.000000	0.287136
1245.000000	0.287241
1246.000000	0.287319
1247.000000	0.287424
1248.000000	0.287648
1249.000000	0.287913
1250.000000	0.287911
1251.000000	0.287863
1252.000000	0.287889
1253.000000	0.287833
1254.000000	0.287795
1255.000000	0.287868
1256.000000	0.287871
1257.000000	0.287782
1258.000000	0.287733
1259.000000	0.287702
1260.000000	0.287716
1261.000000	0.287608
1262.000000	0.287559
1263.000000	0.287583
1264.000000	0.287589
1265.000000	0.287690
1266.000000	0.287787
1267.000000	0.287937
1268.000000	0.288115
1269.000000	0.288058
1270.000000	0.288039
1271.000000	0.287984
1272.000000	0.287926
1273.000000	0.288077
1274.000000	0.288094
1275.000000	0.288054
1276.000000	0.287992
1277.000000	0.288053
1278.000000	0.287979
1279.000000	0.287966
1280.000000	0.288059
1281.000000	0.288023
1282.000000	0.287898
1283.000000	0.287949
1284.000000	0.288005
1285.000000	0.287985
1286.000000	0.287893
1287.000000	0.287981
1288.000000	0.288061
1289.000000	0.288134
1290.000000	0.288259
1291.000000	0.288351
1292.000000	0.288279
1293.000000	0.288295
1294.000000	0.288368
1295.000000	0.288363
1296.000000	0.288506
1297.000000	0.288544
1298.000000	0.288353
1299.000000	0.288254
1300.000000	0.288301
1301.000000	0.288321
1302.000000	0.288261
1303.000000	0.288448
1304.000000	0.288387
1305.000000	0.288099
1306.000000	0.288038
1307.000000	0.288141
1308.000000	0.288170
1309.000000	0.288247
1310.000000	0.288236
1311.000000	0.288145
1312.000000	0.288107
1313.000000	0.288132
1314.000000	0.288117
1315.000000	0.288062
1316.000000	0.288139
1317.000000	0.288208
1318.000000	0.288281
1319.000000	0.288289
1320.000000	0.288214
1321.000000	0.288060
1322.000000	0.287933
1323.000000	0.287920
1324.000000	0.287898
1325.000000	0.287824
1326.000000	0.287586
1327.000000	0.287433
1328.000000	0.287434
1329.000000	0.287332
1330.000000	0.287225
1331.000000	0.287271
1332.000000	0.287453
1333.000000	0.287456
1334.000000	0.287520
1335.000000	0.287587
1336.000000	0.287528
1337.000000	0.287486
1338.000000	0.287440
1339.000000	0.287454
1340.000000	0.287380
1341.000000	0.287301
1342.000000	0.287320
1343.000000	0.287290
1344.000000	0.287099
1345.000000	0.286871
1346.000000	0.286867
1347.000000	0.286774
1348.000000	0.286733
1349.000000	0.286800
1350.000000	0.286881
1351.000000	0.287002
1352.000000	0.286958
1353.000000	0.286749
1354.000000	0.286524
1355.000000	0.286202
1356.000000	0.286130
1357.000000	0.286180
1358.000000	0.286241
1359.000000	0.286275
1360.000000	0.286195
1361.000000	0.286028
1362.000000	0.286007
1363.000000	0.285927
1364.000000	0.285877
1365.000000	0.285972
1366.000000	0.285901
1367.000000	0.285673
1368.000000	0.285570
1369.000000	0.285572
1370.000000	0.285445
1371.000000	0.285389
1372.000000	0.285309
1373.000000	0.285196
1374.000000	0.285175
1375.000000	0.285121
1376.000000	0.285033
1377.000000	0.284896
1378.000000	0.284730
1379.000000	0.284486
1380.000000	0.284276
1381.000000	0.284070
1382.000000	0.283726
1383.000000	0.283258
1384.000000	0.282830
1385.000000	0.282517
1386.000000	0.282296
1387.000000	0.282301
1388.000000	0.282137
1389.000000	0.281681
1390.000000	0.281234
1391.000000	0.280582
1392.000000	0.279954
1393.000000	0.279492
1394.000000	0.279243
1395.000000	0.278839
1396.000000	0.278531
1397.000000	0.278086
1398.000000	0.277439
1399.000000	0.276808
1400.000000	0.276146
1401.000000	0.275491
1402.000000	0.274816
1403.000000	0.274208
1404.000000	0.273609
1405.000000	0.272931
1406.000000	0.272342
1407.000000	0.271789
1408.000000	0.271296
1409.000000	0.270970
1410.000000	0.270573
1411.000000	0.270201
1412.000000	0.269856
1413.000000	0.269464
1414.000000	0.269184
1415.000000	0.268875
1416.000000	0.268580
1417.000000	0.268357
1418.000000	0.267937
1419.000000	0.267599
1420.000000	0.267295
1421.000000	0.266973
1422.000000	0.266754
1423.000000	0.266593
1424.000000	0.266248
1425.000000	0.265949
1426.000000	0.265689
1427.000000	0.265363
1428.000000	0.265095
1429.000000	0.264856
1430.000000	0.264681
1431.000000	0.264533
1432.000000	0.264290
1433.000000	0.264052
1434.000000	0.263842
1435.000000	0.263606
1436.000000	0.263417
1437.000000	0.263250
1438.000000	0.263102
1439.000000	0.263058
1440.000000	0.262961
1441.000000	0.262890
1442.000000	0.262896
1443.000000	0.262854
1444.000000	0.262750
1445.000000	0.262788
1446.000000	0.262913
1447.000000	0.263098
1448.000000	0.263207
1449.000000	0.263326
1450.000000	0.263460
1451.000000	0.263461
1452.000000	0.263439
1453.000000	0.263475
1454.000000	0.263467
1455.000000	0.263425
1456.000000	0.263498
1457.000000	0.263639
1458.000000	0.263685
1459.000000	0.263714
1460.000000	0.263790
1461.000000	0.263818
1462.000000	0.263783
1463.000000	0.263770
1464.000000	0.263776
1465.000000	0.263663
1466.000000	0.263634
1467.000000	0.263714
1468.000000	0.263753
1469.000000	0.263867
1470.000000	0.263879
1471.000000	0.263914
1472.000000	0.263937
1473.000000	0.263984
1474.000000	0.264105
1475.000000	0.264287
1476.000000	0.264393
1477.000000	0.264518
1478.000000	0.264789
1479.000000	0.264960
1480.000000	0.265104
1481.000000	0.265243
1482.000000	0.265391
1483.000000	0.265564
1484.000000	0.265753
1485.000000	0.265945
1486.000000	0.266110
1487.000000	0.266323
1488.000000	0.266585
1489.000000	0.266866
1490.000000	0.267165
1491.000000	0.267376
1492.000000	0.267409
1493.000000	0.267599
1494.000000	0.267831
1495.000000	0.267976
1496.000000	0.268147
1497.000000	0.268338
1498.000000	0.268511
1499.000000	0.268565
1500.000000	0.268693
1501.000000	0.268819
1502.000000	0.268827
1503.000000	0.269006
1504.000000	0.269241
1505.000000	0.269409
1506.000000	0.269570
1507.000000	0.269576
1508.000000	0.269618
1509.000000	0.269768
1510.000000	0.269867
1511.000000	0.269991
1512.000000	0.270093
1513.000000	0.270205
1514.000000	0.270369
1515.000000	0.270376
1516.000000	0.270379
1517.000000	0.270473
1518.000000	0.270499
1519.000000	0.270510
1520.000000	0.270668
1521.000000	0.270689
1522.000000	0.270722
1523.000000	0.270876
1524.000000	0.270925
1525.000000	0.270949
1526.000000	0.270891
1527.000000	0.270943
1528.000000	0.271067
1529.000000	0.271141
1530.000000	0.271254
1531.000000	0.271314
1532.000000	0.271303
1533.000000	0.271269
1534.000000	0.271293
1535.000000	0.271363
1536.000000	0.271390
1537.000000	0.271528
1538.000000	0.271660
1539.000000	0.271651
1540.000000	0.271574
1541.000000	0.271554
1542.000000	0.271550
1543.000000	0.271513
1544.000000	0.271611
1545.000000	0.271747
1546.000000	0.271815
1547.000000	0.272000
1548.000000	0.272085
1549.000000	0.272001
1550.000000	0.271951
1551.000000	0.271827
1552.000000	0.271748
1553.000000	0.271748
1554.000000	0.271766
1555.000000	0.271884
1556.000000	0.271914
1557.000000	0.271879
1558.000000	0.271907
1559.000000	0.271788
1560.000000	0.271822
1561.000000	0.272046
1562.000000	0.272148
1563.000000	0.272338
1564.000000	0.272402
1565.000000	0.272361
1566.000000	0.272312
1567.000000	0.272282
1568.000000	0.272263
1569.000000	0.272265
1570.000000	0.272262
1571.000000	0.272245
1572.000000	0.272225
1573.000000	0.272214
1574.000000	0.272235
1575.000000	0.272318
1576.000000	0.272359
1577.000000	0.272405
1578.000000	0.272404
1579.000000	0.272339
1580.000000	0.272346
1581.000000	0.272454
1582.000000	0.272501
1583.000000	0.272568
1584.000000	0.272600
1585.000000	0.272660
1586.000000	0.272683
1587.000000	0.272692
1588.000000	0.272743
1589.000000	0.272790
1590.000000	0.272828
1591.000000	0.272924
1592.000000	0.272931
1593.000000	0.272897
1594.000000	0.272859
1595.000000	0.272879
1596.000000	0.272862
1597.000000	0.272790
1598.000000	0.272753
1599.000000	0.272693
1600.000000	0.272671
1601.000000	0.272802
1602.000000	0.272873
1603.000000	0.273012
1604.000000	0.273020
1605.000000	0.272936
1606.000000	0.272894
1607.000000	0.272862
1608.000000	0.272826
1609.000000	0.272872
1610.000000	0.272858
1611.000000	0.272776
1612.000000	0.272732
1613.000000	0.272805
1614.000000	0.272782
1615.000000	0.272757
1616.000000	0.272843
1617.000000	0.272909
1618.000000	0.272922
1619.000000	0.272987
1620.000000	0.273039
1621.000000	0.272988
1622.000000	0.273123
1623.000000	0.273387
1624.000000	0.273506
1625.000000	0.273546
1626.000000	0.273516
1627.000000	0.273327
1628.000000	0.273376
1629.000000	0.273499
1630.000000	0.273631
1631.000000	0.273920
1632.000000	0.273943
1633.000000	0.273791
1634.000000	0.273745
1635.000000	0.273642
1636.000000	0.273587
1637.000000	0.273625
1638.000000	0.273603
1639.000000	0.273596
1640.000000	0.273584
1641.000000	0.273604
1642.000000	0.273696
1643.000000	0.273874
1644.000000	0.273931
1645.000000	0.274034
1646.000000	0.273991
1647.000000	0.273814
1648.000000	0.273726
1649.000000	0.273647
1650.000000	0.273691
1651.000000	0.273846
1652.000000	0.273979
1653.000000	0.274142
1654.000000	0.274351
1655.000000	0.274582
1656.000000	0.274585
1657.000000	0.274618
1658.000000	0.274592
1659.000000	0.274419
1660.000000	0.274433
1661.000000	0.274487
1662.000000	0.274506
1663.000000	0.274520
1664.000000	0.274520
1665.000000	0.274524
1666.000000	0.274584
1667.000000	0.274525
1668.000000	0.274632
1669.000000	0.274842
1670.000000	0.274920
1671.000000	0.275161
1672.000000	0.275330
1673.000000	0.275330
1674.000000	0.275435
1675.000000	0.275571
1676.000000	0.275753
1677.000000	0.275967
1678.000000	0.276074
1679.000000	0.276193
1680.000000	0.276161
1681.000000	0.276232
1682.000000	0.276334
1683.000000	0.276234
1684.000000	0.276189
1685.000000	0.276141
1686.000000	0.276041
1687.000000	0.276147
1688.000000	0.276262
1689.000000	0.276254
1690.000000	0.276227
1691.000000	0.276316
1692.000000	0.276276
1693.000000	0.276217
1694.000000	0.276286
1695.000000	0.276232
1696.000000	0.276047
1697.000000	0.275929
1698.000000	0.275883
1699.000000	0.275833
1700.000000	0.275864
1701.000000	0.275890
1702.000000	0.275670
1703.000000	0.275533
1704.000000	0.275464
1705.000000	0.275464
1706.000000	0.275659
1707.000000	0.275715
1708.000000	0.275745
1709.000000	0.275692
1710.000000	0.275539
1711.000000	0.275498
1712.000000	0.275557
1713.000000	0.275526
1714.000000	0.275514
1715.000000	0.275530
1716.000000	0.275459
1717.000000	0.275518
1718.000000	0.275705
1719.000000	0.275794
1720.000000	0.275917
1721.000000	0.276056
1722.000000	0.276204
1723.000000	0.276293
1724.000000	0.276419
1725.000000	0.276526
1726.000000	0.276464
1727.000000	0.276479
1728.000000	0.276475
1729.000000	0.276479
1730.000000	0.276670
1731.000000	0.276642
1732.000000	0.276547
1733.000000	0.276533
1734.000000	0.276226
1735.000000	0.276216
1736.000000	0.276405
1737.000000	0.276475
1738.000000	0.276619
1739.000000	0.276648
1740.000000	0.276575
1741.000000	0.276574
1742.000000	0.276532
1743.000000	0.276667
1744.000000	0.276885
1745.000000	0.277072
1746.000000	0.277411
1747.000000	0.277105
1748.000000	0.276993
1749.000000	0.276775
1750.000000	0.276581
1751.000000	0.276771
1752.000000	0.276890
1753.000000	0.276751
1754.000000	0.276680
1755.000000	0.276597
1756.000000	0.276524
1757.000000	0.276449
1758.000000	0.276410
1759.000000	0.276400
1760.000000	0.276373
1761.000000	0.276315
1762.000000	0.276261
1763.000000	0.276170
1764.000000	0.276183
1765.000000	0.276219
1766.000000	0.276298
1767.000000	0.276459
1768.000000	0.276474
1769.000000	0.276534
1770.000000	0.276547
1771.000000	0.276367
1772.000000	0.276351
1773.000000	0.276352
1774.000000	0.276362
1775.000000	0.276558
1776.000000	0.276531
1777.000000	0.276230
1778.000000	0.276322
1779.000000	0.276543
1780.000000	0.276639
1781.000000	0.276925
1782.000000	0.276977
1783.000000	0.276792
1784.000000	0.276815
1785.000000	0.276791
1786.000000	0.276835
1787.000000	0.276936
1788.000000	0.277019
1789.000000	0.277200
1790.000000	0.277358
1791.000000	0.277388
1792.000000	0.277375
1793.000000	0.277463
1794.000000	0.277620
1795.000000	0.277687
1796.000000	0.277794
1797.000000	0.277832
1798.000000	0.277661
1799.000000	0.277619
1800.000000	0.277720
1801.000000	0.276859
1802.000000	0.277525
1803.000000	0.278617
1804.000000	0.278681
1805.000000	0.279445
1806.000000	0.279065
1807.000000	0.276357
1808.000000	0.275449
1809.000000	0.274936
1810.000000	0.274540
1811.000000	0.275076
1812.000000	0.277146
1813.000000	0.277661
1814.000000	0.278103
1815.000000	0.278517
1816.000000	0.278561
1817.000000	0.278244
1818.000000	0.277857
1819.000000	0.277491
1820.000000	0.277173
1821.000000	0.276570
1822.000000	0.276583
1823.000000	0.277837
1824.000000	0.277616
1825.000000	0.276170
1826.000000	0.276026
1827.000000	0.275596
1828.000000	0.275919
1829.000000	0.276889
1830.000000	0.277266
1831.000000	0.277142
1832.000000	0.275921
1833.000000	0.275528
1834.000000	0.275225
1835.000000	0.274985
1836.000000	0.275145
1837.000000	0.275056
1838.000000	0.274798
1839.000000	0.274279
1840.000000	0.273645
1841.000000	0.273341
1842.000000	0.273148
1843.000000	0.272685
1844.000000	0.272943
1845.000000	0.274293
1846.000000	0.274409
1847.000000	0.273776
1848.000000	0.274132
1849.000000	0.273675
1850.000000	0.272379
1851.000000	0.271951
1852.000000	0.271965
1853.000000	0.271843
1854.000000	0.271685
1855.000000	0.271607
1856.000000	0.271667
1857.000000	0.271439
1858.000000	0.271412
1859.000000	0.271572
1860.000000	0.271313
1861.000000	0.271133
1862.000000	0.270854
1863.000000	0.270317
1864.000000	0.269892
1865.000000	0.269576
1866.000000	0.269185
1867.000000	0.268690
1868.000000	0.268352
1869.000000	0.267464
1870.000000	0.266508
1871.000000	0.266048
1872.000000	0.265561
1873.000000	0.264835
1874.000000	0.264278
1875.000000	0.263520
1876.000000	0.262230
1877.000000	0.260862
1878.000000	0.259400
1879.000000	0.258408
1880.000000	0.257080
1881.000000	0.254770
1882.000000	0.252899
1883.000000	0.250936
1884.000000	0.249202
1885.000000	0.247517
1886.000000	0.246001
1887.000000	0.244666
1888.000000	0.243129
1889.000000	0.241673
1890.000000	0.239962
1891.000000	0.237809
1892.000000	0.236032
1893.000000	0.234085
1894.000000	0.231497
1895.000000	0.229255
1896.000000	0.227495
1897.000000	0.224905
1898.000000	0.221877
1899.000000	0.219970
1900.000000	0.217542
1901.000000	0.215628
1902.000000	0.214145
1903.000000	0.212445
1904.000000	0.211349
1905.000000	0.209902
1906.000000	0.208550
1907.000000	0.207332
1908.000000	0.206625
1909.000000	0.205440
1910.000000	0.204730
1911.000000	0.204464
1912.000000	0.203607
1913.000000	0.203337
1914.000000	0.202789
1915.000000	0.202181
1916.000000	0.202749
1917.000000	0.202794
1918.000000	0.202788
1919.000000	0.203116
1920.000000	0.203320
1921.000000	0.202629
1922.000000	0.202056
1923.000000	0.201588
1924.000000	0.201113
1925.000000	0.200933
1926.000000	0.201095
1927.000000	0.201265
1928.000000	0.201331
1929.000000	0.201382
1930.000000	0.201519
1931.000000	0.201896
1932.000000	0.202271
1933.000000	0.202556
1934.000000	0.202918
1935.000000	0.203298
1936.000000	0.203264
1937.000000	0.203464
1938.000000	0.203292
1939.000000	0.202952
1940.000000	0.202116
1941.000000	0.201883
1942.000000	0.201530
1943.000000	0.201552
1944.000000	0.201824
1945.000000	0.202056
1946.000000	0.202099
1947.000000	0.201737
1948.000000	0.201706
1949.000000	0.201444
1950.000000	0.201331
1951.000000	0.201322
1952.000000	0.201741
1953.000000	0.201716
1954.000000	0.201696
1955.000000	0.201872
1956.000000	0.201668
1957.000000	0.201362
1958.000000	0.201507
1959.000000	0.201427
1960.000000	0.201588
1961.000000	0.201958
1962.000000	0.202139
1963.000000	0.202188
1964.000000	0.202423
1965.000000	0.202640
1966.000000	0.202908
1967.000000	0.202736
1968.000000	0.202469
1969.000000	0.201975
1970.000000	0.201423
1971.000000	0.201389
1972.000000	0.201123
1973.000000	0.200806
1974.000000	0.200405
1975.000000	0.200306
1976.000000	0.200266
1977.000000	0.200499
1978.000000	0.200559
1979.000000	0.200902
1980.000000	0.201351
1981.000000	0.201658
1982.000000	0.202666
1983.000000	0.203353
1984.000000	0.203383
1985.000000	0.202873
1986.000000	0.202789
1987.000000	0.202410
1988.000000	0.201849
1989.000000	0.202539
1990.000000	0.202819
1991.000000	0.202599
1992.000000	0.203294
1993.000000	0.203888
1994.000000	0.204147
1995.000000	0.204590
1996.000000	0.205360
1997.000000	0.206022
1998.000000	0.206671
1999.000000	0.207430
2000.000000	0.208558
2001.000000	0.209002
2002.000000	0.209340
2003.000000	0.209637
2004.000000	0.209545
2005.000000	0.209631
2006.000000	0.210438
2007.000000	0.211034
2008.000000	0.211444
2009.000000	0.211994
2010.000000	0.212225
2011.000000	0.211688
2012.000000	0.211868
2013.000000	0.212086
2014.000000	0.212771
2015.000000	0.213577
2016.000000	0.214377
2017.000000	0.215145
2018.000000	0.215951
2019.000000	0.216726
2020.000000	0.217352
2021.000000	0.217811
2022.000000	0.217745
2023.000000	0.218124
2024.000000	0.218726
2025.000000	0.219119
2026.000000	0.219338
2027.000000	0.220048
2028.000000	0.220470
2029.000000	0.220867
2030.000000	0.221483
2031.000000	0.222271
2032.000000	0.223141
2033.000000	0.224163
2034.000000	0.224641
2035.000000	0.224942
2036.000000	0.225205
2037.000000	0.225026
2038.000000	0.225101
2039.000000	0.225513
2040.000000	0.225763
2041.000000	0.225734
2042.000000	0.226494
2043.000000	0.226817
2044.000000	0.227344
2045.000000	0.228107
2046.000000	0.227746
2047.000000	0.227690
2048.000000	0.227172
2049.000000	0.227827
2050.000000	0.228989
2051.000000	0.229461
2052.000000	0.230274
2053.000000	0.230666
2054.000000	0.230385
2055.000000	0.230376
2056.000000	0.230964
2057.000000	0.231663
2058.000000	0.231858
2059.000000	0.231649
2060.000000	0.231801
2061.000000	0.231879
2062.000000	0.232186
2063.000000	0.232877
2064.000000	0.233256
2065.000000	0.233750
2066.000000	0.234121
2067.000000	0.234405
2068.000000	0.235295
2069.000000	0.235653
2070.000000	0.235788
2071.000000	0.235951
2072.000000	0.235638
2073.000000	0.236028
2074.000000	0.236161
2075.000000	0.236226
2076.000000	0.236374
2077.000000	0.236418
2078.000000	0.236064
2079.000000	0.236157
2080.000000	0.236434
2081.000000	0.236657
2082.000000	0.237057
2083.000000	0.237499
2084.000000	0.237725
2085.000000	0.238622
2086.000000	0.239379
2087.000000	0.239641
2088.000000	0.239877
2089.000000	0.239861
2090.000000	0.240133
2091.000000	0.240468
2092.000000	0.241030
2093.000000	0.242019
2094.000000	0.242586
2095.000000	0.243375
2096.000000	0.243594
2097.000000	0.243155
2098.000000	0.242878
2099.000000	0.242616
2100.000000	0.242605
2101.000000	0.243473
2102.000000	0.243967
2103.000000	0.244073
2104.000000	0.243839
2105.000000	0.244039
2106.000000	0.244154
2107.000000	0.244498
2108.000000	0.245293
2109.000000	0.246025
2110.000000	0.246917
2111.000000	0.247135
2112.000000	0.247153
2113.000000	0.246679
2114.000000	0.245929
2115.000000	0.245224
2116.000000	0.245803
2117.000000	0.246507
2118.000000	0.247041
2119.000000	0.247366
2120.000000	0.247476
2121.000000	0.247049
2122.000000	0.246896
2123.000000	0.246674
2124.000000	0.246684
2125.000000	0.246484
2126.000000	0.246794
2127.000000	0.247786
2128.000000	0.248476
2129.000000	0.249395
2130.000000	0.250197
2131.000000	0.249948
2132.000000	0.249497
2133.000000	0.248805
2134.000000	0.247740
2135.000000	0.246797
2136.000000	0.246481
2137.000000	0.246255
2138.000000	0.246300
2139.000000	0.246383
2140.000000	0.246647
2141.000000	0.246768
2142.000000	0.247200
2143.000000	0.246944
2144.000000	0.246512
2145.000000	0.246513
2146.000000	0.246268
2147.000000	0.246122
2148.000000	0.247264
2149.000000	0.247967
2150.000000	0.248789
2151.000000	0.249758
2152.000000	0.249841
2153.000000	0.249192
2154.000000	0.249112
2155.000000	0.248878
2156.000000	0.248937
2157.000000	0.249339
2158.000000	0.249890
2159.000000	0.250765
2160.000000	0.251337
2161.000000	0.252380
2162.000000	0.252672
2163.000000	0.251945
2164.000000	0.251527
2165.000000	0.250622
2166.000000	0.250235
2167.000000	0.250351
2168.000000	0.250975
2169.000000	0.251061
2170.000000	0.251244
2171.000000	0.251531
2172.000000	0.251826
2173.000000	0.251709
2174.000000	0.251657
2175.000000	0.251320
2176.000000	0.250118
2177.000000	0.249480
2178.000000	0.249445
2179.000000	0.249412
2180.000000	0.249037
2181.000000	0.249480
2182.000000	0.250841
2183.000000	0.250137
2184.000000	0.249811
2185.000000	0.250186
2186.000000	0.250780
2187.000000	0.251400
2188.000000	0.251759
2189.000000	0.251993
2190.000000	0.251068
2191.000000	0.250415
2192.000000	0.250605
2193.000000	0.252177
2194.000000	0.252587
2195.000000	0.253258
2196.000000	0.253333
2197.000000	0.251953
2198.000000	0.251633
2199.000000	0.251116
2200.000000	0.251446
2201.000000	0.254157
2202.000000	0.254816
2203.000000	0.254005
2204.000000	0.254999
2205.000000	0.253553
2206.000000	0.250827
2207.000000	0.250388
2208.000000	0.251111
2209.000000	0.251688
2210.000000	0.252800
2211.000000	0.254664
2212.000000	0.254821
2213.000000	0.253539
2214.000000	0.250810
2215.000000	0.249069
2216.000000	0.245077
2217.000000	0.244103
2218.000000	0.245458
2219.000000	0.246223
2220.000000	0.247665
2221.000000	0.248774
2222.000000	0.250489
2223.000000	0.251614
2224.000000	0.251711
2225.000000	0.253522
2226.000000	0.254152
2227.000000	0.254233
2228.000000	0.256664
2229.000000	0.255912
2230.000000	0.254467
2231.000000	0.253858
2232.000000	0.251370
2233.000000	0.248523
2234.000000	0.247009
2235.000000	0.246247
2236.000000	0.246706
2237.000000	0.249029
2238.000000	0.249834
2239.000000	0.251930
2240.000000	0.252151
2241.000000	0.250191
2242.000000	0.249687
2243.000000	0.248177
2244.000000	0.248529
2245.000000	0.250455
2246.000000	0.251503
2247.000000	0.254480
2248.000000	0.255111
2249.000000	0.253380
2250.000000	0.253267
2251.000000	0.253652
2252.000000	0.251684
2253.000000	0.249371
2254.000000	0.246788
2255.000000	0.243527
2256.000000	0.243093
2257.000000	0.245575
2258.000000	0.248703
2259.000000	0.250972
2260.000000	0.250155
2261.000000	0.249667
2262.000000	0.247282
2263.000000	0.247414
2264.000000	0.249385
2265.000000	0.249042
2266.000000	0.248025
2267.000000	0.247144
2268.000000	0.243782
2269.000000	0.243275
2270.000000	0.246478
2271.000000	0.246441
2272.000000	0.245666
2273.000000	0.244915
2274.000000	0.241825
2275.000000	0.240186
2276.000000	0.239376
2277.000000	0.238366
2278.000000	0.238628
2279.000000	0.238801
2280.000000	0.239569
2281.000000	0.240931
2282.000000	0.239635
2283.000000	0.238626
2284.000000	0.238761
2285.000000	0.237314
2286.000000	0.237345
2287.000000	0.237400
2288.000000	0.235852
2289.000000	0.235514
2290.000000	0.235645
2291.000000	0.236120
2292.000000	0.235644
2293.000000	0.234844
2294.000000	0.232645
2295.000000	0.227364
2296.000000	0.225538
2297.000000	0.223739
2298.000000	0.223265
2299.000000	0.225992
2300.000000	0.226853
2301.000000	0.227117
2302.000000	0.228317
2303.000000	0.229971
2304.000000	0.230928
2305.000000	0.231859
2306.000000	0.233032
2307.000000	0.234291
2308.000000	0.234016
2309.000000	0.235034
2310.000000	0.235788
2311.000000	0.233477
2312.000000	0.233518
2313.000000	0.234738
2314.000000	0.233464
2315.000000	0.232723
2316.000000	0.232690
2317.000000	0.231182
2318.000000	0.229885
2319.000000	0.231384
2320.000000	0.232601
2321.000000	0.233175
2322.000000	0.235215
2323.000000	0.235336
2324.000000	0.234734
2325.000000	0.235490
2326.000000	0.235565
2327.000000	0.235395
2328.000000	0.234822
2329.000000	0.233355
2330.000000	0.230929
2331.000000	0.228635
2332.000000	0.228079
2333.000000	0.226743
2334.000000	0.225094
2335.000000	0.224504
2336.000000	0.224214
2337.000000	0.223788
2338.000000	0.224145
2339.000000	0.223394
2340.000000	0.221146
2341.000000	0.220268
2342.000000	0.221026
2343.000000	0.220866
2344.000000	0.221374
2345.000000	0.222359
2346.000000	0.219928
2347.000000	0.220087
2348.000000	0.223310
2349.000000	0.225322
2350.000000	0.223787
2351.000000	0.224015
2352.000000	0.223785
2353.000000	0.221938
2354.000000	0.219196
2355.000000	0.218950
2356.000000	0.217834
2357.000000	0.215117
2358.000000	0.217882
2359.000000	0.222329
2360.000000	0.225335
2361.000000	0.227452
2362.000000	0.226368
2363.000000	0.221933
2364.000000	0.214455
2365.000000	0.209594
2366.000000	0.207998
2367.000000	0.209876
2368.000000	0.212935
2369.000000	0.212322
2370.000000	0.209596
2371.000000	0.205898
2372.000000	0.204628
2373.000000	0.205947
2374.000000	0.207211
2375.000000	0.203968
2376.000000	0.202743
2377.000000	0.203470
2378.000000	0.201286
2379.000000	0.206810
2380.000000	0.212047
2381.000000	0.211926
2382.000000	0.211290
2383.000000	0.204842
2384.000000	0.199097
2385.000000	0.196152
2386.000000	0.193374
2387.000000	0.200780
2388.000000	0.202166
2389.000000	0.196259
2390.000000	0.197917
2391.000000	0.191918
2392.000000	0.185634
2393.000000	0.190424
2394.000000	0.190221
2395.000000	0.188346
2396.000000	0.194770
2397.000000	0.193804
2398.000000	0.191924
2399.000000	0.194372
2400.000000	0.190859
2401.000000	0.188754
2402.000000	0.191757
2403.000000	0.193972
2404.000000	0.193125
2405.000000	0.195514
2406.000000	0.197474
2407.000000	0.194178
2408.000000	0.192333
2409.000000	0.191041
2410.000000	0.187550
2411.000000	0.190142
2412.000000	0.194673
2413.000000	0.193619
2414.000000	0.193456
2415.000000	0.185547
2416.000000	0.177509
2417.000000	0.184960
2418.000000	0.189809
2419.000000	0.197732
2420.000000	0.214808
2421.000000	0.217034
2422.000000	0.214431
2423.000000	0.222045
2424.000000	0.221723
2425.000000	0.212860
2426.000000	0.214226
2427.000000	0.205976
2428.000000	0.188334
2429.000000	0.191688
2430.000000	0.190832
2431.000000	0.186033
2432.000000	0.192234
2433.000000	0.188571
2434.000000	0.191647
2435.000000	0.203916
2436.000000	0.212045
2437.000000	0.218367
2438.000000	0.208200
2439.000000	0.190567
2440.000000	0.180621
2441.000000	0.174123
2442.000000	0.172566
2443.000000	0.169365
2444.000000	0.165786
2445.000000	0.163838
2446.000000	0.161847
2447.000000	0.169034
2448.000000	0.180526
2449.000000	0.177184
2450.000000	0.176118
2451.000000	0.184361
2452.000000	0.178826
2453.000000	0.180464
2454.000000	0.179788
2455.000000	0.179735
2456.000000	0.194458
2457.000000	0.206307
2458.000000	0.219912
2459.000000	0.220211
2460.000000	0.205496
2461.000000	0.198356
2462.000000	0.193722
2463.000000	0.180694
2464.000000	0.175987
2465.000000	0.173912
2466.000000	0.165516
2467.000000	0.163184
2468.000000	0.155123
2469.000000	0.135166
2470.000000	0.130157
2471.000000	0.155538
2472.000000	0.173635
2473.000000	0.179876
2474.000000	0.200358
2475.000000	0.209562
2476.000000	0.212836
2477.000000	0.221242
2478.000000	0.214249
2479.000000	0.200145
2480.000000	0.192739
2481.000000	0.201809
2482.000000	0.198546
2483.000000	0.188796
2484.000000	0.187075
2485.000000	0.173955
2486.000000	0.178950
2487.000000	0.168256
2488.000000	0.166965
2489.000000	0.192854
2490.000000	0.207485
2491.000000	0.230359
2492.000000	0.228456
2493.000000	0.206438
2494.000000	0.206124
2495.000000	0.206125
2496.000000	0.209951
2497.000000	0.237914
2498.000000	0.227997
2499.000000	0.187256
2500.000000	0.181617
