# Wavelength	NAu-1-20_HEX-30_FV7-50_00001.asd.rts.txt
350.000000	0.182423
351.000000	0.161890
352.000000	0.157822
353.000000	0.163418
354.000000	0.171558
355.000000	0.176215
356.000000	0.176243
357.000000	0.172978
358.000000	0.165381
359.000000	0.170029
360.000000	0.177017
361.000000	0.173528
362.000000	0.174767
363.000000	0.172397
364.000000	0.163864
365.000000	0.167390
366.000000	0.170563
367.000000	0.171825
368.000000	0.179094
369.000000	0.174966
370.000000	0.169180
371.000000	0.176089
372.000000	0.176578
373.000000	0.175868
374.000000	0.178215
375.000000	0.176869
376.000000	0.176874
377.000000	0.178213
378.000000	0.175901
379.000000	0.180020
380.000000	0.184877
381.000000	0.182191
382.000000	0.180282
383.000000	0.179497
384.000000	0.179669
385.000000	0.181688
386.000000	0.184424
387.000000	0.186293
388.000000	0.184312
389.000000	0.183605
390.000000	0.184773
391.000000	0.186473
392.000000	0.187124
393.000000	0.187420
394.000000	0.188049
395.000000	0.188387
396.000000	0.189779
397.000000	0.191580
398.000000	0.190020
399.000000	0.191607
400.000000	0.194682
401.000000	0.194387
402.000000	0.196319
403.000000	0.197637
404.000000	0.196041
405.000000	0.196427
406.000000	0.198179
407.000000	0.200150
408.000000	0.200441
409.000000	0.200930
410.000000	0.201463
411.000000	0.200787
412.000000	0.201635
413.000000	0.203030
414.000000	0.203537
415.000000	0.204418
416.000000	0.204614
417.000000	0.203994
418.000000	0.204793
419.000000	0.205718
420.000000	0.206484
421.000000	0.207593
422.000000	0.207800
423.000000	0.207601
424.000000	0.208012
425.000000	0.208485
426.000000	0.208555
427.000000	0.208111
428.000000	0.208056
429.000000	0.208334
430.000000	0.208755
431.000000	0.208908
432.000000	0.209086
433.000000	0.209261
434.000000	0.209377
435.000000	0.209638
436.000000	0.209905
437.000000	0.209999
438.000000	0.209913
439.000000	0.210144
440.000000	0.210653
441.000000	0.209889
442.000000	0.209669
443.000000	0.210112
444.000000	0.210332
445.000000	0.210374
446.000000	0.210416
447.000000	0.210532
448.000000	0.210695
449.000000	0.211054
450.000000	0.211707
451.000000	0.212598
452.000000	0.213324
453.000000	0.213984
454.000000	0.215529
455.000000	0.216701
456.000000	0.217586
457.000000	0.218661
458.000000	0.220076
459.000000	0.221383
460.000000	0.222251
461.000000	0.222976
462.000000	0.223940
463.000000	0.224988
464.000000	0.225460
465.000000	0.225800
466.000000	0.226177
467.000000	0.226755
468.000000	0.227608
469.000000	0.228254
470.000000	0.228396
471.000000	0.228893
472.000000	0.229351
473.000000	0.229567
474.000000	0.230079
475.000000	0.230293
476.000000	0.230339
477.000000	0.230835
478.000000	0.231269
479.000000	0.231725
480.000000	0.232164
481.000000	0.232244
482.000000	0.232420
483.000000	0.232886
484.000000	0.233340
485.000000	0.233635
486.000000	0.233916
487.000000	0.234290
488.000000	0.234719
489.000000	0.235128
490.000000	0.235374
491.000000	0.235844
492.000000	0.236383
493.000000	0.236616
494.000000	0.236872
495.000000	0.237288
496.000000	0.237842
497.000000	0.238306
498.000000	0.238813
499.000000	0.239380
500.000000	0.239674
501.000000	0.240106
502.000000	0.240653
503.000000	0.241026
504.000000	0.241297
505.000000	0.241652
506.000000	0.242215
507.000000	0.242716
508.000000	0.243153
509.000000	0.243542
510.000000	0.244027
511.000000	0.244550
512.000000	0.245097
513.000000	0.245621
514.000000	0.246128
515.000000	0.246628
516.000000	0.247085
517.000000	0.247610
518.000000	0.248164
519.000000	0.248645
520.000000	0.249209
521.000000	0.249729
522.000000	0.250187
523.000000	0.250719
524.000000	0.251324
525.000000	0.251920
526.000000	0.252410
527.000000	0.252807
528.000000	0.253231
529.000000	0.253837
530.000000	0.254471
531.000000	0.255013
532.000000	0.255397
533.000000	0.256032
534.000000	0.256611
535.000000	0.257104
536.000000	0.257806
537.000000	0.258368
538.000000	0.258837
539.000000	0.259386
540.000000	0.259886
541.000000	0.260403
542.000000	0.261021
543.000000	0.261610
544.000000	0.262167
545.000000	0.262670
546.000000	0.263309
547.000000	0.263871
548.000000	0.264412
549.000000	0.265086
550.000000	0.265666
551.000000	0.266200
552.000000	0.266754
553.000000	0.267289
554.000000	0.267897
555.000000	0.268600
556.000000	0.269153
557.000000	0.269660
558.000000	0.270264
559.000000	0.270803
560.000000	0.271306
561.000000	0.271842
562.000000	0.272362
563.000000	0.272890
564.000000	0.273446
565.000000	0.273945
566.000000	0.274466
567.000000	0.274952
568.000000	0.275362
569.000000	0.275776
570.000000	0.276238
571.000000	0.276710
572.000000	0.277091
573.000000	0.277598
574.000000	0.278156
575.000000	0.278639
576.000000	0.279019
577.000000	0.279323
578.000000	0.279655
579.000000	0.280009
580.000000	0.280370
581.000000	0.280721
582.000000	0.281043
583.000000	0.281405
584.000000	0.281750
585.000000	0.281957
586.000000	0.282283
587.000000	0.282629
588.000000	0.282858
589.000000	0.283191
590.000000	0.283539
591.000000	0.283827
592.000000	0.284059
593.000000	0.284282
594.000000	0.284508
595.000000	0.284724
596.000000	0.284990
597.000000	0.285261
598.000000	0.285370
599.000000	0.285495
600.000000	0.285620
601.000000	0.285674
602.000000	0.285915
603.000000	0.286103
604.000000	0.286182
605.000000	0.286422
606.000000	0.286605
607.000000	0.286721
608.000000	0.286880
609.000000	0.287066
610.000000	0.287276
611.000000	0.287490
612.000000	0.287602
613.000000	0.287696
614.000000	0.287862
615.000000	0.288020
616.000000	0.288093
617.000000	0.288120
618.000000	0.288387
619.000000	0.288526
620.000000	0.288558
621.000000	0.288702
622.000000	0.288835
623.000000	0.288906
624.000000	0.288929
625.000000	0.289134
626.000000	0.289253
627.000000	0.289232
628.000000	0.289390
629.000000	0.289572
630.000000	0.289660
631.000000	0.289813
632.000000	0.289919
633.000000	0.290041
634.000000	0.290231
635.000000	0.290404
636.000000	0.290624
637.000000	0.290879
638.000000	0.291027
639.000000	0.291154
640.000000	0.291332
641.000000	0.291465
642.000000	0.291614
643.000000	0.291783
644.000000	0.291956
645.000000	0.292060
646.000000	0.292193
647.000000	0.292381
648.000000	0.292475
649.000000	0.292559
650.000000	0.292674
651.000000	0.292884
652.000000	0.293033
653.000000	0.293171
654.000000	0.293353
655.000000	0.293514
656.000000	0.293681
657.000000	0.293837
658.000000	0.294004
659.000000	0.294202
660.000000	0.294417
661.000000	0.294620
662.000000	0.294793
663.000000	0.294995
664.000000	0.295225
665.000000	0.295485
666.000000	0.295740
667.000000	0.295927
668.000000	0.296096
669.000000	0.296289
670.000000	0.296522
671.000000	0.296743
672.000000	0.296981
673.000000	0.297241
674.000000	0.297533
675.000000	0.297758
676.000000	0.297939
677.000000	0.298152
678.000000	0.298403
679.000000	0.298621
680.000000	0.298777
681.000000	0.298921
682.000000	0.299143
683.000000	0.299380
684.000000	0.299638
685.000000	0.299829
686.000000	0.300004
687.000000	0.300209
688.000000	0.300463
689.000000	0.300697
690.000000	0.300916
691.000000	0.301243
692.000000	0.301490
693.000000	0.301692
694.000000	0.301975
695.000000	0.302280
696.000000	0.302560
697.000000	0.302780
698.000000	0.303037
699.000000	0.303316
700.000000	0.303599
701.000000	0.303865
702.000000	0.304168
703.000000	0.304471
704.000000	0.304652
705.000000	0.304893
706.000000	0.305165
707.000000	0.305440
708.000000	0.305686
709.000000	0.305922
710.000000	0.306186
711.000000	0.306466
712.000000	0.306730
713.000000	0.306986
714.000000	0.307228
715.000000	0.307467
716.000000	0.307719
717.000000	0.307968
718.000000	0.308186
719.000000	0.308367
720.000000	0.308554
721.000000	0.308878
722.000000	0.309181
723.000000	0.309442
724.000000	0.309645
725.000000	0.309886
726.000000	0.310179
727.000000	0.310340
728.000000	0.310449
729.000000	0.310589
730.000000	0.310767
731.000000	0.311020
732.000000	0.311247
733.000000	0.311444
734.000000	0.311622
735.000000	0.311753
736.000000	0.311959
737.000000	0.312158
738.000000	0.312289
739.000000	0.312507
740.000000	0.312746
741.000000	0.313004
742.000000	0.313141
743.000000	0.313167
744.000000	0.313348
745.000000	0.313449
746.000000	0.313546
747.000000	0.313696
748.000000	0.313902
749.000000	0.314080
750.000000	0.314165
751.000000	0.314297
752.000000	0.314383
753.000000	0.314465
754.000000	0.314674
755.000000	0.314920
756.000000	0.315103
757.000000	0.315111
758.000000	0.315139
759.000000	0.315268
760.000000	0.315430
761.000000	0.315554
762.000000	0.315726
763.000000	0.315881
764.000000	0.315944
765.000000	0.315976
766.000000	0.315994
767.000000	0.316001
768.000000	0.316016
769.000000	0.316048
770.000000	0.316084
771.000000	0.316068
772.000000	0.316091
773.000000	0.316131
774.000000	0.316245
775.000000	0.316293
776.000000	0.316295
777.000000	0.316265
778.000000	0.316197
779.000000	0.316203
780.000000	0.316278
781.000000	0.316284
782.000000	0.316310
783.000000	0.316402
784.000000	0.316410
785.000000	0.316406
786.000000	0.316369
787.000000	0.316296
788.000000	0.316255
789.000000	0.316230
790.000000	0.316237
791.000000	0.316335
792.000000	0.316241
793.000000	0.316118
794.000000	0.316127
795.000000	0.316142
796.000000	0.316109
797.000000	0.316039
798.000000	0.316015
799.000000	0.315963
800.000000	0.315904
801.000000	0.315891
802.000000	0.315938
803.000000	0.315957
804.000000	0.315935
805.000000	0.315874
806.000000	0.315771
807.000000	0.315701
808.000000	0.315610
809.000000	0.315477
810.000000	0.315381
811.000000	0.315348
812.000000	0.315274
813.000000	0.315200
814.000000	0.315151
815.000000	0.315155
816.000000	0.314999
817.000000	0.314820
818.000000	0.314718
819.000000	0.314719
820.000000	0.314774
821.000000	0.314758
822.000000	0.314588
823.000000	0.314440
824.000000	0.314335
825.000000	0.314337
826.000000	0.314265
827.000000	0.314108
828.000000	0.313951
829.000000	0.313893
830.000000	0.313765
831.000000	0.313623
832.000000	0.313478
833.000000	0.313406
834.000000	0.313343
835.000000	0.313267
836.000000	0.313221
837.000000	0.313119
838.000000	0.312978
839.000000	0.312848
840.000000	0.312781
841.000000	0.312698
842.000000	0.312491
843.000000	0.312292
844.000000	0.312184
845.000000	0.312130
846.000000	0.312042
847.000000	0.312001
848.000000	0.311895
849.000000	0.311665
850.000000	0.311547
851.000000	0.311422
852.000000	0.311290
853.000000	0.311227
854.000000	0.311112
855.000000	0.311030
856.000000	0.310918
857.000000	0.310706
858.000000	0.310510
859.000000	0.310333
860.000000	0.310238
861.000000	0.310166
862.000000	0.310103
863.000000	0.309978
864.000000	0.309924
865.000000	0.309867
866.000000	0.309753
867.000000	0.309493
868.000000	0.309305
869.000000	0.309108
870.000000	0.308838
871.000000	0.308626
872.000000	0.308483
873.000000	0.308351
874.000000	0.308295
875.000000	0.308092
876.000000	0.307838
877.000000	0.307679
878.000000	0.307512
879.000000	0.307304
880.000000	0.307008
881.000000	0.307066
882.000000	0.307136
883.000000	0.307073
884.000000	0.306781
885.000000	0.306572
886.000000	0.306285
887.000000	0.305922
888.000000	0.305798
889.000000	0.305600
890.000000	0.305308
891.000000	0.305200
892.000000	0.304959
893.000000	0.304723
894.000000	0.304648
895.000000	0.304462
896.000000	0.304144
897.000000	0.303872
898.000000	0.303815
899.000000	0.303554
900.000000	0.303298
901.000000	0.303137
902.000000	0.303082
903.000000	0.302994
904.000000	0.302887
905.000000	0.302715
906.000000	0.302570
907.000000	0.302270
908.000000	0.301899
909.000000	0.301651
910.000000	0.301551
911.000000	0.301434
912.000000	0.301210
913.000000	0.301145
914.000000	0.301033
915.000000	0.300852
916.000000	0.300575
917.000000	0.300361
918.000000	0.300229
919.000000	0.300107
920.000000	0.299810
921.000000	0.299645
922.000000	0.299620
923.000000	0.299561
924.000000	0.299523
925.000000	0.299334
926.000000	0.298988
927.000000	0.298677
928.000000	0.298401
929.000000	0.298205
930.000000	0.298090
931.000000	0.297814
932.000000	0.297443
933.000000	0.297101
934.000000	0.296846
935.000000	0.296625
936.000000	0.296380
937.000000	0.296040
938.000000	0.295934
939.000000	0.295948
940.000000	0.295873
941.000000	0.295626
942.000000	0.295254
943.000000	0.294997
944.000000	0.294863
945.000000	0.294846
946.000000	0.294579
947.000000	0.294230
948.000000	0.294017
949.000000	0.293764
950.000000	0.293610
951.000000	0.293512
952.000000	0.293362
953.000000	0.293245
954.000000	0.293180
955.000000	0.293038
956.000000	0.292596
957.000000	0.292366
958.000000	0.292247
959.000000	0.292034
960.000000	0.291865
961.000000	0.291781
962.000000	0.291666
963.000000	0.291307
964.000000	0.291192
965.000000	0.291156
966.000000	0.290923
967.000000	0.290889
968.000000	0.290605
969.000000	0.290188
970.000000	0.290073
971.000000	0.289731
972.000000	0.289524
973.000000	0.289513
974.000000	0.289494
975.000000	0.289169
976.000000	0.288917
977.000000	0.288993
978.000000	0.288895
979.000000	0.288755
980.000000	0.288515
981.000000	0.288486
982.000000	0.288433
983.000000	0.288333
984.000000	0.288247
985.000000	0.288146
986.000000	0.287792
987.000000	0.287695
988.000000	0.287882
989.000000	0.287374
990.000000	0.287270
991.000000	0.287349
992.000000	0.287147
993.000000	0.287179
994.000000	0.287207
995.000000	0.287222
996.000000	0.287052
997.000000	0.287162
998.000000	0.287233
999.000000	0.287164
1000.000000	0.287078
1001.000000	0.287121
1002.000000	0.287002
1003.000000	0.287353
1004.000000	0.287522
1005.000000	0.287678
1006.000000	0.287512
1007.000000	0.287332
1008.000000	0.286885
1009.000000	0.286184
1010.000000	0.286334
1011.000000	0.286322
1012.000000	0.285922
1013.000000	0.285867
1014.000000	0.285742
1015.000000	0.285936
1016.000000	0.286433
1017.000000	0.286219
1018.000000	0.285917
1019.000000	0.286006
1020.000000	0.286131
1021.000000	0.285926
1022.000000	0.286612
1023.000000	0.286885
1024.000000	0.286522
1025.000000	0.285948
1026.000000	0.286285
1027.000000	0.285719
1028.000000	0.285396
1029.000000	0.286255
1030.000000	0.286340
1031.000000	0.286467
1032.000000	0.286934
1033.000000	0.286344
1034.000000	0.286317
1035.000000	0.286440
1036.000000	0.286929
1037.000000	0.288013
1038.000000	0.288451
1039.000000	0.289153
1040.000000	0.289389
1041.000000	0.288784
1042.000000	0.287826
1043.000000	0.287823
1044.000000	0.287593
1045.000000	0.287590
1046.000000	0.288410
1047.000000	0.288796
1048.000000	0.289112
1049.000000	0.289323
1050.000000	0.289473
1051.000000	0.289534
1052.000000	0.289433
1053.000000	0.289403
1054.000000	0.289366
1055.000000	0.289535
1056.000000	0.289800
1057.000000	0.290273
1058.000000	0.290553
1059.000000	0.290967
1060.000000	0.291268
1061.000000	0.291429
1062.000000	0.291849
1063.000000	0.292012
1064.000000	0.292323
1065.000000	0.292744
1066.000000	0.293002
1067.000000	0.293174
1068.000000	0.293354
1069.000000	0.293347
1070.000000	0.293388
1071.000000	0.293415
1072.000000	0.293557
1073.000000	0.293728
1074.000000	0.294236
1075.000000	0.294253
1076.000000	0.294490
1077.000000	0.294699
1078.000000	0.294713
1079.000000	0.295107
1080.000000	0.295976
1081.000000	0.296401
1082.000000	0.296960
1083.000000	0.297301
1084.000000	0.297254
1085.000000	0.297535
1086.000000	0.297936
1087.000000	0.298232
1088.000000	0.298480
1089.000000	0.298848
1090.000000	0.299309
1091.000000	0.299458
1092.000000	0.299823
1093.000000	0.300156
1094.000000	0.300555
1095.000000	0.300953
1096.000000	0.301077
1097.000000	0.301145
1098.000000	0.301310
1099.000000	0.300988
1100.000000	0.301313
1101.000000	0.302321
1102.000000	0.302638
1103.000000	0.302595
1104.000000	0.302964
1105.000000	0.303332
1106.000000	0.303585
1107.000000	0.304064
1108.000000	0.304449
1109.000000	0.304820
1110.000000	0.304765
1111.000000	0.304870
1112.000000	0.305126
1113.000000	0.305210
1114.000000	0.304922
1115.000000	0.305154
1116.000000	0.305667
1117.000000	0.306050
1118.000000	0.306675
1119.000000	0.307007
1120.000000	0.307175
1121.000000	0.307329
1122.000000	0.307345
1123.000000	0.307729
1124.000000	0.308129
1125.000000	0.308401
1126.000000	0.308642
1127.000000	0.308888
1128.000000	0.309080
1129.000000	0.309156
1130.000000	0.309291
1131.000000	0.309533
1132.000000	0.309631
1133.000000	0.309590
1134.000000	0.309754
1135.000000	0.310023
1136.000000	0.310119
1137.000000	0.310115
1138.000000	0.310247
1139.000000	0.310433
1140.000000	0.310667
1141.000000	0.311004
1142.000000	0.311310
1143.000000	0.311530
1144.000000	0.311813
1145.000000	0.312035
1146.000000	0.312132
1147.000000	0.312186
1148.000000	0.312001
1149.000000	0.312021
1150.000000	0.312073
1151.000000	0.312188
1152.000000	0.312361
1153.000000	0.312478
1154.000000	0.312569
1155.000000	0.312623
1156.000000	0.312524
1157.000000	0.312684
1158.000000	0.312985
1159.000000	0.313161
1160.000000	0.313483
1161.000000	0.313630
1162.000000	0.313571
1163.000000	0.313752
1164.000000	0.313802
1165.000000	0.313807
1166.000000	0.313901
1167.000000	0.313996
1168.000000	0.314000
1169.000000	0.314015
1170.000000	0.314107
1171.000000	0.314211
1172.000000	0.314355
1173.000000	0.314634
1174.000000	0.314704
1175.000000	0.314523
1176.000000	0.314522
1177.000000	0.314630
1178.000000	0.314695
1179.000000	0.314861
1180.000000	0.314940
1181.000000	0.314979
1182.000000	0.315069
1183.000000	0.315204
1184.000000	0.315311
1185.000000	0.315415
1186.000000	0.315499
1187.000000	0.315555
1188.000000	0.315619
1189.000000	0.315658
1190.000000	0.315708
1191.000000	0.315719
1192.000000	0.315779
1193.000000	0.315926
1194.000000	0.315932
1195.000000	0.316032
1196.000000	0.316266
1197.000000	0.316335
1198.000000	0.316309
1199.000000	0.316363
1200.000000	0.316393
1201.000000	0.316348
1202.000000	0.316405
1203.000000	0.316528
1204.000000	0.316522
1205.000000	0.316468
1206.000000	0.316427
1207.000000	0.316425
1208.000000	0.316433
1209.000000	0.316579
1210.000000	0.316608
1211.000000	0.316562
1212.000000	0.316593
1213.000000	0.316650
1214.000000	0.316674
1215.000000	0.316747
1216.000000	0.316785
1217.000000	0.316761
1218.000000	0.316703
1219.000000	0.316650
1220.000000	0.316603
1221.000000	0.316548
1222.000000	0.316485
1223.000000	0.316495
1224.000000	0.316600
1225.000000	0.316835
1226.000000	0.317014
1227.000000	0.316998
1228.000000	0.317119
1229.000000	0.317121
1230.000000	0.316894
1231.000000	0.316769
1232.000000	0.316841
1233.000000	0.316878
1234.000000	0.316803
1235.000000	0.316846
1236.000000	0.316903
1237.000000	0.317016
1238.000000	0.317178
1239.000000	0.317248
1240.000000	0.317307
1241.000000	0.317371
1242.000000	0.317215
1243.000000	0.317145
1244.000000	0.317278
1245.000000	0.317168
1246.000000	0.317060
1247.000000	0.317309
1248.000000	0.317552
1249.000000	0.317705
1250.000000	0.317737
1251.000000	0.317656
1252.000000	0.317727
1253.000000	0.317825
1254.000000	0.317794
1255.000000	0.317926
1256.000000	0.317823
1257.000000	0.317285
1258.000000	0.317136
1259.000000	0.317134
1260.000000	0.317093
1261.000000	0.317010
1262.000000	0.317059
1263.000000	0.317207
1264.000000	0.317280
1265.000000	0.317449
1266.000000	0.317570
1267.000000	0.317604
1268.000000	0.317581
1269.000000	0.317413
1270.000000	0.317481
1271.000000	0.317462
1272.000000	0.317374
1273.000000	0.317526
1274.000000	0.317514
1275.000000	0.317525
1276.000000	0.317560
1277.000000	0.317663
1278.000000	0.317685
1279.000000	0.317702
1280.000000	0.317663
1281.000000	0.317619
1282.000000	0.317605
1283.000000	0.317707
1284.000000	0.317820
1285.000000	0.317845
1286.000000	0.317834
1287.000000	0.317807
1288.000000	0.317860
1289.000000	0.317934
1290.000000	0.317970
1291.000000	0.318118
1292.000000	0.318119
1293.000000	0.318136
1294.000000	0.318165
1295.000000	0.318072
1296.000000	0.318118
1297.000000	0.318087
1298.000000	0.318050
1299.000000	0.318106
1300.000000	0.318085
1301.000000	0.318064
1302.000000	0.317978
1303.000000	0.318010
1304.000000	0.317897
1305.000000	0.317748
1306.000000	0.317678
1307.000000	0.317637
1308.000000	0.317606
1309.000000	0.317609
1310.000000	0.317609
1311.000000	0.317567
1312.000000	0.317683
1313.000000	0.317834
1314.000000	0.317782
1315.000000	0.317682
1316.000000	0.317677
1317.000000	0.317573
1318.000000	0.317476
1319.000000	0.317419
1320.000000	0.317309
1321.000000	0.317150
1322.000000	0.317088
1323.000000	0.317012
1324.000000	0.316962
1325.000000	0.317001
1326.000000	0.317108
1327.000000	0.317276
1328.000000	0.317371
1329.000000	0.317314
1330.000000	0.317130
1331.000000	0.316940
1332.000000	0.316693
1333.000000	0.316539
1334.000000	0.316474
1335.000000	0.316414
1336.000000	0.316335
1337.000000	0.316239
1338.000000	0.316056
1339.000000	0.315983
1340.000000	0.315972
1341.000000	0.315855
1342.000000	0.315782
1343.000000	0.315663
1344.000000	0.315441
1345.000000	0.315423
1346.000000	0.315495
1347.000000	0.315338
1348.000000	0.315160
1349.000000	0.314942
1350.000000	0.314853
1351.000000	0.314823
1352.000000	0.314821
1353.000000	0.314900
1354.000000	0.314873
1355.000000	0.314764
1356.000000	0.314916
1357.000000	0.315006
1358.000000	0.314823
1359.000000	0.314614
1360.000000	0.314426
1361.000000	0.314064
1362.000000	0.313889
1363.000000	0.313842
1364.000000	0.313813
1365.000000	0.313836
1366.000000	0.313819
1367.000000	0.313840
1368.000000	0.313791
1369.000000	0.313731
1370.000000	0.313535
1371.000000	0.313128
1372.000000	0.312826
1373.000000	0.312663
1374.000000	0.312397
1375.000000	0.312296
1376.000000	0.312407
1377.000000	0.312264
1378.000000	0.311977
1379.000000	0.311738
1380.000000	0.311404
1381.000000	0.311090
1382.000000	0.310997
1383.000000	0.310826
1384.000000	0.310479
1385.000000	0.310166
1386.000000	0.309895
1387.000000	0.309642
1388.000000	0.309340
1389.000000	0.309019
1390.000000	0.308703
1391.000000	0.308258
1392.000000	0.307884
1393.000000	0.307501
1394.000000	0.307134
1395.000000	0.306724
1396.000000	0.306335
1397.000000	0.305866
1398.000000	0.305281
1399.000000	0.304793
1400.000000	0.304341
1401.000000	0.303739
1402.000000	0.303140
1403.000000	0.302502
1404.000000	0.301863
1405.000000	0.301356
1406.000000	0.300853
1407.000000	0.300304
1408.000000	0.299667
1409.000000	0.299138
1410.000000	0.298688
1411.000000	0.298085
1412.000000	0.297500
1413.000000	0.296891
1414.000000	0.296285
1415.000000	0.295897
1416.000000	0.295489
1417.000000	0.295110
1418.000000	0.294799
1419.000000	0.294483
1420.000000	0.294085
1421.000000	0.293754
1422.000000	0.293420
1423.000000	0.293133
1424.000000	0.292900
1425.000000	0.292604
1426.000000	0.292120
1427.000000	0.291626
1428.000000	0.291086
1429.000000	0.290604
1430.000000	0.290257
1431.000000	0.289923
1432.000000	0.289610
1433.000000	0.289383
1434.000000	0.289134
1435.000000	0.288922
1436.000000	0.288771
1437.000000	0.288650
1438.000000	0.288542
1439.000000	0.288580
1440.000000	0.288593
1441.000000	0.288565
1442.000000	0.288639
1443.000000	0.288739
1444.000000	0.288757
1445.000000	0.288842
1446.000000	0.288946
1447.000000	0.288866
1448.000000	0.288889
1449.000000	0.289067
1450.000000	0.289096
1451.000000	0.289111
1452.000000	0.289146
1453.000000	0.288963
1454.000000	0.288755
1455.000000	0.288736
1456.000000	0.288700
1457.000000	0.288686
1458.000000	0.288768
1459.000000	0.288803
1460.000000	0.288828
1461.000000	0.288791
1462.000000	0.288701
1463.000000	0.288581
1464.000000	0.288464
1465.000000	0.288495
1466.000000	0.288550
1467.000000	0.288566
1468.000000	0.288658
1469.000000	0.288666
1470.000000	0.288583
1471.000000	0.288717
1472.000000	0.288770
1473.000000	0.288941
1474.000000	0.289166
1475.000000	0.289219
1476.000000	0.289311
1477.000000	0.289403
1478.000000	0.289520
1479.000000	0.289737
1480.000000	0.289887
1481.000000	0.289978
1482.000000	0.290023
1483.000000	0.290159
1484.000000	0.290288
1485.000000	0.290467
1486.000000	0.290742
1487.000000	0.290909
1488.000000	0.290986
1489.000000	0.291201
1490.000000	0.291351
1491.000000	0.291556
1492.000000	0.291860
1493.000000	0.292069
1494.000000	0.292192
1495.000000	0.292298
1496.000000	0.292323
1497.000000	0.292445
1498.000000	0.292610
1499.000000	0.292737
1500.000000	0.292927
1501.000000	0.293057
1502.000000	0.293128
1503.000000	0.293270
1504.000000	0.293483
1505.000000	0.293705
1506.000000	0.293952
1507.000000	0.294182
1508.000000	0.294373
1509.000000	0.294563
1510.000000	0.294680
1511.000000	0.294787
1512.000000	0.295000
1513.000000	0.295244
1514.000000	0.295505
1515.000000	0.295708
1516.000000	0.295783
1517.000000	0.295716
1518.000000	0.295654
1519.000000	0.295603
1520.000000	0.295694
1521.000000	0.295817
1522.000000	0.295836
1523.000000	0.295954
1524.000000	0.295974
1525.000000	0.295934
1526.000000	0.296041
1527.000000	0.296087
1528.000000	0.296157
1529.000000	0.296207
1530.000000	0.296009
1531.000000	0.296036
1532.000000	0.296111
1533.000000	0.296047
1534.000000	0.296293
1535.000000	0.296444
1536.000000	0.296337
1537.000000	0.296426
1538.000000	0.296418
1539.000000	0.296349
1540.000000	0.296449
1541.000000	0.296578
1542.000000	0.296677
1543.000000	0.296732
1544.000000	0.296856
1545.000000	0.297039
1546.000000	0.297144
1547.000000	0.297218
1548.000000	0.297175
1549.000000	0.296999
1550.000000	0.296907
1551.000000	0.296964
1552.000000	0.297130
1553.000000	0.297251
1554.000000	0.297266
1555.000000	0.297314
1556.000000	0.297349
1557.000000	0.297311
1558.000000	0.297290
1559.000000	0.297192
1560.000000	0.297211
1561.000000	0.297283
1562.000000	0.297356
1563.000000	0.297618
1564.000000	0.297684
1565.000000	0.297589
1566.000000	0.297569
1567.000000	0.297613
1568.000000	0.297692
1569.000000	0.297944
1570.000000	0.297990
1571.000000	0.297928
1572.000000	0.297884
1573.000000	0.297770
1574.000000	0.297679
1575.000000	0.297585
1576.000000	0.297579
1577.000000	0.297594
1578.000000	0.297604
1579.000000	0.297779
1580.000000	0.297779
1581.000000	0.297700
1582.000000	0.297636
1583.000000	0.297525
1584.000000	0.297452
1585.000000	0.297482
1586.000000	0.297486
1587.000000	0.297467
1588.000000	0.297484
1589.000000	0.297549
1590.000000	0.297532
1591.000000	0.297521
1592.000000	0.297527
1593.000000	0.297536
1594.000000	0.297509
1595.000000	0.297504
1596.000000	0.297490
1597.000000	0.297490
1598.000000	0.297403
1599.000000	0.297328
1600.000000	0.297260
1601.000000	0.297170
1602.000000	0.297123
1603.000000	0.297163
1604.000000	0.297178
1605.000000	0.297229
1606.000000	0.297203
1607.000000	0.297185
1608.000000	0.297225
1609.000000	0.297251
1610.000000	0.297318
1611.000000	0.297563
1612.000000	0.297636
1613.000000	0.297718
1614.000000	0.297753
1615.000000	0.297760
1616.000000	0.297782
1617.000000	0.297718
1618.000000	0.297726
1619.000000	0.297727
1620.000000	0.297742
1621.000000	0.297854
1622.000000	0.297947
1623.000000	0.297996
1624.000000	0.298063
1625.000000	0.297983
1626.000000	0.297944
1627.000000	0.297921
1628.000000	0.298010
1629.000000	0.298196
1630.000000	0.298304
1631.000000	0.298369
1632.000000	0.298409
1633.000000	0.298355
1634.000000	0.298443
1635.000000	0.298646
1636.000000	0.298775
1637.000000	0.298977
1638.000000	0.299073
1639.000000	0.299160
1640.000000	0.299222
1641.000000	0.299269
1642.000000	0.299367
1643.000000	0.299539
1644.000000	0.299642
1645.000000	0.299710
1646.000000	0.299768
1647.000000	0.299841
1648.000000	0.299840
1649.000000	0.299918
1650.000000	0.299982
1651.000000	0.299990
1652.000000	0.300055
1653.000000	0.300110
1654.000000	0.300215
1655.000000	0.300352
1656.000000	0.300259
1657.000000	0.300103
1658.000000	0.300119
1659.000000	0.300186
1660.000000	0.300249
1661.000000	0.300388
1662.000000	0.300478
1663.000000	0.300399
1664.000000	0.300432
1665.000000	0.300620
1666.000000	0.300716
1667.000000	0.300644
1668.000000	0.300729
1669.000000	0.300847
1670.000000	0.300904
1671.000000	0.301101
1672.000000	0.301215
1673.000000	0.301205
1674.000000	0.301363
1675.000000	0.301625
1676.000000	0.301835
1677.000000	0.301931
1678.000000	0.301964
1679.000000	0.301954
1680.000000	0.301979
1681.000000	0.302097
1682.000000	0.302102
1683.000000	0.302028
1684.000000	0.301950
1685.000000	0.301871
1686.000000	0.301819
1687.000000	0.301825
1688.000000	0.301687
1689.000000	0.301557
1690.000000	0.301620
1691.000000	0.301791
1692.000000	0.302094
1693.000000	0.302359
1694.000000	0.302317
1695.000000	0.302373
1696.000000	0.302439
1697.000000	0.302393
1698.000000	0.302414
1699.000000	0.302426
1700.000000	0.302283
1701.000000	0.302313
1702.000000	0.302356
1703.000000	0.302259
1704.000000	0.302146
1705.000000	0.302101
1706.000000	0.302056
1707.000000	0.302064
1708.000000	0.302165
1709.000000	0.302184
1710.000000	0.302290
1711.000000	0.302335
1712.000000	0.302416
1713.000000	0.302350
1714.000000	0.302079
1715.000000	0.302055
1716.000000	0.302118
1717.000000	0.302137
1718.000000	0.302315
1719.000000	0.302333
1720.000000	0.302259
1721.000000	0.302179
1722.000000	0.302026
1723.000000	0.301973
1724.000000	0.301920
1725.000000	0.301969
1726.000000	0.302077
1727.000000	0.302155
1728.000000	0.302179
1729.000000	0.302196
1730.000000	0.302312
1731.000000	0.302472
1732.000000	0.302730
1733.000000	0.302911
1734.000000	0.302974
1735.000000	0.303064
1736.000000	0.303041
1737.000000	0.303082
1738.000000	0.303186
1739.000000	0.303288
1740.000000	0.303417
1741.000000	0.303384
1742.000000	0.303326
1743.000000	0.303263
1744.000000	0.302991
1745.000000	0.303012
1746.000000	0.303178
1747.000000	0.303442
1748.000000	0.303457
1749.000000	0.303200
1750.000000	0.303049
1751.000000	0.302930
1752.000000	0.302924
1753.000000	0.302867
1754.000000	0.302936
1755.000000	0.303185
1756.000000	0.303184
1757.000000	0.303057
1758.000000	0.303094
1759.000000	0.302992
1760.000000	0.302971
1761.000000	0.303143
1762.000000	0.303250
1763.000000	0.303314
1764.000000	0.303369
1765.000000	0.303506
1766.000000	0.303483
1767.000000	0.303111
1768.000000	0.303023
1769.000000	0.303183
1770.000000	0.303176
1771.000000	0.303202
1772.000000	0.303179
1773.000000	0.302860
1774.000000	0.302811
1775.000000	0.303000
1776.000000	0.303139
1777.000000	0.303333
1778.000000	0.303406
1779.000000	0.303440
1780.000000	0.303508
1781.000000	0.303509
1782.000000	0.303457
1783.000000	0.303447
1784.000000	0.303445
1785.000000	0.303380
1786.000000	0.303322
1787.000000	0.303385
1788.000000	0.303534
1789.000000	0.303492
1790.000000	0.303376
1791.000000	0.303297
1792.000000	0.303097
1793.000000	0.303017
1794.000000	0.303188
1795.000000	0.303299
1796.000000	0.303348
1797.000000	0.303410
1798.000000	0.303484
1799.000000	0.303552
1800.000000	0.303655
1801.000000	0.303242
1802.000000	0.303505
1803.000000	0.303944
1804.000000	0.304118
1805.000000	0.303500
1806.000000	0.303396
1807.000000	0.303891
1808.000000	0.303846
1809.000000	0.303162
1810.000000	0.302979
1811.000000	0.303039
1812.000000	0.303141
1813.000000	0.303230
1814.000000	0.303898
1815.000000	0.304086
1816.000000	0.303900
1817.000000	0.303690
1818.000000	0.303129
1819.000000	0.303284
1820.000000	0.303371
1821.000000	0.304096
1822.000000	0.304229
1823.000000	0.304440
1824.000000	0.304290
1825.000000	0.303385
1826.000000	0.303113
1827.000000	0.302891
1828.000000	0.303055
1829.000000	0.303078
1830.000000	0.302374
1831.000000	0.302224
1832.000000	0.302050
1833.000000	0.302025
1834.000000	0.302287
1835.000000	0.302568
1836.000000	0.303076
1837.000000	0.303010
1838.000000	0.302640
1839.000000	0.302178
1840.000000	0.301646
1841.000000	0.301430
1842.000000	0.301317
1843.000000	0.302039
1844.000000	0.302005
1845.000000	0.301122
1846.000000	0.300862
1847.000000	0.300655
1848.000000	0.300144
1849.000000	0.300200
1850.000000	0.300790
1851.000000	0.300435
1852.000000	0.299180
1853.000000	0.298958
1854.000000	0.298552
1855.000000	0.298155
1856.000000	0.298062
1857.000000	0.298467
1858.000000	0.297860
1859.000000	0.297738
1860.000000	0.297749
1861.000000	0.297915
1862.000000	0.297967
1863.000000	0.297947
1864.000000	0.297937
1865.000000	0.298281
1866.000000	0.297933
1867.000000	0.297095
1868.000000	0.296777
1869.000000	0.295420
1870.000000	0.294331
1871.000000	0.293417
1872.000000	0.292070
1873.000000	0.291177
1874.000000	0.290740
1875.000000	0.289749
1876.000000	0.288562
1877.000000	0.286896
1878.000000	0.285092
1879.000000	0.283727
1880.000000	0.282836
1881.000000	0.282239
1882.000000	0.281190
1883.000000	0.279558
1884.000000	0.278120
1885.000000	0.275930
1886.000000	0.274468
1887.000000	0.273617
1888.000000	0.272286
1889.000000	0.270668
1890.000000	0.268350
1891.000000	0.265262
1892.000000	0.262390
1893.000000	0.260165
1894.000000	0.258408
1895.000000	0.256274
1896.000000	0.254494
1897.000000	0.252613
1898.000000	0.250142
1899.000000	0.248008
1900.000000	0.246452
1901.000000	0.244619
1902.000000	0.242740
1903.000000	0.240799
1904.000000	0.238335
1905.000000	0.235814
1906.000000	0.233791
1907.000000	0.232059
1908.000000	0.230303
1909.000000	0.229370
1910.000000	0.228618
1911.000000	0.227288
1912.000000	0.226310
1913.000000	0.225289
1914.000000	0.224535
1915.000000	0.223753
1916.000000	0.222791
1917.000000	0.222118
1918.000000	0.221588
1919.000000	0.221155
1920.000000	0.220438
1921.000000	0.219679
1922.000000	0.218970
1923.000000	0.217936
1924.000000	0.217754
1925.000000	0.218041
1926.000000	0.217834
1927.000000	0.217809
1928.000000	0.217841
1929.000000	0.217994
1930.000000	0.217824
1931.000000	0.217640
1932.000000	0.217590
1933.000000	0.216601
1934.000000	0.216136
1935.000000	0.216636
1936.000000	0.217043
1937.000000	0.217654
1938.000000	0.217964
1939.000000	0.218310
1940.000000	0.218520
1941.000000	0.218215
1942.000000	0.218427
1943.000000	0.219282
1944.000000	0.218946
1945.000000	0.219004
1946.000000	0.218984
1947.000000	0.218470
1948.000000	0.218484
1949.000000	0.218564
1950.000000	0.218737
1951.000000	0.218664
1952.000000	0.218553
1953.000000	0.218381
1954.000000	0.217765
1955.000000	0.216917
1956.000000	0.216703
1957.000000	0.216643
1958.000000	0.216894
1959.000000	0.217538
1960.000000	0.217701
1961.000000	0.217236
1962.000000	0.217018
1963.000000	0.216817
1964.000000	0.216642
1965.000000	0.216223
1966.000000	0.215925
1967.000000	0.215492
1968.000000	0.215121
1969.000000	0.215032
1970.000000	0.215737
1971.000000	0.216684
1972.000000	0.217450
1973.000000	0.217757
1974.000000	0.217754
1975.000000	0.217803
1976.000000	0.217691
1977.000000	0.217230
1978.000000	0.216808
1979.000000	0.217338
1980.000000	0.217831
1981.000000	0.218622
1982.000000	0.219644
1983.000000	0.220080
1984.000000	0.220468
1985.000000	0.220444
1986.000000	0.220573
1987.000000	0.220690
1988.000000	0.221129
1989.000000	0.221405
1990.000000	0.221670
1991.000000	0.221661
1992.000000	0.221979
1993.000000	0.222646
1994.000000	0.222987
1995.000000	0.223784
1996.000000	0.224089
1997.000000	0.224175
1998.000000	0.223599
1999.000000	0.223726
2000.000000	0.223858
2001.000000	0.224212
2002.000000	0.225217
2003.000000	0.226887
2004.000000	0.227907
2005.000000	0.228851
2006.000000	0.229921
2007.000000	0.229786
2008.000000	0.230108
2009.000000	0.230541
2010.000000	0.231022
2011.000000	0.231307
2012.000000	0.231820
2013.000000	0.232433
2014.000000	0.232809
2015.000000	0.233909
2016.000000	0.234568
2017.000000	0.235048
2018.000000	0.235953
2019.000000	0.236277
2020.000000	0.236867
2021.000000	0.237403
2022.000000	0.237919
2023.000000	0.238456
2024.000000	0.238858
2025.000000	0.239555
2026.000000	0.240361
2027.000000	0.241473
2028.000000	0.242014
2029.000000	0.242385
2030.000000	0.242682
2031.000000	0.242297
2032.000000	0.242115
2033.000000	0.242331
2034.000000	0.242816
2035.000000	0.243695
2036.000000	0.244311
2037.000000	0.245683
2038.000000	0.246266
2039.000000	0.246285
2040.000000	0.246407
2041.000000	0.246570
2042.000000	0.246857
2043.000000	0.247599
2044.000000	0.248525
2045.000000	0.249160
2046.000000	0.249324
2047.000000	0.249897
2048.000000	0.250578
2049.000000	0.251014
2050.000000	0.251292
2051.000000	0.251471
2052.000000	0.250940
2053.000000	0.250805
2054.000000	0.251010
2055.000000	0.251467
2056.000000	0.252053
2057.000000	0.252721
2058.000000	0.253112
2059.000000	0.253810
2060.000000	0.254066
2061.000000	0.253845
2062.000000	0.254139
2063.000000	0.254454
2064.000000	0.254706
2065.000000	0.255618
2066.000000	0.255838
2067.000000	0.255690
2068.000000	0.256126
2069.000000	0.256319
2070.000000	0.256395
2071.000000	0.256701
2072.000000	0.256925
2073.000000	0.256976
2074.000000	0.257848
2075.000000	0.258346
2076.000000	0.258954
2077.000000	0.259232
2078.000000	0.258958
2079.000000	0.259219
2080.000000	0.259950
2081.000000	0.260314
2082.000000	0.260875
2083.000000	0.261330
2084.000000	0.260619
2085.000000	0.260405
2086.000000	0.260876
2087.000000	0.261061
2088.000000	0.262349
2089.000000	0.263424
2090.000000	0.263964
2091.000000	0.264194
2092.000000	0.264583
2093.000000	0.264651
2094.000000	0.264781
2095.000000	0.265057
2096.000000	0.265209
2097.000000	0.265226
2098.000000	0.264822
2099.000000	0.264922
2100.000000	0.265338
2101.000000	0.265980
2102.000000	0.266951
2103.000000	0.267415
2104.000000	0.267497
2105.000000	0.267830
2106.000000	0.267680
2107.000000	0.268247
2108.000000	0.269796
2109.000000	0.270496
2110.000000	0.270964
2111.000000	0.271232
2112.000000	0.271222
2113.000000	0.270094
2114.000000	0.269983
2115.000000	0.269767
2116.000000	0.269571
2117.000000	0.269685
2118.000000	0.269197
2119.000000	0.269159
2120.000000	0.268970
2121.000000	0.268425
2122.000000	0.268533
2123.000000	0.268907
2124.000000	0.269344
2125.000000	0.270099
2126.000000	0.270947
2127.000000	0.272609
2128.000000	0.273354
2129.000000	0.273650
2130.000000	0.274025
2131.000000	0.273721
2132.000000	0.272896
2133.000000	0.272583
2134.000000	0.272502
2135.000000	0.272411
2136.000000	0.272375
2137.000000	0.272451
2138.000000	0.272773
2139.000000	0.272985
2140.000000	0.272999
2141.000000	0.273476
2142.000000	0.274692
2143.000000	0.274882
2144.000000	0.275214
2145.000000	0.275117
2146.000000	0.274149
2147.000000	0.273301
2148.000000	0.273358
2149.000000	0.273466
2150.000000	0.273976
2151.000000	0.274999
2152.000000	0.275035
2153.000000	0.274831
2154.000000	0.274676
2155.000000	0.273860
2156.000000	0.273765
2157.000000	0.274496
2158.000000	0.274453
2159.000000	0.274670
2160.000000	0.274422
2161.000000	0.272868
2162.000000	0.272512
2163.000000	0.272445
2164.000000	0.272217
2165.000000	0.272772
2166.000000	0.272804
2167.000000	0.271839
2168.000000	0.272149
2169.000000	0.273168
2170.000000	0.273817
2171.000000	0.274206
2172.000000	0.275092
2173.000000	0.275269
2174.000000	0.274619
2175.000000	0.274284
2176.000000	0.273892
2177.000000	0.273647
2178.000000	0.272783
2179.000000	0.272869
2180.000000	0.273902
2181.000000	0.274806
2182.000000	0.275599
2183.000000	0.276837
2184.000000	0.277312
2185.000000	0.275656
2186.000000	0.272909
2187.000000	0.270746
2188.000000	0.270079
2189.000000	0.271068
2190.000000	0.272293
2191.000000	0.274141
2192.000000	0.274520
2193.000000	0.272786
2194.000000	0.272668
2195.000000	0.272957
2196.000000	0.273071
2197.000000	0.274151
2198.000000	0.273871
2199.000000	0.271660
2200.000000	0.271202
2201.000000	0.271142
2202.000000	0.271337
2203.000000	0.272912
2204.000000	0.274236
2205.000000	0.273894
2206.000000	0.274425
2207.000000	0.273320
2208.000000	0.274491
2209.000000	0.273961
2210.000000	0.272529
2211.000000	0.273246
2212.000000	0.272230
2213.000000	0.272988
2214.000000	0.276301
2215.000000	0.277223
2216.000000	0.277867
2217.000000	0.278364
2218.000000	0.276772
2219.000000	0.276776
2220.000000	0.278336
2221.000000	0.277874
2222.000000	0.276833
2223.000000	0.276850
2224.000000	0.275556
2225.000000	0.275757
2226.000000	0.278503
2227.000000	0.279386
2228.000000	0.281043
2229.000000	0.278757
2230.000000	0.274539
2231.000000	0.273844
2232.000000	0.272325
2233.000000	0.272531
2234.000000	0.274172
2235.000000	0.275367
2236.000000	0.275427
2237.000000	0.274665
2238.000000	0.273858
2239.000000	0.271348
2240.000000	0.270542
2241.000000	0.271631
2242.000000	0.271084
2243.000000	0.269621
2244.000000	0.269375
2245.000000	0.268089
2246.000000	0.268261
2247.000000	0.270349
2248.000000	0.272258
2249.000000	0.275265
2250.000000	0.276726
2251.000000	0.278703
2252.000000	0.280565
2253.000000	0.281415
2254.000000	0.280931
2255.000000	0.278014
2256.000000	0.275467
2257.000000	0.274516
2258.000000	0.274855
2259.000000	0.276510
2260.000000	0.277974
2261.000000	0.277998
2262.000000	0.276864
2263.000000	0.275601
2264.000000	0.272771
2265.000000	0.272285
2266.000000	0.272872
2267.000000	0.271468
2268.000000	0.270070
2269.000000	0.269557
2270.000000	0.267441
2271.000000	0.266894
2272.000000	0.269783
2273.000000	0.269671
2274.000000	0.266763
2275.000000	0.266357
2276.000000	0.266429
2277.000000	0.266344
2278.000000	0.265946
2279.000000	0.266838
2280.000000	0.265526
2281.000000	0.263212
2282.000000	0.264895
2283.000000	0.265836
2284.000000	0.266750
2285.000000	0.267690
2286.000000	0.265812
2287.000000	0.263148
2288.000000	0.260441
2289.000000	0.257839
2290.000000	0.255956
2291.000000	0.257608
2292.000000	0.260363
2293.000000	0.261791
2294.000000	0.262394
2295.000000	0.262350
2296.000000	0.261228
2297.000000	0.258168
2298.000000	0.257606
2299.000000	0.257649
2300.000000	0.257984
2301.000000	0.258559
2302.000000	0.259850
2303.000000	0.263579
2304.000000	0.264604
2305.000000	0.265858
2306.000000	0.265483
2307.000000	0.263193
2308.000000	0.257784
2309.000000	0.254823
2310.000000	0.252413
2311.000000	0.251240
2312.000000	0.253085
2313.000000	0.256576
2314.000000	0.259222
2315.000000	0.260864
2316.000000	0.260638
2317.000000	0.256993
2318.000000	0.255740
2319.000000	0.254510
2320.000000	0.252270
2321.000000	0.253054
2322.000000	0.252614
2323.000000	0.253101
2324.000000	0.255005
2325.000000	0.255939
2326.000000	0.257156
2327.000000	0.256663
2328.000000	0.256648
2329.000000	0.255263
2330.000000	0.252323
2331.000000	0.249789
2332.000000	0.246643
2333.000000	0.246357
2334.000000	0.247040
2335.000000	0.248558
2336.000000	0.252504
2337.000000	0.253724
2338.000000	0.254607
2339.000000	0.255768
2340.000000	0.255292
2341.000000	0.255478
2342.000000	0.256534
2343.000000	0.255800
2344.000000	0.254731
2345.000000	0.253367
2346.000000	0.250465
2347.000000	0.248776
2348.000000	0.247627
2349.000000	0.244103
2350.000000	0.243685
2351.000000	0.241977
2352.000000	0.240313
2353.000000	0.243904
2354.000000	0.246506
2355.000000	0.248015
2356.000000	0.248224
2357.000000	0.244676
2358.000000	0.238980
2359.000000	0.237000
2360.000000	0.236318
2361.000000	0.237481
2362.000000	0.241039
2363.000000	0.243582
2364.000000	0.247039
2365.000000	0.245770
2366.000000	0.242732
2367.000000	0.242473
2368.000000	0.238746
2369.000000	0.237804
2370.000000	0.239923
2371.000000	0.238053
2372.000000	0.236213
2373.000000	0.233427
2374.000000	0.230607
2375.000000	0.227474
2376.000000	0.224734
2377.000000	0.224446
2378.000000	0.225508
2379.000000	0.228191
2380.000000	0.226334
2381.000000	0.226892
2382.000000	0.225358
2383.000000	0.218760
2384.000000	0.222940
2385.000000	0.227955
2386.000000	0.227195
2387.000000	0.231260
2388.000000	0.229226
2389.000000	0.217911
2390.000000	0.214882
2391.000000	0.211803
2392.000000	0.210420
2393.000000	0.214676
2394.000000	0.212074
2395.000000	0.214035
2396.000000	0.216769
2397.000000	0.216957
2398.000000	0.222852
2399.000000	0.221827
2400.000000	0.216331
2401.000000	0.215641
2402.000000	0.212243
2403.000000	0.208294
2404.000000	0.205724
2405.000000	0.199869
2406.000000	0.196472
2407.000000	0.198085
2408.000000	0.200279
2409.000000	0.201258
2410.000000	0.202693
2411.000000	0.205894
2412.000000	0.209687
2413.000000	0.220346
2414.000000	0.232059
2415.000000	0.227589
2416.000000	0.222520
2417.000000	0.218324
2418.000000	0.209625
2419.000000	0.214361
2420.000000	0.222332
2421.000000	0.222889
2422.000000	0.228730
2423.000000	0.224952
2424.000000	0.214934
2425.000000	0.220783
2426.000000	0.222967
2427.000000	0.236745
2428.000000	0.248025
2429.000000	0.239521
2430.000000	0.234352
2431.000000	0.217701
2432.000000	0.208863
2433.000000	0.209108
2434.000000	0.215265
2435.000000	0.229346
2436.000000	0.231599
2437.000000	0.237819
2438.000000	0.228257
2439.000000	0.204795
2440.000000	0.197439
2441.000000	0.191629
2442.000000	0.199474
2443.000000	0.216000
2444.000000	0.219185
2445.000000	0.226409
2446.000000	0.228098
2447.000000	0.220995
2448.000000	0.225583
2449.000000	0.232055
2450.000000	0.226862
2451.000000	0.220380
2452.000000	0.216968
2453.000000	0.210901
2454.000000	0.208448
2455.000000	0.213041
2456.000000	0.216987
2457.000000	0.211543
2458.000000	0.203010
2459.000000	0.201671
2460.000000	0.211394
2461.000000	0.223245
2462.000000	0.236576
2463.000000	0.239216
2464.000000	0.226392
2465.000000	0.211437
2466.000000	0.200791
2467.000000	0.209070
2468.000000	0.222574
2469.000000	0.227529
2470.000000	0.238747
2471.000000	0.248948
2472.000000	0.226612
2473.000000	0.205763
2474.000000	0.205553
2475.000000	0.190641
2476.000000	0.184078
2477.000000	0.208004
2478.000000	0.219012
2479.000000	0.218525
2480.000000	0.246984
2481.000000	0.251573
2482.000000	0.231033
2483.000000	0.196521
2484.000000	0.131601
2485.000000	0.126512
2486.000000	0.149077
2487.000000	0.190015
2488.000000	0.308567
2489.000000	0.347415
2490.000000	0.302224
2491.000000	0.281091
2492.000000	0.268258
2493.000000	0.308563
2494.000000	0.334106
2495.000000	0.347957
2496.000000	0.323622
2497.000000	0.242594
2498.000000	0.205624
2499.000000	0.194564
2500.000000	0.168209
