# Wavelength	NAu-2-20_HEX-70_FV7-10_00002.asd.rts.txt
350.000000	0.200244
351.000000	0.223340
352.000000	0.226121
353.000000	0.226430
354.000000	0.231399
355.000000	0.211126
356.000000	0.204129
357.000000	0.212996
358.000000	0.211274
359.000000	0.205920
360.000000	0.205706
361.000000	0.215647
362.000000	0.213019
363.000000	0.208948
364.000000	0.210915
365.000000	0.213147
366.000000	0.212695
367.000000	0.210456
368.000000	0.211377
369.000000	0.215233
370.000000	0.215840
371.000000	0.207774
372.000000	0.205791
373.000000	0.208541
374.000000	0.212538
375.000000	0.212612
376.000000	0.211896
377.000000	0.211171
378.000000	0.209117
379.000000	0.211176
380.000000	0.213781
381.000000	0.212304
382.000000	0.213138
383.000000	0.213801
384.000000	0.212967
385.000000	0.214596
386.000000	0.215950
387.000000	0.215861
388.000000	0.214136
389.000000	0.213821
390.000000	0.214642
391.000000	0.214874
392.000000	0.214316
393.000000	0.214620
394.000000	0.216345
395.000000	0.215683
396.000000	0.215927
397.000000	0.217510
398.000000	0.217196
399.000000	0.216343
400.000000	0.215635
401.000000	0.215516
402.000000	0.217147
403.000000	0.218357
404.000000	0.217668
405.000000	0.217883
406.000000	0.218653
407.000000	0.219506
408.000000	0.219810
409.000000	0.220102
410.000000	0.220322
411.000000	0.220063
412.000000	0.220013
413.000000	0.220208
414.000000	0.220556
415.000000	0.221134
416.000000	0.221648
417.000000	0.221954
418.000000	0.222236
419.000000	0.222447
420.000000	0.222761
421.000000	0.223567
422.000000	0.224334
423.000000	0.224691
424.000000	0.224537
425.000000	0.224855
426.000000	0.225425
427.000000	0.225952
428.000000	0.226592
429.000000	0.226799
430.000000	0.226664
431.000000	0.227151
432.000000	0.227465
433.000000	0.227566
434.000000	0.227850
435.000000	0.228717
436.000000	0.229307
437.000000	0.228970
438.000000	0.229210
439.000000	0.229788
440.000000	0.230366
441.000000	0.230191
442.000000	0.230099
443.000000	0.230349
444.000000	0.231005
445.000000	0.231665
446.000000	0.232163
447.000000	0.232326
448.000000	0.232699
449.000000	0.233366
450.000000	0.234237
451.000000	0.234989
452.000000	0.235002
453.000000	0.234639
454.000000	0.235739
455.000000	0.236383
456.000000	0.236535
457.000000	0.236740
458.000000	0.237292
459.000000	0.237806
460.000000	0.237996
461.000000	0.238248
462.000000	0.238731
463.000000	0.239239
464.000000	0.239359
465.000000	0.239665
466.000000	0.240180
467.000000	0.240716
468.000000	0.241218
469.000000	0.241537
470.000000	0.241758
471.000000	0.242354
472.000000	0.242845
473.000000	0.242998
474.000000	0.243329
475.000000	0.243728
476.000000	0.244147
477.000000	0.244196
478.000000	0.244460
479.000000	0.245002
480.000000	0.245349
481.000000	0.245646
482.000000	0.245992
483.000000	0.246285
484.000000	0.246846
485.000000	0.247293
486.000000	0.247592
487.000000	0.247752
488.000000	0.247930
489.000000	0.248176
490.000000	0.248444
491.000000	0.248510
492.000000	0.248718
493.000000	0.249291
494.000000	0.249483
495.000000	0.249505
496.000000	0.249559
497.000000	0.249707
498.000000	0.249867
499.000000	0.250066
500.000000	0.250285
501.000000	0.250424
502.000000	0.250587
503.000000	0.250875
504.000000	0.251051
505.000000	0.251269
506.000000	0.251664
507.000000	0.251861
508.000000	0.252142
509.000000	0.252589
510.000000	0.252975
511.000000	0.253302
512.000000	0.253647
513.000000	0.254110
514.000000	0.254593
515.000000	0.255083
516.000000	0.255529
517.000000	0.255948
518.000000	0.256334
519.000000	0.256657
520.000000	0.257211
521.000000	0.257770
522.000000	0.258253
523.000000	0.258755
524.000000	0.259410
525.000000	0.260159
526.000000	0.260881
527.000000	0.261767
528.000000	0.262709
529.000000	0.263638
530.000000	0.264740
531.000000	0.266024
532.000000	0.267350
533.000000	0.268592
534.000000	0.269861
535.000000	0.271156
536.000000	0.272400
537.000000	0.273616
538.000000	0.274824
539.000000	0.276031
540.000000	0.277150
541.000000	0.278197
542.000000	0.279234
543.000000	0.280238
544.000000	0.281291
545.000000	0.282324
546.000000	0.283203
547.000000	0.284264
548.000000	0.285506
549.000000	0.286598
550.000000	0.287725
551.000000	0.288979
552.000000	0.290355
553.000000	0.291797
554.000000	0.293293
555.000000	0.294851
556.000000	0.296497
557.000000	0.298122
558.000000	0.299828
559.000000	0.301603
560.000000	0.303348
561.000000	0.305123
562.000000	0.306893
563.000000	0.308531
564.000000	0.310098
565.000000	0.311571
566.000000	0.313051
567.000000	0.314442
568.000000	0.315681
569.000000	0.316879
570.000000	0.318025
571.000000	0.319071
572.000000	0.319958
573.000000	0.320763
574.000000	0.321486
575.000000	0.322164
576.000000	0.322762
577.000000	0.323282
578.000000	0.323783
579.000000	0.324142
580.000000	0.324445
581.000000	0.324713
582.000000	0.324865
583.000000	0.324992
584.000000	0.325084
585.000000	0.325082
586.000000	0.325108
587.000000	0.325098
588.000000	0.324974
589.000000	0.324823
590.000000	0.324699
591.000000	0.324584
592.000000	0.324288
593.000000	0.323997
594.000000	0.323727
595.000000	0.323330
596.000000	0.322960
597.000000	0.322616
598.000000	0.322142
599.000000	0.321711
600.000000	0.321245
601.000000	0.320618
602.000000	0.320143
603.000000	0.319635
604.000000	0.319026
605.000000	0.318413
606.000000	0.317941
607.000000	0.317516
608.000000	0.316867
609.000000	0.316295
610.000000	0.315816
611.000000	0.315364
612.000000	0.314877
613.000000	0.314397
614.000000	0.313968
615.000000	0.313450
616.000000	0.312913
617.000000	0.312417
618.000000	0.312141
619.000000	0.311800
620.000000	0.311368
621.000000	0.310976
622.000000	0.310575
623.000000	0.310158
624.000000	0.309750
625.000000	0.309475
626.000000	0.309246
627.000000	0.309012
628.000000	0.308758
629.000000	0.308600
630.000000	0.308422
631.000000	0.308273
632.000000	0.308100
633.000000	0.307896
634.000000	0.307665
635.000000	0.307483
636.000000	0.307365
637.000000	0.307288
638.000000	0.307247
639.000000	0.307221
640.000000	0.307229
641.000000	0.307144
642.000000	0.307121
643.000000	0.307171
644.000000	0.307258
645.000000	0.307305
646.000000	0.307383
647.000000	0.307526
648.000000	0.307742
649.000000	0.307970
650.000000	0.308185
651.000000	0.308482
652.000000	0.308784
653.000000	0.309076
654.000000	0.309294
655.000000	0.309598
656.000000	0.309992
657.000000	0.310392
658.000000	0.310841
659.000000	0.311319
660.000000	0.311789
661.000000	0.312222
662.000000	0.312695
663.000000	0.313246
664.000000	0.313787
665.000000	0.314388
666.000000	0.315015
667.000000	0.315605
668.000000	0.316310
669.000000	0.317023
670.000000	0.317697
671.000000	0.318436
672.000000	0.319263
673.000000	0.320143
674.000000	0.321005
675.000000	0.321882
676.000000	0.322759
677.000000	0.323650
678.000000	0.324670
679.000000	0.325704
680.000000	0.326675
681.000000	0.327613
682.000000	0.328703
683.000000	0.329882
684.000000	0.331075
685.000000	0.332254
686.000000	0.333450
687.000000	0.334664
688.000000	0.335919
689.000000	0.337192
690.000000	0.338517
691.000000	0.339945
692.000000	0.341356
693.000000	0.342807
694.000000	0.344368
695.000000	0.345853
696.000000	0.347308
697.000000	0.348870
698.000000	0.350443
699.000000	0.352079
700.000000	0.353795
701.000000	0.355379
702.000000	0.357027
703.000000	0.358768
704.000000	0.360460
705.000000	0.362176
706.000000	0.363914
707.000000	0.365753
708.000000	0.367599
709.000000	0.369413
710.000000	0.371221
711.000000	0.373142
712.000000	0.375079
713.000000	0.376997
714.000000	0.378881
715.000000	0.380826
716.000000	0.382774
717.000000	0.384580
718.000000	0.386482
719.000000	0.388444
720.000000	0.390402
721.000000	0.392267
722.000000	0.394157
723.000000	0.396142
724.000000	0.397981
725.000000	0.399859
726.000000	0.401849
727.000000	0.403759
728.000000	0.405638
729.000000	0.407511
730.000000	0.409335
731.000000	0.411203
732.000000	0.413062
733.000000	0.414943
734.000000	0.416836
735.000000	0.418538
736.000000	0.420256
737.000000	0.421994
738.000000	0.423580
739.000000	0.425229
740.000000	0.426864
741.000000	0.428473
742.000000	0.430076
743.000000	0.431637
744.000000	0.433189
745.000000	0.434613
746.000000	0.436033
747.000000	0.437490
748.000000	0.438886
749.000000	0.440198
750.000000	0.441417
751.000000	0.442754
752.000000	0.444032
753.000000	0.445217
754.000000	0.446352
755.000000	0.447581
756.000000	0.448807
757.000000	0.449841
758.000000	0.450923
759.000000	0.452021
760.000000	0.452996
761.000000	0.453933
762.000000	0.454851
763.000000	0.455701
764.000000	0.456512
765.000000	0.457343
766.000000	0.458110
767.000000	0.458744
768.000000	0.459409
769.000000	0.460081
770.000000	0.460749
771.000000	0.461418
772.000000	0.462111
773.000000	0.462720
774.000000	0.463291
775.000000	0.463797
776.000000	0.464314
777.000000	0.464860
778.000000	0.465388
779.000000	0.465802
780.000000	0.466154
781.000000	0.466599
782.000000	0.466958
783.000000	0.467316
784.000000	0.467563
785.000000	0.467871
786.000000	0.468161
787.000000	0.468380
788.000000	0.468569
789.000000	0.468828
790.000000	0.469107
791.000000	0.469351
792.000000	0.469637
793.000000	0.469887
794.000000	0.470066
795.000000	0.470333
796.000000	0.470464
797.000000	0.470451
798.000000	0.470534
799.000000	0.470601
800.000000	0.470712
801.000000	0.470953
802.000000	0.471204
803.000000	0.471380
804.000000	0.471494
805.000000	0.471518
806.000000	0.471533
807.000000	0.471633
808.000000	0.471677
809.000000	0.471595
810.000000	0.471467
811.000000	0.471357
812.000000	0.471298
813.000000	0.471313
814.000000	0.471368
815.000000	0.471411
816.000000	0.471349
817.000000	0.471285
818.000000	0.471212
819.000000	0.471168
820.000000	0.471110
821.000000	0.470997
822.000000	0.471039
823.000000	0.471049
824.000000	0.470905
825.000000	0.470722
826.000000	0.470575
827.000000	0.470488
828.000000	0.470500
829.000000	0.470475
830.000000	0.470352
831.000000	0.470245
832.000000	0.470107
833.000000	0.469899
834.000000	0.469709
835.000000	0.469616
836.000000	0.469405
837.000000	0.469129
838.000000	0.468930
839.000000	0.468946
840.000000	0.468878
841.000000	0.468769
842.000000	0.468639
843.000000	0.468445
844.000000	0.468261
845.000000	0.468091
846.000000	0.467975
847.000000	0.467857
848.000000	0.467676
849.000000	0.467439
850.000000	0.467128
851.000000	0.466875
852.000000	0.466776
853.000000	0.466701
854.000000	0.466570
855.000000	0.466535
856.000000	0.466487
857.000000	0.466210
858.000000	0.465988
859.000000	0.465824
860.000000	0.465586
861.000000	0.465303
862.000000	0.465081
863.000000	0.464912
864.000000	0.464736
865.000000	0.464462
866.000000	0.464148
867.000000	0.464019
868.000000	0.463796
869.000000	0.463416
870.000000	0.463096
871.000000	0.462876
872.000000	0.462597
873.000000	0.462164
874.000000	0.461983
875.000000	0.461798
876.000000	0.461566
877.000000	0.461235
878.000000	0.460911
879.000000	0.460729
880.000000	0.460508
881.000000	0.460190
882.000000	0.460034
883.000000	0.459956
884.000000	0.459659
885.000000	0.459401
886.000000	0.459187
887.000000	0.458999
888.000000	0.458674
889.000000	0.458373
890.000000	0.457968
891.000000	0.457597
892.000000	0.457364
893.000000	0.457140
894.000000	0.456974
895.000000	0.456638
896.000000	0.456293
897.000000	0.456003
898.000000	0.455776
899.000000	0.455515
900.000000	0.455324
901.000000	0.455169
902.000000	0.455008
903.000000	0.454659
904.000000	0.454321
905.000000	0.454102
906.000000	0.454088
907.000000	0.453907
908.000000	0.453589
909.000000	0.453338
910.000000	0.453027
911.000000	0.452766
912.000000	0.452649
913.000000	0.452433
914.000000	0.452018
915.000000	0.451605
916.000000	0.451360
917.000000	0.451035
918.000000	0.450755
919.000000	0.450601
920.000000	0.450530
921.000000	0.450371
922.000000	0.450160
923.000000	0.449974
924.000000	0.449645
925.000000	0.449278
926.000000	0.448986
927.000000	0.448664
928.000000	0.448381
929.000000	0.448121
930.000000	0.447854
931.000000	0.447625
932.000000	0.447339
933.000000	0.447036
934.000000	0.446740
935.000000	0.446558
936.000000	0.446407
937.000000	0.446077
938.000000	0.445808
939.000000	0.445592
940.000000	0.445274
941.000000	0.444876
942.000000	0.444578
943.000000	0.444386
944.000000	0.444148
945.000000	0.444147
946.000000	0.443823
947.000000	0.443493
948.000000	0.443485
949.000000	0.443239
950.000000	0.443038
951.000000	0.442805
952.000000	0.442310
953.000000	0.442023
954.000000	0.441919
955.000000	0.441753
956.000000	0.441399
957.000000	0.441212
958.000000	0.440994
959.000000	0.440592
960.000000	0.440453
961.000000	0.440165
962.000000	0.439684
963.000000	0.439542
964.000000	0.439294
965.000000	0.439050
966.000000	0.438809
967.000000	0.438682
968.000000	0.438320
969.000000	0.437860
970.000000	0.437788
971.000000	0.437609
972.000000	0.437390
973.000000	0.437184
974.000000	0.437242
975.000000	0.436913
976.000000	0.436667
977.000000	0.436840
978.000000	0.436707
979.000000	0.436702
980.000000	0.436483
981.000000	0.436168
982.000000	0.435921
983.000000	0.435729
984.000000	0.435671
985.000000	0.435692
986.000000	0.435710
987.000000	0.435655
988.000000	0.435298
989.000000	0.434590
990.000000	0.434536
991.000000	0.434752
992.000000	0.434642
993.000000	0.434915
994.000000	0.434869
995.000000	0.434669
996.000000	0.434568
997.000000	0.434721
998.000000	0.434954
999.000000	0.435085
1000.000000	0.434646
1001.000000	0.435550
1002.000000	0.434824
1003.000000	0.434312
1004.000000	0.434486
1005.000000	0.435654
1006.000000	0.435503
1007.000000	0.435194
1008.000000	0.435074
1009.000000	0.434567
1010.000000	0.434152
1011.000000	0.434911
1012.000000	0.435798
1013.000000	0.435309
1014.000000	0.434384
1015.000000	0.434285
1016.000000	0.434488
1017.000000	0.434878
1018.000000	0.435424
1019.000000	0.435641
1020.000000	0.435512
1021.000000	0.434956
1022.000000	0.434235
1023.000000	0.434481
1024.000000	0.434696
1025.000000	0.435169
1026.000000	0.435674
1027.000000	0.435679
1028.000000	0.435673
1029.000000	0.435589
1030.000000	0.436026
1031.000000	0.436490
1032.000000	0.436829
1033.000000	0.437093
1034.000000	0.436991
1035.000000	0.436514
1036.000000	0.436623
1037.000000	0.436443
1038.000000	0.436522
1039.000000	0.437377
1040.000000	0.437992
1041.000000	0.438234
1042.000000	0.438561
1043.000000	0.438586
1044.000000	0.438494
1045.000000	0.438303
1046.000000	0.438364
1047.000000	0.438588
1048.000000	0.438941
1049.000000	0.439344
1050.000000	0.440077
1051.000000	0.440347
1052.000000	0.440309
1053.000000	0.440413
1054.000000	0.440642
1055.000000	0.440885
1056.000000	0.441201
1057.000000	0.441789
1058.000000	0.442068
1059.000000	0.441968
1060.000000	0.442039
1061.000000	0.442180
1062.000000	0.442325
1063.000000	0.442680
1064.000000	0.443040
1065.000000	0.443663
1066.000000	0.443801
1067.000000	0.443468
1068.000000	0.443530
1069.000000	0.443487
1070.000000	0.443511
1071.000000	0.443843
1072.000000	0.444264
1073.000000	0.444993
1074.000000	0.445224
1075.000000	0.445225
1076.000000	0.445426
1077.000000	0.445587
1078.000000	0.445414
1079.000000	0.445685
1080.000000	0.446867
1081.000000	0.446919
1082.000000	0.446303
1083.000000	0.446481
1084.000000	0.446619
1085.000000	0.446867
1086.000000	0.447849
1087.000000	0.448291
1088.000000	0.448034
1089.000000	0.448128
1090.000000	0.448463
1091.000000	0.448355
1092.000000	0.448181
1093.000000	0.448743
1094.000000	0.448971
1095.000000	0.448920
1096.000000	0.449284
1097.000000	0.449976
1098.000000	0.450387
1099.000000	0.450814
1100.000000	0.451193
1101.000000	0.451435
1102.000000	0.451527
1103.000000	0.451346
1104.000000	0.451489
1105.000000	0.451610
1106.000000	0.451782
1107.000000	0.452154
1108.000000	0.452441
1109.000000	0.452948
1110.000000	0.453019
1111.000000	0.453180
1112.000000	0.453378
1113.000000	0.453476
1114.000000	0.453309
1115.000000	0.453502
1116.000000	0.453991
1117.000000	0.454118
1118.000000	0.454161
1119.000000	0.454208
1120.000000	0.453934
1121.000000	0.453964
1122.000000	0.454474
1123.000000	0.454951
1124.000000	0.455162
1125.000000	0.455397
1126.000000	0.455420
1127.000000	0.455483
1128.000000	0.455545
1129.000000	0.455723
1130.000000	0.455721
1131.000000	0.455629
1132.000000	0.455628
1133.000000	0.455625
1134.000000	0.455698
1135.000000	0.455861
1136.000000	0.455886
1137.000000	0.455814
1138.000000	0.455752
1139.000000	0.455800
1140.000000	0.455885
1141.000000	0.455949
1142.000000	0.455947
1143.000000	0.455684
1144.000000	0.455783
1145.000000	0.455849
1146.000000	0.455746
1147.000000	0.455707
1148.000000	0.455633
1149.000000	0.455617
1150.000000	0.455618
1151.000000	0.455572
1152.000000	0.455441
1153.000000	0.455441
1154.000000	0.455415
1155.000000	0.455291
1156.000000	0.455239
1157.000000	0.455171
1158.000000	0.454843
1159.000000	0.454672
1160.000000	0.454755
1161.000000	0.454583
1162.000000	0.454240
1163.000000	0.454261
1164.000000	0.454087
1165.000000	0.453781
1166.000000	0.453859
1167.000000	0.454178
1168.000000	0.454210
1169.000000	0.454366
1170.000000	0.454432
1171.000000	0.454332
1172.000000	0.454421
1173.000000	0.454631
1174.000000	0.454698
1175.000000	0.454682
1176.000000	0.454636
1177.000000	0.454607
1178.000000	0.454583
1179.000000	0.454554
1180.000000	0.454463
1181.000000	0.454434
1182.000000	0.454436
1183.000000	0.454454
1184.000000	0.454543
1185.000000	0.454665
1186.000000	0.454883
1187.000000	0.454928
1188.000000	0.454916
1189.000000	0.454951
1190.000000	0.455010
1191.000000	0.454987
1192.000000	0.455126
1193.000000	0.455335
1194.000000	0.455311
1195.000000	0.455366
1196.000000	0.455415
1197.000000	0.455461
1198.000000	0.455525
1199.000000	0.455560
1200.000000	0.455546
1201.000000	0.455662
1202.000000	0.455677
1203.000000	0.455783
1204.000000	0.455801
1205.000000	0.455824
1206.000000	0.455871
1207.000000	0.455998
1208.000000	0.456001
1209.000000	0.456218
1210.000000	0.456220
1211.000000	0.455994
1212.000000	0.455907
1213.000000	0.455821
1214.000000	0.455796
1215.000000	0.455794
1216.000000	0.455863
1217.000000	0.455993
1218.000000	0.456058
1219.000000	0.456201
1220.000000	0.456304
1221.000000	0.456406
1222.000000	0.456498
1223.000000	0.456621
1224.000000	0.456772
1225.000000	0.456761
1226.000000	0.456764
1227.000000	0.456723
1228.000000	0.456751
1229.000000	0.456815
1230.000000	0.456968
1231.000000	0.456958
1232.000000	0.457117
1233.000000	0.457277
1234.000000	0.457311
1235.000000	0.457376
1236.000000	0.457304
1237.000000	0.457415
1238.000000	0.457540
1239.000000	0.457638
1240.000000	0.457847
1241.000000	0.457975
1242.000000	0.457936
1243.000000	0.457946
1244.000000	0.458202
1245.000000	0.458524
1246.000000	0.458644
1247.000000	0.458925
1248.000000	0.459216
1249.000000	0.459297
1250.000000	0.459390
1251.000000	0.459681
1252.000000	0.459758
1253.000000	0.459589
1254.000000	0.459580
1255.000000	0.459572
1256.000000	0.459662
1257.000000	0.459928
1258.000000	0.460103
1259.000000	0.460214
1260.000000	0.460347
1261.000000	0.460274
1262.000000	0.460313
1263.000000	0.460442
1264.000000	0.460603
1265.000000	0.460807
1266.000000	0.461011
1267.000000	0.461192
1268.000000	0.461358
1269.000000	0.461374
1270.000000	0.461552
1271.000000	0.461782
1272.000000	0.461935
1273.000000	0.462173
1274.000000	0.462174
1275.000000	0.462124
1276.000000	0.461929
1277.000000	0.461998
1278.000000	0.461980
1279.000000	0.461979
1280.000000	0.461980
1281.000000	0.461997
1282.000000	0.462053
1283.000000	0.462246
1284.000000	0.462541
1285.000000	0.462696
1286.000000	0.462747
1287.000000	0.462812
1288.000000	0.462987
1289.000000	0.463031
1290.000000	0.463026
1291.000000	0.462944
1292.000000	0.462892
1293.000000	0.462856
1294.000000	0.462834
1295.000000	0.462989
1296.000000	0.462935
1297.000000	0.462844
1298.000000	0.463019
1299.000000	0.463155
1300.000000	0.463306
1301.000000	0.463377
1302.000000	0.463328
1303.000000	0.463256
1304.000000	0.463201
1305.000000	0.463310
1306.000000	0.463259
1307.000000	0.463168
1308.000000	0.463078
1309.000000	0.462861
1310.000000	0.462804
1311.000000	0.462889
1312.000000	0.462890
1313.000000	0.462941
1314.000000	0.462767
1315.000000	0.462298
1316.000000	0.462059
1317.000000	0.461871
1318.000000	0.461589
1319.000000	0.461478
1320.000000	0.461456
1321.000000	0.461154
1322.000000	0.460897
1323.000000	0.460625
1324.000000	0.460156
1325.000000	0.459834
1326.000000	0.459574
1327.000000	0.459448
1328.000000	0.459457
1329.000000	0.459219
1330.000000	0.458976
1331.000000	0.458669
1332.000000	0.458214
1333.000000	0.457859
1334.000000	0.457648
1335.000000	0.457427
1336.000000	0.457192
1337.000000	0.456895
1338.000000	0.456577
1339.000000	0.456091
1340.000000	0.455553
1341.000000	0.455104
1342.000000	0.454665
1343.000000	0.454348
1344.000000	0.453929
1345.000000	0.453384
1346.000000	0.453070
1347.000000	0.452512
1348.000000	0.451994
1349.000000	0.451544
1350.000000	0.451029
1351.000000	0.450629
1352.000000	0.450188
1353.000000	0.449754
1354.000000	0.449440
1355.000000	0.448864
1356.000000	0.448435
1357.000000	0.448141
1358.000000	0.447649
1359.000000	0.447180
1360.000000	0.446706
1361.000000	0.446189
1362.000000	0.445742
1363.000000	0.445363
1364.000000	0.444916
1365.000000	0.444414
1366.000000	0.444003
1367.000000	0.443601
1368.000000	0.443135
1369.000000	0.442750
1370.000000	0.442155
1371.000000	0.441363
1372.000000	0.440604
1373.000000	0.439911
1374.000000	0.439323
1375.000000	0.438684
1376.000000	0.438010
1377.000000	0.437348
1378.000000	0.436545
1379.000000	0.435488
1380.000000	0.434512
1381.000000	0.433492
1382.000000	0.432402
1383.000000	0.431692
1384.000000	0.430660
1385.000000	0.429151
1386.000000	0.427771
1387.000000	0.426257
1388.000000	0.424541
1389.000000	0.422826
1390.000000	0.421162
1391.000000	0.419221
1392.000000	0.417178
1393.000000	0.415136
1394.000000	0.413169
1395.000000	0.411062
1396.000000	0.408972
1397.000000	0.406567
1398.000000	0.403897
1399.000000	0.401396
1400.000000	0.398729
1401.000000	0.396060
1402.000000	0.393572
1403.000000	0.390862
1404.000000	0.388189
1405.000000	0.385597
1406.000000	0.383004
1407.000000	0.380610
1408.000000	0.378125
1409.000000	0.375589
1410.000000	0.373207
1411.000000	0.370733
1412.000000	0.368202
1413.000000	0.365842
1414.000000	0.363560
1415.000000	0.361348
1416.000000	0.359186
1417.000000	0.357045
1418.000000	0.354786
1419.000000	0.352561
1420.000000	0.350381
1421.000000	0.348407
1422.000000	0.346523
1423.000000	0.344693
1424.000000	0.342771
1425.000000	0.340785
1426.000000	0.338800
1427.000000	0.336854
1428.000000	0.335081
1429.000000	0.333442
1430.000000	0.331759
1431.000000	0.330214
1432.000000	0.328694
1433.000000	0.327204
1434.000000	0.325741
1435.000000	0.324433
1436.000000	0.323131
1437.000000	0.321841
1438.000000	0.320611
1439.000000	0.319451
1440.000000	0.318413
1441.000000	0.317460
1442.000000	0.316553
1443.000000	0.315675
1444.000000	0.314879
1445.000000	0.314136
1446.000000	0.313543
1447.000000	0.313099
1448.000000	0.312654
1449.000000	0.312103
1450.000000	0.311659
1451.000000	0.311244
1452.000000	0.310735
1453.000000	0.310370
1454.000000	0.310013
1455.000000	0.309540
1456.000000	0.309201
1457.000000	0.309032
1458.000000	0.308720
1459.000000	0.308442
1460.000000	0.308238
1461.000000	0.307832
1462.000000	0.307615
1463.000000	0.307417
1464.000000	0.307111
1465.000000	0.307027
1466.000000	0.306890
1467.000000	0.306827
1468.000000	0.306932
1469.000000	0.307041
1470.000000	0.307088
1471.000000	0.307144
1472.000000	0.307263
1473.000000	0.307447
1474.000000	0.307616
1475.000000	0.308009
1476.000000	0.308455
1477.000000	0.308769
1478.000000	0.309295
1479.000000	0.309929
1480.000000	0.310471
1481.000000	0.311119
1482.000000	0.312047
1483.000000	0.312851
1484.000000	0.313602
1485.000000	0.314442
1486.000000	0.315328
1487.000000	0.316183
1488.000000	0.317044
1489.000000	0.317890
1490.000000	0.318634
1491.000000	0.319431
1492.000000	0.320218
1493.000000	0.321012
1494.000000	0.321721
1495.000000	0.322443
1496.000000	0.323193
1497.000000	0.323887
1498.000000	0.324550
1499.000000	0.325276
1500.000000	0.326029
1501.000000	0.326764
1502.000000	0.327501
1503.000000	0.328293
1504.000000	0.328944
1505.000000	0.329444
1506.000000	0.330027
1507.000000	0.330551
1508.000000	0.331144
1509.000000	0.331782
1510.000000	0.332191
1511.000000	0.332579
1512.000000	0.332954
1513.000000	0.333339
1514.000000	0.333840
1515.000000	0.334330
1516.000000	0.334774
1517.000000	0.335114
1518.000000	0.335476
1519.000000	0.335786
1520.000000	0.336161
1521.000000	0.336488
1522.000000	0.336831
1523.000000	0.337274
1524.000000	0.337589
1525.000000	0.337993
1526.000000	0.338366
1527.000000	0.338681
1528.000000	0.339104
1529.000000	0.339368
1530.000000	0.339514
1531.000000	0.339754
1532.000000	0.339879
1533.000000	0.340015
1534.000000	0.340242
1535.000000	0.340427
1536.000000	0.340504
1537.000000	0.340748
1538.000000	0.341004
1539.000000	0.341108
1540.000000	0.341421
1541.000000	0.341736
1542.000000	0.341922
1543.000000	0.342070
1544.000000	0.342046
1545.000000	0.342049
1546.000000	0.342109
1547.000000	0.342156
1548.000000	0.342295
1549.000000	0.342445
1550.000000	0.342474
1551.000000	0.342539
1552.000000	0.342627
1553.000000	0.342566
1554.000000	0.342617
1555.000000	0.342759
1556.000000	0.342728
1557.000000	0.342634
1558.000000	0.342626
1559.000000	0.342485
1560.000000	0.342416
1561.000000	0.342496
1562.000000	0.342564
1563.000000	0.342678
1564.000000	0.342702
1565.000000	0.342736
1566.000000	0.342662
1567.000000	0.342533
1568.000000	0.342527
1569.000000	0.342690
1570.000000	0.342760
1571.000000	0.342809
1572.000000	0.342815
1573.000000	0.342781
1574.000000	0.342733
1575.000000	0.342682
1576.000000	0.342666
1577.000000	0.342589
1578.000000	0.342589
1579.000000	0.342753
1580.000000	0.342827
1581.000000	0.342963
1582.000000	0.343028
1583.000000	0.342981
1584.000000	0.342996
1585.000000	0.343168
1586.000000	0.343275
1587.000000	0.343377
1588.000000	0.343401
1589.000000	0.343419
1590.000000	0.343389
1591.000000	0.343246
1592.000000	0.343290
1593.000000	0.343369
1594.000000	0.343408
1595.000000	0.343686
1596.000000	0.343793
1597.000000	0.343798
1598.000000	0.343885
1599.000000	0.343970
1600.000000	0.344017
1601.000000	0.344162
1602.000000	0.344275
1603.000000	0.344409
1604.000000	0.344516
1605.000000	0.344617
1606.000000	0.344757
1607.000000	0.344961
1608.000000	0.345118
1609.000000	0.345396
1610.000000	0.345531
1611.000000	0.345531
1612.000000	0.345656
1613.000000	0.345904
1614.000000	0.346096
1615.000000	0.346403
1616.000000	0.346667
1617.000000	0.346840
1618.000000	0.347032
1619.000000	0.347179
1620.000000	0.347390
1621.000000	0.347610
1622.000000	0.347948
1623.000000	0.348416
1624.000000	0.348758
1625.000000	0.348893
1626.000000	0.349137
1627.000000	0.349383
1628.000000	0.349720
1629.000000	0.350165
1630.000000	0.350569
1631.000000	0.350879
1632.000000	0.351220
1633.000000	0.351605
1634.000000	0.352030
1635.000000	0.352552
1636.000000	0.352942
1637.000000	0.353371
1638.000000	0.353656
1639.000000	0.353783
1640.000000	0.354112
1641.000000	0.354526
1642.000000	0.354917
1643.000000	0.355450
1644.000000	0.355958
1645.000000	0.356510
1646.000000	0.356848
1647.000000	0.357143
1648.000000	0.357466
1649.000000	0.357666
1650.000000	0.358074
1651.000000	0.358759
1652.000000	0.359281
1653.000000	0.359674
1654.000000	0.360222
1655.000000	0.360790
1656.000000	0.361147
1657.000000	0.361596
1658.000000	0.361969
1659.000000	0.362250
1660.000000	0.362701
1661.000000	0.363153
1662.000000	0.363576
1663.000000	0.364001
1664.000000	0.364366
1665.000000	0.364731
1666.000000	0.365083
1667.000000	0.365234
1668.000000	0.365600
1669.000000	0.366026
1670.000000	0.366300
1671.000000	0.366767
1672.000000	0.367151
1673.000000	0.367324
1674.000000	0.367807
1675.000000	0.368141
1676.000000	0.368506
1677.000000	0.368852
1678.000000	0.369022
1679.000000	0.369387
1680.000000	0.369767
1681.000000	0.370083
1682.000000	0.370431
1683.000000	0.370828
1684.000000	0.371114
1685.000000	0.371402
1686.000000	0.371770
1687.000000	0.372070
1688.000000	0.372290
1689.000000	0.372507
1690.000000	0.372607
1691.000000	0.372733
1692.000000	0.372825
1693.000000	0.373004
1694.000000	0.373341
1695.000000	0.373756
1696.000000	0.374127
1697.000000	0.374322
1698.000000	0.374360
1699.000000	0.374473
1700.000000	0.374432
1701.000000	0.374683
1702.000000	0.374956
1703.000000	0.375143
1704.000000	0.375594
1705.000000	0.375897
1706.000000	0.376090
1707.000000	0.376299
1708.000000	0.376434
1709.000000	0.376540
1710.000000	0.376749
1711.000000	0.376943
1712.000000	0.377060
1713.000000	0.377310
1714.000000	0.377807
1715.000000	0.378055
1716.000000	0.378249
1717.000000	0.378484
1718.000000	0.378473
1719.000000	0.378615
1720.000000	0.379016
1721.000000	0.379304
1722.000000	0.379571
1723.000000	0.379809
1724.000000	0.380027
1725.000000	0.380341
1726.000000	0.380528
1727.000000	0.380842
1728.000000	0.381267
1729.000000	0.381489
1730.000000	0.381809
1731.000000	0.382097
1732.000000	0.382289
1733.000000	0.382630
1734.000000	0.382903
1735.000000	0.383185
1736.000000	0.383464
1737.000000	0.383711
1738.000000	0.383947
1739.000000	0.384214
1740.000000	0.384456
1741.000000	0.384706
1742.000000	0.385015
1743.000000	0.385289
1744.000000	0.385522
1745.000000	0.385706
1746.000000	0.385829
1747.000000	0.386029
1748.000000	0.386163
1749.000000	0.386295
1750.000000	0.386439
1751.000000	0.386786
1752.000000	0.387098
1753.000000	0.387262
1754.000000	0.387406
1755.000000	0.387314
1756.000000	0.387356
1757.000000	0.387521
1758.000000	0.387625
1759.000000	0.387664
1760.000000	0.387820
1761.000000	0.387970
1762.000000	0.388097
1763.000000	0.388412
1764.000000	0.388550
1765.000000	0.388427
1766.000000	0.388496
1767.000000	0.388441
1768.000000	0.388536
1769.000000	0.388956
1770.000000	0.389262
1771.000000	0.389568
1772.000000	0.389786
1773.000000	0.389844
1774.000000	0.389980
1775.000000	0.390176
1776.000000	0.390380
1777.000000	0.390570
1778.000000	0.390767
1779.000000	0.390928
1780.000000	0.391185
1781.000000	0.391457
1782.000000	0.391671
1783.000000	0.391991
1784.000000	0.392126
1785.000000	0.392313
1786.000000	0.392541
1787.000000	0.392762
1788.000000	0.393043
1789.000000	0.393243
1790.000000	0.393621
1791.000000	0.393898
1792.000000	0.394412
1793.000000	0.394672
1794.000000	0.394604
1795.000000	0.394819
1796.000000	0.395052
1797.000000	0.395289
1798.000000	0.395717
1799.000000	0.396057
1800.000000	0.396334
1801.000000	0.396394
1802.000000	0.396608
1803.000000	0.395106
1804.000000	0.395057
1805.000000	0.395898
1806.000000	0.396303
1807.000000	0.396519
1808.000000	0.396846
1809.000000	0.397098
1810.000000	0.397962
1811.000000	0.398099
1812.000000	0.398077
1813.000000	0.398027
1814.000000	0.397531
1815.000000	0.397392
1816.000000	0.397036
1817.000000	0.397233
1818.000000	0.397952
1819.000000	0.398973
1820.000000	0.399572
1821.000000	0.399873
1822.000000	0.399957
1823.000000	0.398915
1824.000000	0.398667
1825.000000	0.399071
1826.000000	0.398994
1827.000000	0.398578
1828.000000	0.398181
1829.000000	0.397914
1830.000000	0.397267
1831.000000	0.397156
1832.000000	0.397663
1833.000000	0.397411
1834.000000	0.396912
1835.000000	0.396542
1836.000000	0.395701
1837.000000	0.395165
1838.000000	0.395038
1839.000000	0.394276
1840.000000	0.393493
1841.000000	0.393119
1842.000000	0.392633
1843.000000	0.392369
1844.000000	0.392227
1845.000000	0.392045
1846.000000	0.391451
1847.000000	0.390877
1848.000000	0.389510
1849.000000	0.387800
1850.000000	0.387223
1851.000000	0.386521
1852.000000	0.386030
1853.000000	0.385417
1854.000000	0.385049
1855.000000	0.383958
1856.000000	0.382474
1857.000000	0.381069
1858.000000	0.378637
1859.000000	0.375655
1860.000000	0.373920
1861.000000	0.371969
1862.000000	0.369813
1863.000000	0.368466
1864.000000	0.366258
1865.000000	0.362714
1866.000000	0.360243
1867.000000	0.358165
1868.000000	0.356021
1869.000000	0.353477
1870.000000	0.350861
1871.000000	0.347813
1872.000000	0.343967
1873.000000	0.340138
1874.000000	0.336254
1875.000000	0.332232
1876.000000	0.327514
1877.000000	0.322867
1878.000000	0.318828
1879.000000	0.313901
1880.000000	0.308948
1881.000000	0.304245
1882.000000	0.298687
1883.000000	0.293205
1884.000000	0.287595
1885.000000	0.280975
1886.000000	0.275253
1887.000000	0.269800
1888.000000	0.264397
1889.000000	0.259146
1890.000000	0.254468
1891.000000	0.248846
1892.000000	0.242301
1893.000000	0.236028
1894.000000	0.229980
1895.000000	0.223857
1896.000000	0.217730
1897.000000	0.212138
1898.000000	0.206599
1899.000000	0.200867
1900.000000	0.195000
1901.000000	0.189648
1902.000000	0.185038
1903.000000	0.180373
1904.000000	0.176240
1905.000000	0.172100
1906.000000	0.167818
1907.000000	0.163097
1908.000000	0.159107
1909.000000	0.155587
1910.000000	0.152946
1911.000000	0.151342
1912.000000	0.149235
1913.000000	0.147198
1914.000000	0.145042
1915.000000	0.142148
1916.000000	0.140191
1917.000000	0.138248
1918.000000	0.136571
1919.000000	0.134711
1920.000000	0.133547
1921.000000	0.132253
1922.000000	0.130592
1923.000000	0.129534
1924.000000	0.129066
1925.000000	0.127952
1926.000000	0.127616
1927.000000	0.127687
1928.000000	0.127298
1929.000000	0.126398
1930.000000	0.126603
1931.000000	0.126497
1932.000000	0.126355
1933.000000	0.127144
1934.000000	0.127280
1935.000000	0.127275
1936.000000	0.127427
1937.000000	0.127421
1938.000000	0.127287
1939.000000	0.127274
1940.000000	0.127471
1941.000000	0.127443
1942.000000	0.127204
1943.000000	0.127046
1944.000000	0.126543
1945.000000	0.126331
1946.000000	0.126167
1947.000000	0.125819
1948.000000	0.125484
1949.000000	0.124905
1950.000000	0.123856
1951.000000	0.123012
1952.000000	0.122165
1953.000000	0.121499
1954.000000	0.120633
1955.000000	0.120261
1956.000000	0.119712
1957.000000	0.119289
1958.000000	0.119294
1959.000000	0.119151
1960.000000	0.119752
1961.000000	0.120363
1962.000000	0.120522
1963.000000	0.120568
1964.000000	0.120734
1965.000000	0.119906
1966.000000	0.119054
1967.000000	0.118594
1968.000000	0.117830
1969.000000	0.117678
1970.000000	0.117581
1971.000000	0.117418
1972.000000	0.118162
1973.000000	0.118443
1974.000000	0.118621
1975.000000	0.118889
1976.000000	0.119168
1977.000000	0.119189
1978.000000	0.119825
1979.000000	0.120962
1980.000000	0.121861
1981.000000	0.122784
1982.000000	0.122877
1983.000000	0.123216
1984.000000	0.123663
1985.000000	0.124166
1986.000000	0.124438
1987.000000	0.125015
1988.000000	0.124877
1989.000000	0.124513
1990.000000	0.124541
1991.000000	0.124773
1992.000000	0.125488
1993.000000	0.126641
1994.000000	0.128320
1995.000000	0.129439
1996.000000	0.130552
1997.000000	0.131682
1998.000000	0.132600
1999.000000	0.133323
2000.000000	0.133908
2001.000000	0.134918
2002.000000	0.135701
2003.000000	0.136860
2004.000000	0.137899
2005.000000	0.138602
2006.000000	0.139191
2007.000000	0.139597
2008.000000	0.140829
2009.000000	0.143108
2010.000000	0.144602
2011.000000	0.146237
2012.000000	0.147627
2013.000000	0.148871
2014.000000	0.148897
2015.000000	0.149579
2016.000000	0.150980
2017.000000	0.152221
2018.000000	0.153938
2019.000000	0.155761
2020.000000	0.157225
2021.000000	0.158568
2022.000000	0.159656
2023.000000	0.160692
2024.000000	0.161500
2025.000000	0.162636
2026.000000	0.163658
2027.000000	0.164644
2028.000000	0.166362
2029.000000	0.167669
2030.000000	0.169192
2031.000000	0.170811
2032.000000	0.172174
2033.000000	0.174137
2034.000000	0.175453
2035.000000	0.176544
2036.000000	0.177360
2037.000000	0.177465
2038.000000	0.178223
2039.000000	0.178958
2040.000000	0.180231
2041.000000	0.181970
2042.000000	0.184130
2043.000000	0.185413
2044.000000	0.186553
2045.000000	0.187596
2046.000000	0.187964
2047.000000	0.188940
2048.000000	0.190111
2049.000000	0.191584
2050.000000	0.193317
2051.000000	0.194638
2052.000000	0.196280
2053.000000	0.197234
2054.000000	0.197494
2055.000000	0.198204
2056.000000	0.199045
2057.000000	0.199326
2058.000000	0.201055
2059.000000	0.203107
2060.000000	0.204230
2061.000000	0.205292
2062.000000	0.206322
2063.000000	0.206324
2064.000000	0.207149
2065.000000	0.209199
2066.000000	0.210287
2067.000000	0.211357
2068.000000	0.212014
2069.000000	0.212827
2070.000000	0.213262
2071.000000	0.213941
2072.000000	0.215273
2073.000000	0.216004
2074.000000	0.216727
2075.000000	0.217567
2076.000000	0.218232
2077.000000	0.219263
2078.000000	0.220415
2079.000000	0.221810
2080.000000	0.223993
2081.000000	0.225352
2082.000000	0.226343
2083.000000	0.227752
2084.000000	0.228471
2085.000000	0.229286
2086.000000	0.230706
2087.000000	0.231585
2088.000000	0.232620
2089.000000	0.233513
2090.000000	0.234721
2091.000000	0.236387
2092.000000	0.237821
2093.000000	0.239266
2094.000000	0.240731
2095.000000	0.242129
2096.000000	0.243331
2097.000000	0.244408
2098.000000	0.245741
2099.000000	0.246626
2100.000000	0.247455
2101.000000	0.247813
2102.000000	0.248460
2103.000000	0.249336
2104.000000	0.250239
2105.000000	0.251314
2106.000000	0.253011
2107.000000	0.253919
2108.000000	0.254774
2109.000000	0.255069
2110.000000	0.254076
2111.000000	0.254355
2112.000000	0.254781
2113.000000	0.254928
2114.000000	0.256578
2115.000000	0.258169
2116.000000	0.259500
2117.000000	0.260610
2118.000000	0.261500
2119.000000	0.262507
2120.000000	0.263510
2121.000000	0.264574
2122.000000	0.265507
2123.000000	0.266233
2124.000000	0.267255
2125.000000	0.268530
2126.000000	0.269230
2127.000000	0.270105
2128.000000	0.270660
2129.000000	0.270287
2130.000000	0.270370
2131.000000	0.270812
2132.000000	0.270645
2133.000000	0.271598
2134.000000	0.272584
2135.000000	0.272339
2136.000000	0.273271
2137.000000	0.273830
2138.000000	0.273922
2139.000000	0.274197
2140.000000	0.274859
2141.000000	0.275110
2142.000000	0.274823
2143.000000	0.274732
2144.000000	0.275149
2145.000000	0.275337
2146.000000	0.275436
2147.000000	0.275520
2148.000000	0.276251
2149.000000	0.277171
2150.000000	0.277759
2151.000000	0.278660
2152.000000	0.278646
2153.000000	0.277982
2154.000000	0.277247
2155.000000	0.275898
2156.000000	0.275425
2157.000000	0.274578
2158.000000	0.274730
2159.000000	0.276371
2160.000000	0.277278
2161.000000	0.278254
2162.000000	0.279411
2163.000000	0.280730
2164.000000	0.281361
2165.000000	0.281801
2166.000000	0.282308
2167.000000	0.281524
2168.000000	0.281114
2169.000000	0.281060
2170.000000	0.279994
2171.000000	0.279754
2172.000000	0.279912
2173.000000	0.279797
2174.000000	0.279757
2175.000000	0.280166
2176.000000	0.280954
2177.000000	0.281220
2178.000000	0.281747
2179.000000	0.282070
2180.000000	0.281605
2181.000000	0.281598
2182.000000	0.281670
2183.000000	0.280821
2184.000000	0.280519
2185.000000	0.281535
2186.000000	0.281232
2187.000000	0.281362
2188.000000	0.281784
2189.000000	0.280387
2190.000000	0.279856
2191.000000	0.281381
2192.000000	0.281232
2193.000000	0.279969
2194.000000	0.279871
2195.000000	0.280043
2196.000000	0.279548
2197.000000	0.278710
2198.000000	0.279205
2199.000000	0.279478
2200.000000	0.280757
2201.000000	0.286285
2202.000000	0.288149
2203.000000	0.287922
2204.000000	0.287431
2205.000000	0.283871
2206.000000	0.279327
2207.000000	0.278243
2208.000000	0.278486
2209.000000	0.281722
2210.000000	0.284967
2211.000000	0.286116
2212.000000	0.287345
2213.000000	0.287805
2214.000000	0.286779
2215.000000	0.286739
2216.000000	0.287653
2217.000000	0.286656
2218.000000	0.283903
2219.000000	0.282732
2220.000000	0.279756
2221.000000	0.279898
2222.000000	0.283015
2223.000000	0.285623
2224.000000	0.290136
2225.000000	0.293408
2226.000000	0.295458
2227.000000	0.295471
2228.000000	0.292698
2229.000000	0.291337
2230.000000	0.290165
2231.000000	0.289502
2232.000000	0.290131
2233.000000	0.289019
2234.000000	0.287465
2235.000000	0.285169
2236.000000	0.284102
2237.000000	0.283427
2238.000000	0.283434
2239.000000	0.284865
2240.000000	0.284602
2241.000000	0.283598
2242.000000	0.283479
2243.000000	0.282427
2244.000000	0.282975
2245.000000	0.286044
2246.000000	0.286571
2247.000000	0.285180
2248.000000	0.285644
2249.000000	0.286412
2250.000000	0.286625
2251.000000	0.288345
2252.000000	0.291045
2253.000000	0.290035
2254.000000	0.286979
2255.000000	0.284438
2256.000000	0.281559
2257.000000	0.282729
2258.000000	0.286558
2259.000000	0.285554
2260.000000	0.284292
2261.000000	0.281867
2262.000000	0.274271
2263.000000	0.272046
2264.000000	0.272213
2265.000000	0.272045
2266.000000	0.274190
2267.000000	0.274151
2268.000000	0.273802
2269.000000	0.273465
2270.000000	0.272747
2271.000000	0.271334
2272.000000	0.268410
2273.000000	0.267186
2274.000000	0.266134
2275.000000	0.265085
2276.000000	0.264653
2277.000000	0.265490
2278.000000	0.266148
2279.000000	0.264229
2280.000000	0.262969
2281.000000	0.261569
2282.000000	0.258291
2283.000000	0.257446
2284.000000	0.257078
2285.000000	0.255166
2286.000000	0.253438
2287.000000	0.251083
2288.000000	0.248699
2289.000000	0.247566
2290.000000	0.247851
2291.000000	0.248777
2292.000000	0.249583
2293.000000	0.249935
2294.000000	0.249078
2295.000000	0.246325
2296.000000	0.244891
2297.000000	0.243101
2298.000000	0.241530
2299.000000	0.240630
2300.000000	0.239380
2301.000000	0.237423
2302.000000	0.236163
2303.000000	0.235402
2304.000000	0.234960
2305.000000	0.234929
2306.000000	0.235026
2307.000000	0.235843
2308.000000	0.235372
2309.000000	0.235264
2310.000000	0.237126
2311.000000	0.240129
2312.000000	0.239908
2313.000000	0.237692
2314.000000	0.233639
2315.000000	0.228585
2316.000000	0.224680
2317.000000	0.222687
2318.000000	0.224139
2319.000000	0.225849
2320.000000	0.228975
2321.000000	0.231712
2322.000000	0.231639
2323.000000	0.231283
2324.000000	0.229034
2325.000000	0.226222
2326.000000	0.224152
2327.000000	0.219227
2328.000000	0.214677
2329.000000	0.212460
2330.000000	0.209590
2331.000000	0.207463
2332.000000	0.206860
2333.000000	0.207569
2334.000000	0.208766
2335.000000	0.208778
2336.000000	0.209674
2337.000000	0.207797
2338.000000	0.202175
2339.000000	0.198613
2340.000000	0.194763
2341.000000	0.192955
2342.000000	0.191974
2343.000000	0.191495
2344.000000	0.192981
2345.000000	0.192954
2346.000000	0.193510
2347.000000	0.193705
2348.000000	0.193656
2349.000000	0.192080
2350.000000	0.190019
2351.000000	0.186534
2352.000000	0.182267
2353.000000	0.179097
2354.000000	0.178421
2355.000000	0.181445
2356.000000	0.184487
2357.000000	0.186166
2358.000000	0.185789
2359.000000	0.180992
2360.000000	0.175162
2361.000000	0.170786
2362.000000	0.166807
2363.000000	0.165295
2364.000000	0.165252
2365.000000	0.164845
2366.000000	0.165328
2367.000000	0.162364
2368.000000	0.159984
2369.000000	0.159483
2370.000000	0.158052
2371.000000	0.160037
2372.000000	0.160226
2373.000000	0.158391
2374.000000	0.153727
2375.000000	0.149377
2376.000000	0.149796
2377.000000	0.148820
2378.000000	0.152504
2379.000000	0.153504
2380.000000	0.146457
2381.000000	0.145410
2382.000000	0.142608
2383.000000	0.141254
2384.000000	0.146149
2385.000000	0.141305
2386.000000	0.136887
2387.000000	0.133054
2388.000000	0.123716
2389.000000	0.120495
2390.000000	0.116793
2391.000000	0.113094
2392.000000	0.115819
2393.000000	0.116499
2394.000000	0.121284
2395.000000	0.132073
2396.000000	0.133691
2397.000000	0.135416
2398.000000	0.133875
2399.000000	0.120382
2400.000000	0.115540
2401.000000	0.113237
2402.000000	0.111082
2403.000000	0.112150
2404.000000	0.106085
2405.000000	0.102323
2406.000000	0.102681
2407.000000	0.106931
2408.000000	0.111752
2409.000000	0.119275
2410.000000	0.125686
2411.000000	0.116826
2412.000000	0.115975
2413.000000	0.116661
2414.000000	0.115397
2415.000000	0.127752
2416.000000	0.128590
2417.000000	0.125728
2418.000000	0.121372
2419.000000	0.109349
2420.000000	0.105274
2421.000000	0.104236
2422.000000	0.107302
2423.000000	0.113018
2424.000000	0.118803
2425.000000	0.123512
2426.000000	0.119006
2427.000000	0.120241
2428.000000	0.129735
2429.000000	0.140993
2430.000000	0.155436
2431.000000	0.153201
2432.000000	0.138996
2433.000000	0.124002
2434.000000	0.119797
2435.000000	0.121802
2436.000000	0.111568
2437.000000	0.107499
2438.000000	0.098205
2439.000000	0.075382
2440.000000	0.077742
2441.000000	0.091438
2442.000000	0.097657
2443.000000	0.104025
2444.000000	0.100187
2445.000000	0.098565
2446.000000	0.087569
2447.000000	0.078618
2448.000000	0.083311
2449.000000	0.084333
2450.000000	0.103771
2451.000000	0.125386
2452.000000	0.144153
2453.000000	0.147091
2454.000000	0.126434
2455.000000	0.116187
2456.000000	0.103406
2457.000000	0.109040
2458.000000	0.115222
2459.000000	0.103480
2460.000000	0.106880
2461.000000	0.105142
2462.000000	0.112767
2463.000000	0.123857
2464.000000	0.122968
2465.000000	0.118962
2466.000000	0.102321
2467.000000	0.088354
2468.000000	0.089361
2469.000000	0.110639
2470.000000	0.114017
2471.000000	0.117032
2472.000000	0.147895
2473.000000	0.133402
2474.000000	0.115577
2475.000000	0.122447
2476.000000	0.087379
2477.000000	0.064669
2478.000000	0.064462
2479.000000	0.045715
2480.000000	0.054885
2481.000000	0.039284
2482.000000	0.032701
2483.000000	0.056795
2484.000000	0.019211
2485.000000	0.045667
2486.000000	0.085936
2487.000000	0.095352
2488.000000	0.135097
2489.000000	0.121675
2490.000000	0.101179
2491.000000	0.123794
2492.000000	0.116973
2493.000000	0.123126
2494.000000	0.131961
2495.000000	0.112337
2496.000000	0.094552
2497.000000	0.087589
2498.000000	0.070898
2499.000000	0.031126
2500.000000	0.009100
