# Wavelength	NAu-2-70_HEX-10_FV7-20_000000002.asd.rts.txt
350.000000	0.088075
351.000000	0.083039
352.000000	0.086683
353.000000	0.086541
354.000000	0.079888
355.000000	0.079914
356.000000	0.079354
357.000000	0.078085
358.000000	0.079439
359.000000	0.080266
360.000000	0.080791
361.000000	0.081661
362.000000	0.081805
363.000000	0.080524
364.000000	0.078259
365.000000	0.078858
366.000000	0.079357
367.000000	0.078879
368.000000	0.078394
369.000000	0.078229
370.000000	0.077840
371.000000	0.076759
372.000000	0.077550
373.000000	0.078719
374.000000	0.079106
375.000000	0.078588
376.000000	0.079435
377.000000	0.081255
378.000000	0.081149
379.000000	0.081231
380.000000	0.080921
381.000000	0.079526
382.000000	0.080174
383.000000	0.081570
384.000000	0.082172
385.000000	0.080491
386.000000	0.080411
387.000000	0.082100
388.000000	0.081576
389.000000	0.081897
390.000000	0.082545
391.000000	0.081931
392.000000	0.081797
393.000000	0.081764
394.000000	0.081507
395.000000	0.081910
396.000000	0.082557
397.000000	0.082918
398.000000	0.082106
399.000000	0.082307
400.000000	0.083091
401.000000	0.082939
402.000000	0.083298
403.000000	0.083595
404.000000	0.083401
405.000000	0.084159
406.000000	0.084518
407.000000	0.084131
408.000000	0.084378
409.000000	0.084765
410.000000	0.084948
411.000000	0.084609
412.000000	0.085015
413.000000	0.085452
414.000000	0.085123
415.000000	0.085501
416.000000	0.086061
417.000000	0.086410
418.000000	0.086728
419.000000	0.087185
420.000000	0.087653
421.000000	0.087721
422.000000	0.088019
423.000000	0.088423
424.000000	0.088656
425.000000	0.089112
426.000000	0.089452
427.000000	0.089519
428.000000	0.090031
429.000000	0.090351
430.000000	0.090433
431.000000	0.091068
432.000000	0.091310
433.000000	0.091335
434.000000	0.091813
435.000000	0.092012
436.000000	0.092212
437.000000	0.092697
438.000000	0.092899
439.000000	0.093121
440.000000	0.093513
441.000000	0.093745
442.000000	0.093883
443.000000	0.094035
444.000000	0.094432
445.000000	0.094698
446.000000	0.094999
447.000000	0.095517
448.000000	0.095946
449.000000	0.096335
450.000000	0.096734
451.000000	0.097029
452.000000	0.097454
453.000000	0.098004
454.000000	0.098506
455.000000	0.098786
456.000000	0.099088
457.000000	0.099728
458.000000	0.100192
459.000000	0.100514
460.000000	0.100836
461.000000	0.101180
462.000000	0.101577
463.000000	0.101967
464.000000	0.102328
465.000000	0.102740
466.000000	0.103138
467.000000	0.103417
468.000000	0.103649
469.000000	0.103933
470.000000	0.104403
471.000000	0.104860
472.000000	0.105220
473.000000	0.105489
474.000000	0.105799
475.000000	0.106179
476.000000	0.106607
477.000000	0.106832
478.000000	0.107140
479.000000	0.107574
480.000000	0.107936
481.000000	0.108257
482.000000	0.108580
483.000000	0.108857
484.000000	0.109166
485.000000	0.109402
486.000000	0.109620
487.000000	0.109942
488.000000	0.110228
489.000000	0.110456
490.000000	0.110673
491.000000	0.110882
492.000000	0.111068
493.000000	0.111160
494.000000	0.111255
495.000000	0.111358
496.000000	0.111454
497.000000	0.111610
498.000000	0.111680
499.000000	0.111685
500.000000	0.111765
501.000000	0.111899
502.000000	0.112057
503.000000	0.112158
504.000000	0.112302
505.000000	0.112477
506.000000	0.112664
507.000000	0.112916
508.000000	0.113200
509.000000	0.113482
510.000000	0.113805
511.000000	0.114122
512.000000	0.114445
513.000000	0.114801
514.000000	0.115229
515.000000	0.115655
516.000000	0.115965
517.000000	0.116408
518.000000	0.116847
519.000000	0.117168
520.000000	0.117686
521.000000	0.118194
522.000000	0.118651
523.000000	0.119259
524.000000	0.119896
525.000000	0.120580
526.000000	0.121417
527.000000	0.122319
528.000000	0.123271
529.000000	0.124302
530.000000	0.125444
531.000000	0.126697
532.000000	0.128003
533.000000	0.129332
534.000000	0.130725
535.000000	0.132162
536.000000	0.133586
537.000000	0.135008
538.000000	0.136403
539.000000	0.137727
540.000000	0.139031
541.000000	0.140286
542.000000	0.141485
543.000000	0.142688
544.000000	0.143833
545.000000	0.144899
546.000000	0.146067
547.000000	0.147224
548.000000	0.148411
549.000000	0.149720
550.000000	0.151043
551.000000	0.152444
552.000000	0.153989
553.000000	0.155596
554.000000	0.157289
555.000000	0.159089
556.000000	0.160947
557.000000	0.162835
558.000000	0.164809
559.000000	0.166835
560.000000	0.168849
561.000000	0.170895
562.000000	0.172982
563.000000	0.174968
564.000000	0.176880
565.000000	0.178708
566.000000	0.180509
567.000000	0.182225
568.000000	0.183809
569.000000	0.185302
570.000000	0.186656
571.000000	0.187888
572.000000	0.189089
573.000000	0.190114
574.000000	0.190982
575.000000	0.191804
576.000000	0.192511
577.000000	0.193101
578.000000	0.193613
579.000000	0.193972
580.000000	0.194276
581.000000	0.194554
582.000000	0.194728
583.000000	0.194829
584.000000	0.194879
585.000000	0.194897
586.000000	0.194767
587.000000	0.194546
588.000000	0.194318
589.000000	0.194035
590.000000	0.193687
591.000000	0.193273
592.000000	0.192795
593.000000	0.192282
594.000000	0.191745
595.000000	0.191181
596.000000	0.190571
597.000000	0.189938
598.000000	0.189254
599.000000	0.188524
600.000000	0.187815
601.000000	0.187120
602.000000	0.186403
603.000000	0.185670
604.000000	0.184927
605.000000	0.184156
606.000000	0.183382
607.000000	0.182603
608.000000	0.181798
609.000000	0.181034
610.000000	0.180318
611.000000	0.179636
612.000000	0.178973
613.000000	0.178318
614.000000	0.177683
615.000000	0.177050
616.000000	0.176434
617.000000	0.175816
618.000000	0.175207
619.000000	0.174603
620.000000	0.174011
621.000000	0.173479
622.000000	0.172984
623.000000	0.172503
624.000000	0.172024
625.000000	0.171585
626.000000	0.171143
627.000000	0.170694
628.000000	0.170284
629.000000	0.169942
630.000000	0.169580
631.000000	0.169208
632.000000	0.168885
633.000000	0.168601
634.000000	0.168322
635.000000	0.168039
636.000000	0.167821
637.000000	0.167671
638.000000	0.167465
639.000000	0.167308
640.000000	0.167221
641.000000	0.167070
642.000000	0.166988
643.000000	0.166977
644.000000	0.166995
645.000000	0.167037
646.000000	0.167094
647.000000	0.167153
648.000000	0.167242
649.000000	0.167360
650.000000	0.167512
651.000000	0.167752
652.000000	0.167996
653.000000	0.168258
654.000000	0.168551
655.000000	0.168894
656.000000	0.169276
657.000000	0.169656
658.000000	0.170108
659.000000	0.170559
660.000000	0.170998
661.000000	0.171577
662.000000	0.172144
663.000000	0.172720
664.000000	0.173358
665.000000	0.173987
666.000000	0.174654
667.000000	0.175395
668.000000	0.176147
669.000000	0.176935
670.000000	0.177780
671.000000	0.178668
672.000000	0.179577
673.000000	0.180517
674.000000	0.181542
675.000000	0.182564
676.000000	0.183596
677.000000	0.184690
678.000000	0.185806
679.000000	0.186979
680.000000	0.188227
681.000000	0.189474
682.000000	0.190794
683.000000	0.192156
684.000000	0.193563
685.000000	0.194991
686.000000	0.196453
687.000000	0.197944
688.000000	0.199476
689.000000	0.201048
690.000000	0.202683
691.000000	0.204396
692.000000	0.206116
693.000000	0.207872
694.000000	0.209692
695.000000	0.211529
696.000000	0.213389
697.000000	0.215297
698.000000	0.217258
699.000000	0.219278
700.000000	0.221356
701.000000	0.223456
702.000000	0.225598
703.000000	0.227770
704.000000	0.229950
705.000000	0.232214
706.000000	0.234507
707.000000	0.236792
708.000000	0.239125
709.000000	0.241494
710.000000	0.243896
711.000000	0.246319
712.000000	0.248794
713.000000	0.251332
714.000000	0.253864
715.000000	0.256419
716.000000	0.259002
717.000000	0.261590
718.000000	0.264175
719.000000	0.266762
720.000000	0.269377
721.000000	0.272038
722.000000	0.274704
723.000000	0.277404
724.000000	0.280087
725.000000	0.282753
726.000000	0.285462
727.000000	0.288143
728.000000	0.290804
729.000000	0.293472
730.000000	0.296125
731.000000	0.298801
732.000000	0.301466
733.000000	0.304125
734.000000	0.306716
735.000000	0.309275
736.000000	0.311889
737.000000	0.314397
738.000000	0.316838
739.000000	0.319281
740.000000	0.321620
741.000000	0.324027
742.000000	0.326418
743.000000	0.328726
744.000000	0.330986
745.000000	0.333195
746.000000	0.335398
747.000000	0.337548
748.000000	0.339664
749.000000	0.341722
750.000000	0.343680
751.000000	0.345590
752.000000	0.347460
753.000000	0.349309
754.000000	0.351129
755.000000	0.352933
756.000000	0.354711
757.000000	0.356399
758.000000	0.358002
759.000000	0.359575
760.000000	0.361074
761.000000	0.362562
762.000000	0.364005
763.000000	0.365363
764.000000	0.366687
765.000000	0.367982
766.000000	0.369235
767.000000	0.370429
768.000000	0.371631
769.000000	0.372770
770.000000	0.373818
771.000000	0.374797
772.000000	0.375768
773.000000	0.376687
774.000000	0.377619
775.000000	0.378481
776.000000	0.379271
777.000000	0.379988
778.000000	0.380704
779.000000	0.381376
780.000000	0.381986
781.000000	0.382512
782.000000	0.383055
783.000000	0.383716
784.000000	0.384332
785.000000	0.384827
786.000000	0.385263
787.000000	0.385673
788.000000	0.386045
789.000000	0.386397
790.000000	0.386724
791.000000	0.387065
792.000000	0.387359
793.000000	0.387643
794.000000	0.387949
795.000000	0.388207
796.000000	0.388411
797.000000	0.388572
798.000000	0.388727
799.000000	0.388866
800.000000	0.388997
801.000000	0.389132
802.000000	0.389293
803.000000	0.389422
804.000000	0.389517
805.000000	0.389510
806.000000	0.389452
807.000000	0.389445
808.000000	0.389422
809.000000	0.389437
810.000000	0.389435
811.000000	0.389373
812.000000	0.389364
813.000000	0.389321
814.000000	0.389228
815.000000	0.389159
816.000000	0.389048
817.000000	0.388931
818.000000	0.388767
819.000000	0.388681
820.000000	0.388609
821.000000	0.388478
822.000000	0.388403
823.000000	0.388378
824.000000	0.388259
825.000000	0.388038
826.000000	0.387885
827.000000	0.387704
828.000000	0.387502
829.000000	0.387373
830.000000	0.387124
831.000000	0.386834
832.000000	0.386516
833.000000	0.386174
834.000000	0.385847
835.000000	0.385584
836.000000	0.385280
837.000000	0.384990
838.000000	0.384767
839.000000	0.384608
840.000000	0.384454
841.000000	0.384265
842.000000	0.383980
843.000000	0.383722
844.000000	0.383454
845.000000	0.383147
846.000000	0.382881
847.000000	0.382622
848.000000	0.382314
849.000000	0.381956
850.000000	0.381568
851.000000	0.381163
852.000000	0.380826
853.000000	0.380594
854.000000	0.380284
855.000000	0.380029
856.000000	0.379798
857.000000	0.379486
858.000000	0.379242
859.000000	0.379007
860.000000	0.378659
861.000000	0.378326
862.000000	0.378083
863.000000	0.377858
864.000000	0.377513
865.000000	0.377152
866.000000	0.376846
867.000000	0.376451
868.000000	0.376147
869.000000	0.375860
870.000000	0.375557
871.000000	0.375194
872.000000	0.374816
873.000000	0.374403
874.000000	0.374063
875.000000	0.373628
876.000000	0.373163
877.000000	0.372736
878.000000	0.372347
879.000000	0.372077
880.000000	0.371773
881.000000	0.371440
882.000000	0.370993
883.000000	0.370526
884.000000	0.370115
885.000000	0.369722
886.000000	0.369364
887.000000	0.369059
888.000000	0.368716
889.000000	0.368401
890.000000	0.367989
891.000000	0.367579
892.000000	0.367202
893.000000	0.366836
894.000000	0.366573
895.000000	0.366219
896.000000	0.365789
897.000000	0.365364
898.000000	0.365035
899.000000	0.364743
900.000000	0.364427
901.000000	0.364061
902.000000	0.363820
903.000000	0.363582
904.000000	0.363332
905.000000	0.362972
906.000000	0.362657
907.000000	0.362278
908.000000	0.361870
909.000000	0.361419
910.000000	0.361037
911.000000	0.360662
912.000000	0.360251
913.000000	0.359876
914.000000	0.359596
915.000000	0.359425
916.000000	0.359135
917.000000	0.358705
918.000000	0.358288
919.000000	0.357971
920.000000	0.357697
921.000000	0.357450
922.000000	0.357198
923.000000	0.356884
924.000000	0.356651
925.000000	0.356421
926.000000	0.356181
927.000000	0.355933
928.000000	0.355662
929.000000	0.355319
930.000000	0.354876
931.000000	0.354433
932.000000	0.354042
933.000000	0.353745
934.000000	0.353448
935.000000	0.353078
936.000000	0.352790
937.000000	0.352580
938.000000	0.352319
939.000000	0.352154
940.000000	0.352006
941.000000	0.351842
942.000000	0.351501
943.000000	0.351217
944.000000	0.350956
945.000000	0.350615
946.000000	0.350326
947.000000	0.350100
948.000000	0.349827
949.000000	0.349546
950.000000	0.349223
951.000000	0.348861
952.000000	0.348628
953.000000	0.348360
954.000000	0.348060
955.000000	0.347700
956.000000	0.347408
957.000000	0.347196
958.000000	0.346967
959.000000	0.346738
960.000000	0.346512
961.000000	0.346329
962.000000	0.346171
963.000000	0.346018
964.000000	0.345874
965.000000	0.345730
966.000000	0.345466
967.000000	0.345271
968.000000	0.345023
969.000000	0.344748
970.000000	0.344645
971.000000	0.344398
972.000000	0.344194
973.000000	0.344017
974.000000	0.343784
975.000000	0.343598
976.000000	0.343477
977.000000	0.343402
978.000000	0.343350
979.000000	0.343332
980.000000	0.343123
981.000000	0.342988
982.000000	0.342940
983.000000	0.342788
984.000000	0.342595
985.000000	0.342519
986.000000	0.342612
987.000000	0.342672
988.000000	0.342465
989.000000	0.342278
990.000000	0.342222
991.000000	0.342195
992.000000	0.342118
993.000000	0.342156
994.000000	0.342113
995.000000	0.342121
996.000000	0.342094
997.000000	0.342083
998.000000	0.342108
999.000000	0.342239
1000.000000	0.342336
1001.000000	0.342395
1002.000000	0.342282
1003.000000	0.342006
1004.000000	0.341826
1005.000000	0.341631
1006.000000	0.341358
1007.000000	0.341050
1008.000000	0.340951
1009.000000	0.340854
1010.000000	0.340964
1011.000000	0.341450
1012.000000	0.341672
1013.000000	0.341392
1014.000000	0.341172
1015.000000	0.341125
1016.000000	0.341394
1017.000000	0.341602
1018.000000	0.341889
1019.000000	0.342126
1020.000000	0.342306
1021.000000	0.342007
1022.000000	0.341772
1023.000000	0.341914
1024.000000	0.341782
1025.000000	0.341805
1026.000000	0.342105
1027.000000	0.342052
1028.000000	0.342067
1029.000000	0.342368
1030.000000	0.342536
1031.000000	0.342746
1032.000000	0.342824
1033.000000	0.342789
1034.000000	0.343017
1035.000000	0.343567
1036.000000	0.343838
1037.000000	0.344177
1038.000000	0.344323
1039.000000	0.344313
1040.000000	0.344467
1041.000000	0.344702
1042.000000	0.344833
1043.000000	0.345053
1044.000000	0.345347
1045.000000	0.345474
1046.000000	0.345512
1047.000000	0.345791
1048.000000	0.346156
1049.000000	0.346314
1050.000000	0.346542
1051.000000	0.346700
1052.000000	0.346517
1053.000000	0.346575
1054.000000	0.347066
1055.000000	0.347394
1056.000000	0.347790
1057.000000	0.348077
1058.000000	0.348134
1059.000000	0.348088
1060.000000	0.348295
1061.000000	0.348589
1062.000000	0.348881
1063.000000	0.349413
1064.000000	0.349753
1065.000000	0.349908
1066.000000	0.350133
1067.000000	0.350267
1068.000000	0.350467
1069.000000	0.350634
1070.000000	0.350854
1071.000000	0.351193
1072.000000	0.351536
1073.000000	0.351981
1074.000000	0.352451
1075.000000	0.352739
1076.000000	0.352989
1077.000000	0.353096
1078.000000	0.353093
1079.000000	0.353301
1080.000000	0.353671
1081.000000	0.353932
1082.000000	0.354364
1083.000000	0.354686
1084.000000	0.354905
1085.000000	0.355277
1086.000000	0.355795
1087.000000	0.356138
1088.000000	0.356315
1089.000000	0.356529
1090.000000	0.356644
1091.000000	0.356658
1092.000000	0.356809
1093.000000	0.357213
1094.000000	0.357475
1095.000000	0.357589
1096.000000	0.357949
1097.000000	0.358513
1098.000000	0.358833
1099.000000	0.359075
1100.000000	0.359434
1101.000000	0.359589
1102.000000	0.359858
1103.000000	0.360306
1104.000000	0.360683
1105.000000	0.361029
1106.000000	0.361335
1107.000000	0.361521
1108.000000	0.361771
1109.000000	0.362102
1110.000000	0.362377
1111.000000	0.362650
1112.000000	0.362956
1113.000000	0.363333
1114.000000	0.363730
1115.000000	0.364059
1116.000000	0.364524
1117.000000	0.364791
1118.000000	0.364814
1119.000000	0.364932
1120.000000	0.365061
1121.000000	0.365163
1122.000000	0.365332
1123.000000	0.365710
1124.000000	0.365893
1125.000000	0.366137
1126.000000	0.366401
1127.000000	0.366600
1128.000000	0.366764
1129.000000	0.366906
1130.000000	0.367114
1131.000000	0.367368
1132.000000	0.367520
1133.000000	0.367670
1134.000000	0.367931
1135.000000	0.368175
1136.000000	0.368338
1137.000000	0.368613
1138.000000	0.368687
1139.000000	0.368557
1140.000000	0.368705
1141.000000	0.368899
1142.000000	0.369056
1143.000000	0.369303
1144.000000	0.369548
1145.000000	0.369567
1146.000000	0.369400
1147.000000	0.369422
1148.000000	0.369308
1149.000000	0.369387
1150.000000	0.369641
1151.000000	0.369835
1152.000000	0.369990
1153.000000	0.370199
1154.000000	0.370387
1155.000000	0.370557
1156.000000	0.370778
1157.000000	0.370965
1158.000000	0.371012
1159.000000	0.371161
1160.000000	0.371338
1161.000000	0.371501
1162.000000	0.371728
1163.000000	0.372162
1164.000000	0.372385
1165.000000	0.372579
1166.000000	0.372841
1167.000000	0.373058
1168.000000	0.373222
1169.000000	0.373465
1170.000000	0.373646
1171.000000	0.373759
1172.000000	0.373981
1173.000000	0.374241
1174.000000	0.374410
1175.000000	0.374516
1176.000000	0.374630
1177.000000	0.374797
1178.000000	0.374940
1179.000000	0.375090
1180.000000	0.375183
1181.000000	0.375327
1182.000000	0.375429
1183.000000	0.375638
1184.000000	0.375920
1185.000000	0.376066
1186.000000	0.376172
1187.000000	0.376281
1188.000000	0.376296
1189.000000	0.376372
1190.000000	0.376553
1191.000000	0.376706
1192.000000	0.376961
1193.000000	0.377284
1194.000000	0.377531
1195.000000	0.377765
1196.000000	0.377947
1197.000000	0.378124
1198.000000	0.378282
1199.000000	0.378472
1200.000000	0.378658
1201.000000	0.378838
1202.000000	0.379067
1203.000000	0.379306
1204.000000	0.379478
1205.000000	0.379688
1206.000000	0.379824
1207.000000	0.380016
1208.000000	0.380122
1209.000000	0.380231
1210.000000	0.380392
1211.000000	0.380538
1212.000000	0.380680
1213.000000	0.380943
1214.000000	0.381144
1215.000000	0.381265
1216.000000	0.381407
1217.000000	0.381492
1218.000000	0.381594
1219.000000	0.381715
1220.000000	0.381893
1221.000000	0.382100
1222.000000	0.382278
1223.000000	0.382464
1224.000000	0.382704
1225.000000	0.382862
1226.000000	0.383028
1227.000000	0.383173
1228.000000	0.383319
1229.000000	0.383412
1230.000000	0.383451
1231.000000	0.383487
1232.000000	0.383630
1233.000000	0.383852
1234.000000	0.384100
1235.000000	0.384305
1236.000000	0.384416
1237.000000	0.384596
1238.000000	0.384709
1239.000000	0.384861
1240.000000	0.385064
1241.000000	0.385261
1242.000000	0.385395
1243.000000	0.385596
1244.000000	0.385747
1245.000000	0.385929
1246.000000	0.386164
1247.000000	0.386415
1248.000000	0.386659
1249.000000	0.386910
1250.000000	0.387088
1251.000000	0.387244
1252.000000	0.387419
1253.000000	0.387659
1254.000000	0.387805
1255.000000	0.387895
1256.000000	0.388049
1257.000000	0.388201
1258.000000	0.388400
1259.000000	0.388568
1260.000000	0.388818
1261.000000	0.389028
1262.000000	0.389248
1263.000000	0.389569
1264.000000	0.389813
1265.000000	0.390008
1266.000000	0.390214
1267.000000	0.390381
1268.000000	0.390549
1269.000000	0.390671
1270.000000	0.390869
1271.000000	0.391004
1272.000000	0.391147
1273.000000	0.391442
1274.000000	0.391618
1275.000000	0.391732
1276.000000	0.391870
1277.000000	0.392044
1278.000000	0.391998
1279.000000	0.392081
1280.000000	0.392210
1281.000000	0.392250
1282.000000	0.392284
1283.000000	0.392465
1284.000000	0.392592
1285.000000	0.392759
1286.000000	0.392990
1287.000000	0.393210
1288.000000	0.393400
1289.000000	0.393524
1290.000000	0.393594
1291.000000	0.393677
1292.000000	0.393804
1293.000000	0.393964
1294.000000	0.394052
1295.000000	0.394184
1296.000000	0.394297
1297.000000	0.394376
1298.000000	0.394582
1299.000000	0.394745
1300.000000	0.394909
1301.000000	0.395051
1302.000000	0.395107
1303.000000	0.395258
1304.000000	0.395324
1305.000000	0.395426
1306.000000	0.395503
1307.000000	0.395609
1308.000000	0.395716
1309.000000	0.395829
1310.000000	0.395908
1311.000000	0.395999
1312.000000	0.396016
1313.000000	0.396098
1314.000000	0.396134
1315.000000	0.396129
1316.000000	0.396277
1317.000000	0.396356
1318.000000	0.396343
1319.000000	0.396295
1320.000000	0.396259
1321.000000	0.396202
1322.000000	0.396139
1323.000000	0.396163
1324.000000	0.396206
1325.000000	0.396161
1326.000000	0.396173
1327.000000	0.396243
1328.000000	0.396329
1329.000000	0.396324
1330.000000	0.396331
1331.000000	0.396348
1332.000000	0.396390
1333.000000	0.396391
1334.000000	0.396474
1335.000000	0.396559
1336.000000	0.396568
1337.000000	0.396585
1338.000000	0.396591
1339.000000	0.396559
1340.000000	0.396448
1341.000000	0.396398
1342.000000	0.396358
1343.000000	0.396293
1344.000000	0.396275
1345.000000	0.396292
1346.000000	0.396341
1347.000000	0.396295
1348.000000	0.396302
1349.000000	0.396205
1350.000000	0.396166
1351.000000	0.396151
1352.000000	0.396088
1353.000000	0.396022
1354.000000	0.396010
1355.000000	0.395960
1356.000000	0.395937
1357.000000	0.395867
1358.000000	0.395716
1359.000000	0.395543
1360.000000	0.395413
1361.000000	0.395347
1362.000000	0.395252
1363.000000	0.395161
1364.000000	0.395075
1365.000000	0.394953
1366.000000	0.394823
1367.000000	0.394693
1368.000000	0.394507
1369.000000	0.394421
1370.000000	0.394200
1371.000000	0.393905
1372.000000	0.393622
1373.000000	0.393287
1374.000000	0.392982
1375.000000	0.392658
1376.000000	0.392363
1377.000000	0.392007
1378.000000	0.391534
1379.000000	0.390918
1380.000000	0.390310
1381.000000	0.389602
1382.000000	0.388736
1383.000000	0.387926
1384.000000	0.386846
1385.000000	0.385614
1386.000000	0.384465
1387.000000	0.383186
1388.000000	0.381831
1389.000000	0.380395
1390.000000	0.378799
1391.000000	0.377026
1392.000000	0.375144
1393.000000	0.373143
1394.000000	0.371047
1395.000000	0.368951
1396.000000	0.366797
1397.000000	0.364496
1398.000000	0.362020
1399.000000	0.359685
1400.000000	0.357218
1401.000000	0.354905
1402.000000	0.352782
1403.000000	0.350630
1404.000000	0.348593
1405.000000	0.346672
1406.000000	0.344849
1407.000000	0.343296
1408.000000	0.341795
1409.000000	0.340508
1410.000000	0.339481
1411.000000	0.338468
1412.000000	0.337576
1413.000000	0.336900
1414.000000	0.336356
1415.000000	0.335966
1416.000000	0.335703
1417.000000	0.335488
1418.000000	0.335228
1419.000000	0.335055
1420.000000	0.334850
1421.000000	0.334755
1422.000000	0.334724
1423.000000	0.334712
1424.000000	0.334663
1425.000000	0.334644
1426.000000	0.334575
1427.000000	0.334571
1428.000000	0.334572
1429.000000	0.334544
1430.000000	0.334631
1431.000000	0.334691
1432.000000	0.334722
1433.000000	0.334798
1434.000000	0.334893
1435.000000	0.335014
1436.000000	0.335222
1437.000000	0.335490
1438.000000	0.335773
1439.000000	0.336077
1440.000000	0.336536
1441.000000	0.337094
1442.000000	0.337807
1443.000000	0.338580
1444.000000	0.339518
1445.000000	0.340553
1446.000000	0.341645
1447.000000	0.342870
1448.000000	0.344086
1449.000000	0.345245
1450.000000	0.346388
1451.000000	0.347464
1452.000000	0.348411
1453.000000	0.349293
1454.000000	0.350090
1455.000000	0.350807
1456.000000	0.351534
1457.000000	0.352247
1458.000000	0.352892
1459.000000	0.353446
1460.000000	0.353940
1461.000000	0.354418
1462.000000	0.354933
1463.000000	0.355407
1464.000000	0.355918
1465.000000	0.356534
1466.000000	0.357063
1467.000000	0.357643
1468.000000	0.358319
1469.000000	0.358986
1470.000000	0.359584
1471.000000	0.360256
1472.000000	0.360888
1473.000000	0.361618
1474.000000	0.362370
1475.000000	0.363077
1476.000000	0.363798
1477.000000	0.364433
1478.000000	0.364997
1479.000000	0.365547
1480.000000	0.366076
1481.000000	0.366594
1482.000000	0.367155
1483.000000	0.367737
1484.000000	0.368335
1485.000000	0.368892
1486.000000	0.369421
1487.000000	0.369970
1488.000000	0.370544
1489.000000	0.371110
1490.000000	0.371527
1491.000000	0.372032
1492.000000	0.372509
1493.000000	0.372986
1494.000000	0.373458
1495.000000	0.373910
1496.000000	0.374296
1497.000000	0.374738
1498.000000	0.375242
1499.000000	0.375703
1500.000000	0.376167
1501.000000	0.376591
1502.000000	0.376946
1503.000000	0.377361
1504.000000	0.377773
1505.000000	0.378151
1506.000000	0.378558
1507.000000	0.378887
1508.000000	0.379233
1509.000000	0.379570
1510.000000	0.379833
1511.000000	0.380174
1512.000000	0.380436
1513.000000	0.380664
1514.000000	0.380977
1515.000000	0.381203
1516.000000	0.381473
1517.000000	0.381735
1518.000000	0.381957
1519.000000	0.382118
1520.000000	0.382347
1521.000000	0.382575
1522.000000	0.382844
1523.000000	0.383194
1524.000000	0.383419
1525.000000	0.383675
1526.000000	0.383917
1527.000000	0.384137
1528.000000	0.384462
1529.000000	0.384748
1530.000000	0.384926
1531.000000	0.385213
1532.000000	0.385508
1533.000000	0.385706
1534.000000	0.385961
1535.000000	0.386196
1536.000000	0.386287
1537.000000	0.386518
1538.000000	0.386779
1539.000000	0.386924
1540.000000	0.387145
1541.000000	0.387410
1542.000000	0.387641
1543.000000	0.387896
1544.000000	0.388094
1545.000000	0.388260
1546.000000	0.388408
1547.000000	0.388555
1548.000000	0.388709
1549.000000	0.388798
1550.000000	0.388878
1551.000000	0.388980
1552.000000	0.389117
1553.000000	0.389274
1554.000000	0.389426
1555.000000	0.389616
1556.000000	0.389812
1557.000000	0.389961
1558.000000	0.390130
1559.000000	0.390226
1560.000000	0.390342
1561.000000	0.390508
1562.000000	0.390622
1563.000000	0.390798
1564.000000	0.390906
1565.000000	0.390951
1566.000000	0.390931
1567.000000	0.390950
1568.000000	0.390998
1569.000000	0.391123
1570.000000	0.391206
1571.000000	0.391275
1572.000000	0.391359
1573.000000	0.391424
1574.000000	0.391527
1575.000000	0.391715
1576.000000	0.391878
1577.000000	0.392020
1578.000000	0.392129
1579.000000	0.392322
1580.000000	0.392418
1581.000000	0.392537
1582.000000	0.392614
1583.000000	0.392615
1584.000000	0.392594
1585.000000	0.392632
1586.000000	0.392693
1587.000000	0.392751
1588.000000	0.392811
1589.000000	0.392905
1590.000000	0.392990
1591.000000	0.393091
1592.000000	0.393200
1593.000000	0.393399
1594.000000	0.393468
1595.000000	0.393533
1596.000000	0.393580
1597.000000	0.393554
1598.000000	0.393597
1599.000000	0.393740
1600.000000	0.393767
1601.000000	0.393848
1602.000000	0.393920
1603.000000	0.393959
1604.000000	0.394029
1605.000000	0.394207
1606.000000	0.394287
1607.000000	0.394383
1608.000000	0.394464
1609.000000	0.394566
1610.000000	0.394621
1611.000000	0.394701
1612.000000	0.394727
1613.000000	0.394820
1614.000000	0.394841
1615.000000	0.394892
1616.000000	0.394957
1617.000000	0.394931
1618.000000	0.394931
1619.000000	0.394919
1620.000000	0.394915
1621.000000	0.394945
1622.000000	0.395048
1623.000000	0.395152
1624.000000	0.395222
1625.000000	0.395135
1626.000000	0.395083
1627.000000	0.395023
1628.000000	0.395075
1629.000000	0.395207
1630.000000	0.395299
1631.000000	0.395337
1632.000000	0.395357
1633.000000	0.395333
1634.000000	0.395394
1635.000000	0.395554
1636.000000	0.395667
1637.000000	0.395841
1638.000000	0.395941
1639.000000	0.396072
1640.000000	0.396160
1641.000000	0.396267
1642.000000	0.396370
1643.000000	0.396511
1644.000000	0.396605
1645.000000	0.396700
1646.000000	0.396709
1647.000000	0.396691
1648.000000	0.396643
1649.000000	0.396652
1650.000000	0.396674
1651.000000	0.396717
1652.000000	0.396806
1653.000000	0.396846
1654.000000	0.396959
1655.000000	0.397101
1656.000000	0.397059
1657.000000	0.397044
1658.000000	0.397039
1659.000000	0.397067
1660.000000	0.397144
1661.000000	0.397186
1662.000000	0.397220
1663.000000	0.397183
1664.000000	0.397209
1665.000000	0.397281
1666.000000	0.397409
1667.000000	0.397460
1668.000000	0.397541
1669.000000	0.397639
1670.000000	0.397640
1671.000000	0.397736
1672.000000	0.397859
1673.000000	0.397905
1674.000000	0.397982
1675.000000	0.398165
1676.000000	0.398290
1677.000000	0.398381
1678.000000	0.398469
1679.000000	0.398537
1680.000000	0.398535
1681.000000	0.398582
1682.000000	0.398662
1683.000000	0.398749
1684.000000	0.398858
1685.000000	0.398981
1686.000000	0.399041
1687.000000	0.399078
1688.000000	0.399034
1689.000000	0.398968
1690.000000	0.398820
1691.000000	0.398764
1692.000000	0.398692
1693.000000	0.398576
1694.000000	0.398511
1695.000000	0.398529
1696.000000	0.398486
1697.000000	0.398400
1698.000000	0.398338
1699.000000	0.398346
1700.000000	0.398396
1701.000000	0.398519
1702.000000	0.398513
1703.000000	0.398459
1704.000000	0.398460
1705.000000	0.398473
1706.000000	0.398576
1707.000000	0.398599
1708.000000	0.398561
1709.000000	0.398451
1710.000000	0.398349
1711.000000	0.398294
1712.000000	0.398292
1713.000000	0.398236
1714.000000	0.398235
1715.000000	0.398190
1716.000000	0.398117
1717.000000	0.398025
1718.000000	0.397820
1719.000000	0.397716
1720.000000	0.397738
1721.000000	0.397678
1722.000000	0.397658
1723.000000	0.397613
1724.000000	0.397517
1725.000000	0.397489
1726.000000	0.397400
1727.000000	0.397344
1728.000000	0.397236
1729.000000	0.397075
1730.000000	0.397062
1731.000000	0.397031
1732.000000	0.396994
1733.000000	0.397026
1734.000000	0.396934
1735.000000	0.396921
1736.000000	0.396897
1737.000000	0.396877
1738.000000	0.396920
1739.000000	0.396935
1740.000000	0.396913
1741.000000	0.396870
1742.000000	0.396828
1743.000000	0.396895
1744.000000	0.396961
1745.000000	0.396966
1746.000000	0.397020
1747.000000	0.396967
1748.000000	0.396864
1749.000000	0.396805
1750.000000	0.396672
1751.000000	0.396587
1752.000000	0.396630
1753.000000	0.396573
1754.000000	0.396493
1755.000000	0.396373
1756.000000	0.396243
1757.000000	0.396065
1758.000000	0.395923
1759.000000	0.395741
1760.000000	0.395644
1761.000000	0.395574
1762.000000	0.395457
1763.000000	0.395395
1764.000000	0.395341
1765.000000	0.395187
1766.000000	0.395121
1767.000000	0.395085
1768.000000	0.394926
1769.000000	0.394813
1770.000000	0.394762
1771.000000	0.394649
1772.000000	0.394520
1773.000000	0.394335
1774.000000	0.394230
1775.000000	0.394179
1776.000000	0.394147
1777.000000	0.394190
1778.000000	0.394108
1779.000000	0.393915
1780.000000	0.393842
1781.000000	0.393727
1782.000000	0.393657
1783.000000	0.393716
1784.000000	0.393738
1785.000000	0.393658
1786.000000	0.393590
1787.000000	0.393678
1788.000000	0.393628
1789.000000	0.393522
1790.000000	0.393456
1791.000000	0.393300
1792.000000	0.393202
1793.000000	0.393127
1794.000000	0.393047
1795.000000	0.393013
1796.000000	0.393043
1797.000000	0.393009
1798.000000	0.392891
1799.000000	0.392851
1800.000000	0.392916
1801.000000	0.392956
1802.000000	0.393036
1803.000000	0.392666
1804.000000	0.392750
1805.000000	0.392877
1806.000000	0.392938
1807.000000	0.393251
1808.000000	0.393364
1809.000000	0.393404
1810.000000	0.393025
1811.000000	0.392945
1812.000000	0.392870
1813.000000	0.393004
1814.000000	0.393493
1815.000000	0.393575
1816.000000	0.393685
1817.000000	0.393479
1818.000000	0.392844
1819.000000	0.392577
1820.000000	0.392308
1821.000000	0.392029
1822.000000	0.391875
1823.000000	0.391688
1824.000000	0.391565
1825.000000	0.391511
1826.000000	0.391499
1827.000000	0.391432
1828.000000	0.391320
1829.000000	0.391271
1830.000000	0.391394
1831.000000	0.391406
1832.000000	0.391534
1833.000000	0.391388
1834.000000	0.391090
1835.000000	0.390769
1836.000000	0.390104
1837.000000	0.389737
1838.000000	0.389355
1839.000000	0.388871
1840.000000	0.388678
1841.000000	0.388384
1842.000000	0.388099
1843.000000	0.387750
1844.000000	0.387558
1845.000000	0.387248
1846.000000	0.387165
1847.000000	0.387206
1848.000000	0.386944
1849.000000	0.386893
1850.000000	0.386691
1851.000000	0.386363
1852.000000	0.385814
1853.000000	0.385421
1854.000000	0.384724
1855.000000	0.384034
1856.000000	0.383241
1857.000000	0.382519
1858.000000	0.381658
1859.000000	0.380700
1860.000000	0.379736
1861.000000	0.378955
1862.000000	0.377983
1863.000000	0.377112
1864.000000	0.376045
1865.000000	0.374959
1866.000000	0.373533
1867.000000	0.371653
1868.000000	0.370042
1869.000000	0.368366
1870.000000	0.366439
1871.000000	0.364551
1872.000000	0.362601
1873.000000	0.360397
1874.000000	0.357829
1875.000000	0.355328
1876.000000	0.352694
1877.000000	0.349331
1878.000000	0.345903
1879.000000	0.342374
1880.000000	0.338564
1881.000000	0.334737
1882.000000	0.330608
1883.000000	0.326217
1884.000000	0.321655
1885.000000	0.316616
1886.000000	0.311362
1887.000000	0.305898
1888.000000	0.299914
1889.000000	0.293805
1890.000000	0.287661
1891.000000	0.281623
1892.000000	0.275569
1893.000000	0.269237
1894.000000	0.263039
1895.000000	0.256952
1896.000000	0.250931
1897.000000	0.245135
1898.000000	0.239618
1899.000000	0.234669
1900.000000	0.230168
1901.000000	0.226138
1902.000000	0.222886
1903.000000	0.220220
1904.000000	0.217868
1905.000000	0.215894
1906.000000	0.214611
1907.000000	0.214040
1908.000000	0.213663
1909.000000	0.213716
1910.000000	0.214553
1911.000000	0.215369
1912.000000	0.216499
1913.000000	0.218105
1914.000000	0.219847
1915.000000	0.221485
1916.000000	0.223178
1917.000000	0.224807
1918.000000	0.226592
1919.000000	0.228064
1920.000000	0.229518
1921.000000	0.231390
1922.000000	0.233119
1923.000000	0.234854
1924.000000	0.236610
1925.000000	0.237833
1926.000000	0.238909
1927.000000	0.240230
1928.000000	0.241381
1929.000000	0.242533
1930.000000	0.243572
1931.000000	0.244665
1932.000000	0.245498
1933.000000	0.246240
1934.000000	0.247174
1935.000000	0.248011
1936.000000	0.248814
1937.000000	0.249656
1938.000000	0.250407
1939.000000	0.251061
1940.000000	0.251631
1941.000000	0.252172
1942.000000	0.252711
1943.000000	0.253075
1944.000000	0.253205
1945.000000	0.253380
1946.000000	0.253610
1947.000000	0.253687
1948.000000	0.254102
1949.000000	0.254666
1950.000000	0.255009
1951.000000	0.255323
1952.000000	0.255765
1953.000000	0.256016
1954.000000	0.256367
1955.000000	0.256745
1956.000000	0.257043
1957.000000	0.257518
1958.000000	0.257831
1959.000000	0.258253
1960.000000	0.258663
1961.000000	0.258979
1962.000000	0.259351
1963.000000	0.259784
1964.000000	0.260154
1965.000000	0.260550
1966.000000	0.261134
1967.000000	0.261568
1968.000000	0.261855
1969.000000	0.262196
1970.000000	0.262444
1971.000000	0.262732
1972.000000	0.263195
1973.000000	0.263567
1974.000000	0.264121
1975.000000	0.264616
1976.000000	0.265067
1977.000000	0.265638
1978.000000	0.266244
1979.000000	0.266909
1980.000000	0.267800
1981.000000	0.268714
1982.000000	0.269618
1983.000000	0.270768
1984.000000	0.271541
1985.000000	0.272138
1986.000000	0.272729
1987.000000	0.273172
1988.000000	0.273624
1989.000000	0.274513
1990.000000	0.275555
1991.000000	0.276588
1992.000000	0.277602
1993.000000	0.278260
1994.000000	0.278759
1995.000000	0.279432
1996.000000	0.280216
1997.000000	0.281134
1998.000000	0.282490
1999.000000	0.283585
2000.000000	0.284714
2001.000000	0.285643
2002.000000	0.286499
2003.000000	0.287482
2004.000000	0.288353
2005.000000	0.289121
2006.000000	0.290031
2007.000000	0.290846
2008.000000	0.291791
2009.000000	0.292920
2010.000000	0.293936
2011.000000	0.294751
2012.000000	0.295634
2013.000000	0.296473
2014.000000	0.297145
2015.000000	0.297953
2016.000000	0.298790
2017.000000	0.299483
2018.000000	0.300141
2019.000000	0.300986
2020.000000	0.301859
2021.000000	0.302648
2022.000000	0.303488
2023.000000	0.304232
2024.000000	0.304792
2025.000000	0.305587
2026.000000	0.306345
2027.000000	0.307063
2028.000000	0.307938
2029.000000	0.308748
2030.000000	0.309657
2031.000000	0.310633
2032.000000	0.311593
2033.000000	0.312491
2034.000000	0.313208
2035.000000	0.313878
2036.000000	0.314342
2037.000000	0.314710
2038.000000	0.315213
2039.000000	0.315742
2040.000000	0.316274
2041.000000	0.316838
2042.000000	0.317525
2043.000000	0.318233
2044.000000	0.318859
2045.000000	0.319499
2046.000000	0.319927
2047.000000	0.320422
2048.000000	0.320722
2049.000000	0.321387
2050.000000	0.321874
2051.000000	0.322363
2052.000000	0.322793
2053.000000	0.323185
2054.000000	0.323809
2055.000000	0.324498
2056.000000	0.324993
2057.000000	0.325608
2058.000000	0.326000
2059.000000	0.326389
2060.000000	0.326824
2061.000000	0.327330
2062.000000	0.327773
2063.000000	0.328302
2064.000000	0.328541
2065.000000	0.328991
2066.000000	0.329221
2067.000000	0.329493
2068.000000	0.329738
2069.000000	0.330187
2070.000000	0.330475
2071.000000	0.330716
2072.000000	0.331347
2073.000000	0.331753
2074.000000	0.332118
2075.000000	0.332360
2076.000000	0.332298
2077.000000	0.332556
2078.000000	0.332867
2079.000000	0.333156
2080.000000	0.333737
2081.000000	0.334241
2082.000000	0.334734
2083.000000	0.335127
2084.000000	0.335521
2085.000000	0.335721
2086.000000	0.335806
2087.000000	0.336043
2088.000000	0.336574
2089.000000	0.337193
2090.000000	0.337715
2091.000000	0.338412
2092.000000	0.338961
2093.000000	0.339451
2094.000000	0.339860
2095.000000	0.340238
2096.000000	0.340624
2097.000000	0.340900
2098.000000	0.340956
2099.000000	0.341134
2100.000000	0.341625
2101.000000	0.342048
2102.000000	0.342444
2103.000000	0.342858
2104.000000	0.343045
2105.000000	0.343229
2106.000000	0.343229
2107.000000	0.343419
2108.000000	0.343628
2109.000000	0.343854
2110.000000	0.343937
2111.000000	0.344113
2112.000000	0.344225
2113.000000	0.344140
2114.000000	0.344425
2115.000000	0.344679
2116.000000	0.344887
2117.000000	0.345157
2118.000000	0.345412
2119.000000	0.345562
2120.000000	0.345722
2121.000000	0.345874
2122.000000	0.346005
2123.000000	0.346027
2124.000000	0.346191
2125.000000	0.346569
2126.000000	0.346606
2127.000000	0.346446
2128.000000	0.346578
2129.000000	0.346423
2130.000000	0.346645
2131.000000	0.346947
2132.000000	0.347149
2133.000000	0.347498
2134.000000	0.347912
2135.000000	0.348328
2136.000000	0.348590
2137.000000	0.348728
2138.000000	0.348557
2139.000000	0.348643
2140.000000	0.348706
2141.000000	0.348945
2142.000000	0.349355
2143.000000	0.349492
2144.000000	0.349826
2145.000000	0.350163
2146.000000	0.350554
2147.000000	0.351228
2148.000000	0.351542
2149.000000	0.352056
2150.000000	0.352125
2151.000000	0.351918
2152.000000	0.351955
2153.000000	0.351845
2154.000000	0.351811
2155.000000	0.351940
2156.000000	0.352046
2157.000000	0.352169
2158.000000	0.352295
2159.000000	0.352667
2160.000000	0.352864
2161.000000	0.352820
2162.000000	0.352910
2163.000000	0.352767
2164.000000	0.352757
2165.000000	0.352763
2166.000000	0.353157
2167.000000	0.353187
2168.000000	0.353170
2169.000000	0.353009
2170.000000	0.352537
2171.000000	0.352319
2172.000000	0.352150
2173.000000	0.352058
2174.000000	0.352143
2175.000000	0.352017
2176.000000	0.351828
2177.000000	0.351802
2178.000000	0.351824
2179.000000	0.351909
2180.000000	0.352117
2181.000000	0.352487
2182.000000	0.352313
2183.000000	0.351936
2184.000000	0.352215
2185.000000	0.351993
2186.000000	0.351606
2187.000000	0.351936
2188.000000	0.351871
2189.000000	0.351501
2190.000000	0.351092
2191.000000	0.351098
2192.000000	0.351145
2193.000000	0.351284
2194.000000	0.351303
2195.000000	0.351722
2196.000000	0.351818
2197.000000	0.351568
2198.000000	0.351436
2199.000000	0.351318
2200.000000	0.351308
2201.000000	0.351261
2202.000000	0.351068
2203.000000	0.350734
2204.000000	0.350435
2205.000000	0.349363
2206.000000	0.348789
2207.000000	0.348478
2208.000000	0.348144
2209.000000	0.347093
2210.000000	0.346699
2211.000000	0.346275
2212.000000	0.346030
2213.000000	0.345944
2214.000000	0.346445
2215.000000	0.346311
2216.000000	0.345857
2217.000000	0.345804
2218.000000	0.346140
2219.000000	0.346051
2220.000000	0.345996
2221.000000	0.345498
2222.000000	0.343990
2223.000000	0.343508
2224.000000	0.343355
2225.000000	0.343539
2226.000000	0.343432
2227.000000	0.342220
2228.000000	0.340991
2229.000000	0.339224
2230.000000	0.338413
2231.000000	0.338002
2232.000000	0.337186
2233.000000	0.337106
2234.000000	0.336202
2235.000000	0.335891
2236.000000	0.335403
2237.000000	0.334619
2238.000000	0.334132
2239.000000	0.334060
2240.000000	0.333571
2241.000000	0.333004
2242.000000	0.332452
2243.000000	0.331294
2244.000000	0.331110
2245.000000	0.331621
2246.000000	0.331875
2247.000000	0.332408
2248.000000	0.332555
2249.000000	0.332827
2250.000000	0.332530
2251.000000	0.331114
2252.000000	0.330416
2253.000000	0.328640
2254.000000	0.327622
2255.000000	0.327529
2256.000000	0.327597
2257.000000	0.328444
2258.000000	0.328346
2259.000000	0.328193
2260.000000	0.328606
2261.000000	0.328183
2262.000000	0.327142
2263.000000	0.326582
2264.000000	0.325650
2265.000000	0.325152
2266.000000	0.325689
2267.000000	0.324941
2268.000000	0.323633
2269.000000	0.322587
2270.000000	0.320808
2271.000000	0.319214
2272.000000	0.318067
2273.000000	0.316645
2274.000000	0.315105
2275.000000	0.313093
2276.000000	0.311200
2277.000000	0.308196
2278.000000	0.304701
2279.000000	0.301564
2280.000000	0.298893
2281.000000	0.296569
2282.000000	0.293749
2283.000000	0.291359
2284.000000	0.288906
2285.000000	0.285839
2286.000000	0.283461
2287.000000	0.280944
2288.000000	0.277680
2289.000000	0.275357
2290.000000	0.273658
2291.000000	0.272400
2292.000000	0.272016
2293.000000	0.270932
2294.000000	0.269952
2295.000000	0.268781
2296.000000	0.267790
2297.000000	0.266408
2298.000000	0.266316
2299.000000	0.266817
2300.000000	0.267494
2301.000000	0.269140
2302.000000	0.270478
2303.000000	0.271554
2304.000000	0.272744
2305.000000	0.274443
2306.000000	0.275640
2307.000000	0.275892
2308.000000	0.277988
2309.000000	0.280039
2310.000000	0.282032
2311.000000	0.285865
2312.000000	0.288645
2313.000000	0.290846
2314.000000	0.293102
2315.000000	0.294269
2316.000000	0.295543
2317.000000	0.296307
2318.000000	0.297373
2319.000000	0.298509
2320.000000	0.298776
2321.000000	0.299832
2322.000000	0.300389
2323.000000	0.300203
2324.000000	0.300660
2325.000000	0.300480
2326.000000	0.299974
2327.000000	0.300423
2328.000000	0.300798
2329.000000	0.300859
2330.000000	0.300785
2331.000000	0.299807
2332.000000	0.299201
2333.000000	0.299356
2334.000000	0.299182
2335.000000	0.299553
2336.000000	0.300082
2337.000000	0.299782
2338.000000	0.299077
2339.000000	0.298924
2340.000000	0.298680
2341.000000	0.298213
2342.000000	0.298067
2343.000000	0.298009
2344.000000	0.297470
2345.000000	0.297381
2346.000000	0.298298
2347.000000	0.297590
2348.000000	0.296382
2349.000000	0.294235
2350.000000	0.291652
2351.000000	0.290119
2352.000000	0.288752
2353.000000	0.288699
2354.000000	0.288016
2355.000000	0.287478
2356.000000	0.286820
2357.000000	0.284553
2358.000000	0.282991
2359.000000	0.281762
2360.000000	0.280993
2361.000000	0.281748
2362.000000	0.281345
2363.000000	0.280500
2364.000000	0.278684
2365.000000	0.275987
2366.000000	0.274655
2367.000000	0.273764
2368.000000	0.272915
2369.000000	0.272294
2370.000000	0.271036
2371.000000	0.269370
2372.000000	0.269670
2373.000000	0.270248
2374.000000	0.269202
2375.000000	0.268944
2376.000000	0.268127
2377.000000	0.265681
2378.000000	0.264796
2379.000000	0.263203
2380.000000	0.259371
2381.000000	0.256626
2382.000000	0.254176
2383.000000	0.252040
2384.000000	0.251422
2385.000000	0.250976
2386.000000	0.248780
2387.000000	0.246004
2388.000000	0.243977
2389.000000	0.242489
2390.000000	0.241757
2391.000000	0.241849
2392.000000	0.241365
2393.000000	0.239512
2394.000000	0.239099
2395.000000	0.239135
2396.000000	0.240255
2397.000000	0.242680
2398.000000	0.243918
2399.000000	0.245196
2400.000000	0.243530
2401.000000	0.240494
2402.000000	0.238844
2403.000000	0.236554
2404.000000	0.236389
2405.000000	0.237449
2406.000000	0.238378
2407.000000	0.239093
2408.000000	0.238703
2409.000000	0.239374
2410.000000	0.240251
2411.000000	0.240605
2412.000000	0.243235
2413.000000	0.246454
2414.000000	0.245362
2415.000000	0.244404
2416.000000	0.244741
2417.000000	0.244271
2418.000000	0.246622
2419.000000	0.247654
2420.000000	0.246900
2421.000000	0.243724
2422.000000	0.239566
2423.000000	0.239756
2424.000000	0.238285
2425.000000	0.238746
2426.000000	0.240410
2427.000000	0.238248
2428.000000	0.239366
2429.000000	0.238350
2430.000000	0.236587
2431.000000	0.239903
2432.000000	0.241851
2433.000000	0.243369
2434.000000	0.243844
2435.000000	0.239774
2436.000000	0.236364
2437.000000	0.237247
2438.000000	0.236906
2439.000000	0.238318
2440.000000	0.242620
2441.000000	0.243573
2442.000000	0.245586
2443.000000	0.248707
2444.000000	0.249474
2445.000000	0.250113
2446.000000	0.253482
2447.000000	0.253627
2448.000000	0.246504
2449.000000	0.238208
2450.000000	0.227545
2451.000000	0.220897
2452.000000	0.220780
2453.000000	0.222912
2454.000000	0.228234
2455.000000	0.229375
2456.000000	0.229480
2457.000000	0.229667
2458.000000	0.230928
2459.000000	0.229993
2460.000000	0.228246
2461.000000	0.231819
2462.000000	0.223961
2463.000000	0.217797
2464.000000	0.222409
2465.000000	0.221562
2466.000000	0.224530
2467.000000	0.232613
2468.000000	0.229764
2469.000000	0.221292
2470.000000	0.220181
2471.000000	0.219188
2472.000000	0.219063
2473.000000	0.224764
2474.000000	0.222284
2475.000000	0.216465
2476.000000	0.211661
2477.000000	0.205093
2478.000000	0.207742
2479.000000	0.206061
2480.000000	0.205396
2481.000000	0.216052
2482.000000	0.218375
2483.000000	0.222665
2484.000000	0.219912
2485.000000	0.207929
2486.000000	0.194855
2487.000000	0.189704
2488.000000	0.205199
2489.000000	0.211171
2490.000000	0.218583
2491.000000	0.220699
2492.000000	0.212419
2493.000000	0.198676
2494.000000	0.202262
2495.000000	0.213340
2496.000000	0.214294
2497.000000	0.213539
2498.000000	0.220925
2499.000000	0.232787
2500.000000	0.237298
