# Wavelength	Nau-1_00001.asd.rts.txt
350.000000	0.076282
351.000000	0.066792
352.000000	0.069452
353.000000	0.073344
354.000000	0.072795
355.000000	0.069826
356.000000	0.070355
357.000000	0.073280
358.000000	0.071495
359.000000	0.071801
360.000000	0.072242
361.000000	0.069933
362.000000	0.071847
363.000000	0.070790
364.000000	0.064712
365.000000	0.067132
366.000000	0.068047
367.000000	0.065677
368.000000	0.065021
369.000000	0.066805
370.000000	0.068568
371.000000	0.067464
372.000000	0.067496
373.000000	0.068245
374.000000	0.069002
375.000000	0.069065
376.000000	0.069040
377.000000	0.069531
378.000000	0.071344
379.000000	0.073042
380.000000	0.073889
381.000000	0.073822
382.000000	0.073662
383.000000	0.074459
384.000000	0.076292
385.000000	0.076276
386.000000	0.077141
387.000000	0.079215
388.000000	0.080237
389.000000	0.080049
390.000000	0.080616
391.000000	0.084097
392.000000	0.085559
393.000000	0.086398
394.000000	0.088174
395.000000	0.090007
396.000000	0.091743
397.000000	0.093359
398.000000	0.094975
399.000000	0.096907
400.000000	0.098928
401.000000	0.100539
402.000000	0.101969
403.000000	0.103708
404.000000	0.106042
405.000000	0.108087
406.000000	0.109650
407.000000	0.110878
408.000000	0.112246
409.000000	0.114150
410.000000	0.116226
411.000000	0.117632
412.000000	0.119372
413.000000	0.120959
414.000000	0.121824
415.000000	0.122738
416.000000	0.123774
417.000000	0.124824
418.000000	0.125517
419.000000	0.126130
420.000000	0.126731
421.000000	0.127225
422.000000	0.127479
423.000000	0.127771
424.000000	0.128411
425.000000	0.128235
426.000000	0.128002
427.000000	0.128207
428.000000	0.127817
429.000000	0.127388
430.000000	0.127188
431.000000	0.127162
432.000000	0.127037
433.000000	0.126793
434.000000	0.126586
435.000000	0.126465
436.000000	0.126276
437.000000	0.125881
438.000000	0.125447
439.000000	0.124977
440.000000	0.124463
441.000000	0.123680
442.000000	0.123096
443.000000	0.122624
444.000000	0.121859
445.000000	0.121401
446.000000	0.121355
447.000000	0.121582
448.000000	0.122021
449.000000	0.122776
450.000000	0.123952
451.000000	0.125575
452.000000	0.127713
453.000000	0.130315
454.000000	0.133314
455.000000	0.136580
456.000000	0.140119
457.000000	0.143885
458.000000	0.147646
459.000000	0.151377
460.000000	0.155059
461.000000	0.158350
462.000000	0.161422
463.000000	0.164244
464.000000	0.166689
465.000000	0.168867
466.000000	0.170867
467.000000	0.172862
468.000000	0.174545
469.000000	0.175920
470.000000	0.177209
471.000000	0.178521
472.000000	0.179741
473.000000	0.180811
474.000000	0.181808
475.000000	0.182718
476.000000	0.183638
477.000000	0.184551
478.000000	0.185269
479.000000	0.186015
480.000000	0.186916
481.000000	0.187763
482.000000	0.188636
483.000000	0.189464
484.000000	0.190225
485.000000	0.190947
486.000000	0.191743
487.000000	0.192429
488.000000	0.193288
489.000000	0.194267
490.000000	0.195065
491.000000	0.195860
492.000000	0.196704
493.000000	0.197513
494.000000	0.198368
495.000000	0.199270
496.000000	0.200172
497.000000	0.201054
498.000000	0.201958
499.000000	0.202954
500.000000	0.204006
501.000000	0.205117
502.000000	0.206207
503.000000	0.207115
504.000000	0.208216
505.000000	0.209396
506.000000	0.210496
507.000000	0.211594
508.000000	0.212747
509.000000	0.213941
510.000000	0.215151
511.000000	0.216317
512.000000	0.217502
513.000000	0.218826
514.000000	0.220115
515.000000	0.221394
516.000000	0.222695
517.000000	0.223994
518.000000	0.225362
519.000000	0.226771
520.000000	0.228156
521.000000	0.229631
522.000000	0.231206
523.000000	0.232713
524.000000	0.234259
525.000000	0.235849
526.000000	0.237474
527.000000	0.239083
528.000000	0.240707
529.000000	0.242428
530.000000	0.244153
531.000000	0.245955
532.000000	0.247796
533.000000	0.249651
534.000000	0.251535
535.000000	0.253448
536.000000	0.255416
537.000000	0.257389
538.000000	0.259358
539.000000	0.261325
540.000000	0.263341
541.000000	0.265359
542.000000	0.267368
543.000000	0.269400
544.000000	0.271460
545.000000	0.273489
546.000000	0.275544
547.000000	0.277577
548.000000	0.279630
549.000000	0.281716
550.000000	0.283799
551.000000	0.285868
552.000000	0.287871
553.000000	0.289880
554.000000	0.291894
555.000000	0.293912
556.000000	0.295940
557.000000	0.297889
558.000000	0.299842
559.000000	0.301718
560.000000	0.303557
561.000000	0.305419
562.000000	0.307214
563.000000	0.308945
564.000000	0.310654
565.000000	0.312273
566.000000	0.313928
567.000000	0.315520
568.000000	0.316975
569.000000	0.318383
570.000000	0.319758
571.000000	0.321092
572.000000	0.322381
573.000000	0.323593
574.000000	0.324713
575.000000	0.325801
576.000000	0.326866
577.000000	0.327845
578.000000	0.328765
579.000000	0.329677
580.000000	0.330495
581.000000	0.331200
582.000000	0.331897
583.000000	0.332528
584.000000	0.333103
585.000000	0.333669
586.000000	0.334150
587.000000	0.334575
588.000000	0.334997
589.000000	0.335438
590.000000	0.335803
591.000000	0.336053
592.000000	0.336294
593.000000	0.336535
594.000000	0.336760
595.000000	0.336932
596.000000	0.337095
597.000000	0.337265
598.000000	0.337338
599.000000	0.337388
600.000000	0.337464
601.000000	0.337506
602.000000	0.337553
603.000000	0.337559
604.000000	0.337531
605.000000	0.337545
606.000000	0.337502
607.000000	0.337414
608.000000	0.337357
609.000000	0.337319
610.000000	0.337298
611.000000	0.337278
612.000000	0.337200
613.000000	0.337074
614.000000	0.336956
615.000000	0.336841
616.000000	0.336738
617.000000	0.336612
618.000000	0.336493
619.000000	0.336396
620.000000	0.336273
621.000000	0.336125
622.000000	0.336018
623.000000	0.335922
624.000000	0.335815
625.000000	0.335784
626.000000	0.335760
627.000000	0.335725
628.000000	0.335742
629.000000	0.335847
630.000000	0.335884
631.000000	0.335906
632.000000	0.335920
633.000000	0.335963
634.000000	0.336039
635.000000	0.336069
636.000000	0.336154
637.000000	0.336313
638.000000	0.336434
639.000000	0.336550
640.000000	0.336703
641.000000	0.336767
642.000000	0.336902
643.000000	0.337086
644.000000	0.337244
645.000000	0.337376
646.000000	0.337536
647.000000	0.337731
648.000000	0.337944
649.000000	0.338205
650.000000	0.338474
651.000000	0.338668
652.000000	0.338900
653.000000	0.339206
654.000000	0.339494
655.000000	0.339803
656.000000	0.340121
657.000000	0.340382
658.000000	0.340708
659.000000	0.341053
660.000000	0.341378
661.000000	0.341723
662.000000	0.342061
663.000000	0.342453
664.000000	0.342894
665.000000	0.343372
666.000000	0.343838
667.000000	0.344234
668.000000	0.344718
669.000000	0.345228
670.000000	0.345722
671.000000	0.346206
672.000000	0.346737
673.000000	0.347294
674.000000	0.347818
675.000000	0.348340
676.000000	0.348891
677.000000	0.349504
678.000000	0.350077
679.000000	0.350641
680.000000	0.351245
681.000000	0.351895
682.000000	0.352610
683.000000	0.353298
684.000000	0.354010
685.000000	0.354720
686.000000	0.355445
687.000000	0.356153
688.000000	0.356869
689.000000	0.357637
690.000000	0.358498
691.000000	0.359295
692.000000	0.360078
693.000000	0.360955
694.000000	0.361895
695.000000	0.362830
696.000000	0.363745
697.000000	0.364654
698.000000	0.365562
699.000000	0.366500
700.000000	0.367476
701.000000	0.368371
702.000000	0.369304
703.000000	0.370281
704.000000	0.371221
705.000000	0.372189
706.000000	0.373149
707.000000	0.374143
708.000000	0.375168
709.000000	0.376190
710.000000	0.377206
711.000000	0.378231
712.000000	0.379255
713.000000	0.380298
714.000000	0.381354
715.000000	0.382381
716.000000	0.383403
717.000000	0.384438
718.000000	0.385438
719.000000	0.386421
720.000000	0.387425
721.000000	0.388458
722.000000	0.389431
723.000000	0.390413
724.000000	0.391462
725.000000	0.392449
726.000000	0.393447
727.000000	0.394404
728.000000	0.395356
729.000000	0.396342
730.000000	0.397315
731.000000	0.398268
732.000000	0.399217
733.000000	0.400184
734.000000	0.401050
735.000000	0.401840
736.000000	0.402720
737.000000	0.403573
738.000000	0.404390
739.000000	0.405232
740.000000	0.405934
741.000000	0.406647
742.000000	0.407356
743.000000	0.408025
744.000000	0.408709
745.000000	0.409360
746.000000	0.410010
747.000000	0.410595
748.000000	0.411227
749.000000	0.411874
750.000000	0.412444
751.000000	0.412886
752.000000	0.413333
753.000000	0.413806
754.000000	0.414198
755.000000	0.414503
756.000000	0.414784
757.000000	0.415047
758.000000	0.415258
759.000000	0.415492
760.000000	0.415703
761.000000	0.415954
762.000000	0.416190
763.000000	0.416365
764.000000	0.416549
765.000000	0.416701
766.000000	0.416809
767.000000	0.416859
768.000000	0.416888
769.000000	0.416829
770.000000	0.416698
771.000000	0.416631
772.000000	0.416559
773.000000	0.416393
774.000000	0.416219
775.000000	0.415978
776.000000	0.415716
777.000000	0.415438
778.000000	0.415107
779.000000	0.414760
780.000000	0.414412
781.000000	0.414021
782.000000	0.413655
783.000000	0.413388
784.000000	0.413040
785.000000	0.412646
786.000000	0.412204
787.000000	0.411715
788.000000	0.411219
789.000000	0.410642
790.000000	0.410004
791.000000	0.409433
792.000000	0.408865
793.000000	0.408289
794.000000	0.407714
795.000000	0.407158
796.000000	0.406581
797.000000	0.405965
798.000000	0.405332
799.000000	0.404730
800.000000	0.404114
801.000000	0.403434
802.000000	0.402741
803.000000	0.402004
804.000000	0.401263
805.000000	0.400545
806.000000	0.399802
807.000000	0.399095
808.000000	0.398337
809.000000	0.397603
810.000000	0.396856
811.000000	0.396064
812.000000	0.395345
813.000000	0.394566
814.000000	0.393734
815.000000	0.393005
816.000000	0.392239
817.000000	0.391508
818.000000	0.390789
819.000000	0.390062
820.000000	0.389303
821.000000	0.388446
822.000000	0.387552
823.000000	0.386753
824.000000	0.385984
825.000000	0.385253
826.000000	0.384497
827.000000	0.383749
828.000000	0.383057
829.000000	0.382291
830.000000	0.381446
831.000000	0.380620
832.000000	0.379777
833.000000	0.379091
834.000000	0.378444
835.000000	0.377751
836.000000	0.376989
837.000000	0.376183
838.000000	0.375407
839.000000	0.374712
840.000000	0.374009
841.000000	0.373299
842.000000	0.372556
843.000000	0.371851
844.000000	0.371211
845.000000	0.370607
846.000000	0.370047
847.000000	0.369453
848.000000	0.368832
849.000000	0.368234
850.000000	0.367538
851.000000	0.366819
852.000000	0.366163
853.000000	0.365521
854.000000	0.364839
855.000000	0.364243
856.000000	0.363657
857.000000	0.362937
858.000000	0.362325
859.000000	0.361816
860.000000	0.361243
861.000000	0.360702
862.000000	0.360237
863.000000	0.359778
864.000000	0.359338
865.000000	0.358851
866.000000	0.358306
867.000000	0.357698
868.000000	0.357151
869.000000	0.356606
870.000000	0.356070
871.000000	0.355596
872.000000	0.355160
873.000000	0.354684
874.000000	0.354243
875.000000	0.353770
876.000000	0.353309
877.000000	0.352856
878.000000	0.352366
879.000000	0.351950
880.000000	0.351510
881.000000	0.351091
882.000000	0.350742
883.000000	0.350428
884.000000	0.350008
885.000000	0.349581
886.000000	0.349163
887.000000	0.348810
888.000000	0.348558
889.000000	0.348371
890.000000	0.348103
891.000000	0.347833
892.000000	0.347507
893.000000	0.347163
894.000000	0.346936
895.000000	0.346660
896.000000	0.346376
897.000000	0.346086
898.000000	0.345795
899.000000	0.345560
900.000000	0.345336
901.000000	0.345096
902.000000	0.344994
903.000000	0.344798
904.000000	0.344584
905.000000	0.344381
906.000000	0.344279
907.000000	0.344143
908.000000	0.344018
909.000000	0.343942
910.000000	0.343870
911.000000	0.343785
912.000000	0.343702
913.000000	0.343628
914.000000	0.343549
915.000000	0.343527
916.000000	0.343486
917.000000	0.343386
918.000000	0.343347
919.000000	0.343393
920.000000	0.343342
921.000000	0.343274
922.000000	0.343239
923.000000	0.343227
924.000000	0.343156
925.000000	0.343125
926.000000	0.343186
927.000000	0.343143
928.000000	0.343167
929.000000	0.343196
930.000000	0.343152
931.000000	0.343321
932.000000	0.343425
933.000000	0.343419
934.000000	0.343416
935.000000	0.343387
936.000000	0.343400
937.000000	0.343397
938.000000	0.343366
939.000000	0.343514
940.000000	0.343700
941.000000	0.343781
942.000000	0.343860
943.000000	0.343994
944.000000	0.344109
945.000000	0.344412
946.000000	0.344579
947.000000	0.344680
948.000000	0.344810
949.000000	0.344938
950.000000	0.345046
951.000000	0.345100
952.000000	0.345198
953.000000	0.345275
954.000000	0.345343
955.000000	0.345377
956.000000	0.345553
957.000000	0.345745
958.000000	0.345911
959.000000	0.346175
960.000000	0.346430
961.000000	0.346690
962.000000	0.346926
963.000000	0.347122
964.000000	0.347349
965.000000	0.347646
966.000000	0.347898
967.000000	0.348175
968.000000	0.348474
969.000000	0.348726
970.000000	0.349001
971.000000	0.349404
972.000000	0.349840
973.000000	0.350181
974.000000	0.350505
975.000000	0.350706
976.000000	0.351023
977.000000	0.351556
978.000000	0.351839
979.000000	0.352185
980.000000	0.352459
981.000000	0.352892
982.000000	0.353273
983.000000	0.353604
984.000000	0.354022
985.000000	0.354593
986.000000	0.355130
987.000000	0.355689
988.000000	0.356167
989.000000	0.356491
990.000000	0.357014
991.000000	0.357608
992.000000	0.358095
993.000000	0.358685
994.000000	0.359127
995.000000	0.359585
996.000000	0.360054
997.000000	0.360659
998.000000	0.361168
999.000000	0.361603
1000.000000	0.362109
1001.000000	0.361230
1002.000000	0.361541
1003.000000	0.362109
1004.000000	0.362613
1005.000000	0.363168
1006.000000	0.363687
1007.000000	0.364353
1008.000000	0.364695
1009.000000	0.365038
1010.000000	0.365408
1011.000000	0.366195
1012.000000	0.367171
1013.000000	0.367634
1014.000000	0.368228
1015.000000	0.368797
1016.000000	0.369203
1017.000000	0.369786
1018.000000	0.370717
1019.000000	0.371606
1020.000000	0.372774
1021.000000	0.373108
1022.000000	0.373307
1023.000000	0.374010
1024.000000	0.374279
1025.000000	0.374869
1026.000000	0.375875
1027.000000	0.376555
1028.000000	0.377350
1029.000000	0.378232
1030.000000	0.379010
1031.000000	0.379920
1032.000000	0.380579
1033.000000	0.381014
1034.000000	0.381678
1035.000000	0.382488
1036.000000	0.383292
1037.000000	0.384205
1038.000000	0.384955
1039.000000	0.385763
1040.000000	0.386699
1041.000000	0.387459
1042.000000	0.388171
1043.000000	0.389075
1044.000000	0.389902
1045.000000	0.390650
1046.000000	0.391405
1047.000000	0.392218
1048.000000	0.392904
1049.000000	0.393700
1050.000000	0.394686
1051.000000	0.395506
1052.000000	0.396123
1053.000000	0.396850
1054.000000	0.397828
1055.000000	0.398757
1056.000000	0.399685
1057.000000	0.400886
1058.000000	0.401837
1059.000000	0.402392
1060.000000	0.403315
1061.000000	0.404238
1062.000000	0.405135
1063.000000	0.406460
1064.000000	0.407538
1065.000000	0.408525
1066.000000	0.409468
1067.000000	0.410220
1068.000000	0.411117
1069.000000	0.412000
1070.000000	0.412895
1071.000000	0.413966
1072.000000	0.414943
1073.000000	0.415818
1074.000000	0.416938
1075.000000	0.418075
1076.000000	0.419212
1077.000000	0.420071
1078.000000	0.420768
1079.000000	0.421709
1080.000000	0.422590
1081.000000	0.423593
1082.000000	0.425012
1083.000000	0.426206
1084.000000	0.427359
1085.000000	0.428485
1086.000000	0.429566
1087.000000	0.430687
1088.000000	0.431608
1089.000000	0.432596
1090.000000	0.433603
1091.000000	0.434571
1092.000000	0.435631
1093.000000	0.436885
1094.000000	0.438059
1095.000000	0.439226
1096.000000	0.440429
1097.000000	0.441688
1098.000000	0.442824
1099.000000	0.443812
1100.000000	0.444997
1101.000000	0.446024
1102.000000	0.447202
1103.000000	0.448650
1104.000000	0.449910
1105.000000	0.451131
1106.000000	0.452289
1107.000000	0.453117
1108.000000	0.454169
1109.000000	0.455466
1110.000000	0.456587
1111.000000	0.457831
1112.000000	0.459238
1113.000000	0.460568
1114.000000	0.461940
1115.000000	0.463133
1116.000000	0.464208
1117.000000	0.465418
1118.000000	0.466543
1119.000000	0.467626
1120.000000	0.468786
1121.000000	0.469961
1122.000000	0.471148
1123.000000	0.472618
1124.000000	0.474000
1125.000000	0.475361
1126.000000	0.476613
1127.000000	0.477809
1128.000000	0.478959
1129.000000	0.480081
1130.000000	0.481317
1131.000000	0.482628
1132.000000	0.483756
1133.000000	0.484935
1134.000000	0.486134
1135.000000	0.487121
1136.000000	0.488205
1137.000000	0.489454
1138.000000	0.490472
1139.000000	0.491439
1140.000000	0.492568
1141.000000	0.493589
1142.000000	0.494669
1143.000000	0.495755
1144.000000	0.496976
1145.000000	0.498035
1146.000000	0.498918
1147.000000	0.499869
1148.000000	0.500642
1149.000000	0.501575
1150.000000	0.502539
1151.000000	0.503602
1152.000000	0.504676
1153.000000	0.505788
1154.000000	0.506909
1155.000000	0.507983
1156.000000	0.509013
1157.000000	0.510158
1158.000000	0.511288
1159.000000	0.512412
1160.000000	0.513566
1161.000000	0.514736
1162.000000	0.516009
1163.000000	0.517392
1164.000000	0.518623
1165.000000	0.519845
1166.000000	0.521148
1167.000000	0.522350
1168.000000	0.523537
1169.000000	0.524869
1170.000000	0.526117
1171.000000	0.527334
1172.000000	0.528584
1173.000000	0.529800
1174.000000	0.530997
1175.000000	0.532108
1176.000000	0.533204
1177.000000	0.534468
1178.000000	0.535637
1179.000000	0.536730
1180.000000	0.537745
1181.000000	0.538837
1182.000000	0.539868
1183.000000	0.541050
1184.000000	0.542257
1185.000000	0.543389
1186.000000	0.544562
1187.000000	0.545621
1188.000000	0.546591
1189.000000	0.547526
1190.000000	0.548479
1191.000000	0.549435
1192.000000	0.550469
1193.000000	0.551698
1194.000000	0.552892
1195.000000	0.553993
1196.000000	0.555006
1197.000000	0.556041
1198.000000	0.557020
1199.000000	0.558046
1200.000000	0.559119
1201.000000	0.560210
1202.000000	0.561131
1203.000000	0.562099
1204.000000	0.563126
1205.000000	0.564122
1206.000000	0.565000
1207.000000	0.566033
1208.000000	0.566917
1209.000000	0.567728
1210.000000	0.568635
1211.000000	0.569637
1212.000000	0.570502
1213.000000	0.571376
1214.000000	0.572277
1215.000000	0.573102
1216.000000	0.573936
1217.000000	0.574751
1218.000000	0.575506
1219.000000	0.576225
1220.000000	0.577059
1221.000000	0.577849
1222.000000	0.578631
1223.000000	0.579474
1224.000000	0.580212
1225.000000	0.580878
1226.000000	0.581670
1227.000000	0.582366
1228.000000	0.583154
1229.000000	0.583828
1230.000000	0.584407
1231.000000	0.584975
1232.000000	0.585700
1233.000000	0.586555
1234.000000	0.587487
1235.000000	0.588292
1236.000000	0.588931
1237.000000	0.589672
1238.000000	0.590287
1239.000000	0.590919
1240.000000	0.591599
1241.000000	0.592247
1242.000000	0.592849
1243.000000	0.593496
1244.000000	0.594167
1245.000000	0.594950
1246.000000	0.595601
1247.000000	0.596287
1248.000000	0.597029
1249.000000	0.597710
1250.000000	0.598410
1251.000000	0.599081
1252.000000	0.599665
1253.000000	0.600251
1254.000000	0.600747
1255.000000	0.601101
1256.000000	0.601559
1257.000000	0.602014
1258.000000	0.602561
1259.000000	0.603088
1260.000000	0.603701
1261.000000	0.604278
1262.000000	0.604814
1263.000000	0.605441
1264.000000	0.605915
1265.000000	0.606376
1266.000000	0.606797
1267.000000	0.607220
1268.000000	0.607661
1269.000000	0.607993
1270.000000	0.608462
1271.000000	0.608847
1272.000000	0.609287
1273.000000	0.609897
1274.000000	0.610367
1275.000000	0.610745
1276.000000	0.611123
1277.000000	0.611591
1278.000000	0.611814
1279.000000	0.612091
1280.000000	0.612327
1281.000000	0.612497
1282.000000	0.612670
1283.000000	0.613009
1284.000000	0.613300
1285.000000	0.613587
1286.000000	0.613867
1287.000000	0.614109
1288.000000	0.614385
1289.000000	0.614605
1290.000000	0.614759
1291.000000	0.614889
1292.000000	0.615071
1293.000000	0.615254
1294.000000	0.615376
1295.000000	0.615582
1296.000000	0.615705
1297.000000	0.615772
1298.000000	0.615993
1299.000000	0.616178
1300.000000	0.616374
1301.000000	0.616515
1302.000000	0.616508
1303.000000	0.616593
1304.000000	0.616567
1305.000000	0.616604
1306.000000	0.616612
1307.000000	0.616675
1308.000000	0.616733
1309.000000	0.616811
1310.000000	0.616809
1311.000000	0.616828
1312.000000	0.616701
1313.000000	0.616612
1314.000000	0.616447
1315.000000	0.616142
1316.000000	0.616052
1317.000000	0.615915
1318.000000	0.615643
1319.000000	0.615328
1320.000000	0.614990
1321.000000	0.614626
1322.000000	0.614297
1323.000000	0.614080
1324.000000	0.613977
1325.000000	0.613804
1326.000000	0.613588
1327.000000	0.613417
1328.000000	0.613352
1329.000000	0.613116
1330.000000	0.612798
1331.000000	0.612607
1332.000000	0.612524
1333.000000	0.612361
1334.000000	0.612387
1335.000000	0.612383
1336.000000	0.612277
1337.000000	0.612141
1338.000000	0.611943
1339.000000	0.611688
1340.000000	0.611345
1341.000000	0.611046
1342.000000	0.610764
1343.000000	0.610426
1344.000000	0.610057
1345.000000	0.609667
1346.000000	0.609358
1347.000000	0.608826
1348.000000	0.608386
1349.000000	0.607895
1350.000000	0.607430
1351.000000	0.606952
1352.000000	0.606404
1353.000000	0.605917
1354.000000	0.605545
1355.000000	0.605145
1356.000000	0.604798
1357.000000	0.604315
1358.000000	0.603781
1359.000000	0.603296
1360.000000	0.602850
1361.000000	0.602561
1362.000000	0.602152
1363.000000	0.601713
1364.000000	0.601274
1365.000000	0.600770
1366.000000	0.600240
1367.000000	0.599722
1368.000000	0.599027
1369.000000	0.598399
1370.000000	0.597496
1371.000000	0.596377
1372.000000	0.595085
1373.000000	0.593558
1374.000000	0.591958
1375.000000	0.590128
1376.000000	0.588253
1377.000000	0.586245
1378.000000	0.583828
1379.000000	0.581131
1380.000000	0.578248
1381.000000	0.574949
1382.000000	0.571453
1383.000000	0.567880
1384.000000	0.563888
1385.000000	0.559662
1386.000000	0.555353
1387.000000	0.550963
1388.000000	0.546426
1389.000000	0.541797
1390.000000	0.537245
1391.000000	0.532504
1392.000000	0.527772
1393.000000	0.522938
1394.000000	0.518048
1395.000000	0.513239
1396.000000	0.508405
1397.000000	0.503533
1398.000000	0.498623
1399.000000	0.493909
1400.000000	0.489159
1401.000000	0.484502
1402.000000	0.480088
1403.000000	0.475594
1404.000000	0.471260
1405.000000	0.466992
1406.000000	0.462701
1407.000000	0.458702
1408.000000	0.454753
1409.000000	0.451017
1410.000000	0.447722
1411.000000	0.444594
1412.000000	0.441649
1413.000000	0.439229
1414.000000	0.437240
1415.000000	0.435736
1416.000000	0.434800
1417.000000	0.434227
1418.000000	0.433942
1419.000000	0.434045
1420.000000	0.434148
1421.000000	0.434351
1422.000000	0.434581
1423.000000	0.434662
1424.000000	0.434470
1425.000000	0.434134
1426.000000	0.433467
1427.000000	0.432604
1428.000000	0.431713
1429.000000	0.430760
1430.000000	0.429884
1431.000000	0.429223
1432.000000	0.428962
1433.000000	0.428856
1434.000000	0.429439
1435.000000	0.430551
1436.000000	0.432313
1437.000000	0.434595
1438.000000	0.437529
1439.000000	0.441262
1440.000000	0.445251
1441.000000	0.449980
1442.000000	0.454768
1443.000000	0.459781
1444.000000	0.464998
1445.000000	0.470109
1446.000000	0.474909
1447.000000	0.479473
1448.000000	0.483507
1449.000000	0.487087
1450.000000	0.490326
1451.000000	0.493057
1452.000000	0.495288
1453.000000	0.497216
1454.000000	0.498759
1455.000000	0.499994
1456.000000	0.501154
1457.000000	0.502160
1458.000000	0.503005
1459.000000	0.503750
1460.000000	0.504393
1461.000000	0.505019
1462.000000	0.505663
1463.000000	0.506253
1464.000000	0.506949
1465.000000	0.507827
1466.000000	0.508735
1467.000000	0.509837
1468.000000	0.511102
1469.000000	0.512413
1470.000000	0.513708
1471.000000	0.515153
1472.000000	0.516598
1473.000000	0.518203
1474.000000	0.519864
1475.000000	0.521529
1476.000000	0.523249
1477.000000	0.524913
1478.000000	0.526543
1479.000000	0.528160
1480.000000	0.529727
1481.000000	0.531249
1482.000000	0.532837
1483.000000	0.534422
1484.000000	0.535974
1485.000000	0.537489
1486.000000	0.538940
1487.000000	0.540444
1488.000000	0.541984
1489.000000	0.543519
1490.000000	0.544911
1491.000000	0.546353
1492.000000	0.547676
1493.000000	0.549077
1494.000000	0.550462
1495.000000	0.551787
1496.000000	0.553087
1497.000000	0.554395
1498.000000	0.555720
1499.000000	0.556996
1500.000000	0.558256
1501.000000	0.559459
1502.000000	0.560555
1503.000000	0.561709
1504.000000	0.562895
1505.000000	0.564006
1506.000000	0.565145
1507.000000	0.566217
1508.000000	0.567281
1509.000000	0.568355
1510.000000	0.569330
1511.000000	0.570398
1512.000000	0.571427
1513.000000	0.572392
1514.000000	0.573505
1515.000000	0.574468
1516.000000	0.575465
1517.000000	0.576489
1518.000000	0.577348
1519.000000	0.578140
1520.000000	0.579011
1521.000000	0.579767
1522.000000	0.580641
1523.000000	0.581618
1524.000000	0.582402
1525.000000	0.583276
1526.000000	0.584130
1527.000000	0.584948
1528.000000	0.585856
1529.000000	0.586655
1530.000000	0.587296
1531.000000	0.588069
1532.000000	0.588852
1533.000000	0.589548
1534.000000	0.590312
1535.000000	0.591038
1536.000000	0.591610
1537.000000	0.592382
1538.000000	0.593155
1539.000000	0.593736
1540.000000	0.594404
1541.000000	0.595166
1542.000000	0.595903
1543.000000	0.596686
1544.000000	0.597472
1545.000000	0.598265
1546.000000	0.599030
1547.000000	0.599718
1548.000000	0.600406
1549.000000	0.601019
1550.000000	0.601515
1551.000000	0.602083
1552.000000	0.602680
1553.000000	0.603170
1554.000000	0.603702
1555.000000	0.604321
1556.000000	0.604918
1557.000000	0.605491
1558.000000	0.606103
1559.000000	0.606640
1560.000000	0.607131
1561.000000	0.607697
1562.000000	0.608142
1563.000000	0.608571
1564.000000	0.609033
1565.000000	0.609452
1566.000000	0.609769
1567.000000	0.610242
1568.000000	0.610647
1569.000000	0.611110
1570.000000	0.611551
1571.000000	0.611966
1572.000000	0.612367
1573.000000	0.612772
1574.000000	0.613148
1575.000000	0.613538
1576.000000	0.613954
1577.000000	0.614333
1578.000000	0.614685
1579.000000	0.615171
1580.000000	0.615561
1581.000000	0.616030
1582.000000	0.616397
1583.000000	0.616692
1584.000000	0.616907
1585.000000	0.617179
1586.000000	0.617473
1587.000000	0.617730
1588.000000	0.617966
1589.000000	0.618256
1590.000000	0.618474
1591.000000	0.618653
1592.000000	0.618918
1593.000000	0.619259
1594.000000	0.619504
1595.000000	0.619861
1596.000000	0.620143
1597.000000	0.620400
1598.000000	0.620629
1599.000000	0.620919
1600.000000	0.621066
1601.000000	0.621247
1602.000000	0.621429
1603.000000	0.621593
1604.000000	0.621784
1605.000000	0.622065
1606.000000	0.622298
1607.000000	0.622653
1608.000000	0.622882
1609.000000	0.623157
1610.000000	0.623336
1611.000000	0.623444
1612.000000	0.623578
1613.000000	0.623911
1614.000000	0.624067
1615.000000	0.624261
1616.000000	0.624489
1617.000000	0.624562
1618.000000	0.624638
1619.000000	0.624679
1620.000000	0.624772
1621.000000	0.624895
1622.000000	0.625163
1623.000000	0.625508
1624.000000	0.625713
1625.000000	0.625616
1626.000000	0.625591
1627.000000	0.625547
1628.000000	0.625661
1629.000000	0.625846
1630.000000	0.626054
1631.000000	0.626226
1632.000000	0.626301
1633.000000	0.626366
1634.000000	0.626477
1635.000000	0.626626
1636.000000	0.626749
1637.000000	0.626961
1638.000000	0.627063
1639.000000	0.627204
1640.000000	0.627276
1641.000000	0.627404
1642.000000	0.627525
1643.000000	0.627683
1644.000000	0.627790
1645.000000	0.627907
1646.000000	0.627904
1647.000000	0.627897
1648.000000	0.627812
1649.000000	0.627773
1650.000000	0.627840
1651.000000	0.628014
1652.000000	0.628144
1653.000000	0.628228
1654.000000	0.628351
1655.000000	0.628326
1656.000000	0.628203
1657.000000	0.628245
1658.000000	0.628187
1659.000000	0.628208
1660.000000	0.628255
1661.000000	0.628106
1662.000000	0.628131
1663.000000	0.628158
1664.000000	0.628178
1665.000000	0.628289
1666.000000	0.628493
1667.000000	0.628540
1668.000000	0.628610
1669.000000	0.628753
1670.000000	0.628666
1671.000000	0.628615
1672.000000	0.628705
1673.000000	0.628718
1674.000000	0.628812
1675.000000	0.628979
1676.000000	0.629029
1677.000000	0.628990
1678.000000	0.628890
1679.000000	0.628805
1680.000000	0.628665
1681.000000	0.628599
1682.000000	0.628576
1683.000000	0.628554
1684.000000	0.628558
1685.000000	0.628577
1686.000000	0.628529
1687.000000	0.628549
1688.000000	0.628503
1689.000000	0.628473
1690.000000	0.628489
1691.000000	0.628613
1692.000000	0.628572
1693.000000	0.628543
1694.000000	0.628486
1695.000000	0.628454
1696.000000	0.628453
1697.000000	0.628299
1698.000000	0.628103
1699.000000	0.628037
1700.000000	0.627967
1701.000000	0.628086
1702.000000	0.628094
1703.000000	0.627948
1704.000000	0.627906
1705.000000	0.627834
1706.000000	0.627763
1707.000000	0.627682
1708.000000	0.627549
1709.000000	0.627313
1710.000000	0.627195
1711.000000	0.627070
1712.000000	0.626975
1713.000000	0.626820
1714.000000	0.626737
1715.000000	0.626585
1716.000000	0.626441
1717.000000	0.626186
1718.000000	0.625736
1719.000000	0.625355
1720.000000	0.625025
1721.000000	0.624695
1722.000000	0.624415
1723.000000	0.624132
1724.000000	0.623876
1725.000000	0.623665
1726.000000	0.623356
1727.000000	0.623033
1728.000000	0.622576
1729.000000	0.622080
1730.000000	0.621766
1731.000000	0.621471
1732.000000	0.621236
1733.000000	0.621073
1734.000000	0.620690
1735.000000	0.620455
1736.000000	0.620245
1737.000000	0.619969
1738.000000	0.619775
1739.000000	0.619506
1740.000000	0.619122
1741.000000	0.618728
1742.000000	0.618321
1743.000000	0.618087
1744.000000	0.617843
1745.000000	0.617522
1746.000000	0.617266
1747.000000	0.616953
1748.000000	0.616512
1749.000000	0.616120
1750.000000	0.615641
1751.000000	0.615251
1752.000000	0.615006
1753.000000	0.614557
1754.000000	0.614142
1755.000000	0.613624
1756.000000	0.613147
1757.000000	0.612705
1758.000000	0.612302
1759.000000	0.611900
1760.000000	0.611515
1761.000000	0.611084
1762.000000	0.610654
1763.000000	0.610273
1764.000000	0.609905
1765.000000	0.609472
1766.000000	0.609098
1767.000000	0.608609
1768.000000	0.608121
1769.000000	0.607854
1770.000000	0.607542
1771.000000	0.607111
1772.000000	0.606739
1773.000000	0.606232
1774.000000	0.605867
1775.000000	0.605744
1776.000000	0.605479
1777.000000	0.605163
1778.000000	0.604783
1779.000000	0.604253
1780.000000	0.603921
1781.000000	0.603563
1782.000000	0.603257
1783.000000	0.603148
1784.000000	0.602943
1785.000000	0.602675
1786.000000	0.602563
1787.000000	0.602599
1788.000000	0.602531
1789.000000	0.602373
1790.000000	0.602155
1791.000000	0.601841
1792.000000	0.601625
1793.000000	0.601428
1794.000000	0.601263
1795.000000	0.601094
1796.000000	0.600895
1797.000000	0.600724
1798.000000	0.600488
1799.000000	0.600317
1800.000000	0.600328
1801.000000	0.600455
1802.000000	0.600393
1803.000000	0.600285
1804.000000	0.600310
1805.000000	0.600490
1806.000000	0.600807
1807.000000	0.601371
1808.000000	0.601610
1809.000000	0.601970
1810.000000	0.602141
1811.000000	0.602060
1812.000000	0.601420
1813.000000	0.601360
1814.000000	0.601610
1815.000000	0.601576
1816.000000	0.601801
1817.000000	0.601452
1818.000000	0.600636
1819.000000	0.600117
1820.000000	0.600127
1821.000000	0.599734
1822.000000	0.599667
1823.000000	0.599920
1824.000000	0.599901
1825.000000	0.599664
1826.000000	0.599645
1827.000000	0.599496
1828.000000	0.599326
1829.000000	0.599437
1830.000000	0.599417
1831.000000	0.599242
1832.000000	0.598983
1833.000000	0.598783
1834.000000	0.598403
1835.000000	0.598143
1836.000000	0.598086
1837.000000	0.597710
1838.000000	0.596913
1839.000000	0.596082
1840.000000	0.595132
1841.000000	0.594263
1842.000000	0.593611
1843.000000	0.593050
1844.000000	0.592638
1845.000000	0.592342
1846.000000	0.592001
1847.000000	0.591637
1848.000000	0.590884
1849.000000	0.590240
1850.000000	0.589326
1851.000000	0.588355
1852.000000	0.587170
1853.000000	0.586179
1854.000000	0.584845
1855.000000	0.583413
1856.000000	0.582094
1857.000000	0.580111
1858.000000	0.577806
1859.000000	0.575428
1860.000000	0.572601
1861.000000	0.570020
1862.000000	0.567350
1863.000000	0.564831
1864.000000	0.562115
1865.000000	0.559470
1866.000000	0.556401
1867.000000	0.553145
1868.000000	0.549634
1869.000000	0.545292
1870.000000	0.540482
1871.000000	0.535430
1872.000000	0.530171
1873.000000	0.524926
1874.000000	0.519859
1875.000000	0.514376
1876.000000	0.508599
1877.000000	0.501708
1878.000000	0.494542
1879.000000	0.487113
1880.000000	0.479317
1881.000000	0.471451
1882.000000	0.463310
1883.000000	0.454756
1884.000000	0.446060
1885.000000	0.436640
1886.000000	0.427123
1887.000000	0.417334
1888.000000	0.407190
1889.000000	0.396694
1890.000000	0.386677
1891.000000	0.376734
1892.000000	0.366308
1893.000000	0.356180
1894.000000	0.346138
1895.000000	0.336247
1896.000000	0.326471
1897.000000	0.317339
1898.000000	0.308263
1899.000000	0.299955
1900.000000	0.292412
1901.000000	0.285334
1902.000000	0.279253
1903.000000	0.273906
1904.000000	0.269017
1905.000000	0.264942
1906.000000	0.261578
1907.000000	0.258965
1908.000000	0.257043
1909.000000	0.256189
1910.000000	0.256079
1911.000000	0.256519
1912.000000	0.257382
1913.000000	0.258313
1914.000000	0.259429
1915.000000	0.260759
1916.000000	0.262570
1917.000000	0.264455
1918.000000	0.266807
1919.000000	0.269068
1920.000000	0.271282
1921.000000	0.273711
1922.000000	0.276104
1923.000000	0.278444
1924.000000	0.280750
1925.000000	0.282760
1926.000000	0.284676
1927.000000	0.286813
1928.000000	0.288822
1929.000000	0.290952
1930.000000	0.293043
1931.000000	0.294997
1932.000000	0.296800
1933.000000	0.298687
1934.000000	0.300466
1935.000000	0.302092
1936.000000	0.303758
1937.000000	0.305353
1938.000000	0.306833
1939.000000	0.308238
1940.000000	0.309542
1941.000000	0.310855
1942.000000	0.312355
1943.000000	0.313702
1944.000000	0.315084
1945.000000	0.316503
1946.000000	0.317634
1947.000000	0.318788
1948.000000	0.320114
1949.000000	0.321368
1950.000000	0.322529
1951.000000	0.323651
1952.000000	0.324805
1953.000000	0.325846
1954.000000	0.327208
1955.000000	0.328852
1956.000000	0.330340
1957.000000	0.331780
1958.000000	0.333051
1959.000000	0.334091
1960.000000	0.335184
1961.000000	0.336336
1962.000000	0.337477
1963.000000	0.338640
1964.000000	0.339947
1965.000000	0.341221
1966.000000	0.342439
1967.000000	0.343816
1968.000000	0.345433
1969.000000	0.346808
1970.000000	0.348241
1971.000000	0.349785
1972.000000	0.350867
1973.000000	0.352074
1974.000000	0.353584
1975.000000	0.355061
1976.000000	0.356488
1977.000000	0.358163
1978.000000	0.359657
1979.000000	0.361174
1980.000000	0.362819
1981.000000	0.364567
1982.000000	0.366549
1983.000000	0.368636
1984.000000	0.370441
1985.000000	0.372245
1986.000000	0.373761
1987.000000	0.375038
1988.000000	0.376487
1989.000000	0.378011
1990.000000	0.379606
1991.000000	0.381349
1992.000000	0.383030
1993.000000	0.384464
1994.000000	0.386136
1995.000000	0.387780
1996.000000	0.389439
1997.000000	0.391258
1998.000000	0.393394
1999.000000	0.395382
2000.000000	0.397518
2001.000000	0.399394
2002.000000	0.401154
2003.000000	0.403023
2004.000000	0.404596
2005.000000	0.406141
2006.000000	0.408017
2007.000000	0.409620
2008.000000	0.411329
2009.000000	0.413133
2010.000000	0.414968
2011.000000	0.416657
2012.000000	0.418259
2013.000000	0.419709
2014.000000	0.421220
2015.000000	0.422750
2016.000000	0.424189
2017.000000	0.425941
2018.000000	0.427467
2019.000000	0.428805
2020.000000	0.430210
2021.000000	0.431632
2022.000000	0.432941
2023.000000	0.434355
2024.000000	0.435973
2025.000000	0.437535
2026.000000	0.438907
2027.000000	0.440172
2028.000000	0.441665
2029.000000	0.442909
2030.000000	0.444162
2031.000000	0.445478
2032.000000	0.446610
2033.000000	0.448086
2034.000000	0.449431
2035.000000	0.450991
2036.000000	0.452198
2037.000000	0.453617
2038.000000	0.454731
2039.000000	0.455605
2040.000000	0.456703
2041.000000	0.457628
2042.000000	0.458545
2043.000000	0.459613
2044.000000	0.460561
2045.000000	0.461622
2046.000000	0.462690
2047.000000	0.463799
2048.000000	0.464906
2049.000000	0.466248
2050.000000	0.467153
2051.000000	0.468095
2052.000000	0.468956
2053.000000	0.469726
2054.000000	0.470684
2055.000000	0.471931
2056.000000	0.473119
2057.000000	0.474273
2058.000000	0.475295
2059.000000	0.476207
2060.000000	0.477008
2061.000000	0.477604
2062.000000	0.478307
2063.000000	0.479048
2064.000000	0.479572
2065.000000	0.480519
2066.000000	0.481131
2067.000000	0.481878
2068.000000	0.482735
2069.000000	0.483544
2070.000000	0.484370
2071.000000	0.484925
2072.000000	0.485532
2073.000000	0.486161
2074.000000	0.486638
2075.000000	0.487208
2076.000000	0.487858
2077.000000	0.488356
2078.000000	0.488829
2079.000000	0.489151
2080.000000	0.489364
2081.000000	0.489756
2082.000000	0.490117
2083.000000	0.490588
2084.000000	0.491157
2085.000000	0.491729
2086.000000	0.492315
2087.000000	0.492761
2088.000000	0.493185
2089.000000	0.493728
2090.000000	0.494349
2091.000000	0.495161
2092.000000	0.495898
2093.000000	0.496827
2094.000000	0.497521
2095.000000	0.498160
2096.000000	0.498809
2097.000000	0.499291
2098.000000	0.499610
2099.000000	0.499991
2100.000000	0.500386
2101.000000	0.500812
2102.000000	0.501204
2103.000000	0.501671
2104.000000	0.502042
2105.000000	0.502341
2106.000000	0.502458
2107.000000	0.502895
2108.000000	0.503351
2109.000000	0.503923
2110.000000	0.504559
2111.000000	0.504905
2112.000000	0.505092
2113.000000	0.504715
2114.000000	0.504525
2115.000000	0.504835
2116.000000	0.504986
2117.000000	0.505235
2118.000000	0.505599
2119.000000	0.505641
2120.000000	0.506003
2121.000000	0.506634
2122.000000	0.507056
2123.000000	0.507451
2124.000000	0.507822
2125.000000	0.508170
2126.000000	0.508366
2127.000000	0.508581
2128.000000	0.508946
2129.000000	0.509065
2130.000000	0.509322
2131.000000	0.509383
2132.000000	0.509138
2133.000000	0.509371
2134.000000	0.509389
2135.000000	0.509086
2136.000000	0.508937
2137.000000	0.508555
2138.000000	0.507632
2139.000000	0.507179
2140.000000	0.506971
2141.000000	0.506633
2142.000000	0.506434
2143.000000	0.505642
2144.000000	0.505038
2145.000000	0.504253
2146.000000	0.503261
2147.000000	0.502542
2148.000000	0.501397
2149.000000	0.500199
2150.000000	0.498990
2151.000000	0.497915
2152.000000	0.496917
2153.000000	0.495769
2154.000000	0.494847
2155.000000	0.494038
2156.000000	0.493216
2157.000000	0.492691
2158.000000	0.492107
2159.000000	0.491539
2160.000000	0.491129
2161.000000	0.490608
2162.000000	0.490449
2163.000000	0.490469
2164.000000	0.490245
2165.000000	0.489953
2166.000000	0.490081
2167.000000	0.490025
2168.000000	0.490140
2169.000000	0.490398
2170.000000	0.490672
2171.000000	0.490697
2172.000000	0.490426
2173.000000	0.490327
2174.000000	0.490156
2175.000000	0.490092
2176.000000	0.490168
2177.000000	0.490301
2178.000000	0.490864
2179.000000	0.490881
2180.000000	0.490618
2181.000000	0.490498
2182.000000	0.488984
2183.000000	0.487886
2184.000000	0.487391
2185.000000	0.486378
2186.000000	0.485440
2187.000000	0.484689
2188.000000	0.483291
2189.000000	0.481437
2190.000000	0.480426
2191.000000	0.480248
2192.000000	0.479351
2193.000000	0.479036
2194.000000	0.477647
2195.000000	0.474922
2196.000000	0.473083
2197.000000	0.470944
2198.000000	0.469098
2199.000000	0.468200
2200.000000	0.466742
2201.000000	0.465160
2202.000000	0.463409
2203.000000	0.461282
2204.000000	0.458551
2205.000000	0.455613
2206.000000	0.453111
2207.000000	0.451241
2208.000000	0.450448
2209.000000	0.450901
2210.000000	0.452426
2211.000000	0.453816
2212.000000	0.456063
2213.000000	0.457801
2214.000000	0.459095
2215.000000	0.461006
2216.000000	0.463066
2217.000000	0.465346
2218.000000	0.468170
2219.000000	0.470385
2220.000000	0.473030
2221.000000	0.474550
2222.000000	0.475354
2223.000000	0.475920
2224.000000	0.475670
2225.000000	0.475836
2226.000000	0.474434
2227.000000	0.472231
2228.000000	0.471158
2229.000000	0.468129
2230.000000	0.465931
2231.000000	0.465657
2232.000000	0.464215
2233.000000	0.463723
2234.000000	0.463300
2235.000000	0.463284
2236.000000	0.462511
2237.000000	0.460805
2238.000000	0.459777
2239.000000	0.458366
2240.000000	0.457840
2241.000000	0.458533
2242.000000	0.458600
2243.000000	0.458621
2244.000000	0.458755
2245.000000	0.458408
2246.000000	0.458799
2247.000000	0.459540
2248.000000	0.460417
2249.000000	0.462435
2250.000000	0.463332
2251.000000	0.462549
2252.000000	0.462234
2253.000000	0.459820
2254.000000	0.456824
2255.000000	0.455331
2256.000000	0.453680
2257.000000	0.453090
2258.000000	0.452027
2259.000000	0.449417
2260.000000	0.446885
2261.000000	0.442887
2262.000000	0.437292
2263.000000	0.432229
2264.000000	0.426250
2265.000000	0.421079
2266.000000	0.416622
2267.000000	0.410965
2268.000000	0.404937
2269.000000	0.399182
2270.000000	0.392911
2271.000000	0.386500
2272.000000	0.380285
2273.000000	0.374098
2274.000000	0.366838
2275.000000	0.360835
2276.000000	0.355615
2277.000000	0.350516
2278.000000	0.345603
2279.000000	0.341092
2280.000000	0.336793
2281.000000	0.332978
2282.000000	0.329594
2283.000000	0.327034
2284.000000	0.325098
2285.000000	0.323248
2286.000000	0.323010
2287.000000	0.323472
2288.000000	0.324603
2289.000000	0.326966
2290.000000	0.328848
2291.000000	0.331733
2292.000000	0.335886
2293.000000	0.339336
2294.000000	0.342950
2295.000000	0.347023
2296.000000	0.350865
2297.000000	0.354031
2298.000000	0.358472
2299.000000	0.363915
2300.000000	0.368542
2301.000000	0.373905
2302.000000	0.377840
2303.000000	0.380595
2304.000000	0.383628
2305.000000	0.386075
2306.000000	0.388436
2307.000000	0.390360
2308.000000	0.393203
2309.000000	0.395596
2310.000000	0.397362
2311.000000	0.399601
2312.000000	0.400957
2313.000000	0.401777
2314.000000	0.402414
2315.000000	0.402394
2316.000000	0.402322
2317.000000	0.401961
2318.000000	0.402438
2319.000000	0.404450
2320.000000	0.404904
2321.000000	0.404514
2322.000000	0.404270
2323.000000	0.402245
2324.000000	0.401016
2325.000000	0.401282
2326.000000	0.401452
2327.000000	0.401573
2328.000000	0.401627
2329.000000	0.401654
2330.000000	0.400201
2331.000000	0.398463
2332.000000	0.397243
2333.000000	0.395590
2334.000000	0.394450
2335.000000	0.394010
2336.000000	0.393908
2337.000000	0.393260
2338.000000	0.392784
2339.000000	0.392157
2340.000000	0.391344
2341.000000	0.390213
2342.000000	0.389057
2343.000000	0.387354
2344.000000	0.384944
2345.000000	0.382819
2346.000000	0.380029
2347.000000	0.378027
2348.000000	0.376587
2349.000000	0.375107
2350.000000	0.373157
2351.000000	0.372708
2352.000000	0.371503
2353.000000	0.370458
2354.000000	0.368795
2355.000000	0.367294
2356.000000	0.366282
2357.000000	0.363796
2358.000000	0.362418
2359.000000	0.362445
2360.000000	0.361457
2361.000000	0.360651
2362.000000	0.359257
2363.000000	0.357509
2364.000000	0.354777
2365.000000	0.352001
2366.000000	0.351031
2367.000000	0.349372
2368.000000	0.346947
2369.000000	0.345150
2370.000000	0.342033
2371.000000	0.338661
2372.000000	0.338533
2373.000000	0.338640
2374.000000	0.337771
2375.000000	0.336818
2376.000000	0.334822
2377.000000	0.332219
2378.000000	0.329613
2379.000000	0.327547
2380.000000	0.325304
2381.000000	0.322951
2382.000000	0.320414
2383.000000	0.318371
2384.000000	0.316839
2385.000000	0.316010
2386.000000	0.315938
2387.000000	0.315017
2388.000000	0.313622
2389.000000	0.311635
2390.000000	0.308943
2391.000000	0.306096
2392.000000	0.303681
2393.000000	0.301509
2394.000000	0.299915
2395.000000	0.299975
2396.000000	0.299782
2397.000000	0.297500
2398.000000	0.295355
2399.000000	0.293968
2400.000000	0.290727
2401.000000	0.290178
2402.000000	0.291888
2403.000000	0.292072
2404.000000	0.291450
2405.000000	0.288409
2406.000000	0.287025
2407.000000	0.285577
2408.000000	0.285518
2409.000000	0.285996
2410.000000	0.282638
2411.000000	0.281866
2412.000000	0.280919
2413.000000	0.280457
2414.000000	0.284649
2415.000000	0.285626
2416.000000	0.285518
2417.000000	0.289514
2418.000000	0.288149
2419.000000	0.283841
2420.000000	0.282975
2421.000000	0.279340
2422.000000	0.276568
2423.000000	0.279681
2424.000000	0.281543
2425.000000	0.278596
2426.000000	0.276927
2427.000000	0.276377
2428.000000	0.273596
2429.000000	0.278495
2430.000000	0.285411
2431.000000	0.286007
2432.000000	0.288972
2433.000000	0.287522
2434.000000	0.284353
2435.000000	0.282353
2436.000000	0.276172
2437.000000	0.273049
2438.000000	0.272224
2439.000000	0.271431
2440.000000	0.271318
2441.000000	0.272731
2442.000000	0.272915
2443.000000	0.271752
2444.000000	0.270688
2445.000000	0.268098
2446.000000	0.262231
2447.000000	0.253920
2448.000000	0.251006
2449.000000	0.252201
2450.000000	0.252461
2451.000000	0.256469
2452.000000	0.259150
2453.000000	0.256304
2454.000000	0.254782
2455.000000	0.249995
2456.000000	0.247910
2457.000000	0.245347
2458.000000	0.239517
2459.000000	0.242604
2460.000000	0.246028
2461.000000	0.251028
2462.000000	0.258443
2463.000000	0.251664
2464.000000	0.240321
2465.000000	0.234110
2466.000000	0.223565
2467.000000	0.225225
2468.000000	0.234246
2469.000000	0.232244
2470.000000	0.233059
2471.000000	0.232104
2472.000000	0.229335
2473.000000	0.231163
2474.000000	0.231057
2475.000000	0.234225
2476.000000	0.228045
2477.000000	0.217011
2478.000000	0.217572
2479.000000	0.212775
2480.000000	0.213456
2481.000000	0.221905
2482.000000	0.220888
2483.000000	0.222538
2484.000000	0.225305
2485.000000	0.230399
2486.000000	0.238446
2487.000000	0.238491
2488.000000	0.239148
2489.000000	0.229800
2490.000000	0.213387
2491.000000	0.214421
2492.000000	0.201498
2493.000000	0.183228
2494.000000	0.182547
2495.000000	0.182787
2496.000000	0.182115
2497.000000	0.194597
2498.000000	0.197793
2499.000000	0.201428
2500.000000	0.198309
