# Wavelength	Nau-1_30_FV7_70_00002.asd.rts.txt
350.000000	0.151992
351.000000	0.164251
352.000000	0.180117
353.000000	0.179361
354.000000	0.162471
355.000000	0.155672
356.000000	0.156970
357.000000	0.164108
358.000000	0.171957
359.000000	0.172574
360.000000	0.167419
361.000000	0.160552
362.000000	0.158197
363.000000	0.159439
364.000000	0.162071
365.000000	0.164774
366.000000	0.168302
367.000000	0.169931
368.000000	0.163892
369.000000	0.167219
370.000000	0.174471
371.000000	0.174813
372.000000	0.175082
373.000000	0.174073
374.000000	0.172071
375.000000	0.174628
376.000000	0.174192
377.000000	0.171684
378.000000	0.176681
379.000000	0.176785
380.000000	0.174012
381.000000	0.174988
382.000000	0.178117
383.000000	0.180586
384.000000	0.181075
385.000000	0.181828
386.000000	0.181177
387.000000	0.179517
388.000000	0.179086
389.000000	0.180709
390.000000	0.182878
391.000000	0.183297
392.000000	0.185163
393.000000	0.186046
394.000000	0.184854
395.000000	0.187410
396.000000	0.189192
397.000000	0.188809
398.000000	0.188647
399.000000	0.190363
400.000000	0.192750
401.000000	0.193210
402.000000	0.192218
403.000000	0.192330
404.000000	0.195052
405.000000	0.195852
406.000000	0.196460
407.000000	0.197600
408.000000	0.197659
409.000000	0.198640
410.000000	0.200226
411.000000	0.200777
412.000000	0.200843
413.000000	0.200933
414.000000	0.201532
415.000000	0.202982
416.000000	0.203661
417.000000	0.203177
418.000000	0.204041
419.000000	0.204809
420.000000	0.205033
421.000000	0.204977
422.000000	0.205082
423.000000	0.205355
424.000000	0.205725
425.000000	0.206377
426.000000	0.206864
427.000000	0.206942
428.000000	0.207259
429.000000	0.207537
430.000000	0.207547
431.000000	0.207009
432.000000	0.206683
433.000000	0.206839
434.000000	0.207536
435.000000	0.207345
436.000000	0.207076
437.000000	0.207559
438.000000	0.207645
439.000000	0.207574
440.000000	0.207537
441.000000	0.207157
442.000000	0.207026
443.000000	0.207217
444.000000	0.207583
445.000000	0.207578
446.000000	0.207523
447.000000	0.207770
448.000000	0.207995
449.000000	0.208436
450.000000	0.209288
451.000000	0.210555
452.000000	0.211618
453.000000	0.212377
454.000000	0.213506
455.000000	0.214754
456.000000	0.216088
457.000000	0.217383
458.000000	0.218628
459.000000	0.219781
460.000000	0.220858
461.000000	0.221845
462.000000	0.222959
463.000000	0.224024
464.000000	0.224573
465.000000	0.225038
466.000000	0.225555
467.000000	0.226218
468.000000	0.226841
469.000000	0.227191
470.000000	0.227318
471.000000	0.228056
472.000000	0.228739
473.000000	0.228947
474.000000	0.229081
475.000000	0.229442
476.000000	0.230079
477.000000	0.230434
478.000000	0.230729
479.000000	0.231164
480.000000	0.231616
481.000000	0.231868
482.000000	0.232300
483.000000	0.232949
484.000000	0.233117
485.000000	0.233178
486.000000	0.233505
487.000000	0.233914
488.000000	0.234308
489.000000	0.234708
490.000000	0.235205
491.000000	0.235743
492.000000	0.236160
493.000000	0.236235
494.000000	0.236557
495.000000	0.237051
496.000000	0.237549
497.000000	0.238052
498.000000	0.238448
499.000000	0.238802
500.000000	0.239218
501.000000	0.239643
502.000000	0.240105
503.000000	0.240578
504.000000	0.241038
505.000000	0.241483
506.000000	0.241924
507.000000	0.242348
508.000000	0.242808
509.000000	0.243302
510.000000	0.243876
511.000000	0.244370
512.000000	0.244821
513.000000	0.245377
514.000000	0.245908
515.000000	0.246429
516.000000	0.246935
517.000000	0.247422
518.000000	0.247989
519.000000	0.248595
520.000000	0.249069
521.000000	0.249567
522.000000	0.250164
523.000000	0.250827
524.000000	0.251390
525.000000	0.251869
526.000000	0.252434
527.000000	0.253084
528.000000	0.253708
529.000000	0.254253
530.000000	0.254848
531.000000	0.255427
532.000000	0.255903
533.000000	0.256509
534.000000	0.257099
535.000000	0.257640
536.000000	0.258242
537.000000	0.258892
538.000000	0.259544
539.000000	0.260121
540.000000	0.260641
541.000000	0.261183
542.000000	0.261824
543.000000	0.262419
544.000000	0.263002
545.000000	0.263556
546.000000	0.264217
547.000000	0.264779
548.000000	0.265299
549.000000	0.265919
550.000000	0.266535
551.000000	0.267147
552.000000	0.267736
553.000000	0.268389
554.000000	0.268986
555.000000	0.269483
556.000000	0.270119
557.000000	0.270658
558.000000	0.271176
559.000000	0.271799
560.000000	0.272399
561.000000	0.273020
562.000000	0.273628
563.000000	0.274115
564.000000	0.274627
565.000000	0.275192
566.000000	0.275663
567.000000	0.276082
568.000000	0.276509
569.000000	0.277134
570.000000	0.277678
571.000000	0.278075
572.000000	0.278452
573.000000	0.278939
574.000000	0.279433
575.000000	0.279819
576.000000	0.280283
577.000000	0.280681
578.000000	0.280969
579.000000	0.281321
580.000000	0.281738
581.000000	0.282167
582.000000	0.282459
583.000000	0.282784
584.000000	0.283120
585.000000	0.283348
586.000000	0.283640
587.000000	0.283960
588.000000	0.284233
589.000000	0.284476
590.000000	0.284715
591.000000	0.284967
592.000000	0.285237
593.000000	0.285465
594.000000	0.285640
595.000000	0.285808
596.000000	0.286061
597.000000	0.286335
598.000000	0.286413
599.000000	0.286423
600.000000	0.286447
601.000000	0.286481
602.000000	0.286665
603.000000	0.286860
604.000000	0.287012
605.000000	0.287178
606.000000	0.287391
607.000000	0.287649
608.000000	0.287916
609.000000	0.288156
610.000000	0.288373
611.000000	0.288576
612.000000	0.288717
613.000000	0.288781
614.000000	0.288823
615.000000	0.288908
616.000000	0.288944
617.000000	0.288920
618.000000	0.289020
619.000000	0.289078
620.000000	0.289100
621.000000	0.289199
622.000000	0.289223
623.000000	0.289245
624.000000	0.289330
625.000000	0.289374
626.000000	0.289435
627.000000	0.289530
628.000000	0.289577
629.000000	0.289795
630.000000	0.289980
631.000000	0.289981
632.000000	0.290074
633.000000	0.290240
634.000000	0.290389
635.000000	0.290535
636.000000	0.290752
637.000000	0.291020
638.000000	0.291162
639.000000	0.291303
640.000000	0.291496
641.000000	0.291587
642.000000	0.291691
643.000000	0.291816
644.000000	0.291940
645.000000	0.292031
646.000000	0.292150
647.000000	0.292309
648.000000	0.292451
649.000000	0.292603
650.000000	0.292760
651.000000	0.292934
652.000000	0.293160
653.000000	0.293364
654.000000	0.293364
655.000000	0.293477
656.000000	0.293673
657.000000	0.293822
658.000000	0.293992
659.000000	0.294178
660.000000	0.294359
661.000000	0.294547
662.000000	0.294698
663.000000	0.294859
664.000000	0.295032
665.000000	0.295197
666.000000	0.295375
667.000000	0.295566
668.000000	0.295795
669.000000	0.296003
670.000000	0.296181
671.000000	0.296442
672.000000	0.296611
673.000000	0.296717
674.000000	0.296976
675.000000	0.297247
676.000000	0.297466
677.000000	0.297618
678.000000	0.297759
679.000000	0.297977
680.000000	0.298285
681.000000	0.298453
682.000000	0.298668
683.000000	0.298893
684.000000	0.299097
685.000000	0.299273
686.000000	0.299507
687.000000	0.299844
688.000000	0.300127
689.000000	0.300337
690.000000	0.300524
691.000000	0.300741
692.000000	0.300919
693.000000	0.301136
694.000000	0.301471
695.000000	0.301794
696.000000	0.302072
697.000000	0.302314
698.000000	0.302538
699.000000	0.302821
700.000000	0.303201
701.000000	0.303524
702.000000	0.303848
703.000000	0.304145
704.000000	0.304302
705.000000	0.304546
706.000000	0.304848
707.000000	0.305156
708.000000	0.305395
709.000000	0.305643
710.000000	0.305972
711.000000	0.306242
712.000000	0.306405
713.000000	0.306528
714.000000	0.306796
715.000000	0.307090
716.000000	0.307374
717.000000	0.307611
718.000000	0.307802
719.000000	0.308047
720.000000	0.308414
721.000000	0.308741
722.000000	0.308963
723.000000	0.309155
724.000000	0.309414
725.000000	0.309586
726.000000	0.309746
727.000000	0.309894
728.000000	0.310082
729.000000	0.310332
730.000000	0.310593
731.000000	0.310860
732.000000	0.311111
733.000000	0.311339
734.000000	0.311431
735.000000	0.311595
736.000000	0.311893
737.000000	0.312068
738.000000	0.312114
739.000000	0.312226
740.000000	0.312365
741.000000	0.312489
742.000000	0.312721
743.000000	0.313012
744.000000	0.313213
745.000000	0.313362
746.000000	0.313514
747.000000	0.313629
748.000000	0.313741
749.000000	0.313887
750.000000	0.314024
751.000000	0.314015
752.000000	0.314077
753.000000	0.314243
754.000000	0.314363
755.000000	0.314481
756.000000	0.314581
757.000000	0.314613
758.000000	0.314775
759.000000	0.314858
760.000000	0.314748
761.000000	0.314847
762.000000	0.315016
763.000000	0.315162
764.000000	0.315278
765.000000	0.315352
766.000000	0.315418
767.000000	0.315497
768.000000	0.315547
769.000000	0.315556
770.000000	0.315545
771.000000	0.315565
772.000000	0.315662
773.000000	0.315702
774.000000	0.315635
775.000000	0.315576
776.000000	0.315554
777.000000	0.315549
778.000000	0.315537
779.000000	0.315471
780.000000	0.315412
781.000000	0.315504
782.000000	0.315560
783.000000	0.315637
784.000000	0.315654
785.000000	0.315594
786.000000	0.315522
787.000000	0.315484
788.000000	0.315521
789.000000	0.315547
790.000000	0.315506
791.000000	0.315418
792.000000	0.315416
793.000000	0.315354
794.000000	0.315150
795.000000	0.315085
796.000000	0.315007
797.000000	0.314877
798.000000	0.314787
799.000000	0.314766
800.000000	0.314775
801.000000	0.314761
802.000000	0.314728
803.000000	0.314660
804.000000	0.314604
805.000000	0.314609
806.000000	0.314518
807.000000	0.314436
808.000000	0.314412
809.000000	0.314155
810.000000	0.313949
811.000000	0.313964
812.000000	0.313830
813.000000	0.313660
814.000000	0.313494
815.000000	0.313339
816.000000	0.313330
817.000000	0.313317
818.000000	0.313073
819.000000	0.312954
820.000000	0.312951
821.000000	0.312927
822.000000	0.312719
823.000000	0.312570
824.000000	0.312508
825.000000	0.312564
826.000000	0.312394
827.000000	0.312123
828.000000	0.311914
829.000000	0.311754
830.000000	0.311599
831.000000	0.311462
832.000000	0.311236
833.000000	0.311151
834.000000	0.311100
835.000000	0.311008
836.000000	0.310929
837.000000	0.310759
838.000000	0.310537
839.000000	0.310375
840.000000	0.310271
841.000000	0.310198
842.000000	0.310080
843.000000	0.309879
844.000000	0.309731
845.000000	0.309637
846.000000	0.309525
847.000000	0.309475
848.000000	0.309441
849.000000	0.309376
850.000000	0.309203
851.000000	0.308949
852.000000	0.308740
853.000000	0.308733
854.000000	0.308650
855.000000	0.308564
856.000000	0.308455
857.000000	0.308305
858.000000	0.308162
859.000000	0.307982
860.000000	0.307810
861.000000	0.307676
862.000000	0.307560
863.000000	0.307340
864.000000	0.307015
865.000000	0.306747
866.000000	0.306601
867.000000	0.306345
868.000000	0.306279
869.000000	0.306215
870.000000	0.305941
871.000000	0.305835
872.000000	0.305728
873.000000	0.305467
874.000000	0.305244
875.000000	0.304983
876.000000	0.304723
877.000000	0.304482
878.000000	0.304352
879.000000	0.304290
880.000000	0.304106
881.000000	0.303838
882.000000	0.303782
883.000000	0.303776
884.000000	0.303441
885.000000	0.303034
886.000000	0.302832
887.000000	0.302858
888.000000	0.302583
889.000000	0.302446
890.000000	0.302392
891.000000	0.302371
892.000000	0.302075
893.000000	0.301660
894.000000	0.301381
895.000000	0.301201
896.000000	0.300973
897.000000	0.300741
898.000000	0.300586
899.000000	0.300353
900.000000	0.300143
901.000000	0.300010
902.000000	0.300054
903.000000	0.299956
904.000000	0.299692
905.000000	0.299301
906.000000	0.299262
907.000000	0.299278
908.000000	0.299245
909.000000	0.299121
910.000000	0.298877
911.000000	0.298543
912.000000	0.298219
913.000000	0.298119
914.000000	0.297923
915.000000	0.297698
916.000000	0.297624
917.000000	0.297391
918.000000	0.297151
919.000000	0.297004
920.000000	0.296790
921.000000	0.296539
922.000000	0.296333
923.000000	0.296240
924.000000	0.296220
925.000000	0.296066
926.000000	0.295710
927.000000	0.295203
928.000000	0.294969
929.000000	0.294899
930.000000	0.294705
931.000000	0.294271
932.000000	0.293891
933.000000	0.293654
934.000000	0.293311
935.000000	0.293168
936.000000	0.293109
937.000000	0.292911
938.000000	0.292790
939.000000	0.292712
940.000000	0.292579
941.000000	0.292425
942.000000	0.292249
943.000000	0.292027
944.000000	0.291710
945.000000	0.291632
946.000000	0.291393
947.000000	0.291163
948.000000	0.291096
949.000000	0.290625
950.000000	0.290438
951.000000	0.290528
952.000000	0.290313
953.000000	0.290124
954.000000	0.289867
955.000000	0.289424
956.000000	0.289041
957.000000	0.288893
958.000000	0.288766
959.000000	0.288487
960.000000	0.288495
961.000000	0.288598
962.000000	0.288524
963.000000	0.288045
964.000000	0.287831
965.000000	0.287743
966.000000	0.287489
967.000000	0.287448
968.000000	0.287112
969.000000	0.286666
970.000000	0.286668
971.000000	0.286648
972.000000	0.286405
973.000000	0.286018
974.000000	0.286040
975.000000	0.285796
976.000000	0.285495
977.000000	0.285342
978.000000	0.284946
979.000000	0.284893
980.000000	0.284933
981.000000	0.284914
982.000000	0.284649
983.000000	0.284560
984.000000	0.284646
985.000000	0.284322
986.000000	0.284411
987.000000	0.284564
988.000000	0.284349
989.000000	0.284048
990.000000	0.283992
991.000000	0.284041
992.000000	0.283987
993.000000	0.284040
994.000000	0.283845
995.000000	0.283598
996.000000	0.283533
997.000000	0.283864
998.000000	0.283957
999.000000	0.283775
1000.000000	0.284045
1001.000000	0.283812
1002.000000	0.283988
1003.000000	0.283977
1004.000000	0.283701
1005.000000	0.283235
1006.000000	0.283125
1007.000000	0.282989
1008.000000	0.282725
1009.000000	0.283124
1010.000000	0.282686
1011.000000	0.281725
1012.000000	0.281329
1013.000000	0.281231
1014.000000	0.281624
1015.000000	0.281753
1016.000000	0.281556
1017.000000	0.281356
1018.000000	0.281227
1019.000000	0.281361
1020.000000	0.282626
1021.000000	0.282641
1022.000000	0.281887
1023.000000	0.282018
1024.000000	0.281976
1025.000000	0.282145
1026.000000	0.283270
1027.000000	0.284137
1028.000000	0.284506
1029.000000	0.284946
1030.000000	0.284451
1031.000000	0.283439
1032.000000	0.283269
1033.000000	0.283096
1034.000000	0.282983
1035.000000	0.283589
1036.000000	0.283618
1037.000000	0.282986
1038.000000	0.282809
1039.000000	0.282645
1040.000000	0.282856
1041.000000	0.283804
1042.000000	0.284327
1043.000000	0.284746
1044.000000	0.285006
1045.000000	0.284382
1046.000000	0.284461
1047.000000	0.284572
1048.000000	0.284702
1049.000000	0.284794
1050.000000	0.285022
1051.000000	0.285322
1052.000000	0.285628
1053.000000	0.285841
1054.000000	0.286504
1055.000000	0.286755
1056.000000	0.286701
1057.000000	0.286703
1058.000000	0.286304
1059.000000	0.286042
1060.000000	0.286931
1061.000000	0.287716
1062.000000	0.288199
1063.000000	0.288896
1064.000000	0.289440
1065.000000	0.289393
1066.000000	0.289475
1067.000000	0.289837
1068.000000	0.290007
1069.000000	0.289375
1070.000000	0.289512
1071.000000	0.290449
1072.000000	0.290914
1073.000000	0.291339
1074.000000	0.292066
1075.000000	0.292286
1076.000000	0.292143
1077.000000	0.292054
1078.000000	0.291818
1079.000000	0.291730
1080.000000	0.291447
1081.000000	0.291853
1082.000000	0.293016
1083.000000	0.293344
1084.000000	0.293692
1085.000000	0.294098
1086.000000	0.293871
1087.000000	0.294111
1088.000000	0.294842
1089.000000	0.295321
1090.000000	0.295749
1091.000000	0.296003
1092.000000	0.296334
1093.000000	0.296425
1094.000000	0.296514
1095.000000	0.296252
1096.000000	0.296477
1097.000000	0.296895
1098.000000	0.297294
1099.000000	0.297875
1100.000000	0.298279
1101.000000	0.298638
1102.000000	0.298858
1103.000000	0.298862
1104.000000	0.299089
1105.000000	0.299265
1106.000000	0.299457
1107.000000	0.299714
1108.000000	0.299988
1109.000000	0.300091
1110.000000	0.300661
1111.000000	0.300997
1112.000000	0.301423
1113.000000	0.301778
1114.000000	0.302069
1115.000000	0.302383
1116.000000	0.302788
1117.000000	0.303014
1118.000000	0.303055
1119.000000	0.303197
1120.000000	0.303287
1121.000000	0.303441
1122.000000	0.303811
1123.000000	0.304220
1124.000000	0.304387
1125.000000	0.304651
1126.000000	0.304892
1127.000000	0.305098
1128.000000	0.305295
1129.000000	0.305554
1130.000000	0.305755
1131.000000	0.305929
1132.000000	0.306072
1133.000000	0.306198
1134.000000	0.306427
1135.000000	0.306667
1136.000000	0.306840
1137.000000	0.307021
1138.000000	0.307182
1139.000000	0.307310
1140.000000	0.307576
1141.000000	0.307827
1142.000000	0.308186
1143.000000	0.308722
1144.000000	0.309147
1145.000000	0.309335
1146.000000	0.309583
1147.000000	0.309801
1148.000000	0.309742
1149.000000	0.309938
1150.000000	0.310373
1151.000000	0.310580
1152.000000	0.310736
1153.000000	0.310801
1154.000000	0.310631
1155.000000	0.310626
1156.000000	0.310615
1157.000000	0.310647
1158.000000	0.310692
1159.000000	0.310801
1160.000000	0.310928
1161.000000	0.311068
1162.000000	0.311378
1163.000000	0.311748
1164.000000	0.311795
1165.000000	0.311819
1166.000000	0.311786
1167.000000	0.311435
1168.000000	0.311405
1169.000000	0.311583
1170.000000	0.311656
1171.000000	0.311828
1172.000000	0.312009
1173.000000	0.312094
1174.000000	0.312203
1175.000000	0.312373
1176.000000	0.312475
1177.000000	0.312629
1178.000000	0.312716
1179.000000	0.312681
1180.000000	0.312735
1181.000000	0.312914
1182.000000	0.313030
1183.000000	0.313167
1184.000000	0.313446
1185.000000	0.313612
1186.000000	0.313705
1187.000000	0.313756
1188.000000	0.313823
1189.000000	0.313774
1190.000000	0.313587
1191.000000	0.313621
1192.000000	0.313820
1193.000000	0.314024
1194.000000	0.314257
1195.000000	0.314401
1196.000000	0.314442
1197.000000	0.314460
1198.000000	0.314433
1199.000000	0.314448
1200.000000	0.314327
1201.000000	0.314438
1202.000000	0.314588
1203.000000	0.314673
1204.000000	0.314796
1205.000000	0.314794
1206.000000	0.314804
1207.000000	0.314855
1208.000000	0.314858
1209.000000	0.314977
1210.000000	0.314941
1211.000000	0.314708
1212.000000	0.314675
1213.000000	0.314745
1214.000000	0.314738
1215.000000	0.314710
1216.000000	0.314816
1217.000000	0.314994
1218.000000	0.314958
1219.000000	0.314885
1220.000000	0.315014
1221.000000	0.314868
1222.000000	0.314704
1223.000000	0.314899
1224.000000	0.314933
1225.000000	0.314860
1226.000000	0.315048
1227.000000	0.315024
1228.000000	0.314995
1229.000000	0.314957
1230.000000	0.314837
1231.000000	0.314744
1232.000000	0.314752
1233.000000	0.314909
1234.000000	0.315166
1235.000000	0.315336
1236.000000	0.315534
1237.000000	0.315669
1238.000000	0.315652
1239.000000	0.315651
1240.000000	0.315603
1241.000000	0.315588
1242.000000	0.315635
1243.000000	0.315621
1244.000000	0.315677
1245.000000	0.315737
1246.000000	0.315602
1247.000000	0.315688
1248.000000	0.315817
1249.000000	0.315754
1250.000000	0.315801
1251.000000	0.315943
1252.000000	0.315988
1253.000000	0.316049
1254.000000	0.316079
1255.000000	0.316117
1256.000000	0.316007
1257.000000	0.315703
1258.000000	0.315665
1259.000000	0.315642
1260.000000	0.315606
1261.000000	0.315686
1262.000000	0.315689
1263.000000	0.315617
1264.000000	0.315460
1265.000000	0.315428
1266.000000	0.315485
1267.000000	0.315645
1268.000000	0.315598
1269.000000	0.315383
1270.000000	0.315348
1271.000000	0.315101
1272.000000	0.314890
1273.000000	0.314973
1274.000000	0.315010
1275.000000	0.315040
1276.000000	0.315222
1277.000000	0.315274
1278.000000	0.315131
1279.000000	0.315056
1280.000000	0.314813
1281.000000	0.314757
1282.000000	0.314861
1283.000000	0.314988
1284.000000	0.315192
1285.000000	0.315324
1286.000000	0.315430
1287.000000	0.315472
1288.000000	0.315498
1289.000000	0.315436
1290.000000	0.315305
1291.000000	0.315301
1292.000000	0.315470
1293.000000	0.315651
1294.000000	0.315705
1295.000000	0.315775
1296.000000	0.315785
1297.000000	0.315630
1298.000000	0.315576
1299.000000	0.315623
1300.000000	0.315606
1301.000000	0.315513
1302.000000	0.315387
1303.000000	0.315332
1304.000000	0.315249
1305.000000	0.315238
1306.000000	0.315164
1307.000000	0.315085
1308.000000	0.315138
1309.000000	0.315220
1310.000000	0.315274
1311.000000	0.315511
1312.000000	0.315526
1313.000000	0.315444
1314.000000	0.315374
1315.000000	0.315215
1316.000000	0.315264
1317.000000	0.315322
1318.000000	0.315301
1319.000000	0.315338
1320.000000	0.315462
1321.000000	0.315537
1322.000000	0.315511
1323.000000	0.315677
1324.000000	0.315851
1325.000000	0.315702
1326.000000	0.315559
1327.000000	0.315532
1328.000000	0.315402
1329.000000	0.315237
1330.000000	0.315188
1331.000000	0.315141
1332.000000	0.315051
1333.000000	0.314973
1334.000000	0.315095
1335.000000	0.315078
1336.000000	0.314845
1337.000000	0.314733
1338.000000	0.314604
1339.000000	0.314492
1340.000000	0.314476
1341.000000	0.314464
1342.000000	0.314370
1343.000000	0.314312
1344.000000	0.314110
1345.000000	0.313994
1346.000000	0.314208
1347.000000	0.314182
1348.000000	0.314200
1349.000000	0.314187
1350.000000	0.313957
1351.000000	0.313940
1352.000000	0.314014
1353.000000	0.313918
1354.000000	0.313874
1355.000000	0.313782
1356.000000	0.313629
1357.000000	0.313534
1358.000000	0.313674
1359.000000	0.313725
1360.000000	0.313783
1361.000000	0.314083
1362.000000	0.314117
1363.000000	0.313909
1364.000000	0.313821
1365.000000	0.313634
1366.000000	0.313497
1367.000000	0.313381
1368.000000	0.313264
1369.000000	0.313402
1370.000000	0.313359
1371.000000	0.313210
1372.000000	0.313129
1373.000000	0.312895
1374.000000	0.312636
1375.000000	0.312453
1376.000000	0.312535
1377.000000	0.312546
1378.000000	0.312416
1379.000000	0.312400
1380.000000	0.312287
1381.000000	0.312066
1382.000000	0.311911
1383.000000	0.311637
1384.000000	0.311214
1385.000000	0.311069
1386.000000	0.311044
1387.000000	0.310943
1388.000000	0.310929
1389.000000	0.310666
1390.000000	0.310169
1391.000000	0.309824
1392.000000	0.309592
1393.000000	0.309309
1394.000000	0.309133
1395.000000	0.308941
1396.000000	0.308735
1397.000000	0.308433
1398.000000	0.308041
1399.000000	0.307714
1400.000000	0.307372
1401.000000	0.306936
1402.000000	0.306489
1403.000000	0.306172
1404.000000	0.305835
1405.000000	0.305307
1406.000000	0.304936
1407.000000	0.304569
1408.000000	0.303987
1409.000000	0.303652
1410.000000	0.303391
1411.000000	0.303015
1412.000000	0.302699
1413.000000	0.302498
1414.000000	0.302389
1415.000000	0.302357
1416.000000	0.302302
1417.000000	0.302355
1418.000000	0.302338
1419.000000	0.302311
1420.000000	0.302376
1421.000000	0.302370
1422.000000	0.302440
1423.000000	0.302656
1424.000000	0.302710
1425.000000	0.302718
1426.000000	0.302591
1427.000000	0.302405
1428.000000	0.302179
1429.000000	0.302046
1430.000000	0.302015
1431.000000	0.301980
1432.000000	0.301946
1433.000000	0.301950
1434.000000	0.301973
1435.000000	0.302083
1436.000000	0.302232
1437.000000	0.302439
1438.000000	0.302716
1439.000000	0.303062
1440.000000	0.303379
1441.000000	0.303788
1442.000000	0.304211
1443.000000	0.304549
1444.000000	0.304984
1445.000000	0.305436
1446.000000	0.305788
1447.000000	0.306122
1448.000000	0.306347
1449.000000	0.306473
1450.000000	0.306602
1451.000000	0.306780
1452.000000	0.306939
1453.000000	0.307176
1454.000000	0.307303
1455.000000	0.307301
1456.000000	0.307398
1457.000000	0.307445
1458.000000	0.307534
1459.000000	0.307602
1460.000000	0.307565
1461.000000	0.307574
1462.000000	0.307558
1463.000000	0.307553
1464.000000	0.307671
1465.000000	0.307800
1466.000000	0.307925
1467.000000	0.308076
1468.000000	0.308080
1469.000000	0.308059
1470.000000	0.308001
1471.000000	0.308043
1472.000000	0.308156
1473.000000	0.308288
1474.000000	0.308387
1475.000000	0.308407
1476.000000	0.308359
1477.000000	0.308339
1478.000000	0.308452
1479.000000	0.308600
1480.000000	0.308759
1481.000000	0.308858
1482.000000	0.308991
1483.000000	0.309092
1484.000000	0.309116
1485.000000	0.309196
1486.000000	0.309313
1487.000000	0.309421
1488.000000	0.309560
1489.000000	0.309735
1490.000000	0.309808
1491.000000	0.309901
1492.000000	0.309961
1493.000000	0.310003
1494.000000	0.309961
1495.000000	0.310006
1496.000000	0.310095
1497.000000	0.310176
1498.000000	0.310319
1499.000000	0.310420
1500.000000	0.310377
1501.000000	0.310412
1502.000000	0.310501
1503.000000	0.310575
1504.000000	0.310762
1505.000000	0.310876
1506.000000	0.310876
1507.000000	0.310879
1508.000000	0.311007
1509.000000	0.311128
1510.000000	0.311160
1511.000000	0.311249
1512.000000	0.311279
1513.000000	0.311244
1514.000000	0.311210
1515.000000	0.311187
1516.000000	0.311198
1517.000000	0.311161
1518.000000	0.311293
1519.000000	0.311404
1520.000000	0.311391
1521.000000	0.311315
1522.000000	0.311180
1523.000000	0.311168
1524.000000	0.311182
1525.000000	0.311222
1526.000000	0.311369
1527.000000	0.311446
1528.000000	0.311544
1529.000000	0.311654
1530.000000	0.311520
1531.000000	0.311498
1532.000000	0.311613
1533.000000	0.311628
1534.000000	0.311748
1535.000000	0.311908
1536.000000	0.311867
1537.000000	0.311922
1538.000000	0.312024
1539.000000	0.311990
1540.000000	0.311970
1541.000000	0.311913
1542.000000	0.311888
1543.000000	0.311944
1544.000000	0.311918
1545.000000	0.311912
1546.000000	0.311933
1547.000000	0.311948
1548.000000	0.311934
1549.000000	0.311859
1550.000000	0.311805
1551.000000	0.311736
1552.000000	0.311712
1553.000000	0.311814
1554.000000	0.311900
1555.000000	0.312030
1556.000000	0.312204
1557.000000	0.312287
1558.000000	0.312442
1559.000000	0.312575
1560.000000	0.312690
1561.000000	0.312887
1562.000000	0.313004
1563.000000	0.313091
1564.000000	0.313220
1565.000000	0.313405
1566.000000	0.313315
1567.000000	0.313187
1568.000000	0.313094
1569.000000	0.312885
1570.000000	0.312819
1571.000000	0.312856
1572.000000	0.312841
1573.000000	0.312872
1574.000000	0.312841
1575.000000	0.312854
1576.000000	0.312827
1577.000000	0.312624
1578.000000	0.312543
1579.000000	0.312622
1580.000000	0.312605
1581.000000	0.312725
1582.000000	0.312645
1583.000000	0.312308
1584.000000	0.312164
1585.000000	0.312114
1586.000000	0.312149
1587.000000	0.312410
1588.000000	0.312465
1589.000000	0.312423
1590.000000	0.312368
1591.000000	0.312226
1592.000000	0.312178
1593.000000	0.312201
1594.000000	0.312214
1595.000000	0.312348
1596.000000	0.312359
1597.000000	0.312321
1598.000000	0.312310
1599.000000	0.312305
1600.000000	0.312244
1601.000000	0.312226
1602.000000	0.312203
1603.000000	0.312162
1604.000000	0.312130
1605.000000	0.312183
1606.000000	0.312206
1607.000000	0.312257
1608.000000	0.312191
1609.000000	0.312134
1610.000000	0.312019
1611.000000	0.311793
1612.000000	0.311690
1613.000000	0.311737
1614.000000	0.311728
1615.000000	0.311840
1616.000000	0.311860
1617.000000	0.311734
1618.000000	0.311669
1619.000000	0.311559
1620.000000	0.311537
1621.000000	0.311654
1622.000000	0.311747
1623.000000	0.311794
1624.000000	0.311828
1625.000000	0.311697
1626.000000	0.311675
1627.000000	0.311798
1628.000000	0.311796
1629.000000	0.311779
1630.000000	0.311697
1631.000000	0.311365
1632.000000	0.311188
1633.000000	0.311062
1634.000000	0.310972
1635.000000	0.311000
1636.000000	0.311033
1637.000000	0.311113
1638.000000	0.311135
1639.000000	0.311221
1640.000000	0.311253
1641.000000	0.311319
1642.000000	0.311361
1643.000000	0.311473
1644.000000	0.311450
1645.000000	0.311301
1646.000000	0.311165
1647.000000	0.310927
1648.000000	0.310845
1649.000000	0.310968
1650.000000	0.311024
1651.000000	0.311219
1652.000000	0.311293
1653.000000	0.311203
1654.000000	0.311220
1655.000000	0.311168
1656.000000	0.311072
1657.000000	0.311106
1658.000000	0.311040
1659.000000	0.310948
1660.000000	0.311038
1661.000000	0.311100
1662.000000	0.311134
1663.000000	0.311293
1664.000000	0.311257
1665.000000	0.311079
1666.000000	0.311031
1667.000000	0.310824
1668.000000	0.310809
1669.000000	0.310917
1670.000000	0.310848
1671.000000	0.310891
1672.000000	0.310922
1673.000000	0.310820
1674.000000	0.310875
1675.000000	0.310950
1676.000000	0.310850
1677.000000	0.310798
1678.000000	0.310806
1679.000000	0.310758
1680.000000	0.310725
1681.000000	0.310756
1682.000000	0.310759
1683.000000	0.310821
1684.000000	0.310862
1685.000000	0.310774
1686.000000	0.310709
1687.000000	0.310763
1688.000000	0.310819
1689.000000	0.310921
1690.000000	0.310959
1691.000000	0.310943
1692.000000	0.310872
1693.000000	0.310872
1694.000000	0.310835
1695.000000	0.310703
1696.000000	0.310583
1697.000000	0.310568
1698.000000	0.310796
1699.000000	0.310908
1700.000000	0.311059
1701.000000	0.311207
1702.000000	0.311071
1703.000000	0.310966
1704.000000	0.310947
1705.000000	0.310928
1706.000000	0.310934
1707.000000	0.310921
1708.000000	0.310880
1709.000000	0.310808
1710.000000	0.310810
1711.000000	0.310821
1712.000000	0.310872
1713.000000	0.310873
1714.000000	0.310910
1715.000000	0.310881
1716.000000	0.310739
1717.000000	0.310761
1718.000000	0.310885
1719.000000	0.310832
1720.000000	0.310903
1721.000000	0.310790
1722.000000	0.310293
1723.000000	0.310190
1724.000000	0.310276
1725.000000	0.310330
1726.000000	0.310556
1727.000000	0.310547
1728.000000	0.310267
1729.000000	0.310137
1730.000000	0.310169
1731.000000	0.310050
1732.000000	0.309872
1733.000000	0.309938
1734.000000	0.309871
1735.000000	0.309922
1736.000000	0.310281
1737.000000	0.310243
1738.000000	0.309959
1739.000000	0.309877
1740.000000	0.309731
1741.000000	0.309636
1742.000000	0.309651
1743.000000	0.309681
1744.000000	0.309670
1745.000000	0.309662
1746.000000	0.309753
1747.000000	0.309537
1748.000000	0.309354
1749.000000	0.309085
1750.000000	0.308886
1751.000000	0.308921
1752.000000	0.308979
1753.000000	0.308919
1754.000000	0.308925
1755.000000	0.308964
1756.000000	0.308923
1757.000000	0.308925
1758.000000	0.308852
1759.000000	0.308526
1760.000000	0.308447
1761.000000	0.308459
1762.000000	0.308444
1763.000000	0.308634
1764.000000	0.308667
1765.000000	0.308518
1766.000000	0.308468
1767.000000	0.308367
1768.000000	0.308243
1769.000000	0.308193
1770.000000	0.308198
1771.000000	0.308189
1772.000000	0.308131
1773.000000	0.307984
1774.000000	0.308025
1775.000000	0.308201
1776.000000	0.308261
1777.000000	0.308343
1778.000000	0.308472
1779.000000	0.308494
1780.000000	0.308621
1781.000000	0.308943
1782.000000	0.308996
1783.000000	0.308911
1784.000000	0.308887
1785.000000	0.308963
1786.000000	0.309037
1787.000000	0.309044
1788.000000	0.308969
1789.000000	0.308891
1790.000000	0.309014
1791.000000	0.308965
1792.000000	0.308913
1793.000000	0.308896
1794.000000	0.308783
1795.000000	0.308784
1796.000000	0.308924
1797.000000	0.309015
1798.000000	0.309141
1799.000000	0.309167
1800.000000	0.309136
1801.000000	0.310272
1802.000000	0.309440
1803.000000	0.307732
1804.000000	0.307634
1805.000000	0.308832
1806.000000	0.309306
1807.000000	0.310018
1808.000000	0.310894
1809.000000	0.312149
1810.000000	0.312839
1811.000000	0.312763
1812.000000	0.312461
1813.000000	0.312372
1814.000000	0.310969
1815.000000	0.310913
1816.000000	0.312431
1817.000000	0.312599
1818.000000	0.312543
1819.000000	0.312540
1820.000000	0.311023
1821.000000	0.310278
1822.000000	0.310145
1823.000000	0.310173
1824.000000	0.310191
1825.000000	0.310980
1826.000000	0.311587
1827.000000	0.311709
1828.000000	0.312513
1829.000000	0.313024
1830.000000	0.313295
1831.000000	0.313480
1832.000000	0.313096
1833.000000	0.312931
1834.000000	0.312985
1835.000000	0.312788
1836.000000	0.312223
1837.000000	0.311957
1838.000000	0.311762
1839.000000	0.311297
1840.000000	0.310788
1841.000000	0.310877
1842.000000	0.310867
1843.000000	0.310963
1844.000000	0.310970
1845.000000	0.311017
1846.000000	0.310993
1847.000000	0.310617
1848.000000	0.310466
1849.000000	0.310829
1850.000000	0.310345
1851.000000	0.310229
1852.000000	0.310108
1853.000000	0.310361
1854.000000	0.310910
1855.000000	0.310999
1856.000000	0.311441
1857.000000	0.310697
1858.000000	0.309627
1859.000000	0.308739
1860.000000	0.308116
1861.000000	0.308087
1862.000000	0.307989
1863.000000	0.308556
1864.000000	0.308422
1865.000000	0.308001
1866.000000	0.307686
1867.000000	0.307195
1868.000000	0.306421
1869.000000	0.305856
1870.000000	0.305926
1871.000000	0.306339
1872.000000	0.306744
1873.000000	0.306884
1874.000000	0.307177
1875.000000	0.306927
1876.000000	0.306000
1877.000000	0.304919
1878.000000	0.303568
1879.000000	0.302300
1880.000000	0.301650
1881.000000	0.301237
1882.000000	0.300759
1883.000000	0.300954
1884.000000	0.300721
1885.000000	0.299829
1886.000000	0.299039
1887.000000	0.298640
1888.000000	0.297289
1889.000000	0.294995
1890.000000	0.293931
1891.000000	0.292542
1892.000000	0.291218
1893.000000	0.291064
1894.000000	0.289839
1895.000000	0.288368
1896.000000	0.286621
1897.000000	0.284957
1898.000000	0.283259
1899.000000	0.282354
1900.000000	0.281633
1901.000000	0.281236
1902.000000	0.280019
1903.000000	0.278899
1904.000000	0.278569
1905.000000	0.277517
1906.000000	0.276761
1907.000000	0.276237
1908.000000	0.276075
1909.000000	0.275779
1910.000000	0.275938
1911.000000	0.276397
1912.000000	0.276961
1913.000000	0.277175
1914.000000	0.277228
1915.000000	0.277223
1916.000000	0.277135
1917.000000	0.277268
1918.000000	0.277723
1919.000000	0.278276
1920.000000	0.278182
1921.000000	0.278246
1922.000000	0.278595
1923.000000	0.278909
1924.000000	0.279561
1925.000000	0.280005
1926.000000	0.279983
1927.000000	0.280204
1928.000000	0.280425
1929.000000	0.280825
1930.000000	0.281387
1931.000000	0.281886
1932.000000	0.282044
1933.000000	0.282556
1934.000000	0.283108
1935.000000	0.283024
1936.000000	0.283014
1937.000000	0.283256
1938.000000	0.283423
1939.000000	0.283700
1940.000000	0.284317
1941.000000	0.285148
1942.000000	0.285577
1943.000000	0.286041
1944.000000	0.286834
1945.000000	0.287196
1946.000000	0.287754
1947.000000	0.288531
1948.000000	0.288635
1949.000000	0.288829
1950.000000	0.288814
1951.000000	0.288442
1952.000000	0.287274
1953.000000	0.287001
1954.000000	0.287457
1955.000000	0.287636
1956.000000	0.288303
1957.000000	0.288722
1958.000000	0.288381
1959.000000	0.287918
1960.000000	0.287229
1961.000000	0.286555
1962.000000	0.286307
1963.000000	0.286165
1964.000000	0.286617
1965.000000	0.287324
1966.000000	0.287960
1967.000000	0.288726
1968.000000	0.289105
1969.000000	0.289344
1970.000000	0.289811
1971.000000	0.289451
1972.000000	0.289324
1973.000000	0.289299
1974.000000	0.289300
1975.000000	0.289293
1976.000000	0.289632
1977.000000	0.289752
1978.000000	0.289402
1979.000000	0.289964
1980.000000	0.290741
1981.000000	0.291276
1982.000000	0.291925
1983.000000	0.292459
1984.000000	0.292802
1985.000000	0.293013
1986.000000	0.293034
1987.000000	0.293016
1988.000000	0.292937
1989.000000	0.292214
1990.000000	0.291453
1991.000000	0.291284
1992.000000	0.291062
1993.000000	0.291443
1994.000000	0.292622
1995.000000	0.293393
1996.000000	0.293846
1997.000000	0.294247
1998.000000	0.294557
1999.000000	0.294599
2000.000000	0.294326
2001.000000	0.294370
2002.000000	0.294010
2003.000000	0.294043
2004.000000	0.294386
2005.000000	0.294536
2006.000000	0.295089
2007.000000	0.295090
2008.000000	0.295306
2009.000000	0.295635
2010.000000	0.295813
2011.000000	0.295824
2012.000000	0.295796
2013.000000	0.295551
2014.000000	0.295129
2015.000000	0.295063
2016.000000	0.295486
2017.000000	0.295748
2018.000000	0.295883
2019.000000	0.295833
2020.000000	0.295856
2021.000000	0.296370
2022.000000	0.297433
2023.000000	0.298007
2024.000000	0.299087
2025.000000	0.299500
2026.000000	0.299338
2027.000000	0.298865
2028.000000	0.298170
2029.000000	0.297388
2030.000000	0.296995
2031.000000	0.297436
2032.000000	0.298053
2033.000000	0.298912
2034.000000	0.299038
2035.000000	0.298558
2036.000000	0.298291
2037.000000	0.297555
2038.000000	0.297412
2039.000000	0.297694
2040.000000	0.298299
2041.000000	0.298353
2042.000000	0.299260
2043.000000	0.299729
2044.000000	0.299766
2045.000000	0.300214
2046.000000	0.300090
2047.000000	0.300275
2048.000000	0.300706
2049.000000	0.300741
2050.000000	0.300221
2051.000000	0.299919
2052.000000	0.298898
2053.000000	0.298494
2054.000000	0.298673
2055.000000	0.299195
2056.000000	0.300069
2057.000000	0.300290
2058.000000	0.299884
2059.000000	0.299821
2060.000000	0.299624
2061.000000	0.299106
2062.000000	0.299055
2063.000000	0.299563
2064.000000	0.299136
2065.000000	0.298470
2066.000000	0.297753
2067.000000	0.296557
2068.000000	0.296090
2069.000000	0.296439
2070.000000	0.297073
2071.000000	0.297562
2072.000000	0.298915
2073.000000	0.299809
2074.000000	0.300328
2075.000000	0.300495
2076.000000	0.300359
2077.000000	0.299892
2078.000000	0.298636
2079.000000	0.297920
2080.000000	0.297111
2081.000000	0.296960
2082.000000	0.297443
2083.000000	0.297580
2084.000000	0.297696
2085.000000	0.298089
2086.000000	0.298197
2087.000000	0.297964
2088.000000	0.297757
2089.000000	0.297510
2090.000000	0.297484
2091.000000	0.297280
2092.000000	0.297457
2093.000000	0.298486
2094.000000	0.298658
2095.000000	0.298394
2096.000000	0.298450
2097.000000	0.298248
2098.000000	0.297980
2099.000000	0.298286
2100.000000	0.298582
2101.000000	0.298863
2102.000000	0.298974
2103.000000	0.298927
2104.000000	0.298572
2105.000000	0.298313
2106.000000	0.297530
2107.000000	0.297688
2108.000000	0.298572
2109.000000	0.298985
2110.000000	0.299774
2111.000000	0.300082
2112.000000	0.299860
2113.000000	0.299082
2114.000000	0.298999
2115.000000	0.299023
2116.000000	0.299157
2117.000000	0.299623
2118.000000	0.300064
2119.000000	0.300349
2120.000000	0.300772
2121.000000	0.301437
2122.000000	0.301630
2123.000000	0.301876
2124.000000	0.301607
2125.000000	0.300607
2126.000000	0.299880
2127.000000	0.298550
2128.000000	0.298312
2129.000000	0.298551
2130.000000	0.299096
2131.000000	0.299878
2132.000000	0.299866
2133.000000	0.299383
2134.000000	0.299352
2135.000000	0.299909
2136.000000	0.300217
2137.000000	0.300383
2138.000000	0.300791
2139.000000	0.300638
2140.000000	0.300006
2141.000000	0.299486
2142.000000	0.298328
2143.000000	0.297878
2144.000000	0.298069
2145.000000	0.297904
2146.000000	0.298333
2147.000000	0.298665
2148.000000	0.296928
2149.000000	0.296217
2150.000000	0.296665
2151.000000	0.296692
2152.000000	0.297736
2153.000000	0.298753
2154.000000	0.298789
2155.000000	0.297382
2156.000000	0.297291
2157.000000	0.297511
2158.000000	0.297585
2159.000000	0.298203
2160.000000	0.298469
2161.000000	0.298190
2162.000000	0.298412
2163.000000	0.298897
2164.000000	0.299271
2165.000000	0.299983
2166.000000	0.300102
2167.000000	0.300109
2168.000000	0.300385
2169.000000	0.300252
2170.000000	0.300101
2171.000000	0.299518
2172.000000	0.298268
2173.000000	0.297729
2174.000000	0.296851
2175.000000	0.296645
2176.000000	0.297392
2177.000000	0.297777
2178.000000	0.298513
2179.000000	0.299107
2180.000000	0.299746
2181.000000	0.299993
2182.000000	0.299334
2183.000000	0.298936
2184.000000	0.297577
2185.000000	0.296881
2186.000000	0.297080
2187.000000	0.296699
2188.000000	0.296834
2189.000000	0.297449
2190.000000	0.296734
2191.000000	0.297491
2192.000000	0.297773
2193.000000	0.298048
2194.000000	0.298001
2195.000000	0.298073
2196.000000	0.297372
2197.000000	0.295444
2198.000000	0.294761
2199.000000	0.294893
2200.000000	0.294691
2201.000000	0.295174
2202.000000	0.295219
2203.000000	0.295126
2204.000000	0.292998
2205.000000	0.291560
2206.000000	0.289807
2207.000000	0.289040
2208.000000	0.290522
2209.000000	0.292019
2210.000000	0.294164
2211.000000	0.293819
2212.000000	0.292761
2213.000000	0.293085
2214.000000	0.294149
2215.000000	0.294154
2216.000000	0.294275
2217.000000	0.294431
2218.000000	0.292611
2219.000000	0.293117
2220.000000	0.296677
2221.000000	0.297652
2222.000000	0.298097
2223.000000	0.298446
2224.000000	0.297429
2225.000000	0.296873
2226.000000	0.296668
2227.000000	0.297277
2228.000000	0.296644
2229.000000	0.295706
2230.000000	0.295973
2231.000000	0.295314
2232.000000	0.297262
2233.000000	0.299494
2234.000000	0.301352
2235.000000	0.302415
2236.000000	0.301079
2237.000000	0.296407
2238.000000	0.294722
2239.000000	0.290903
2240.000000	0.291477
2241.000000	0.297284
2242.000000	0.298806
2243.000000	0.300836
2244.000000	0.301506
2245.000000	0.298301
2246.000000	0.297733
2247.000000	0.298848
2248.000000	0.298686
2249.000000	0.299062
2250.000000	0.298792
2251.000000	0.296330
2252.000000	0.293432
2253.000000	0.290906
2254.000000	0.288429
2255.000000	0.285784
2256.000000	0.286107
2257.000000	0.288240
2258.000000	0.290518
2259.000000	0.293859
2260.000000	0.294863
2261.000000	0.294434
2262.000000	0.291782
2263.000000	0.289663
2264.000000	0.284629
2265.000000	0.284829
2266.000000	0.288513
2267.000000	0.289198
2268.000000	0.292070
2269.000000	0.292448
2270.000000	0.289169
2271.000000	0.286744
2272.000000	0.284482
2273.000000	0.283187
2274.000000	0.281422
2275.000000	0.280195
2276.000000	0.280800
2277.000000	0.278970
2278.000000	0.277525
2279.000000	0.275949
2280.000000	0.275303
2281.000000	0.275322
2282.000000	0.273727
2283.000000	0.273977
2284.000000	0.273699
2285.000000	0.272684
2286.000000	0.274407
2287.000000	0.274234
2288.000000	0.274549
2289.000000	0.277701
2290.000000	0.277115
2291.000000	0.276120
2292.000000	0.275810
2293.000000	0.273499
2294.000000	0.273937
2295.000000	0.277439
2296.000000	0.278847
2297.000000	0.280471
2298.000000	0.281872
2299.000000	0.282186
2300.000000	0.282347
2301.000000	0.282465
2302.000000	0.283100
2303.000000	0.282778
2304.000000	0.283576
2305.000000	0.286857
2306.000000	0.287851
2307.000000	0.287261
2308.000000	0.288730
2309.000000	0.287349
2310.000000	0.285455
2311.000000	0.285816
2312.000000	0.284166
2313.000000	0.282822
2314.000000	0.283487
2315.000000	0.283187
2316.000000	0.282353
2317.000000	0.284321
2318.000000	0.286509
2319.000000	0.287337
2320.000000	0.287452
2321.000000	0.286366
2322.000000	0.283912
2323.000000	0.280304
2324.000000	0.279482
2325.000000	0.281865
2326.000000	0.284156
2327.000000	0.287964
2328.000000	0.290592
2329.000000	0.289375
2330.000000	0.285937
2331.000000	0.281682
2332.000000	0.280855
2333.000000	0.281312
2334.000000	0.280878
2335.000000	0.281685
2336.000000	0.283245
2337.000000	0.283512
2338.000000	0.284356
2339.000000	0.285127
2340.000000	0.283840
2341.000000	0.284989
2342.000000	0.288190
2343.000000	0.289689
2344.000000	0.292633
2345.000000	0.293080
2346.000000	0.289540
2347.000000	0.287848
2348.000000	0.285285
2349.000000	0.287032
2350.000000	0.285853
2351.000000	0.288426
2352.000000	0.291144
2353.000000	0.290829
2354.000000	0.292341
2355.000000	0.291772
2356.000000	0.287846
2357.000000	0.282063
2358.000000	0.277959
2359.000000	0.278152
2360.000000	0.279730
2361.000000	0.282925
2362.000000	0.285333
2363.000000	0.286232
2364.000000	0.287238
2365.000000	0.288648
2366.000000	0.287840
2367.000000	0.283928
2368.000000	0.282150
2369.000000	0.281639
2370.000000	0.283760
2371.000000	0.286943
2372.000000	0.286632
2373.000000	0.286026
2374.000000	0.282634
2375.000000	0.278802
2376.000000	0.278562
2377.000000	0.276032
2378.000000	0.275027
2379.000000	0.275276
2380.000000	0.270971
2381.000000	0.269091
2382.000000	0.270325
2383.000000	0.269798
2384.000000	0.272766
2385.000000	0.277354
2386.000000	0.275311
2387.000000	0.274451
2388.000000	0.276404
2389.000000	0.274799
2390.000000	0.277043
2391.000000	0.279825
2392.000000	0.279947
2393.000000	0.278941
2394.000000	0.271751
2395.000000	0.266163
2396.000000	0.263488
2397.000000	0.261946
2398.000000	0.267318
2399.000000	0.273493
2400.000000	0.276218
2401.000000	0.276284
2402.000000	0.275952
2403.000000	0.277961
2404.000000	0.272017
2405.000000	0.268854
2406.000000	0.269317
2407.000000	0.261976
2408.000000	0.268618
2409.000000	0.278937
2410.000000	0.282996
2411.000000	0.287803
2412.000000	0.284362
2413.000000	0.276794
2414.000000	0.267620
2415.000000	0.257795
2416.000000	0.254042
2417.000000	0.255908
2418.000000	0.262144
2419.000000	0.276016
2420.000000	0.282707
2421.000000	0.278691
2422.000000	0.277711
2423.000000	0.272296
2424.000000	0.265927
2425.000000	0.262280
2426.000000	0.256573
2427.000000	0.257334
2428.000000	0.259675
2429.000000	0.263521
2430.000000	0.270758
2431.000000	0.270864
2432.000000	0.267928
2433.000000	0.264906
2434.000000	0.257070
2435.000000	0.254452
2436.000000	0.257443
2437.000000	0.253333
2438.000000	0.254803
2439.000000	0.252690
2440.000000	0.239696
2441.000000	0.235639
2442.000000	0.234851
2443.000000	0.228378
2444.000000	0.233551
2445.000000	0.250442
2446.000000	0.252957
2447.000000	0.267666
2448.000000	0.277620
2449.000000	0.261412
2450.000000	0.260731
2451.000000	0.266801
2452.000000	0.268370
2453.000000	0.280433
2454.000000	0.288222
2455.000000	0.269486
2456.000000	0.250604
2457.000000	0.233892
2458.000000	0.218930
2459.000000	0.232213
2460.000000	0.248871
2461.000000	0.271288
2462.000000	0.288325
2463.000000	0.278382
2464.000000	0.278946
2465.000000	0.269580
2466.000000	0.260732
2467.000000	0.258631
2468.000000	0.242841
2469.000000	0.235247
2470.000000	0.225997
2471.000000	0.233608
2472.000000	0.251972
2473.000000	0.256279
2474.000000	0.254880
2475.000000	0.241025
2476.000000	0.221941
2477.000000	0.187896
2478.000000	0.167553
2479.000000	0.188623
2480.000000	0.177540
2481.000000	0.186355
2482.000000	0.223540
2483.000000	0.192905
2484.000000	0.210602
2485.000000	0.224960
2486.000000	0.204794
2487.000000	0.239197
2488.000000	0.238900
2489.000000	0.242888
2490.000000	0.269882
2491.000000	0.251752
2492.000000	0.229303
2493.000000	0.194751
2494.000000	0.178509
2495.000000	0.176747
2496.000000	0.158594
2497.000000	0.122135
2498.000000	0.112756
2499.000000	0.117900
2500.000000	0.124029
