# Wavelength	NAu-2-50_HEX-20_FV7-30_00001.asd.rts.txt
350.000000	0.141237
351.000000	0.125321
352.000000	0.119244
353.000000	0.112834
354.000000	0.106276
355.000000	0.117900
356.000000	0.117356
357.000000	0.110093
358.000000	0.125506
359.000000	0.122349
360.000000	0.112501
361.000000	0.116032
362.000000	0.117840
363.000000	0.119975
364.000000	0.122125
365.000000	0.113468
366.000000	0.112387
367.000000	0.119487
368.000000	0.121002
369.000000	0.119104
370.000000	0.117172
371.000000	0.118396
372.000000	0.115916
373.000000	0.114504
374.000000	0.117020
375.000000	0.117405
376.000000	0.121254
377.000000	0.126177
378.000000	0.122058
379.000000	0.122015
380.000000	0.123391
381.000000	0.120366
382.000000	0.123755
383.000000	0.123580
384.000000	0.115783
385.000000	0.117707
386.000000	0.120247
387.000000	0.120103
388.000000	0.119438
389.000000	0.121626
390.000000	0.124373
391.000000	0.123533
392.000000	0.121921
393.000000	0.121188
394.000000	0.121658
395.000000	0.119756
396.000000	0.120376
397.000000	0.123509
398.000000	0.122521
399.000000	0.122069
400.000000	0.122644
401.000000	0.123121
402.000000	0.123461
403.000000	0.123717
404.000000	0.124036
405.000000	0.124465
406.000000	0.124602
407.000000	0.124291
408.000000	0.123507
409.000000	0.123524
410.000000	0.124356
411.000000	0.125250
412.000000	0.126060
413.000000	0.126277
414.000000	0.125667
415.000000	0.125475
416.000000	0.126164
417.000000	0.127408
418.000000	0.127286
419.000000	0.127198
420.000000	0.127505
421.000000	0.127745
422.000000	0.128613
423.000000	0.129355
424.000000	0.129053
425.000000	0.129315
426.000000	0.129821
427.000000	0.130123
428.000000	0.130135
429.000000	0.130511
430.000000	0.131339
431.000000	0.132040
432.000000	0.132013
433.000000	0.131772
434.000000	0.132401
435.000000	0.132822
436.000000	0.132768
437.000000	0.132342
438.000000	0.132565
439.000000	0.133072
440.000000	0.133559
441.000000	0.133749
442.000000	0.133871
443.000000	0.134124
444.000000	0.134805
445.000000	0.135282
446.000000	0.135647
447.000000	0.136069
448.000000	0.136470
449.000000	0.136801
450.000000	0.137092
451.000000	0.137626
452.000000	0.137773
453.000000	0.137630
454.000000	0.138312
455.000000	0.138734
456.000000	0.138967
457.000000	0.139404
458.000000	0.139618
459.000000	0.139841
460.000000	0.140328
461.000000	0.140834
462.000000	0.141327
463.000000	0.141717
464.000000	0.142083
465.000000	0.142437
466.000000	0.142800
467.000000	0.143269
468.000000	0.143445
469.000000	0.143451
470.000000	0.143634
471.000000	0.144007
472.000000	0.144486
473.000000	0.144978
474.000000	0.145330
475.000000	0.145543
476.000000	0.145756
477.000000	0.146071
478.000000	0.146422
479.000000	0.146836
480.000000	0.147172
481.000000	0.147451
482.000000	0.147859
483.000000	0.148379
484.000000	0.148800
485.000000	0.148886
486.000000	0.148795
487.000000	0.149056
488.000000	0.149435
489.000000	0.149736
490.000000	0.149727
491.000000	0.149988
492.000000	0.150277
493.000000	0.150162
494.000000	0.150329
495.000000	0.150543
496.000000	0.150589
497.000000	0.150679
498.000000	0.150789
499.000000	0.150928
500.000000	0.151016
501.000000	0.151284
502.000000	0.151588
503.000000	0.151599
504.000000	0.151862
505.000000	0.152201
506.000000	0.152376
507.000000	0.152510
508.000000	0.152706
509.000000	0.152981
510.000000	0.153274
511.000000	0.153637
512.000000	0.154049
513.000000	0.154398
514.000000	0.154829
515.000000	0.155287
516.000000	0.155629
517.000000	0.155937
518.000000	0.156314
519.000000	0.156770
520.000000	0.157251
521.000000	0.157716
522.000000	0.158184
523.000000	0.158751
524.000000	0.159412
525.000000	0.160125
526.000000	0.160844
527.000000	0.161607
528.000000	0.162481
529.000000	0.163536
530.000000	0.164641
531.000000	0.165815
532.000000	0.166992
533.000000	0.168057
534.000000	0.169234
535.000000	0.170530
536.000000	0.171764
537.000000	0.172939
538.000000	0.174073
539.000000	0.175186
540.000000	0.176297
541.000000	0.177328
542.000000	0.178257
543.000000	0.179220
544.000000	0.180210
545.000000	0.181174
546.000000	0.182137
547.000000	0.183150
548.000000	0.184250
549.000000	0.185408
550.000000	0.186580
551.000000	0.187786
552.000000	0.189038
553.000000	0.190416
554.000000	0.191818
555.000000	0.193212
556.000000	0.194856
557.000000	0.196497
558.000000	0.198140
559.000000	0.199884
560.000000	0.201545
561.000000	0.203162
562.000000	0.204773
563.000000	0.206366
564.000000	0.207953
565.000000	0.209465
566.000000	0.210922
567.000000	0.212331
568.000000	0.213662
569.000000	0.214846
570.000000	0.215929
571.000000	0.216925
572.000000	0.217848
573.000000	0.218640
574.000000	0.219340
575.000000	0.220046
576.000000	0.220610
577.000000	0.221046
578.000000	0.221440
579.000000	0.221807
580.000000	0.222137
581.000000	0.222392
582.000000	0.222464
583.000000	0.222580
584.000000	0.222722
585.000000	0.222737
586.000000	0.222685
587.000000	0.222595
588.000000	0.222481
589.000000	0.222280
590.000000	0.222076
591.000000	0.221887
592.000000	0.221535
593.000000	0.221184
594.000000	0.220857
595.000000	0.220444
596.000000	0.220059
597.000000	0.219646
598.000000	0.219032
599.000000	0.218419
600.000000	0.217886
601.000000	0.217401
602.000000	0.216929
603.000000	0.216363
604.000000	0.215711
605.000000	0.215159
606.000000	0.214660
607.000000	0.214181
608.000000	0.213679
609.000000	0.213118
610.000000	0.212599
611.000000	0.212197
612.000000	0.211596
613.000000	0.211051
614.000000	0.210705
615.000000	0.210178
616.000000	0.209690
617.000000	0.209246
618.000000	0.208711
619.000000	0.208302
620.000000	0.207927
621.000000	0.207436
622.000000	0.206995
623.000000	0.206600
624.000000	0.206222
625.000000	0.205818
626.000000	0.205514
627.000000	0.205310
628.000000	0.204972
629.000000	0.204742
630.000000	0.204550
631.000000	0.204358
632.000000	0.204075
633.000000	0.203858
634.000000	0.203822
635.000000	0.203627
636.000000	0.203481
637.000000	0.203462
638.000000	0.203322
639.000000	0.203235
640.000000	0.203234
641.000000	0.203131
642.000000	0.203082
643.000000	0.203056
644.000000	0.202992
645.000000	0.203029
646.000000	0.203112
647.000000	0.203175
648.000000	0.203292
649.000000	0.203427
650.000000	0.203578
651.000000	0.203835
652.000000	0.204046
653.000000	0.204256
654.000000	0.204535
655.000000	0.204840
656.000000	0.205186
657.000000	0.205552
658.000000	0.205928
659.000000	0.206306
660.000000	0.206699
661.000000	0.207197
662.000000	0.207679
663.000000	0.208165
664.000000	0.208683
665.000000	0.209249
666.000000	0.209843
667.000000	0.210416
668.000000	0.211005
669.000000	0.211674
670.000000	0.212429
671.000000	0.213127
672.000000	0.213884
673.000000	0.214709
674.000000	0.215543
675.000000	0.216333
676.000000	0.217142
677.000000	0.218073
678.000000	0.219070
679.000000	0.220024
680.000000	0.220914
681.000000	0.221924
682.000000	0.222997
683.000000	0.224063
684.000000	0.225195
685.000000	0.226330
686.000000	0.227509
687.000000	0.228751
688.000000	0.229965
689.000000	0.231217
690.000000	0.232576
691.000000	0.233925
692.000000	0.235256
693.000000	0.236642
694.000000	0.238111
695.000000	0.239623
696.000000	0.241129
697.000000	0.242586
698.000000	0.244114
699.000000	0.245740
700.000000	0.247435
701.000000	0.249012
702.000000	0.250633
703.000000	0.252337
704.000000	0.254044
705.000000	0.255777
706.000000	0.257518
707.000000	0.259315
708.000000	0.261161
709.000000	0.263009
710.000000	0.264832
711.000000	0.266630
712.000000	0.268465
713.000000	0.270365
714.000000	0.272252
715.000000	0.274140
716.000000	0.276043
717.000000	0.277956
718.000000	0.279882
719.000000	0.281797
720.000000	0.283701
721.000000	0.285633
722.000000	0.287540
723.000000	0.289448
724.000000	0.291320
725.000000	0.293185
726.000000	0.295112
727.000000	0.297027
728.000000	0.298896
729.000000	0.300771
730.000000	0.302640
731.000000	0.304479
732.000000	0.306300
733.000000	0.308138
734.000000	0.309941
735.000000	0.311729
736.000000	0.313564
737.000000	0.315266
738.000000	0.316926
739.000000	0.318614
740.000000	0.320222
741.000000	0.321972
742.000000	0.323619
743.000000	0.325099
744.000000	0.326650
745.000000	0.328054
746.000000	0.329425
747.000000	0.330848
748.000000	0.332238
749.000000	0.333600
750.000000	0.334919
751.000000	0.336237
752.000000	0.337485
753.000000	0.338655
754.000000	0.339759
755.000000	0.340935
756.000000	0.342135
757.000000	0.343219
758.000000	0.344241
759.000000	0.345284
760.000000	0.346311
761.000000	0.347354
762.000000	0.348257
763.000000	0.349040
764.000000	0.349925
765.000000	0.350701
766.000000	0.351440
767.000000	0.352216
768.000000	0.352915
769.000000	0.353584
770.000000	0.354235
771.000000	0.354801
772.000000	0.355431
773.000000	0.356048
774.000000	0.356640
775.000000	0.357181
776.000000	0.357670
777.000000	0.358109
778.000000	0.358605
779.000000	0.359087
780.000000	0.359524
781.000000	0.359893
782.000000	0.360291
783.000000	0.360746
784.000000	0.361074
785.000000	0.361440
786.000000	0.361750
787.000000	0.361959
788.000000	0.362162
789.000000	0.362378
790.000000	0.362607
791.000000	0.362876
792.000000	0.363018
793.000000	0.363126
794.000000	0.363294
795.000000	0.363443
796.000000	0.363553
797.000000	0.363628
798.000000	0.363716
799.000000	0.363824
800.000000	0.363911
801.000000	0.363944
802.000000	0.364014
803.000000	0.364085
804.000000	0.364133
805.000000	0.363989
806.000000	0.363875
807.000000	0.363905
808.000000	0.363960
809.000000	0.364060
810.000000	0.364121
811.000000	0.364089
812.000000	0.364118
813.000000	0.364170
814.000000	0.364205
815.000000	0.364205
816.000000	0.364115
817.000000	0.364078
818.000000	0.364116
819.000000	0.364062
820.000000	0.364003
821.000000	0.363921
822.000000	0.363815
823.000000	0.363635
824.000000	0.363414
825.000000	0.363337
826.000000	0.363214
827.000000	0.363076
828.000000	0.362985
829.000000	0.362825
830.000000	0.362658
831.000000	0.362545
832.000000	0.362362
833.000000	0.362260
834.000000	0.362179
835.000000	0.362068
836.000000	0.361832
837.000000	0.361573
838.000000	0.361349
839.000000	0.361127
840.000000	0.360937
841.000000	0.360806
842.000000	0.360683
843.000000	0.360512
844.000000	0.360266
845.000000	0.359951
846.000000	0.359702
847.000000	0.359547
848.000000	0.359395
849.000000	0.359188
850.000000	0.358976
851.000000	0.358742
852.000000	0.358537
853.000000	0.358371
854.000000	0.358167
855.000000	0.358032
856.000000	0.357883
857.000000	0.357605
858.000000	0.357338
859.000000	0.357079
860.000000	0.356841
861.000000	0.356634
862.000000	0.356462
863.000000	0.356243
864.000000	0.356092
865.000000	0.355899
866.000000	0.355652
867.000000	0.355462
868.000000	0.355353
869.000000	0.355176
870.000000	0.354862
871.000000	0.354473
872.000000	0.354050
873.000000	0.353605
874.000000	0.353350
875.000000	0.353100
876.000000	0.352857
877.000000	0.352597
878.000000	0.352196
879.000000	0.351858
880.000000	0.351529
881.000000	0.351175
882.000000	0.350803
883.000000	0.350478
884.000000	0.350201
885.000000	0.349906
886.000000	0.349660
887.000000	0.349493
888.000000	0.349246
889.000000	0.349021
890.000000	0.348685
891.000000	0.348312
892.000000	0.348037
893.000000	0.347782
894.000000	0.347581
895.000000	0.347218
896.000000	0.346878
897.000000	0.346590
898.000000	0.346317
899.000000	0.345975
900.000000	0.345696
901.000000	0.345497
902.000000	0.345373
903.000000	0.345240
904.000000	0.345032
905.000000	0.344617
906.000000	0.344245
907.000000	0.343872
908.000000	0.343558
909.000000	0.343279
910.000000	0.342953
911.000000	0.342623
912.000000	0.342376
913.000000	0.342263
914.000000	0.341999
915.000000	0.341609
916.000000	0.341186
917.000000	0.340994
918.000000	0.340807
919.000000	0.340443
920.000000	0.340184
921.000000	0.339934
922.000000	0.339645
923.000000	0.339274
924.000000	0.339066
925.000000	0.338748
926.000000	0.338295
927.000000	0.338074
928.000000	0.337886
929.000000	0.337670
930.000000	0.337420
931.000000	0.337165
932.000000	0.336844
933.000000	0.336515
934.000000	0.336240
935.000000	0.335960
936.000000	0.335651
937.000000	0.335237
938.000000	0.334950
939.000000	0.334714
940.000000	0.334406
941.000000	0.334072
942.000000	0.333766
943.000000	0.333532
944.000000	0.333272
945.000000	0.333128
946.000000	0.332937
947.000000	0.332731
948.000000	0.332510
949.000000	0.332226
950.000000	0.332077
951.000000	0.331964
952.000000	0.331656
953.000000	0.331367
954.000000	0.331072
955.000000	0.330695
956.000000	0.330473
957.000000	0.330134
958.000000	0.329749
959.000000	0.329597
960.000000	0.329214
961.000000	0.328985
962.000000	0.328906
963.000000	0.328542
964.000000	0.328292
965.000000	0.328093
966.000000	0.327768
967.000000	0.327695
968.000000	0.327459
969.000000	0.327091
970.000000	0.326951
971.000000	0.326841
972.000000	0.326732
973.000000	0.326450
974.000000	0.325878
975.000000	0.325928
976.000000	0.325913
977.000000	0.325325
978.000000	0.325231
979.000000	0.325387
980.000000	0.325354
981.000000	0.325193
982.000000	0.325063
983.000000	0.324842
984.000000	0.324529
985.000000	0.324120
986.000000	0.323955
987.000000	0.324099
988.000000	0.324224
989.000000	0.323716
990.000000	0.323548
991.000000	0.323508
992.000000	0.323180
993.000000	0.323071
994.000000	0.323091
995.000000	0.323175
996.000000	0.322937
997.000000	0.323275
998.000000	0.323381
999.000000	0.323000
1000.000000	0.322717
1001.000000	0.322776
1002.000000	0.323039
1003.000000	0.323283
1004.000000	0.323389
1005.000000	0.323963
1006.000000	0.323697
1007.000000	0.322904
1008.000000	0.321954
1009.000000	0.321684
1010.000000	0.320990
1011.000000	0.321194
1012.000000	0.322389
1013.000000	0.322278
1014.000000	0.322089
1015.000000	0.322416
1016.000000	0.322235
1017.000000	0.321947
1018.000000	0.321709
1019.000000	0.321899
1020.000000	0.322509
1021.000000	0.322420
1022.000000	0.322708
1023.000000	0.323107
1024.000000	0.323079
1025.000000	0.322615
1026.000000	0.323274
1027.000000	0.323665
1028.000000	0.323534
1029.000000	0.323575
1030.000000	0.323096
1031.000000	0.322910
1032.000000	0.322807
1033.000000	0.322778
1034.000000	0.323021
1035.000000	0.323535
1036.000000	0.323819
1037.000000	0.324462
1038.000000	0.324579
1039.000000	0.324402
1040.000000	0.324385
1041.000000	0.324300
1042.000000	0.324403
1043.000000	0.324590
1044.000000	0.324276
1045.000000	0.323884
1046.000000	0.323671
1047.000000	0.323735
1048.000000	0.324013
1049.000000	0.324309
1050.000000	0.324776
1051.000000	0.325051
1052.000000	0.325229
1053.000000	0.325531
1054.000000	0.326205
1055.000000	0.326658
1056.000000	0.327185
1057.000000	0.327460
1058.000000	0.327413
1059.000000	0.327290
1060.000000	0.328030
1061.000000	0.328371
1062.000000	0.328025
1063.000000	0.328416
1064.000000	0.328685
1065.000000	0.328459
1066.000000	0.328631
1067.000000	0.329475
1068.000000	0.329747
1069.000000	0.329505
1070.000000	0.329584
1071.000000	0.329804
1072.000000	0.329946
1073.000000	0.330072
1074.000000	0.330465
1075.000000	0.330771
1076.000000	0.331228
1077.000000	0.331305
1078.000000	0.331528
1079.000000	0.331640
1080.000000	0.331443
1081.000000	0.331574
1082.000000	0.332122
1083.000000	0.332327
1084.000000	0.332424
1085.000000	0.332729
1086.000000	0.332961
1087.000000	0.333227
1088.000000	0.333656
1089.000000	0.333948
1090.000000	0.333969
1091.000000	0.334144
1092.000000	0.334394
1093.000000	0.335056
1094.000000	0.335451
1095.000000	0.335854
1096.000000	0.336177
1097.000000	0.336458
1098.000000	0.336575
1099.000000	0.336493
1100.000000	0.336680
1101.000000	0.336738
1102.000000	0.336862
1103.000000	0.337334
1104.000000	0.337484
1105.000000	0.337162
1106.000000	0.337290
1107.000000	0.337448
1108.000000	0.337659
1109.000000	0.338198
1110.000000	0.338878
1111.000000	0.339167
1112.000000	0.339262
1113.000000	0.339505
1114.000000	0.339616
1115.000000	0.339844
1116.000000	0.340161
1117.000000	0.340504
1118.000000	0.340927
1119.000000	0.341136
1120.000000	0.341359
1121.000000	0.341505
1122.000000	0.341435
1123.000000	0.341749
1124.000000	0.342130
1125.000000	0.342347
1126.000000	0.342444
1127.000000	0.342566
1128.000000	0.342640
1129.000000	0.342524
1130.000000	0.342761
1131.000000	0.343343
1132.000000	0.343448
1133.000000	0.343434
1134.000000	0.343642
1135.000000	0.343687
1136.000000	0.343746
1137.000000	0.344074
1138.000000	0.344150
1139.000000	0.343873
1140.000000	0.344039
1141.000000	0.344543
1142.000000	0.344734
1143.000000	0.344837
1144.000000	0.345070
1145.000000	0.345007
1146.000000	0.344751
1147.000000	0.344871
1148.000000	0.345175
1149.000000	0.345282
1150.000000	0.345446
1151.000000	0.345588
1152.000000	0.345472
1153.000000	0.345654
1154.000000	0.346112
1155.000000	0.346228
1156.000000	0.346254
1157.000000	0.346348
1158.000000	0.346203
1159.000000	0.346189
1160.000000	0.346321
1161.000000	0.346384
1162.000000	0.346381
1163.000000	0.346662
1164.000000	0.346813
1165.000000	0.346955
1166.000000	0.347102
1167.000000	0.347207
1168.000000	0.347230
1169.000000	0.347231
1170.000000	0.347295
1171.000000	0.347318
1172.000000	0.347493
1173.000000	0.347812
1174.000000	0.347978
1175.000000	0.348140
1176.000000	0.348181
1177.000000	0.348096
1178.000000	0.348143
1179.000000	0.348192
1180.000000	0.348241
1181.000000	0.348562
1182.000000	0.348634
1183.000000	0.348712
1184.000000	0.348851
1185.000000	0.348948
1186.000000	0.349023
1187.000000	0.349071
1188.000000	0.349102
1189.000000	0.349089
1190.000000	0.349005
1191.000000	0.349062
1192.000000	0.349352
1193.000000	0.349587
1194.000000	0.349705
1195.000000	0.349857
1196.000000	0.349905
1197.000000	0.349993
1198.000000	0.350155
1199.000000	0.350320
1200.000000	0.350507
1201.000000	0.350659
1202.000000	0.350660
1203.000000	0.350649
1204.000000	0.350586
1205.000000	0.350533
1206.000000	0.350505
1207.000000	0.350672
1208.000000	0.350709
1209.000000	0.350722
1210.000000	0.350800
1211.000000	0.350916
1212.000000	0.350988
1213.000000	0.351141
1214.000000	0.351254
1215.000000	0.351335
1216.000000	0.351371
1217.000000	0.351302
1218.000000	0.351279
1219.000000	0.351196
1220.000000	0.351275
1221.000000	0.351453
1222.000000	0.351677
1223.000000	0.352050
1224.000000	0.352291
1225.000000	0.352363
1226.000000	0.352555
1227.000000	0.352546
1228.000000	0.352444
1229.000000	0.352441
1230.000000	0.352440
1231.000000	0.352405
1232.000000	0.352530
1233.000000	0.352709
1234.000000	0.352867
1235.000000	0.352988
1236.000000	0.353034
1237.000000	0.353200
1238.000000	0.353385
1239.000000	0.353474
1240.000000	0.353565
1241.000000	0.353657
1242.000000	0.353678
1243.000000	0.353669
1244.000000	0.353816
1245.000000	0.354089
1246.000000	0.354219
1247.000000	0.354494
1248.000000	0.354833
1249.000000	0.354983
1250.000000	0.355178
1251.000000	0.355350
1252.000000	0.355432
1253.000000	0.355440
1254.000000	0.355494
1255.000000	0.355497
1256.000000	0.355524
1257.000000	0.355539
1258.000000	0.355669
1259.000000	0.355828
1260.000000	0.356013
1261.000000	0.356227
1262.000000	0.356375
1263.000000	0.356544
1264.000000	0.356552
1265.000000	0.356619
1266.000000	0.356807
1267.000000	0.356888
1268.000000	0.356876
1269.000000	0.356789
1270.000000	0.356734
1271.000000	0.356880
1272.000000	0.357227
1273.000000	0.357404
1274.000000	0.357517
1275.000000	0.357561
1276.000000	0.357345
1277.000000	0.357376
1278.000000	0.357460
1279.000000	0.357481
1280.000000	0.357456
1281.000000	0.357455
1282.000000	0.357478
1283.000000	0.357584
1284.000000	0.357671
1285.000000	0.357769
1286.000000	0.357889
1287.000000	0.357960
1288.000000	0.358015
1289.000000	0.358027
1290.000000	0.358034
1291.000000	0.358233
1292.000000	0.358513
1293.000000	0.358677
1294.000000	0.358693
1295.000000	0.358721
1296.000000	0.358757
1297.000000	0.358780
1298.000000	0.358953
1299.000000	0.359029
1300.000000	0.359022
1301.000000	0.359039
1302.000000	0.358965
1303.000000	0.358933
1304.000000	0.358903
1305.000000	0.358931
1306.000000	0.358920
1307.000000	0.359008
1308.000000	0.359063
1309.000000	0.359130
1310.000000	0.359126
1311.000000	0.359170
1312.000000	0.358956
1313.000000	0.358741
1314.000000	0.358669
1315.000000	0.358671
1316.000000	0.358871
1317.000000	0.359040
1318.000000	0.358960
1319.000000	0.358747
1320.000000	0.358717
1321.000000	0.358885
1322.000000	0.359051
1323.000000	0.359172
1324.000000	0.359128
1325.000000	0.358904
1326.000000	0.358816
1327.000000	0.358875
1328.000000	0.358973
1329.000000	0.358920
1330.000000	0.358776
1331.000000	0.358687
1332.000000	0.358577
1333.000000	0.358567
1334.000000	0.358814
1335.000000	0.358858
1336.000000	0.358855
1337.000000	0.358744
1338.000000	0.358441
1339.000000	0.358050
1340.000000	0.357846
1341.000000	0.357761
1342.000000	0.357765
1343.000000	0.357866
1344.000000	0.357914
1345.000000	0.357828
1346.000000	0.357910
1347.000000	0.357970
1348.000000	0.357834
1349.000000	0.357687
1350.000000	0.357569
1351.000000	0.357334
1352.000000	0.357356
1353.000000	0.357456
1354.000000	0.357419
1355.000000	0.357397
1356.000000	0.357408
1357.000000	0.357337
1358.000000	0.357264
1359.000000	0.357233
1360.000000	0.357254
1361.000000	0.357412
1362.000000	0.357372
1363.000000	0.357252
1364.000000	0.357178
1365.000000	0.356951
1366.000000	0.356774
1367.000000	0.356645
1368.000000	0.356585
1369.000000	0.356412
1370.000000	0.356202
1371.000000	0.356113
1372.000000	0.355921
1373.000000	0.355784
1374.000000	0.355626
1375.000000	0.355193
1376.000000	0.354887
1377.000000	0.354649
1378.000000	0.354361
1379.000000	0.354154
1380.000000	0.353890
1381.000000	0.353366
1382.000000	0.352779
1383.000000	0.352204
1384.000000	0.351319
1385.000000	0.350321
1386.000000	0.349458
1387.000000	0.348605
1388.000000	0.347686
1389.000000	0.346846
1390.000000	0.345984
1391.000000	0.344851
1392.000000	0.343703
1393.000000	0.342409
1394.000000	0.341020
1395.000000	0.339563
1396.000000	0.337923
1397.000000	0.336379
1398.000000	0.334779
1399.000000	0.333254
1400.000000	0.331765
1401.000000	0.330267
1402.000000	0.328820
1403.000000	0.327371
1404.000000	0.326064
1405.000000	0.324784
1406.000000	0.323511
1407.000000	0.322468
1408.000000	0.321410
1409.000000	0.320399
1410.000000	0.319690
1411.000000	0.319012
1412.000000	0.318319
1413.000000	0.317727
1414.000000	0.317187
1415.000000	0.316670
1416.000000	0.316199
1417.000000	0.315901
1418.000000	0.315488
1419.000000	0.315088
1420.000000	0.314791
1421.000000	0.314483
1422.000000	0.314151
1423.000000	0.313963
1424.000000	0.313716
1425.000000	0.313445
1426.000000	0.313181
1427.000000	0.312860
1428.000000	0.312526
1429.000000	0.312384
1430.000000	0.312320
1431.000000	0.312256
1432.000000	0.312175
1433.000000	0.312125
1434.000000	0.311969
1435.000000	0.311840
1436.000000	0.311720
1437.000000	0.311470
1438.000000	0.311394
1439.000000	0.311468
1440.000000	0.311558
1441.000000	0.311723
1442.000000	0.312024
1443.000000	0.312294
1444.000000	0.312712
1445.000000	0.313334
1446.000000	0.313958
1447.000000	0.314644
1448.000000	0.315294
1449.000000	0.315812
1450.000000	0.316236
1451.000000	0.316706
1452.000000	0.317072
1453.000000	0.317409
1454.000000	0.317879
1455.000000	0.318203
1456.000000	0.318498
1457.000000	0.318976
1458.000000	0.319330
1459.000000	0.319616
1460.000000	0.320019
1461.000000	0.320262
1462.000000	0.320545
1463.000000	0.320903
1464.000000	0.321090
1465.000000	0.321331
1466.000000	0.321569
1467.000000	0.321690
1468.000000	0.321873
1469.000000	0.322261
1470.000000	0.322586
1471.000000	0.322944
1472.000000	0.323373
1473.000000	0.323792
1474.000000	0.324197
1475.000000	0.324693
1476.000000	0.325110
1477.000000	0.325371
1478.000000	0.325682
1479.000000	0.325979
1480.000000	0.326287
1481.000000	0.326678
1482.000000	0.327329
1483.000000	0.327762
1484.000000	0.328104
1485.000000	0.328492
1486.000000	0.328769
1487.000000	0.329149
1488.000000	0.329638
1489.000000	0.330115
1490.000000	0.330579
1491.000000	0.330947
1492.000000	0.331111
1493.000000	0.331449
1494.000000	0.331766
1495.000000	0.332070
1496.000000	0.332529
1497.000000	0.332862
1498.000000	0.333132
1499.000000	0.333316
1500.000000	0.333523
1501.000000	0.333798
1502.000000	0.334045
1503.000000	0.334293
1504.000000	0.334660
1505.000000	0.334998
1506.000000	0.335301
1507.000000	0.335623
1508.000000	0.335916
1509.000000	0.336121
1510.000000	0.336253
1511.000000	0.336481
1512.000000	0.336585
1513.000000	0.336672
1514.000000	0.337036
1515.000000	0.337262
1516.000000	0.337392
1517.000000	0.337609
1518.000000	0.337744
1519.000000	0.337769
1520.000000	0.337992
1521.000000	0.338111
1522.000000	0.338227
1523.000000	0.338538
1524.000000	0.338588
1525.000000	0.338636
1526.000000	0.338751
1527.000000	0.338856
1528.000000	0.339155
1529.000000	0.339458
1530.000000	0.339573
1531.000000	0.339691
1532.000000	0.339783
1533.000000	0.339887
1534.000000	0.340111
1535.000000	0.340252
1536.000000	0.340233
1537.000000	0.340236
1538.000000	0.340193
1539.000000	0.340152
1540.000000	0.340201
1541.000000	0.340315
1542.000000	0.340526
1543.000000	0.340654
1544.000000	0.340708
1545.000000	0.340893
1546.000000	0.340993
1547.000000	0.341015
1548.000000	0.341073
1549.000000	0.341122
1550.000000	0.341127
1551.000000	0.341184
1552.000000	0.341348
1553.000000	0.341384
1554.000000	0.341399
1555.000000	0.341493
1556.000000	0.341556
1557.000000	0.341641
1558.000000	0.341752
1559.000000	0.341823
1560.000000	0.341894
1561.000000	0.342038
1562.000000	0.342091
1563.000000	0.342169
1564.000000	0.342244
1565.000000	0.342226
1566.000000	0.342209
1567.000000	0.342344
1568.000000	0.342351
1569.000000	0.342360
1570.000000	0.342378
1571.000000	0.342345
1572.000000	0.342317
1573.000000	0.342274
1574.000000	0.342336
1575.000000	0.342467
1576.000000	0.342557
1577.000000	0.342722
1578.000000	0.342764
1579.000000	0.342764
1580.000000	0.342733
1581.000000	0.342681
1582.000000	0.342720
1583.000000	0.342792
1584.000000	0.342803
1585.000000	0.342966
1586.000000	0.343046
1587.000000	0.342972
1588.000000	0.343002
1589.000000	0.343143
1590.000000	0.343154
1591.000000	0.343162
1592.000000	0.343214
1593.000000	0.343217
1594.000000	0.343239
1595.000000	0.343394
1596.000000	0.343451
1597.000000	0.343462
1598.000000	0.343501
1599.000000	0.343582
1600.000000	0.343584
1601.000000	0.343691
1602.000000	0.343667
1603.000000	0.343551
1604.000000	0.343502
1605.000000	0.343388
1606.000000	0.343358
1607.000000	0.343499
1608.000000	0.343501
1609.000000	0.343543
1610.000000	0.343554
1611.000000	0.343488
1612.000000	0.343509
1613.000000	0.343725
1614.000000	0.343765
1615.000000	0.343808
1616.000000	0.343881
1617.000000	0.343823
1618.000000	0.343856
1619.000000	0.343950
1620.000000	0.344001
1621.000000	0.344097
1622.000000	0.344168
1623.000000	0.344159
1624.000000	0.344220
1625.000000	0.344130
1626.000000	0.344073
1627.000000	0.344094
1628.000000	0.344156
1629.000000	0.344113
1630.000000	0.344323
1631.000000	0.344735
1632.000000	0.344847
1633.000000	0.345021
1634.000000	0.345129
1635.000000	0.344939
1636.000000	0.345035
1637.000000	0.345401
1638.000000	0.345513
1639.000000	0.345702
1640.000000	0.345727
1641.000000	0.345533
1642.000000	0.345543
1643.000000	0.345686
1644.000000	0.345744
1645.000000	0.345832
1646.000000	0.345891
1647.000000	0.345929
1648.000000	0.345894
1649.000000	0.345934
1650.000000	0.346040
1651.000000	0.346120
1652.000000	0.346281
1653.000000	0.346568
1654.000000	0.346723
1655.000000	0.346744
1656.000000	0.346718
1657.000000	0.346696
1658.000000	0.346708
1659.000000	0.346838
1660.000000	0.346924
1661.000000	0.346884
1662.000000	0.346949
1663.000000	0.346973
1664.000000	0.347050
1665.000000	0.347229
1666.000000	0.347436
1667.000000	0.347609
1668.000000	0.347685
1669.000000	0.347736
1670.000000	0.347670
1671.000000	0.347560
1672.000000	0.347613
1673.000000	0.347642
1674.000000	0.347772
1675.000000	0.347919
1676.000000	0.348048
1677.000000	0.348198
1678.000000	0.348203
1679.000000	0.348190
1680.000000	0.348307
1681.000000	0.348455
1682.000000	0.348569
1683.000000	0.348708
1684.000000	0.348697
1685.000000	0.348577
1686.000000	0.348447
1687.000000	0.348397
1688.000000	0.348369
1689.000000	0.348337
1690.000000	0.348367
1691.000000	0.348496
1692.000000	0.348483
1693.000000	0.348441
1694.000000	0.348405
1695.000000	0.348373
1696.000000	0.348404
1697.000000	0.348329
1698.000000	0.348293
1699.000000	0.348278
1700.000000	0.348166
1701.000000	0.348185
1702.000000	0.348087
1703.000000	0.348041
1704.000000	0.348114
1705.000000	0.348217
1706.000000	0.348520
1707.000000	0.348651
1708.000000	0.348669
1709.000000	0.348672
1710.000000	0.348670
1711.000000	0.348689
1712.000000	0.348779
1713.000000	0.348806
1714.000000	0.348840
1715.000000	0.348856
1716.000000	0.348871
1717.000000	0.348859
1718.000000	0.348701
1719.000000	0.348696
1720.000000	0.348932
1721.000000	0.348907
1722.000000	0.348798
1723.000000	0.348780
1724.000000	0.348644
1725.000000	0.348624
1726.000000	0.348694
1727.000000	0.348705
1728.000000	0.348522
1729.000000	0.348509
1730.000000	0.348805
1731.000000	0.348902
1732.000000	0.349009
1733.000000	0.349159
1734.000000	0.349045
1735.000000	0.349158
1736.000000	0.349395
1737.000000	0.349532
1738.000000	0.349753
1739.000000	0.349808
1740.000000	0.349753
1741.000000	0.349675
1742.000000	0.349470
1743.000000	0.349497
1744.000000	0.349610
1745.000000	0.349513
1746.000000	0.349429
1747.000000	0.349121
1748.000000	0.348921
1749.000000	0.348893
1750.000000	0.348838
1751.000000	0.349107
1752.000000	0.349197
1753.000000	0.349005
1754.000000	0.348855
1755.000000	0.348404
1756.000000	0.348154
1757.000000	0.348062
1758.000000	0.347987
1759.000000	0.347990
1760.000000	0.347975
1761.000000	0.347938
1762.000000	0.347909
1763.000000	0.347854
1764.000000	0.347929
1765.000000	0.348108
1766.000000	0.348181
1767.000000	0.348197
1768.000000	0.348182
1769.000000	0.348148
1770.000000	0.348198
1771.000000	0.348282
1772.000000	0.348307
1773.000000	0.348241
1774.000000	0.348245
1775.000000	0.348336
1776.000000	0.348371
1777.000000	0.348356
1778.000000	0.348384
1779.000000	0.348412
1780.000000	0.348402
1781.000000	0.348380
1782.000000	0.348313
1783.000000	0.348191
1784.000000	0.348164
1785.000000	0.348131
1786.000000	0.348079
1787.000000	0.348298
1788.000000	0.348547
1789.000000	0.348609
1790.000000	0.348524
1791.000000	0.348482
1792.000000	0.348564
1793.000000	0.348500
1794.000000	0.348378
1795.000000	0.348388
1796.000000	0.348255
1797.000000	0.348230
1798.000000	0.348507
1799.000000	0.348533
1800.000000	0.348327
1801.000000	0.348477
1802.000000	0.348548
1803.000000	0.348342
1804.000000	0.347921
1805.000000	0.345736
1806.000000	0.345275
1807.000000	0.345651
1808.000000	0.345833
1809.000000	0.346250
1810.000000	0.347375
1811.000000	0.347763
1812.000000	0.347886
1813.000000	0.348125
1814.000000	0.348500
1815.000000	0.348372
1816.000000	0.348024
1817.000000	0.347628
1818.000000	0.347118
1819.000000	0.346222
1820.000000	0.345639
1821.000000	0.345041
1822.000000	0.344996
1823.000000	0.345098
1824.000000	0.345293
1825.000000	0.346435
1826.000000	0.346686
1827.000000	0.346245
1828.000000	0.346111
1829.000000	0.345760
1830.000000	0.344837
1831.000000	0.344668
1832.000000	0.344592
1833.000000	0.344921
1834.000000	0.346597
1835.000000	0.346544
1836.000000	0.345363
1837.000000	0.345117
1838.000000	0.344330
1839.000000	0.343460
1840.000000	0.343670
1841.000000	0.343895
1842.000000	0.343339
1843.000000	0.341359
1844.000000	0.340904
1845.000000	0.340729
1846.000000	0.340637
1847.000000	0.341094
1848.000000	0.341726
1849.000000	0.341372
1850.000000	0.341108
1851.000000	0.340948
1852.000000	0.340729
1853.000000	0.340371
1854.000000	0.339525
1855.000000	0.339139
1856.000000	0.338750
1857.000000	0.338642
1858.000000	0.337829
1859.000000	0.336939
1860.000000	0.336128
1861.000000	0.334336
1862.000000	0.333119
1863.000000	0.332722
1864.000000	0.331937
1865.000000	0.330732
1866.000000	0.329805
1867.000000	0.329350
1868.000000	0.328088
1869.000000	0.326140
1870.000000	0.324876
1871.000000	0.323663
1872.000000	0.322503
1873.000000	0.321335
1874.000000	0.320898
1875.000000	0.319391
1876.000000	0.317219
1877.000000	0.314462
1878.000000	0.311296
1879.000000	0.308113
1880.000000	0.305730
1881.000000	0.303330
1882.000000	0.300319
1883.000000	0.297359
1884.000000	0.294390
1885.000000	0.290840
1886.000000	0.287075
1887.000000	0.283465
1888.000000	0.279488
1889.000000	0.274510
1890.000000	0.269435
1891.000000	0.264488
1892.000000	0.259455
1893.000000	0.254867
1894.000000	0.250464
1895.000000	0.246146
1896.000000	0.242212
1897.000000	0.238497
1898.000000	0.234155
1899.000000	0.230063
1900.000000	0.226085
1901.000000	0.222020
1902.000000	0.219030
1903.000000	0.216775
1904.000000	0.214455
1905.000000	0.212486
1906.000000	0.211047
1907.000000	0.210079
1908.000000	0.209177
1909.000000	0.208672
1910.000000	0.208948
1911.000000	0.209565
1912.000000	0.209969
1913.000000	0.210410
1914.000000	0.210953
1915.000000	0.211422
1916.000000	0.212049
1917.000000	0.212480
1918.000000	0.213137
1919.000000	0.213969
1920.000000	0.214126
1921.000000	0.214029
1922.000000	0.214982
1923.000000	0.215750
1924.000000	0.216601
1925.000000	0.217776
1926.000000	0.218486
1927.000000	0.219402
1928.000000	0.220087
1929.000000	0.220667
1930.000000	0.221314
1931.000000	0.222254
1932.000000	0.222751
1933.000000	0.223317
1934.000000	0.223974
1935.000000	0.224056
1936.000000	0.224187
1937.000000	0.224326
1938.000000	0.224107
1939.000000	0.224091
1940.000000	0.224158
1941.000000	0.223881
1942.000000	0.224040
1943.000000	0.224765
1944.000000	0.225115
1945.000000	0.226112
1946.000000	0.227406
1947.000000	0.228134
1948.000000	0.228468
1949.000000	0.228290
1950.000000	0.228017
1951.000000	0.227804
1952.000000	0.227498
1953.000000	0.227292
1954.000000	0.227476
1955.000000	0.227191
1956.000000	0.226841
1957.000000	0.226941
1958.000000	0.226825
1959.000000	0.227220
1960.000000	0.227315
1961.000000	0.226951
1962.000000	0.227062
1963.000000	0.227607
1964.000000	0.227548
1965.000000	0.227547
1966.000000	0.228367
1967.000000	0.228280
1968.000000	0.228228
1969.000000	0.228850
1970.000000	0.228650
1971.000000	0.228353
1972.000000	0.228576
1973.000000	0.228518
1974.000000	0.228092
1975.000000	0.228295
1976.000000	0.228831
1977.000000	0.229341
1978.000000	0.230307
1979.000000	0.231227
1980.000000	0.231886
1981.000000	0.232894
1982.000000	0.233472
1983.000000	0.233787
1984.000000	0.234391
1985.000000	0.235056
1986.000000	0.235647
1987.000000	0.236349
1988.000000	0.237401
1989.000000	0.237706
1990.000000	0.238375
1991.000000	0.239018
1992.000000	0.239467
1993.000000	0.240568
1994.000000	0.241669
1995.000000	0.242441
1996.000000	0.243023
1997.000000	0.243391
1998.000000	0.243255
1999.000000	0.243617
2000.000000	0.243950
2001.000000	0.244440
2002.000000	0.245546
2003.000000	0.246525
2004.000000	0.247094
2005.000000	0.247532
2006.000000	0.248028
2007.000000	0.248527
2008.000000	0.249403
2009.000000	0.250840
2010.000000	0.252027
2011.000000	0.253179
2012.000000	0.254324
2013.000000	0.255574
2014.000000	0.256184
2015.000000	0.256936
2016.000000	0.257522
2017.000000	0.257828
2018.000000	0.258065
2019.000000	0.258153
2020.000000	0.258701
2021.000000	0.259394
2022.000000	0.260171
2023.000000	0.261088
2024.000000	0.262526
2025.000000	0.263620
2026.000000	0.264599
2027.000000	0.265318
2028.000000	0.266104
2029.000000	0.266107
2030.000000	0.265661
2031.000000	0.265846
2032.000000	0.265954
2033.000000	0.266440
2034.000000	0.267133
2035.000000	0.268388
2036.000000	0.269199
2037.000000	0.270368
2038.000000	0.271358
2039.000000	0.272364
2040.000000	0.272960
2041.000000	0.273883
2042.000000	0.274231
2043.000000	0.274293
2044.000000	0.275084
2045.000000	0.276098
2046.000000	0.277131
2047.000000	0.278039
2048.000000	0.279410
2049.000000	0.280060
2050.000000	0.279596
2051.000000	0.279561
2052.000000	0.279206
2053.000000	0.278994
2054.000000	0.278840
2055.000000	0.279451
2056.000000	0.280260
2057.000000	0.281218
2058.000000	0.282190
2059.000000	0.282847
2060.000000	0.283211
2061.000000	0.282974
2062.000000	0.283207
2063.000000	0.283448
2064.000000	0.283561
2065.000000	0.284111
2066.000000	0.284233
2067.000000	0.284064
2068.000000	0.284573
2069.000000	0.285245
2070.000000	0.285481
2071.000000	0.285383
2072.000000	0.285665
2073.000000	0.285771
2074.000000	0.286008
2075.000000	0.286598
2076.000000	0.287960
2077.000000	0.288535
2078.000000	0.288832
2079.000000	0.289225
2080.000000	0.289438
2081.000000	0.289622
2082.000000	0.290012
2083.000000	0.290115
2084.000000	0.290106
2085.000000	0.290028
2086.000000	0.290010
2087.000000	0.291136
2088.000000	0.291811
2089.000000	0.292001
2090.000000	0.292214
2091.000000	0.291963
2092.000000	0.292275
2093.000000	0.292630
2094.000000	0.293397
2095.000000	0.295146
2096.000000	0.296094
2097.000000	0.297050
2098.000000	0.297398
2099.000000	0.296925
2100.000000	0.296557
2101.000000	0.296398
2102.000000	0.296605
2103.000000	0.297097
2104.000000	0.297385
2105.000000	0.297843
2106.000000	0.298369
2107.000000	0.298676
2108.000000	0.298923
2109.000000	0.299377
2110.000000	0.299462
2111.000000	0.299620
2112.000000	0.300225
2113.000000	0.300292
2114.000000	0.299510
2115.000000	0.298477
2116.000000	0.297966
2117.000000	0.297735
2118.000000	0.297726
2119.000000	0.298780
2120.000000	0.299504
2121.000000	0.300379
2122.000000	0.300738
2123.000000	0.301058
2124.000000	0.301386
2125.000000	0.301205
2126.000000	0.301345
2127.000000	0.301972
2128.000000	0.302196
2129.000000	0.301894
2130.000000	0.302137
2131.000000	0.301679
2132.000000	0.301672
2133.000000	0.302382
2134.000000	0.302747
2135.000000	0.303830
2136.000000	0.304621
2137.000000	0.304972
2138.000000	0.304981
2139.000000	0.305018
2140.000000	0.304555
2141.000000	0.304404
2142.000000	0.304243
2143.000000	0.303899
2144.000000	0.303805
2145.000000	0.303854
2146.000000	0.304197
2147.000000	0.304328
2148.000000	0.304284
2149.000000	0.304046
2150.000000	0.304088
2151.000000	0.304461
2152.000000	0.305303
2153.000000	0.306340
2154.000000	0.306625
2155.000000	0.306490
2156.000000	0.306374
2157.000000	0.305681
2158.000000	0.305457
2159.000000	0.305427
2160.000000	0.305551
2161.000000	0.305830
2162.000000	0.306164
2163.000000	0.306718
2164.000000	0.306984
2165.000000	0.307322
2166.000000	0.307346
2167.000000	0.306901
2168.000000	0.306428
2169.000000	0.306180
2170.000000	0.306542
2171.000000	0.307033
2172.000000	0.308603
2173.000000	0.308798
2174.000000	0.308403
2175.000000	0.308003
2176.000000	0.306866
2177.000000	0.306329
2178.000000	0.306054
2179.000000	0.305922
2180.000000	0.305405
2181.000000	0.305813
2182.000000	0.306483
2183.000000	0.307194
2184.000000	0.307791
2185.000000	0.308081
2186.000000	0.306633
2187.000000	0.305239
2188.000000	0.303919
2189.000000	0.303248
2190.000000	0.303767
2191.000000	0.304864
2192.000000	0.305101
2193.000000	0.305787
2194.000000	0.305086
2195.000000	0.302875
2196.000000	0.301318
2197.000000	0.298422
2198.000000	0.297416
2199.000000	0.297456
2200.000000	0.297858
2201.000000	0.301155
2202.000000	0.301918
2203.000000	0.300598
2204.000000	0.300710
2205.000000	0.300335
2206.000000	0.299458
2207.000000	0.301574
2208.000000	0.301138
2209.000000	0.299644
2210.000000	0.300473
2211.000000	0.299807
2212.000000	0.300641
2213.000000	0.300536
2214.000000	0.299682
2215.000000	0.299307
2216.000000	0.299010
2217.000000	0.298911
2218.000000	0.299874
2219.000000	0.298970
2220.000000	0.296735
2221.000000	0.295315
2222.000000	0.292293
2223.000000	0.291865
2224.000000	0.293272
2225.000000	0.294912
2226.000000	0.296439
2227.000000	0.296069
2228.000000	0.294594
2229.000000	0.293308
2230.000000	0.293100
2231.000000	0.294042
2232.000000	0.294430
2233.000000	0.294239
2234.000000	0.293403
2235.000000	0.293649
2236.000000	0.293730
2237.000000	0.294607
2238.000000	0.294064
2239.000000	0.292184
2240.000000	0.291208
2241.000000	0.290123
2242.000000	0.289781
2243.000000	0.291838
2244.000000	0.291356
2245.000000	0.287981
2246.000000	0.286860
2247.000000	0.284681
2248.000000	0.283799
2249.000000	0.285207
2250.000000	0.287547
2251.000000	0.285775
2252.000000	0.286733
2253.000000	0.288016
2254.000000	0.288150
2255.000000	0.289840
2256.000000	0.292107
2257.000000	0.292641
2258.000000	0.291650
2259.000000	0.291768
2260.000000	0.290160
2261.000000	0.288666
2262.000000	0.286628
2263.000000	0.285788
2264.000000	0.284905
2265.000000	0.284886
2266.000000	0.286553
2267.000000	0.285788
2268.000000	0.283442
2269.000000	0.282746
2270.000000	0.282414
2271.000000	0.281591
2272.000000	0.282257
2273.000000	0.280975
2274.000000	0.276136
2275.000000	0.274156
2276.000000	0.272860
2277.000000	0.272646
2278.000000	0.273238
2279.000000	0.272681
2280.000000	0.270794
2281.000000	0.269320
2282.000000	0.267555
2283.000000	0.264803
2284.000000	0.263470
2285.000000	0.261655
2286.000000	0.258391
2287.000000	0.258516
2288.000000	0.257854
2289.000000	0.255295
2290.000000	0.254233
2291.000000	0.252621
2292.000000	0.249925
2293.000000	0.246824
2294.000000	0.245135
2295.000000	0.243703
2296.000000	0.243264
2297.000000	0.244661
2298.000000	0.245211
2299.000000	0.245604
2300.000000	0.246401
2301.000000	0.248240
2302.000000	0.248504
2303.000000	0.247309
2304.000000	0.247820
2305.000000	0.247478
2306.000000	0.248181
2307.000000	0.249853
2308.000000	0.254059
2309.000000	0.258494
2310.000000	0.259609
2311.000000	0.259353
2312.000000	0.258416
2313.000000	0.255318
2314.000000	0.252494
2315.000000	0.255452
2316.000000	0.259230
2317.000000	0.260156
2318.000000	0.263729
2319.000000	0.263246
2320.000000	0.262083
2321.000000	0.264885
2322.000000	0.264597
2323.000000	0.265116
2324.000000	0.266060
2325.000000	0.262645
2326.000000	0.262674
2327.000000	0.263974
2328.000000	0.261558
2329.000000	0.261028
2330.000000	0.260020
2331.000000	0.259103
2332.000000	0.259399
2333.000000	0.260408
2334.000000	0.261379
2335.000000	0.261231
2336.000000	0.259101
2337.000000	0.259112
2338.000000	0.259523
2339.000000	0.258824
2340.000000	0.258771
2341.000000	0.258007
2342.000000	0.255871
2343.000000	0.253708
2344.000000	0.251355
2345.000000	0.249071
2346.000000	0.245685
2347.000000	0.244258
2348.000000	0.243210
2349.000000	0.245702
2350.000000	0.247999
2351.000000	0.247644
2352.000000	0.250492
2353.000000	0.250279
2354.000000	0.248387
2355.000000	0.248768
2356.000000	0.245983
2357.000000	0.243482
2358.000000	0.242296
2359.000000	0.242744
2360.000000	0.243738
2361.000000	0.243618
2362.000000	0.241605
2363.000000	0.239688
2364.000000	0.240990
2365.000000	0.240653
2366.000000	0.241306
2367.000000	0.241742
2368.000000	0.236693
2369.000000	0.234100
2370.000000	0.232816
2371.000000	0.228617
2372.000000	0.228783
2373.000000	0.226513
2374.000000	0.219530
2375.000000	0.217478
2376.000000	0.214675
2377.000000	0.213600
2378.000000	0.217659
2379.000000	0.223297
2380.000000	0.225066
2381.000000	0.221111
2382.000000	0.218209
2383.000000	0.212464
2384.000000	0.206734
2385.000000	0.205279
2386.000000	0.203784
2387.000000	0.202431
2388.000000	0.201843
2389.000000	0.202088
2390.000000	0.202625
2391.000000	0.208110
2392.000000	0.215902
2393.000000	0.216481
2394.000000	0.215650
2395.000000	0.214691
2396.000000	0.209150
2397.000000	0.208347
2398.000000	0.209235
2399.000000	0.204427
2400.000000	0.199438
2401.000000	0.193044
2402.000000	0.186710
2403.000000	0.184028
2404.000000	0.182251
2405.000000	0.181343
2406.000000	0.185252
2407.000000	0.187431
2408.000000	0.186846
2409.000000	0.193777
2410.000000	0.197767
2411.000000	0.196267
2412.000000	0.198094
2413.000000	0.195612
2414.000000	0.195447
2415.000000	0.199133
2416.000000	0.197050
2417.000000	0.197532
2418.000000	0.197320
2419.000000	0.196399
2420.000000	0.203314
2421.000000	0.202706
2422.000000	0.200554
2423.000000	0.203047
2424.000000	0.202517
2425.000000	0.204186
2426.000000	0.199516
2427.000000	0.188191
2428.000000	0.178364
2429.000000	0.177814
2430.000000	0.185482
2431.000000	0.194924
2432.000000	0.205607
2433.000000	0.211670
2434.000000	0.211981
2435.000000	0.204229
2436.000000	0.191248
2437.000000	0.184636
2438.000000	0.178776
2439.000000	0.175648
2440.000000	0.184739
2441.000000	0.176333
2442.000000	0.161340
2443.000000	0.168477
2444.000000	0.168614
2445.000000	0.174822
2446.000000	0.195134
2447.000000	0.198039
2448.000000	0.198865
2449.000000	0.189281
2450.000000	0.174688
2451.000000	0.176665
2452.000000	0.170730
2453.000000	0.171725
2454.000000	0.180053
2455.000000	0.172119
2456.000000	0.174204
2457.000000	0.184358
2458.000000	0.180197
2459.000000	0.176463
2460.000000	0.163033
2461.000000	0.140652
2462.000000	0.135076
2463.000000	0.132927
2464.000000	0.129828
2465.000000	0.143657
2466.000000	0.169053
2467.000000	0.179491
2468.000000	0.190741
2469.000000	0.181760
2470.000000	0.147979
2471.000000	0.127719
2472.000000	0.100384
2473.000000	0.080758
2474.000000	0.067212
2475.000000	0.043558
2476.000000	0.057967
2477.000000	0.076129
2478.000000	0.079799
2479.000000	0.114425
2480.000000	0.137609
2481.000000	0.156308
2482.000000	0.176802
2483.000000	0.187725
2484.000000	0.184018
2485.000000	0.185024
2486.000000	0.202604
2487.000000	0.210994
2488.000000	0.249946
2489.000000	0.244682
2490.000000	0.220973
2491.000000	0.208393
2492.000000	0.175458
2493.000000	0.141229
2494.000000	0.120344
2495.000000	0.090885
2496.000000	0.075700
2497.000000	0.086434
2498.000000	0.076639
2499.000000	0.046707
2500.000000	0.016760
