# Wavelength	NAu-2-50_HEX-20_FV7-30_00000.asd.rts.txt
350.000000	0.127274
351.000000	0.136000
352.000000	0.130612
353.000000	0.117365
354.000000	0.107690
355.000000	0.119577
356.000000	0.117025
357.000000	0.107022
358.000000	0.125807
359.000000	0.127998
360.000000	0.118399
361.000000	0.112627
362.000000	0.115031
363.000000	0.119491
364.000000	0.120248
365.000000	0.113072
366.000000	0.115722
367.000000	0.125025
368.000000	0.120122
369.000000	0.117063
370.000000	0.117038
371.000000	0.117410
372.000000	0.119255
373.000000	0.120512
374.000000	0.120471
375.000000	0.121293
376.000000	0.122833
377.000000	0.123337
378.000000	0.119184
379.000000	0.120036
380.000000	0.122398
381.000000	0.120197
382.000000	0.122120
383.000000	0.123669
384.000000	0.121622
385.000000	0.118479
386.000000	0.119827
387.000000	0.124244
388.000000	0.122435
389.000000	0.121561
390.000000	0.122165
391.000000	0.122513
392.000000	0.122291
393.000000	0.121392
394.000000	0.120219
395.000000	0.120543
396.000000	0.121488
397.000000	0.122060
398.000000	0.120846
399.000000	0.120733
400.000000	0.121911
401.000000	0.123349
402.000000	0.125147
403.000000	0.125345
404.000000	0.123312
405.000000	0.124558
406.000000	0.125391
407.000000	0.124382
408.000000	0.124004
409.000000	0.124408
410.000000	0.124906
411.000000	0.124220
412.000000	0.125063
413.000000	0.126149
414.000000	0.125822
415.000000	0.125586
416.000000	0.126346
417.000000	0.127891
418.000000	0.127658
419.000000	0.127722
420.000000	0.128277
421.000000	0.127956
422.000000	0.128443
423.000000	0.128856
424.000000	0.127931
425.000000	0.128338
426.000000	0.129183
427.000000	0.129568
428.000000	0.130107
429.000000	0.130487
430.000000	0.130745
431.000000	0.131473
432.000000	0.131432
433.000000	0.131120
434.000000	0.131833
435.000000	0.132269
436.000000	0.132308
437.000000	0.132141
438.000000	0.132286
439.000000	0.132765
440.000000	0.133414
441.000000	0.133536
442.000000	0.133831
443.000000	0.134253
444.000000	0.134341
445.000000	0.134569
446.000000	0.134859
447.000000	0.134959
448.000000	0.135348
449.000000	0.136025
450.000000	0.136801
451.000000	0.137087
452.000000	0.137228
453.000000	0.137438
454.000000	0.137978
455.000000	0.138113
456.000000	0.138303
457.000000	0.139280
458.000000	0.139381
459.000000	0.139421
460.000000	0.140217
461.000000	0.140610
462.000000	0.140951
463.000000	0.141291
464.000000	0.141268
465.000000	0.141506
466.000000	0.141961
467.000000	0.142243
468.000000	0.142430
469.000000	0.142582
470.000000	0.142876
471.000000	0.143463
472.000000	0.144072
473.000000	0.144501
474.000000	0.144730
475.000000	0.144900
476.000000	0.145164
477.000000	0.145517
478.000000	0.145765
479.000000	0.146085
480.000000	0.146572
481.000000	0.146883
482.000000	0.147161
483.000000	0.147449
484.000000	0.147718
485.000000	0.147888
486.000000	0.148078
487.000000	0.148470
488.000000	0.148719
489.000000	0.148806
490.000000	0.148909
491.000000	0.149214
492.000000	0.149582
493.000000	0.149738
494.000000	0.149970
495.000000	0.150062
496.000000	0.149927
497.000000	0.150046
498.000000	0.150245
499.000000	0.150447
500.000000	0.150568
501.000000	0.150675
502.000000	0.150767
503.000000	0.150780
504.000000	0.150981
505.000000	0.151255
506.000000	0.151464
507.000000	0.151703
508.000000	0.151990
509.000000	0.152298
510.000000	0.152589
511.000000	0.152960
512.000000	0.153381
513.000000	0.153679
514.000000	0.154130
515.000000	0.154611
516.000000	0.154866
517.000000	0.155098
518.000000	0.155484
519.000000	0.156023
520.000000	0.156411
521.000000	0.156785
522.000000	0.157232
523.000000	0.157760
524.000000	0.158288
525.000000	0.158870
526.000000	0.159665
527.000000	0.160533
528.000000	0.161455
529.000000	0.162465
530.000000	0.163517
531.000000	0.164631
532.000000	0.165762
533.000000	0.166900
534.000000	0.168121
535.000000	0.169395
536.000000	0.170597
537.000000	0.171812
538.000000	0.172998
539.000000	0.174064
540.000000	0.175046
541.000000	0.176028
542.000000	0.177077
543.000000	0.178051
544.000000	0.179036
545.000000	0.180026
546.000000	0.180995
547.000000	0.181935
548.000000	0.182921
549.000000	0.184032
550.000000	0.185223
551.000000	0.186457
552.000000	0.187676
553.000000	0.189028
554.000000	0.190456
555.000000	0.191918
556.000000	0.193452
557.000000	0.195076
558.000000	0.196821
559.000000	0.198464
560.000000	0.200106
561.000000	0.201781
562.000000	0.203387
563.000000	0.204946
564.000000	0.206520
565.000000	0.208063
566.000000	0.209460
567.000000	0.210815
568.000000	0.212153
569.000000	0.213343
570.000000	0.214448
571.000000	0.215463
572.000000	0.216356
573.000000	0.217139
574.000000	0.217831
575.000000	0.218493
576.000000	0.219084
577.000000	0.219557
578.000000	0.219937
579.000000	0.220244
580.000000	0.220499
581.000000	0.220700
582.000000	0.220816
583.000000	0.220929
584.000000	0.221033
585.000000	0.221072
586.000000	0.221127
587.000000	0.221105
588.000000	0.220914
589.000000	0.220725
590.000000	0.220503
591.000000	0.220230
592.000000	0.219967
593.000000	0.219706
594.000000	0.219403
595.000000	0.218961
596.000000	0.218513
597.000000	0.218075
598.000000	0.217543
599.000000	0.216971
600.000000	0.216465
601.000000	0.216019
602.000000	0.215482
603.000000	0.214910
604.000000	0.214338
605.000000	0.213723
606.000000	0.213184
607.000000	0.212705
608.000000	0.212182
609.000000	0.211606
610.000000	0.211051
611.000000	0.210578
612.000000	0.209996
613.000000	0.209468
614.000000	0.209085
615.000000	0.208574
616.000000	0.208098
617.000000	0.207654
618.000000	0.207143
619.000000	0.206669
620.000000	0.206237
621.000000	0.205853
622.000000	0.205432
623.000000	0.205067
624.000000	0.204809
625.000000	0.204439
626.000000	0.204106
627.000000	0.203852
628.000000	0.203532
629.000000	0.203262
630.000000	0.202997
631.000000	0.202799
632.000000	0.202530
633.000000	0.202288
634.000000	0.202168
635.000000	0.202032
636.000000	0.201946
637.000000	0.201910
638.000000	0.201779
639.000000	0.201684
640.000000	0.201651
641.000000	0.201512
642.000000	0.201453
643.000000	0.201461
644.000000	0.201474
645.000000	0.201544
646.000000	0.201641
647.000000	0.201716
648.000000	0.201787
649.000000	0.201900
650.000000	0.202049
651.000000	0.202211
652.000000	0.202390
653.000000	0.202640
654.000000	0.202978
655.000000	0.203344
656.000000	0.203734
657.000000	0.204108
658.000000	0.204442
659.000000	0.204851
660.000000	0.205343
661.000000	0.205768
662.000000	0.206208
663.000000	0.206725
664.000000	0.207301
665.000000	0.207903
666.000000	0.208513
667.000000	0.209105
668.000000	0.209742
669.000000	0.210424
670.000000	0.211120
671.000000	0.211720
672.000000	0.212433
673.000000	0.213268
674.000000	0.214095
675.000000	0.214904
676.000000	0.215739
677.000000	0.216663
678.000000	0.217654
679.000000	0.218609
680.000000	0.219504
681.000000	0.220522
682.000000	0.221582
683.000000	0.222633
684.000000	0.223817
685.000000	0.224986
686.000000	0.226147
687.000000	0.227321
688.000000	0.228503
689.000000	0.229739
690.000000	0.231076
691.000000	0.232429
692.000000	0.233754
693.000000	0.235114
694.000000	0.236567
695.000000	0.238048
696.000000	0.239527
697.000000	0.240993
698.000000	0.242542
699.000000	0.244151
700.000000	0.245791
701.000000	0.247437
702.000000	0.249129
703.000000	0.250850
704.000000	0.252553
705.000000	0.254282
706.000000	0.256007
707.000000	0.257746
708.000000	0.259487
709.000000	0.261269
710.000000	0.263121
711.000000	0.264933
712.000000	0.266774
713.000000	0.268683
714.000000	0.270589
715.000000	0.272493
716.000000	0.274371
717.000000	0.276184
718.000000	0.278090
719.000000	0.280024
720.000000	0.281927
721.000000	0.283845
722.000000	0.285734
723.000000	0.287635
724.000000	0.289552
725.000000	0.291462
726.000000	0.293401
727.000000	0.295277
728.000000	0.297175
729.000000	0.299060
730.000000	0.300863
731.000000	0.302712
732.000000	0.304571
733.000000	0.306435
734.000000	0.308219
735.000000	0.309922
736.000000	0.311682
737.000000	0.313414
738.000000	0.315047
739.000000	0.316713
740.000000	0.318331
741.000000	0.319909
742.000000	0.321488
743.000000	0.323038
744.000000	0.324550
745.000000	0.326000
746.000000	0.327442
747.000000	0.328846
748.000000	0.330206
749.000000	0.331541
750.000000	0.332823
751.000000	0.334026
752.000000	0.335241
753.000000	0.336464
754.000000	0.337583
755.000000	0.338769
756.000000	0.339997
757.000000	0.341138
758.000000	0.342194
759.000000	0.343205
760.000000	0.344140
761.000000	0.345107
762.000000	0.346050
763.000000	0.346954
764.000000	0.347902
765.000000	0.348678
766.000000	0.349414
767.000000	0.350226
768.000000	0.350881
769.000000	0.351535
770.000000	0.352224
771.000000	0.352759
772.000000	0.353375
773.000000	0.353997
774.000000	0.354577
775.000000	0.355100
776.000000	0.355575
777.000000	0.356006
778.000000	0.356457
779.000000	0.356893
780.000000	0.357301
781.000000	0.357664
782.000000	0.357903
783.000000	0.358200
784.000000	0.358555
785.000000	0.358906
786.000000	0.359215
787.000000	0.359461
788.000000	0.359674
789.000000	0.359866
790.000000	0.360075
791.000000	0.360395
792.000000	0.360595
793.000000	0.360718
794.000000	0.360848
795.000000	0.361025
796.000000	0.361199
797.000000	0.361342
798.000000	0.361467
799.000000	0.361546
800.000000	0.361561
801.000000	0.361526
802.000000	0.361562
803.000000	0.361633
804.000000	0.361718
805.000000	0.361691
806.000000	0.361577
807.000000	0.361508
808.000000	0.361497
809.000000	0.361525
810.000000	0.361582
811.000000	0.361629
812.000000	0.361618
813.000000	0.361556
814.000000	0.361484
815.000000	0.361504
816.000000	0.361514
817.000000	0.361469
818.000000	0.361290
819.000000	0.361294
820.000000	0.361277
821.000000	0.361098
822.000000	0.360913
823.000000	0.360711
824.000000	0.360526
825.000000	0.360519
826.000000	0.360516
827.000000	0.360470
828.000000	0.360407
829.000000	0.360288
830.000000	0.360161
831.000000	0.360067
832.000000	0.359854
833.000000	0.359679
834.000000	0.359572
835.000000	0.359525
836.000000	0.359301
837.000000	0.358978
838.000000	0.358684
839.000000	0.358531
840.000000	0.358266
841.000000	0.358020
842.000000	0.357881
843.000000	0.357677
844.000000	0.357475
845.000000	0.357270
846.000000	0.357074
847.000000	0.356894
848.000000	0.356723
849.000000	0.356582
850.000000	0.356418
851.000000	0.356186
852.000000	0.355950
853.000000	0.355801
854.000000	0.355510
855.000000	0.355280
856.000000	0.355179
857.000000	0.355028
858.000000	0.354839
859.000000	0.354565
860.000000	0.354324
861.000000	0.354127
862.000000	0.353967
863.000000	0.353749
864.000000	0.353597
865.000000	0.353435
866.000000	0.353231
867.000000	0.352962
868.000000	0.352759
869.000000	0.352531
870.000000	0.352233
871.000000	0.351851
872.000000	0.351463
873.000000	0.351062
874.000000	0.350701
875.000000	0.350371
876.000000	0.350055
877.000000	0.349667
878.000000	0.349342
879.000000	0.349084
880.000000	0.348779
881.000000	0.348727
882.000000	0.348543
883.000000	0.348269
884.000000	0.348036
885.000000	0.347792
886.000000	0.347569
887.000000	0.347377
888.000000	0.347056
889.000000	0.346813
890.000000	0.346471
891.000000	0.346020
892.000000	0.345697
893.000000	0.345419
894.000000	0.345201
895.000000	0.344805
896.000000	0.344411
897.000000	0.344018
898.000000	0.343594
899.000000	0.343304
900.000000	0.343040
901.000000	0.342758
902.000000	0.342683
903.000000	0.342494
904.000000	0.342249
905.000000	0.341979
906.000000	0.341784
907.000000	0.341443
908.000000	0.341000
909.000000	0.340598
910.000000	0.340332
911.000000	0.340089
912.000000	0.339794
913.000000	0.339646
914.000000	0.339388
915.000000	0.339041
916.000000	0.338666
917.000000	0.338413
918.000000	0.338169
919.000000	0.337814
920.000000	0.337428
921.000000	0.337132
922.000000	0.336896
923.000000	0.336589
924.000000	0.336335
925.000000	0.335986
926.000000	0.335540
927.000000	0.335163
928.000000	0.334920
929.000000	0.334739
930.000000	0.334519
931.000000	0.334292
932.000000	0.334007
933.000000	0.333736
934.000000	0.333566
935.000000	0.333310
936.000000	0.333064
937.000000	0.332818
938.000000	0.332532
939.000000	0.332365
940.000000	0.332141
941.000000	0.331705
942.000000	0.331346
943.000000	0.331124
944.000000	0.330938
945.000000	0.330955
946.000000	0.330612
947.000000	0.330173
948.000000	0.329979
949.000000	0.329683
950.000000	0.329438
951.000000	0.329254
952.000000	0.329113
953.000000	0.328898
954.000000	0.328516
955.000000	0.327961
956.000000	0.327752
957.000000	0.327595
958.000000	0.327399
959.000000	0.327259
960.000000	0.326894
961.000000	0.326620
962.000000	0.326484
963.000000	0.326241
964.000000	0.326022
965.000000	0.325871
966.000000	0.325642
967.000000	0.325245
968.000000	0.324892
969.000000	0.324647
970.000000	0.324610
971.000000	0.324620
972.000000	0.324457
973.000000	0.324106
974.000000	0.323997
975.000000	0.323858
976.000000	0.323553
977.000000	0.323099
978.000000	0.322857
979.000000	0.322850
980.000000	0.322650
981.000000	0.322264
982.000000	0.322070
983.000000	0.322065
984.000000	0.322114
985.000000	0.321846
986.000000	0.321722
987.000000	0.321841
988.000000	0.321922
989.000000	0.321427
990.000000	0.321196
991.000000	0.321047
992.000000	0.320669
993.000000	0.320713
994.000000	0.320677
995.000000	0.320538
996.000000	0.320284
997.000000	0.320635
998.000000	0.320650
999.000000	0.320280
1000.000000	0.320771
1001.000000	0.320966
1002.000000	0.320298
1003.000000	0.320437
1004.000000	0.320569
1005.000000	0.320850
1006.000000	0.320445
1007.000000	0.319800
1008.000000	0.319920
1009.000000	0.319088
1010.000000	0.318420
1011.000000	0.319248
1012.000000	0.319073
1013.000000	0.318453
1014.000000	0.319142
1015.000000	0.319452
1016.000000	0.319573
1017.000000	0.319783
1018.000000	0.319375
1019.000000	0.319445
1020.000000	0.319766
1021.000000	0.319534
1022.000000	0.319540
1023.000000	0.319760
1024.000000	0.319622
1025.000000	0.319297
1026.000000	0.319657
1027.000000	0.319859
1028.000000	0.320103
1029.000000	0.320519
1030.000000	0.320453
1031.000000	0.320891
1032.000000	0.321043
1033.000000	0.320939
1034.000000	0.321035
1035.000000	0.321229
1036.000000	0.321236
1037.000000	0.321217
1038.000000	0.321281
1039.000000	0.321433
1040.000000	0.321683
1041.000000	0.321762
1042.000000	0.321312
1043.000000	0.321075
1044.000000	0.321061
1045.000000	0.321253
1046.000000	0.322179
1047.000000	0.322666
1048.000000	0.323133
1049.000000	0.323252
1050.000000	0.323155
1051.000000	0.323045
1052.000000	0.322313
1053.000000	0.322344
1054.000000	0.323197
1055.000000	0.323486
1056.000000	0.323701
1057.000000	0.324389
1058.000000	0.324489
1059.000000	0.324114
1060.000000	0.323963
1061.000000	0.324068
1062.000000	0.324342
1063.000000	0.324778
1064.000000	0.325072
1065.000000	0.325480
1066.000000	0.325810
1067.000000	0.326000
1068.000000	0.326089
1069.000000	0.326220
1070.000000	0.326259
1071.000000	0.325823
1072.000000	0.325938
1073.000000	0.326412
1074.000000	0.327022
1075.000000	0.327703
1076.000000	0.327994
1077.000000	0.327800
1078.000000	0.327861
1079.000000	0.328270
1080.000000	0.329119
1081.000000	0.329411
1082.000000	0.329917
1083.000000	0.330201
1084.000000	0.329896
1085.000000	0.330033
1086.000000	0.330553
1087.000000	0.330792
1088.000000	0.330761
1089.000000	0.330908
1090.000000	0.331069
1091.000000	0.331055
1092.000000	0.331553
1093.000000	0.332124
1094.000000	0.332418
1095.000000	0.332564
1096.000000	0.332964
1097.000000	0.333372
1098.000000	0.333613
1099.000000	0.333929
1100.000000	0.334264
1101.000000	0.334193
1102.000000	0.334426
1103.000000	0.335182
1104.000000	0.335412
1105.000000	0.335133
1106.000000	0.335341
1107.000000	0.335512
1108.000000	0.335690
1109.000000	0.336147
1110.000000	0.336832
1111.000000	0.337199
1112.000000	0.337342
1113.000000	0.337679
1114.000000	0.338090
1115.000000	0.338366
1116.000000	0.338663
1117.000000	0.338846
1118.000000	0.338842
1119.000000	0.338928
1120.000000	0.339039
1121.000000	0.339095
1122.000000	0.339206
1123.000000	0.339519
1124.000000	0.339770
1125.000000	0.339859
1126.000000	0.339725
1127.000000	0.339725
1128.000000	0.339709
1129.000000	0.339497
1130.000000	0.339700
1131.000000	0.340217
1132.000000	0.340556
1133.000000	0.341100
1134.000000	0.341439
1135.000000	0.341743
1136.000000	0.341793
1137.000000	0.341504
1138.000000	0.341452
1139.000000	0.341403
1140.000000	0.341488
1141.000000	0.341767
1142.000000	0.341952
1143.000000	0.341957
1144.000000	0.342178
1145.000000	0.342460
1146.000000	0.342453
1147.000000	0.342488
1148.000000	0.342372
1149.000000	0.342441
1150.000000	0.342568
1151.000000	0.342614
1152.000000	0.342614
1153.000000	0.342734
1154.000000	0.342727
1155.000000	0.342836
1156.000000	0.343243
1157.000000	0.343407
1158.000000	0.343305
1159.000000	0.343388
1160.000000	0.343436
1161.000000	0.343554
1162.000000	0.343885
1163.000000	0.344331
1164.000000	0.344491
1165.000000	0.344516
1166.000000	0.344639
1167.000000	0.344616
1168.000000	0.344638
1169.000000	0.344737
1170.000000	0.344888
1171.000000	0.345114
1172.000000	0.345246
1173.000000	0.345327
1174.000000	0.345474
1175.000000	0.345478
1176.000000	0.345587
1177.000000	0.346095
1178.000000	0.346268
1179.000000	0.346122
1180.000000	0.346167
1181.000000	0.346385
1182.000000	0.346357
1183.000000	0.346445
1184.000000	0.346770
1185.000000	0.346885
1186.000000	0.346827
1187.000000	0.346861
1188.000000	0.346925
1189.000000	0.346920
1190.000000	0.346861
1191.000000	0.346927
1192.000000	0.347168
1193.000000	0.347449
1194.000000	0.347726
1195.000000	0.347914
1196.000000	0.348031
1197.000000	0.348101
1198.000000	0.348052
1199.000000	0.348118
1200.000000	0.348209
1201.000000	0.348302
1202.000000	0.348334
1203.000000	0.348447
1204.000000	0.348496
1205.000000	0.348508
1206.000000	0.348613
1207.000000	0.348956
1208.000000	0.349046
1209.000000	0.349164
1210.000000	0.349247
1211.000000	0.349188
1212.000000	0.349215
1213.000000	0.349354
1214.000000	0.349417
1215.000000	0.349381
1216.000000	0.349471
1217.000000	0.349569
1218.000000	0.349645
1219.000000	0.349849
1220.000000	0.349991
1221.000000	0.349993
1222.000000	0.350129
1223.000000	0.350336
1224.000000	0.350387
1225.000000	0.350402
1226.000000	0.350417
1227.000000	0.350391
1228.000000	0.350504
1229.000000	0.350531
1230.000000	0.350594
1231.000000	0.350572
1232.000000	0.350589
1233.000000	0.350742
1234.000000	0.350888
1235.000000	0.351037
1236.000000	0.351197
1237.000000	0.351294
1238.000000	0.351318
1239.000000	0.351422
1240.000000	0.351574
1241.000000	0.351567
1242.000000	0.351563
1243.000000	0.351546
1244.000000	0.351729
1245.000000	0.352022
1246.000000	0.352193
1247.000000	0.352497
1248.000000	0.352545
1249.000000	0.352427
1250.000000	0.352584
1251.000000	0.352664
1252.000000	0.352760
1253.000000	0.352976
1254.000000	0.353047
1255.000000	0.352993
1256.000000	0.353072
1257.000000	0.353103
1258.000000	0.353258
1259.000000	0.353598
1260.000000	0.353809
1261.000000	0.353875
1262.000000	0.354009
1263.000000	0.354182
1264.000000	0.354180
1265.000000	0.354384
1266.000000	0.354592
1267.000000	0.354631
1268.000000	0.354654
1269.000000	0.354576
1270.000000	0.354668
1271.000000	0.354817
1272.000000	0.354969
1273.000000	0.355101
1274.000000	0.355086
1275.000000	0.355087
1276.000000	0.355023
1277.000000	0.355134
1278.000000	0.355243
1279.000000	0.355315
1280.000000	0.355379
1281.000000	0.355380
1282.000000	0.355324
1283.000000	0.355402
1284.000000	0.355474
1285.000000	0.355591
1286.000000	0.355741
1287.000000	0.355868
1288.000000	0.356095
1289.000000	0.356149
1290.000000	0.356069
1291.000000	0.356132
1292.000000	0.356189
1293.000000	0.356145
1294.000000	0.356236
1295.000000	0.356406
1296.000000	0.356431
1297.000000	0.356461
1298.000000	0.356511
1299.000000	0.356424
1300.000000	0.356397
1301.000000	0.356524
1302.000000	0.356540
1303.000000	0.356694
1304.000000	0.356684
1305.000000	0.356687
1306.000000	0.356671
1307.000000	0.356614
1308.000000	0.356689
1309.000000	0.356823
1310.000000	0.356852
1311.000000	0.356943
1312.000000	0.356958
1313.000000	0.356783
1314.000000	0.356814
1315.000000	0.356779
1316.000000	0.356753
1317.000000	0.356814
1318.000000	0.356741
1319.000000	0.356546
1320.000000	0.356536
1321.000000	0.356497
1322.000000	0.356336
1323.000000	0.356365
1324.000000	0.356339
1325.000000	0.356187
1326.000000	0.356146
1327.000000	0.356146
1328.000000	0.356127
1329.000000	0.355973
1330.000000	0.355743
1331.000000	0.355674
1332.000000	0.355571
1333.000000	0.355582
1334.000000	0.355906
1335.000000	0.356071
1336.000000	0.356164
1337.000000	0.356272
1338.000000	0.356357
1339.000000	0.356334
1340.000000	0.356181
1341.000000	0.356106
1342.000000	0.355984
1343.000000	0.355830
1344.000000	0.355817
1345.000000	0.355762
1346.000000	0.355778
1347.000000	0.355643
1348.000000	0.355521
1349.000000	0.355413
1350.000000	0.355278
1351.000000	0.355164
1352.000000	0.355079
1353.000000	0.354997
1354.000000	0.354913
1355.000000	0.354919
1356.000000	0.355068
1357.000000	0.355148
1358.000000	0.355260
1359.000000	0.355350
1360.000000	0.355335
1361.000000	0.355318
1362.000000	0.355193
1363.000000	0.354821
1364.000000	0.354621
1365.000000	0.354423
1366.000000	0.354281
1367.000000	0.354187
1368.000000	0.354155
1369.000000	0.354175
1370.000000	0.353931
1371.000000	0.353681
1372.000000	0.353467
1373.000000	0.353210
1374.000000	0.352914
1375.000000	0.352531
1376.000000	0.352363
1377.000000	0.352254
1378.000000	0.351985
1379.000000	0.351650
1380.000000	0.351138
1381.000000	0.350403
1382.000000	0.349856
1383.000000	0.349484
1384.000000	0.348983
1385.000000	0.348295
1386.000000	0.347473
1387.000000	0.346661
1388.000000	0.345752
1389.000000	0.344857
1390.000000	0.344047
1391.000000	0.342940
1392.000000	0.341690
1393.000000	0.340445
1394.000000	0.339211
1395.000000	0.337930
1396.000000	0.336632
1397.000000	0.335210
1398.000000	0.333595
1399.000000	0.332118
1400.000000	0.330610
1401.000000	0.329128
1402.000000	0.327745
1403.000000	0.326379
1404.000000	0.325106
1405.000000	0.323746
1406.000000	0.322563
1407.000000	0.321641
1408.000000	0.320574
1409.000000	0.319637
1410.000000	0.318838
1411.000000	0.317880
1412.000000	0.317068
1413.000000	0.316524
1414.000000	0.315975
1415.000000	0.315538
1416.000000	0.315150
1417.000000	0.314796
1418.000000	0.314486
1419.000000	0.314167
1420.000000	0.313848
1421.000000	0.313605
1422.000000	0.313260
1423.000000	0.313064
1424.000000	0.312875
1425.000000	0.312491
1426.000000	0.312042
1427.000000	0.311762
1428.000000	0.311558
1429.000000	0.311429
1430.000000	0.311445
1431.000000	0.311361
1432.000000	0.311217
1433.000000	0.310964
1434.000000	0.310828
1435.000000	0.310759
1436.000000	0.310736
1437.000000	0.310756
1438.000000	0.310784
1439.000000	0.310910
1440.000000	0.311068
1441.000000	0.311202
1442.000000	0.311533
1443.000000	0.311900
1444.000000	0.312356
1445.000000	0.312904
1446.000000	0.313464
1447.000000	0.314019
1448.000000	0.314444
1449.000000	0.314923
1450.000000	0.315453
1451.000000	0.315962
1452.000000	0.316454
1453.000000	0.316907
1454.000000	0.317323
1455.000000	0.317673
1456.000000	0.318109
1457.000000	0.318553
1458.000000	0.318819
1459.000000	0.318973
1460.000000	0.319141
1461.000000	0.319369
1462.000000	0.319602
1463.000000	0.319832
1464.000000	0.320058
1465.000000	0.320205
1466.000000	0.320397
1467.000000	0.320721
1468.000000	0.321061
1469.000000	0.321480
1470.000000	0.321794
1471.000000	0.322089
1472.000000	0.322353
1473.000000	0.322654
1474.000000	0.323051
1475.000000	0.323483
1476.000000	0.323891
1477.000000	0.324307
1478.000000	0.324762
1479.000000	0.325127
1480.000000	0.325375
1481.000000	0.325706
1482.000000	0.326108
1483.000000	0.326469
1484.000000	0.326909
1485.000000	0.327307
1486.000000	0.327555
1487.000000	0.327912
1488.000000	0.328369
1489.000000	0.328740
1490.000000	0.328992
1491.000000	0.329331
1492.000000	0.329571
1493.000000	0.329899
1494.000000	0.330300
1495.000000	0.330639
1496.000000	0.330961
1497.000000	0.331288
1498.000000	0.331629
1499.000000	0.331926
1500.000000	0.332247
1501.000000	0.332562
1502.000000	0.332795
1503.000000	0.333152
1504.000000	0.333507
1505.000000	0.333800
1506.000000	0.334214
1507.000000	0.334477
1508.000000	0.334755
1509.000000	0.335025
1510.000000	0.335046
1511.000000	0.335202
1512.000000	0.335391
1513.000000	0.335495
1514.000000	0.335781
1515.000000	0.335967
1516.000000	0.336005
1517.000000	0.336130
1518.000000	0.336283
1519.000000	0.336303
1520.000000	0.336510
1521.000000	0.336619
1522.000000	0.336688
1523.000000	0.337105
1524.000000	0.337263
1525.000000	0.337344
1526.000000	0.337530
1527.000000	0.337521
1528.000000	0.337648
1529.000000	0.337839
1530.000000	0.337854
1531.000000	0.337964
1532.000000	0.338088
1533.000000	0.338108
1534.000000	0.338188
1535.000000	0.338397
1536.000000	0.338510
1537.000000	0.338646
1538.000000	0.338827
1539.000000	0.338878
1540.000000	0.338952
1541.000000	0.339128
1542.000000	0.339279
1543.000000	0.339324
1544.000000	0.339390
1545.000000	0.339604
1546.000000	0.339821
1547.000000	0.339993
1548.000000	0.340129
1549.000000	0.340278
1550.000000	0.340389
1551.000000	0.340478
1552.000000	0.340566
1553.000000	0.340493
1554.000000	0.340422
1555.000000	0.340596
1556.000000	0.340850
1557.000000	0.340976
1558.000000	0.341102
1559.000000	0.341133
1560.000000	0.341148
1561.000000	0.341177
1562.000000	0.341199
1563.000000	0.341246
1564.000000	0.341291
1565.000000	0.341307
1566.000000	0.341248
1567.000000	0.341248
1568.000000	0.341272
1569.000000	0.341379
1570.000000	0.341363
1571.000000	0.341323
1572.000000	0.341308
1573.000000	0.341211
1574.000000	0.341179
1575.000000	0.341252
1576.000000	0.341307
1577.000000	0.341287
1578.000000	0.341314
1579.000000	0.341497
1580.000000	0.341500
1581.000000	0.341503
1582.000000	0.341514
1583.000000	0.341460
1584.000000	0.341412
1585.000000	0.341436
1586.000000	0.341463
1587.000000	0.341430
1588.000000	0.341482
1589.000000	0.341662
1590.000000	0.341792
1591.000000	0.342014
1592.000000	0.342106
1593.000000	0.342096
1594.000000	0.342128
1595.000000	0.342182
1596.000000	0.342236
1597.000000	0.342336
1598.000000	0.342396
1599.000000	0.342472
1600.000000	0.342476
1601.000000	0.342597
1602.000000	0.342609
1603.000000	0.342510
1604.000000	0.342437
1605.000000	0.342312
1606.000000	0.342271
1607.000000	0.342382
1608.000000	0.342394
1609.000000	0.342449
1610.000000	0.342424
1611.000000	0.342315
1612.000000	0.342293
1613.000000	0.342407
1614.000000	0.342489
1615.000000	0.342656
1616.000000	0.342808
1617.000000	0.342912
1618.000000	0.342995
1619.000000	0.343038
1620.000000	0.343133
1621.000000	0.343252
1622.000000	0.343438
1623.000000	0.343665
1624.000000	0.343807
1625.000000	0.343834
1626.000000	0.343800
1627.000000	0.343666
1628.000000	0.343720
1629.000000	0.343765
1630.000000	0.343847
1631.000000	0.344000
1632.000000	0.344067
1633.000000	0.344110
1634.000000	0.344183
1635.000000	0.344305
1636.000000	0.344408
1637.000000	0.344496
1638.000000	0.344579
1639.000000	0.344839
1640.000000	0.344781
1641.000000	0.344540
1642.000000	0.344550
1643.000000	0.344568
1644.000000	0.344521
1645.000000	0.344594
1646.000000	0.344633
1647.000000	0.344538
1648.000000	0.344559
1649.000000	0.344907
1650.000000	0.345000
1651.000000	0.344992
1652.000000	0.345060
1653.000000	0.344995
1654.000000	0.345097
1655.000000	0.345197
1656.000000	0.345235
1657.000000	0.345419
1658.000000	0.345556
1659.000000	0.345811
1660.000000	0.345987
1661.000000	0.346063
1662.000000	0.346127
1663.000000	0.346049
1664.000000	0.346070
1665.000000	0.346109
1666.000000	0.346262
1667.000000	0.346433
1668.000000	0.346534
1669.000000	0.346637
1670.000000	0.346651
1671.000000	0.346698
1672.000000	0.346781
1673.000000	0.346776
1674.000000	0.346929
1675.000000	0.347136
1676.000000	0.347259
1677.000000	0.347548
1678.000000	0.347656
1679.000000	0.347569
1680.000000	0.347500
1681.000000	0.347476
1682.000000	0.347443
1683.000000	0.347512
1684.000000	0.347656
1685.000000	0.347698
1686.000000	0.347737
1687.000000	0.347845
1688.000000	0.347788
1689.000000	0.347578
1690.000000	0.347372
1691.000000	0.347241
1692.000000	0.347039
1693.000000	0.347044
1694.000000	0.347163
1695.000000	0.347172
1696.000000	0.347217
1697.000000	0.347159
1698.000000	0.347002
1699.000000	0.346937
1700.000000	0.346842
1701.000000	0.346901
1702.000000	0.346884
1703.000000	0.346867
1704.000000	0.347073
1705.000000	0.347128
1706.000000	0.347181
1707.000000	0.347172
1708.000000	0.346960
1709.000000	0.346811
1710.000000	0.346719
1711.000000	0.346732
1712.000000	0.346961
1713.000000	0.346991
1714.000000	0.346976
1715.000000	0.347044
1716.000000	0.347068
1717.000000	0.347076
1718.000000	0.347161
1719.000000	0.347176
1720.000000	0.347126
1721.000000	0.347099
1722.000000	0.347072
1723.000000	0.347135
1724.000000	0.347265
1725.000000	0.347367
1726.000000	0.347472
1727.000000	0.347519
1728.000000	0.347380
1729.000000	0.347327
1730.000000	0.347459
1731.000000	0.347530
1732.000000	0.347656
1733.000000	0.347744
1734.000000	0.347607
1735.000000	0.347673
1736.000000	0.347759
1737.000000	0.347842
1738.000000	0.348098
1739.000000	0.348136
1740.000000	0.348019
1741.000000	0.347946
1742.000000	0.347826
1743.000000	0.347789
1744.000000	0.347749
1745.000000	0.347713
1746.000000	0.347670
1747.000000	0.347773
1748.000000	0.347747
1749.000000	0.347712
1750.000000	0.347634
1751.000000	0.347661
1752.000000	0.347648
1753.000000	0.347373
1754.000000	0.347228
1755.000000	0.346932
1756.000000	0.346798
1757.000000	0.346890
1758.000000	0.346941
1759.000000	0.347082
1760.000000	0.347107
1761.000000	0.347045
1762.000000	0.346946
1763.000000	0.346720
1764.000000	0.346615
1765.000000	0.346427
1766.000000	0.346458
1767.000000	0.346693
1768.000000	0.346644
1769.000000	0.346604
1770.000000	0.346704
1771.000000	0.346679
1772.000000	0.346683
1773.000000	0.346792
1774.000000	0.346881
1775.000000	0.346929
1776.000000	0.346976
1777.000000	0.347122
1778.000000	0.347110
1779.000000	0.346926
1780.000000	0.346811
1781.000000	0.346606
1782.000000	0.346557
1783.000000	0.346607
1784.000000	0.346719
1785.000000	0.346757
1786.000000	0.346688
1787.000000	0.346729
1788.000000	0.346828
1789.000000	0.346921
1790.000000	0.347185
1791.000000	0.347206
1792.000000	0.347085
1793.000000	0.347097
1794.000000	0.347167
1795.000000	0.347118
1796.000000	0.347150
1797.000000	0.347042
1798.000000	0.346490
1799.000000	0.346334
1800.000000	0.346451
1801.000000	0.346149
1802.000000	0.346543
1803.000000	0.346583
1804.000000	0.346809
1805.000000	0.347092
1806.000000	0.347177
1807.000000	0.347365
1808.000000	0.347254
1809.000000	0.346253
1810.000000	0.346528
1811.000000	0.346321
1812.000000	0.345882
1813.000000	0.345613
1814.000000	0.345174
1815.000000	0.345463
1816.000000	0.346707
1817.000000	0.346860
1818.000000	0.347010
1819.000000	0.347344
1820.000000	0.347109
1821.000000	0.346078
1822.000000	0.345541
1823.000000	0.345083
1824.000000	0.344789
1825.000000	0.344387
1826.000000	0.344101
1827.000000	0.343642
1828.000000	0.344062
1829.000000	0.343527
1830.000000	0.343738
1831.000000	0.344000
1832.000000	0.344548
1833.000000	0.344667
1834.000000	0.344930
1835.000000	0.344953
1836.000000	0.344531
1837.000000	0.344438
1838.000000	0.344632
1839.000000	0.344312
1840.000000	0.343398
1841.000000	0.342467
1842.000000	0.341726
1843.000000	0.340071
1844.000000	0.339836
1845.000000	0.340834
1846.000000	0.341099
1847.000000	0.341326
1848.000000	0.341799
1849.000000	0.341685
1850.000000	0.341506
1851.000000	0.341534
1852.000000	0.341785
1853.000000	0.341620
1854.000000	0.341207
1855.000000	0.340347
1856.000000	0.338647
1857.000000	0.337919
1858.000000	0.336700
1859.000000	0.335777
1860.000000	0.335665
1861.000000	0.334912
1862.000000	0.333974
1863.000000	0.333020
1864.000000	0.332006
1865.000000	0.330637
1866.000000	0.329461
1867.000000	0.328438
1868.000000	0.327139
1869.000000	0.325573
1870.000000	0.323334
1871.000000	0.321803
1872.000000	0.320658
1873.000000	0.319560
1874.000000	0.319633
1875.000000	0.318597
1876.000000	0.317239
1877.000000	0.314585
1878.000000	0.311005
1879.000000	0.307678
1880.000000	0.304536
1881.000000	0.301232
1882.000000	0.299284
1883.000000	0.296769
1884.000000	0.294082
1885.000000	0.291456
1886.000000	0.288013
1887.000000	0.283878
1888.000000	0.279709
1889.000000	0.274852
1890.000000	0.270523
1891.000000	0.266751
1892.000000	0.262599
1893.000000	0.258344
1894.000000	0.253184
1895.000000	0.248139
1896.000000	0.242624
1897.000000	0.237765
1898.000000	0.233262
1899.000000	0.229751
1900.000000	0.226988
1901.000000	0.224266
1902.000000	0.221765
1903.000000	0.219281
1904.000000	0.217442
1905.000000	0.215579
1906.000000	0.213980
1907.000000	0.212417
1908.000000	0.212133
1909.000000	0.211757
1910.000000	0.211595
1911.000000	0.211680
1912.000000	0.211519
1913.000000	0.211952
1914.000000	0.212690
1915.000000	0.213643
1916.000000	0.214866
1917.000000	0.215858
1918.000000	0.216845
1919.000000	0.217569
1920.000000	0.218249
1921.000000	0.218905
1922.000000	0.219282
1923.000000	0.219360
1924.000000	0.219202
1925.000000	0.219188
1926.000000	0.219370
1927.000000	0.220002
1928.000000	0.220541
1929.000000	0.221391
1930.000000	0.222290
1931.000000	0.223198
1932.000000	0.224143
1933.000000	0.225420
1934.000000	0.226163
1935.000000	0.226435
1936.000000	0.226391
1937.000000	0.225934
1938.000000	0.225700
1939.000000	0.225774
1940.000000	0.225995
1941.000000	0.226318
1942.000000	0.227384
1943.000000	0.228499
1944.000000	0.229678
1945.000000	0.230449
1946.000000	0.230623
1947.000000	0.231272
1948.000000	0.231062
1949.000000	0.231101
1950.000000	0.231533
1951.000000	0.231318
1952.000000	0.230472
1953.000000	0.230041
1954.000000	0.229454
1955.000000	0.228491
1956.000000	0.228541
1957.000000	0.228808
1958.000000	0.228991
1959.000000	0.229673
1960.000000	0.229937
1961.000000	0.230154
1962.000000	0.230237
1963.000000	0.230303
1964.000000	0.230409
1965.000000	0.230403
1966.000000	0.230248
1967.000000	0.230586
1968.000000	0.230886
1969.000000	0.231311
1970.000000	0.231461
1971.000000	0.231801
1972.000000	0.232646
1973.000000	0.232920
1974.000000	0.233234
1975.000000	0.233539
1976.000000	0.233569
1977.000000	0.233233
1978.000000	0.233955
1979.000000	0.234809
1980.000000	0.235532
1981.000000	0.236830
1982.000000	0.237361
1983.000000	0.237322
1984.000000	0.237565
1985.000000	0.237616
1986.000000	0.237778
1987.000000	0.238007
1988.000000	0.238766
1989.000000	0.238931
1990.000000	0.239492
1991.000000	0.239935
1992.000000	0.239885
1993.000000	0.240253
1994.000000	0.240786
1995.000000	0.241545
1996.000000	0.242726
1997.000000	0.243861
1998.000000	0.245372
1999.000000	0.246741
2000.000000	0.248239
2001.000000	0.249365
2002.000000	0.250281
2003.000000	0.251185
2004.000000	0.251325
2005.000000	0.251534
2006.000000	0.252050
2007.000000	0.252355
2008.000000	0.252994
2009.000000	0.253856
2010.000000	0.254659
2011.000000	0.255657
2012.000000	0.256471
2013.000000	0.257149
2014.000000	0.257745
2015.000000	0.258364
2016.000000	0.258746
2017.000000	0.258890
2018.000000	0.259298
2019.000000	0.260028
2020.000000	0.260333
2021.000000	0.261096
2022.000000	0.262421
2023.000000	0.263388
2024.000000	0.264436
2025.000000	0.265438
2026.000000	0.266458
2027.000000	0.266791
2028.000000	0.267116
2029.000000	0.267296
2030.000000	0.267513
2031.000000	0.268282
2032.000000	0.269015
2033.000000	0.269931
2034.000000	0.270661
2035.000000	0.271161
2036.000000	0.271610
2037.000000	0.272336
2038.000000	0.272936
2039.000000	0.273188
2040.000000	0.274342
2041.000000	0.275243
2042.000000	0.275770
2043.000000	0.276554
2044.000000	0.276735
2045.000000	0.276951
2046.000000	0.277746
2047.000000	0.278090
2048.000000	0.278148
2049.000000	0.278660
2050.000000	0.278759
2051.000000	0.278874
2052.000000	0.279276
2053.000000	0.279579
2054.000000	0.279954
2055.000000	0.280281
2056.000000	0.280779
2057.000000	0.281347
2058.000000	0.282051
2059.000000	0.282738
2060.000000	0.283437
2061.000000	0.284696
2062.000000	0.285164
2063.000000	0.285142
2064.000000	0.285071
2065.000000	0.284422
2066.000000	0.284296
2067.000000	0.284251
2068.000000	0.285394
2069.000000	0.286241
2070.000000	0.287272
2071.000000	0.288330
2072.000000	0.288631
2073.000000	0.288696
2074.000000	0.288901
2075.000000	0.289176
2076.000000	0.289039
2077.000000	0.289488
2078.000000	0.290756
2079.000000	0.291176
2080.000000	0.291675
2081.000000	0.291825
2082.000000	0.291579
2083.000000	0.290659
2084.000000	0.290418
2085.000000	0.290168
2086.000000	0.290553
2087.000000	0.292168
2088.000000	0.293223
2089.000000	0.293333
2090.000000	0.293606
2091.000000	0.293174
2092.000000	0.293297
2093.000000	0.293654
2094.000000	0.294254
2095.000000	0.295153
2096.000000	0.295902
2097.000000	0.296903
2098.000000	0.297536
2099.000000	0.297867
2100.000000	0.298260
2101.000000	0.298503
2102.000000	0.298116
2103.000000	0.297927
2104.000000	0.298129
2105.000000	0.298135
2106.000000	0.298035
2107.000000	0.298502
2108.000000	0.299310
2109.000000	0.299744
2110.000000	0.300114
2111.000000	0.300495
2112.000000	0.300744
2113.000000	0.300425
2114.000000	0.300758
2115.000000	0.301148
2116.000000	0.301204
2117.000000	0.301120
2118.000000	0.301215
2119.000000	0.301599
2120.000000	0.301580
2121.000000	0.301444
2122.000000	0.301533
2123.000000	0.301244
2124.000000	0.301362
2125.000000	0.302086
2126.000000	0.302297
2127.000000	0.302466
2128.000000	0.302643
2129.000000	0.302426
2130.000000	0.302578
2131.000000	0.302296
2132.000000	0.302310
2133.000000	0.302558
2134.000000	0.302964
2135.000000	0.304113
2136.000000	0.304693
2137.000000	0.305601
2138.000000	0.307061
2139.000000	0.307661
2140.000000	0.308203
2141.000000	0.308113
2142.000000	0.306513
2143.000000	0.306111
2144.000000	0.306395
2145.000000	0.306472
2146.000000	0.307444
2147.000000	0.307705
2148.000000	0.307705
2149.000000	0.307216
2150.000000	0.307074
2151.000000	0.307429
2152.000000	0.307602
2153.000000	0.307819
2154.000000	0.307667
2155.000000	0.307319
2156.000000	0.307020
2157.000000	0.306469
2158.000000	0.306082
2159.000000	0.305859
2160.000000	0.305756
2161.000000	0.305230
2162.000000	0.305443
2163.000000	0.306530
2164.000000	0.306934
2165.000000	0.307488
2166.000000	0.307784
2167.000000	0.308002
2168.000000	0.307572
2169.000000	0.306560
2170.000000	0.306260
2171.000000	0.305959
2172.000000	0.305371
2173.000000	0.305199
2174.000000	0.305528
2175.000000	0.305858
2176.000000	0.306007
2177.000000	0.306421
2178.000000	0.307719
2179.000000	0.308251
2180.000000	0.308431
2181.000000	0.308962
2182.000000	0.308610
2183.000000	0.308886
2184.000000	0.307923
2185.000000	0.306934
2186.000000	0.305288
2187.000000	0.302815
2188.000000	0.302907
2189.000000	0.302640
2190.000000	0.303753
2191.000000	0.306249
2192.000000	0.307558
2193.000000	0.309744
2194.000000	0.309756
2195.000000	0.307403
2196.000000	0.306186
2197.000000	0.303531
2198.000000	0.302215
2199.000000	0.302543
2200.000000	0.302591
2201.000000	0.302962
2202.000000	0.302361
2203.000000	0.301257
2204.000000	0.300129
2205.000000	0.297999
2206.000000	0.296881
2207.000000	0.296734
2208.000000	0.297581
2209.000000	0.299735
2210.000000	0.301788
2211.000000	0.302562
2212.000000	0.304762
2213.000000	0.306097
2214.000000	0.307357
2215.000000	0.307151
2216.000000	0.306078
2217.000000	0.304789
2218.000000	0.301616
2219.000000	0.299844
2220.000000	0.299005
2221.000000	0.298050
2222.000000	0.296616
2223.000000	0.296258
2224.000000	0.296654
2225.000000	0.296709
2226.000000	0.298349
2227.000000	0.300209
2228.000000	0.301039
2229.000000	0.302216
2230.000000	0.301982
2231.000000	0.300041
2232.000000	0.299986
2233.000000	0.300225
2234.000000	0.299706
2235.000000	0.300535
2236.000000	0.298641
2237.000000	0.293756
2238.000000	0.291136
2239.000000	0.287012
2240.000000	0.285600
2241.000000	0.286339
2242.000000	0.287443
2243.000000	0.291075
2244.000000	0.292881
2245.000000	0.295168
2246.000000	0.295757
2247.000000	0.294192
2248.000000	0.292730
2249.000000	0.290695
2250.000000	0.288126
2251.000000	0.285874
2252.000000	0.286111
2253.000000	0.286142
2254.000000	0.287227
2255.000000	0.288534
2256.000000	0.289027
2257.000000	0.290258
2258.000000	0.291674
2259.000000	0.292877
2260.000000	0.294802
2261.000000	0.294065
2262.000000	0.291434
2263.000000	0.289192
2264.000000	0.284103
2265.000000	0.282652
2266.000000	0.283893
2267.000000	0.283536
2268.000000	0.284252
2269.000000	0.284389
2270.000000	0.282966
2271.000000	0.282352
2272.000000	0.283449
2273.000000	0.282289
2274.000000	0.279360
2275.000000	0.277626
2276.000000	0.275677
2277.000000	0.272388
2278.000000	0.272518
2279.000000	0.273675
2280.000000	0.274034
2281.000000	0.274407
2282.000000	0.272626
2283.000000	0.269591
2284.000000	0.266369
2285.000000	0.263897
2286.000000	0.263066
2287.000000	0.263022
2288.000000	0.262006
2289.000000	0.260070
2290.000000	0.258081
2291.000000	0.255434
2292.000000	0.252771
2293.000000	0.252067
2294.000000	0.250823
2295.000000	0.248793
2296.000000	0.247857
2297.000000	0.247402
2298.000000	0.247395
2299.000000	0.248452
2300.000000	0.249822
2301.000000	0.252486
2302.000000	0.253855
2303.000000	0.254761
2304.000000	0.254672
2305.000000	0.253154
2306.000000	0.252219
2307.000000	0.250344
2308.000000	0.250278
2309.000000	0.251599
2310.000000	0.255367
2311.000000	0.259845
2312.000000	0.263478
2313.000000	0.263951
2314.000000	0.261719
2315.000000	0.261195
2316.000000	0.262837
2317.000000	0.266475
2318.000000	0.270845
2319.000000	0.273093
2320.000000	0.274282
2321.000000	0.274724
2322.000000	0.274337
2323.000000	0.272575
2324.000000	0.269158
2325.000000	0.267826
2326.000000	0.266645
2327.000000	0.265718
2328.000000	0.266121
2329.000000	0.264805
2330.000000	0.263458
2331.000000	0.260971
2332.000000	0.258352
2333.000000	0.257163
2334.000000	0.254960
2335.000000	0.256146
2336.000000	0.260766
2337.000000	0.263179
2338.000000	0.268901
2339.000000	0.270366
2340.000000	0.267731
2341.000000	0.265990
2342.000000	0.261928
2343.000000	0.259047
2344.000000	0.256001
2345.000000	0.254863
2346.000000	0.256285
2347.000000	0.254806
2348.000000	0.251595
2349.000000	0.252987
2350.000000	0.250463
2351.000000	0.249058
2352.000000	0.253052
2353.000000	0.254655
2354.000000	0.257495
2355.000000	0.259297
2356.000000	0.259360
2357.000000	0.256591
2358.000000	0.252578
2359.000000	0.251363
2360.000000	0.248381
2361.000000	0.248359
2362.000000	0.250781
2363.000000	0.251842
2364.000000	0.252849
2365.000000	0.250310
2366.000000	0.244772
2367.000000	0.237759
2368.000000	0.229894
2369.000000	0.226934
2370.000000	0.228058
2371.000000	0.229336
2372.000000	0.233174
2373.000000	0.235344
2374.000000	0.232725
2375.000000	0.230548
2376.000000	0.228498
2377.000000	0.226462
2378.000000	0.225995
2379.000000	0.226189
2380.000000	0.224689
2381.000000	0.222239
2382.000000	0.223736
2383.000000	0.225436
2384.000000	0.222788
2385.000000	0.217066
2386.000000	0.208310
2387.000000	0.199721
2388.000000	0.199915
2389.000000	0.203220
2390.000000	0.203407
2391.000000	0.208755
2392.000000	0.212009
2393.000000	0.213283
2394.000000	0.216966
2395.000000	0.213673
2396.000000	0.208519
2397.000000	0.207750
2398.000000	0.210193
2399.000000	0.212536
2400.000000	0.209662
2401.000000	0.206276
2402.000000	0.207651
2403.000000	0.212096
2404.000000	0.214168
2405.000000	0.211100
2406.000000	0.207220
2407.000000	0.201357
2408.000000	0.199858
2409.000000	0.205706
2410.000000	0.208938
2411.000000	0.212394
2412.000000	0.214727
2413.000000	0.208863
2414.000000	0.201321
2415.000000	0.191268
2416.000000	0.181255
2417.000000	0.183866
2418.000000	0.187467
2419.000000	0.186489
2420.000000	0.192648
2421.000000	0.196513
2422.000000	0.198562
2423.000000	0.204157
2424.000000	0.208975
2425.000000	0.214399
2426.000000	0.217000
2427.000000	0.218410
2428.000000	0.218154
2429.000000	0.214726
2430.000000	0.207476
2431.000000	0.199673
2432.000000	0.193604
2433.000000	0.191011
2434.000000	0.195823
2435.000000	0.200122
2436.000000	0.208592
2437.000000	0.207476
2438.000000	0.189811
2439.000000	0.175364
2440.000000	0.161889
2441.000000	0.148003
2442.000000	0.149280
2443.000000	0.162596
2444.000000	0.165462
2445.000000	0.173757
2446.000000	0.184171
2447.000000	0.180620
2448.000000	0.183794
2449.000000	0.185281
2450.000000	0.185329
2451.000000	0.192621
2452.000000	0.196487
2453.000000	0.195031
2454.000000	0.195080
2455.000000	0.191970
2456.000000	0.187715
2457.000000	0.198112
2458.000000	0.206856
2459.000000	0.205032
2460.000000	0.191975
2461.000000	0.168022
2462.000000	0.150129
2463.000000	0.136682
2464.000000	0.135509
2465.000000	0.146428
2466.000000	0.157053
2467.000000	0.159684
2468.000000	0.164525
2469.000000	0.159054
2470.000000	0.134909
2471.000000	0.124742
2472.000000	0.125446
2473.000000	0.116914
2474.000000	0.122927
2475.000000	0.157655
2476.000000	0.167806
2477.000000	0.180605
2478.000000	0.206951
2479.000000	0.168865
2480.000000	0.156612
2481.000000	0.152828
2482.000000	0.132651
2483.000000	0.148489
2484.000000	0.137000
2485.000000	0.136337
2486.000000	0.154686
2487.000000	0.141002
2488.000000	0.161792
2489.000000	0.194449
2490.000000	0.195219
2491.000000	0.232701
2492.000000	0.218827
2493.000000	0.158586
2494.000000	0.145174
2495.000000	0.123668
2496.000000	0.125838
2497.000000	0.182047
2498.000000	0.187622
2499.000000	0.172330
2500.000000	0.159615
