# Wavelength	NAu-2-30_HEX-40_FV7-30_00002.asd.rts.txt
350.000000	0.156697
351.000000	0.171351
352.000000	0.174227
353.000000	0.162164
354.000000	0.145531
355.000000	0.154856
356.000000	0.157110
357.000000	0.151363
358.000000	0.155587
359.000000	0.149637
360.000000	0.143551
361.000000	0.150865
362.000000	0.157361
363.000000	0.158402
364.000000	0.154137
365.000000	0.154386
366.000000	0.152781
367.000000	0.149732
368.000000	0.152086
369.000000	0.148877
370.000000	0.144568
371.000000	0.146623
372.000000	0.149017
373.000000	0.149632
374.000000	0.148763
375.000000	0.150193
376.000000	0.151719
377.000000	0.152611
378.000000	0.153674
379.000000	0.155668
380.000000	0.155570
381.000000	0.151124
382.000000	0.152440
383.000000	0.156066
384.000000	0.158060
385.000000	0.157064
386.000000	0.156842
387.000000	0.158107
388.000000	0.158296
389.000000	0.157414
390.000000	0.156664
391.000000	0.157317
392.000000	0.157399
393.000000	0.156922
394.000000	0.156541
395.000000	0.158311
396.000000	0.159078
397.000000	0.157836
398.000000	0.156054
399.000000	0.155350
400.000000	0.156096
401.000000	0.157814
402.000000	0.158201
403.000000	0.158053
404.000000	0.158467
405.000000	0.158757
406.000000	0.158942
407.000000	0.159038
408.000000	0.158760
409.000000	0.159340
410.000000	0.160304
411.000000	0.160172
412.000000	0.160253
413.000000	0.160670
414.000000	0.161238
415.000000	0.161558
416.000000	0.161856
417.000000	0.162264
418.000000	0.162582
419.000000	0.163155
420.000000	0.163722
421.000000	0.163450
422.000000	0.163332
423.000000	0.163580
424.000000	0.164133
425.000000	0.164245
426.000000	0.164524
427.000000	0.165271
428.000000	0.165388
429.000000	0.165353
430.000000	0.165539
431.000000	0.166266
432.000000	0.166736
433.000000	0.166858
434.000000	0.166947
435.000000	0.167178
436.000000	0.167282
437.000000	0.167152
438.000000	0.168000
439.000000	0.168566
440.000000	0.168462
441.000000	0.168907
442.000000	0.169621
443.000000	0.170103
444.000000	0.169704
445.000000	0.169720
446.000000	0.170136
447.000000	0.170466
448.000000	0.170876
449.000000	0.171250
450.000000	0.171558
451.000000	0.172050
452.000000	0.172522
453.000000	0.172894
454.000000	0.173387
455.000000	0.173662
456.000000	0.173797
457.000000	0.173941
458.000000	0.174547
459.000000	0.175138
460.000000	0.175326
461.000000	0.175556
462.000000	0.175912
463.000000	0.176318
464.000000	0.176849
465.000000	0.177169
466.000000	0.177256
467.000000	0.177391
468.000000	0.177715
469.000000	0.178072
470.000000	0.178386
471.000000	0.178873
472.000000	0.179232
473.000000	0.179355
474.000000	0.179686
475.000000	0.179886
476.000000	0.180075
477.000000	0.180666
478.000000	0.180906
479.000000	0.181049
480.000000	0.181466
481.000000	0.181711
482.000000	0.181965
483.000000	0.182295
484.000000	0.182748
485.000000	0.182980
486.000000	0.183063
487.000000	0.183439
488.000000	0.183607
489.000000	0.183730
490.000000	0.184394
491.000000	0.184616
492.000000	0.184550
493.000000	0.184548
494.000000	0.184679
495.000000	0.184910
496.000000	0.185155
497.000000	0.185365
498.000000	0.185654
499.000000	0.185988
500.000000	0.185975
501.000000	0.186040
502.000000	0.186244
503.000000	0.186436
504.000000	0.186605
505.000000	0.186772
506.000000	0.186973
507.000000	0.187231
508.000000	0.187551
509.000000	0.187886
510.000000	0.188159
511.000000	0.188484
512.000000	0.188874
513.000000	0.189229
514.000000	0.189596
515.000000	0.190028
516.000000	0.190511
517.000000	0.190867
518.000000	0.191178
519.000000	0.191489
520.000000	0.191901
521.000000	0.192332
522.000000	0.192750
523.000000	0.193169
524.000000	0.193647
525.000000	0.194202
526.000000	0.194857
527.000000	0.195576
528.000000	0.196336
529.000000	0.197148
530.000000	0.197920
531.000000	0.198877
532.000000	0.200013
533.000000	0.200978
534.000000	0.201900
535.000000	0.202836
536.000000	0.203816
537.000000	0.204897
538.000000	0.205946
539.000000	0.206768
540.000000	0.207753
541.000000	0.208685
542.000000	0.209397
543.000000	0.210211
544.000000	0.211057
545.000000	0.211842
546.000000	0.212614
547.000000	0.213485
548.000000	0.214460
549.000000	0.215397
550.000000	0.216307
551.000000	0.217284
552.000000	0.218381
553.000000	0.219482
554.000000	0.220622
555.000000	0.221833
556.000000	0.223083
557.000000	0.224338
558.000000	0.225668
559.000000	0.226977
560.000000	0.228320
561.000000	0.229697
562.000000	0.230964
563.000000	0.232157
564.000000	0.233395
565.000000	0.234678
566.000000	0.235910
567.000000	0.237045
568.000000	0.238047
569.000000	0.238921
570.000000	0.239774
571.000000	0.240620
572.000000	0.241414
573.000000	0.242105
574.000000	0.242682
575.000000	0.243205
576.000000	0.243663
577.000000	0.244082
578.000000	0.244531
579.000000	0.244953
580.000000	0.245286
581.000000	0.245509
582.000000	0.245660
583.000000	0.245843
584.000000	0.246041
585.000000	0.246164
586.000000	0.246167
587.000000	0.246115
588.000000	0.246090
589.000000	0.246078
590.000000	0.246028
591.000000	0.245910
592.000000	0.245742
593.000000	0.245579
594.000000	0.245396
595.000000	0.245083
596.000000	0.244771
597.000000	0.244505
598.000000	0.244209
599.000000	0.243841
600.000000	0.243434
601.000000	0.242990
602.000000	0.242668
603.000000	0.242362
604.000000	0.242031
605.000000	0.241747
606.000000	0.241383
607.000000	0.240988
608.000000	0.240723
609.000000	0.240455
610.000000	0.240138
611.000000	0.239766
612.000000	0.239435
613.000000	0.239127
614.000000	0.238842
615.000000	0.238541
616.000000	0.238257
617.000000	0.237951
618.000000	0.237577
619.000000	0.237302
620.000000	0.237052
621.000000	0.236722
622.000000	0.236461
623.000000	0.236199
624.000000	0.235876
625.000000	0.235628
626.000000	0.235420
627.000000	0.235233
628.000000	0.235076
629.000000	0.234953
630.000000	0.234785
631.000000	0.234679
632.000000	0.234577
633.000000	0.234477
634.000000	0.234381
635.000000	0.234305
636.000000	0.234253
637.000000	0.234210
638.000000	0.234175
639.000000	0.234170
640.000000	0.234203
641.000000	0.234147
642.000000	0.234141
643.000000	0.234211
644.000000	0.234343
645.000000	0.234471
646.000000	0.234622
647.000000	0.234792
648.000000	0.234941
649.000000	0.235119
650.000000	0.235328
651.000000	0.235564
652.000000	0.235779
653.000000	0.235972
654.000000	0.236106
655.000000	0.236370
656.000000	0.236728
657.000000	0.237053
658.000000	0.237292
659.000000	0.237584
660.000000	0.237978
661.000000	0.238421
662.000000	0.238799
663.000000	0.239201
664.000000	0.239759
665.000000	0.240216
666.000000	0.240656
667.000000	0.241182
668.000000	0.241695
669.000000	0.242187
670.000000	0.242692
671.000000	0.243306
672.000000	0.243985
673.000000	0.244665
674.000000	0.245282
675.000000	0.245962
676.000000	0.246694
677.000000	0.247442
678.000000	0.248198
679.000000	0.248947
680.000000	0.249704
681.000000	0.250523
682.000000	0.251390
683.000000	0.252238
684.000000	0.253124
685.000000	0.254075
686.000000	0.255061
687.000000	0.255996
688.000000	0.256970
689.000000	0.257971
690.000000	0.259009
691.000000	0.260079
692.000000	0.261120
693.000000	0.262180
694.000000	0.263288
695.000000	0.264440
696.000000	0.265601
697.000000	0.266724
698.000000	0.267872
699.000000	0.269050
700.000000	0.270263
701.000000	0.271525
702.000000	0.272795
703.000000	0.274041
704.000000	0.275286
705.000000	0.276566
706.000000	0.277861
707.000000	0.279211
708.000000	0.280560
709.000000	0.281909
710.000000	0.283275
711.000000	0.284611
712.000000	0.285978
713.000000	0.287394
714.000000	0.288753
715.000000	0.290128
716.000000	0.291534
717.000000	0.292943
718.000000	0.294382
719.000000	0.295769
720.000000	0.297078
721.000000	0.298467
722.000000	0.299866
723.000000	0.301279
724.000000	0.302636
725.000000	0.304011
726.000000	0.305432
727.000000	0.306760
728.000000	0.308180
729.000000	0.309573
730.000000	0.310806
731.000000	0.312126
732.000000	0.313455
733.000000	0.314792
734.000000	0.316127
735.000000	0.317331
736.000000	0.318562
737.000000	0.319806
738.000000	0.320897
739.000000	0.322008
740.000000	0.323100
741.000000	0.324207
742.000000	0.325300
743.000000	0.326331
744.000000	0.327317
745.000000	0.328290
746.000000	0.329264
747.000000	0.330158
748.000000	0.331120
749.000000	0.332110
750.000000	0.333050
751.000000	0.333950
752.000000	0.334819
753.000000	0.335669
754.000000	0.336489
755.000000	0.337339
756.000000	0.338180
757.000000	0.338905
758.000000	0.339543
759.000000	0.340182
760.000000	0.340798
761.000000	0.341438
762.000000	0.342053
763.000000	0.342630
764.000000	0.343258
765.000000	0.343864
766.000000	0.344431
767.000000	0.344949
768.000000	0.345461
769.000000	0.345896
770.000000	0.346271
771.000000	0.346732
772.000000	0.347161
773.000000	0.347541
774.000000	0.348034
775.000000	0.348470
776.000000	0.348836
777.000000	0.349136
778.000000	0.349429
779.000000	0.349709
780.000000	0.349962
781.000000	0.350143
782.000000	0.350278
783.000000	0.350488
784.000000	0.350690
785.000000	0.350866
786.000000	0.351049
787.000000	0.351254
788.000000	0.351475
789.000000	0.351685
790.000000	0.351848
791.000000	0.351981
792.000000	0.352118
793.000000	0.352239
794.000000	0.352346
795.000000	0.352513
796.000000	0.352668
797.000000	0.352766
798.000000	0.352802
799.000000	0.352959
800.000000	0.353091
801.000000	0.353020
802.000000	0.352978
803.000000	0.353049
804.000000	0.353239
805.000000	0.353287
806.000000	0.353251
807.000000	0.353253
808.000000	0.353279
809.000000	0.353240
810.000000	0.353204
811.000000	0.353201
812.000000	0.353125
813.000000	0.353069
814.000000	0.353034
815.000000	0.352966
816.000000	0.352918
817.000000	0.352917
818.000000	0.352892
819.000000	0.352940
820.000000	0.352979
821.000000	0.352935
822.000000	0.352927
823.000000	0.352892
824.000000	0.352812
825.000000	0.352813
826.000000	0.352742
827.000000	0.352587
828.000000	0.352446
829.000000	0.352453
830.000000	0.352413
831.000000	0.352351
832.000000	0.352223
833.000000	0.352125
834.000000	0.352053
835.000000	0.351993
836.000000	0.351766
837.000000	0.351560
838.000000	0.351444
839.000000	0.351340
840.000000	0.351269
841.000000	0.351181
842.000000	0.350992
843.000000	0.350775
844.000000	0.350692
845.000000	0.350705
846.000000	0.350652
847.000000	0.350646
848.000000	0.350569
849.000000	0.350336
850.000000	0.350085
851.000000	0.349885
852.000000	0.349754
853.000000	0.349514
854.000000	0.349268
855.000000	0.349138
856.000000	0.349010
857.000000	0.348800
858.000000	0.348674
859.000000	0.348585
860.000000	0.348391
861.000000	0.348209
862.000000	0.348039
863.000000	0.347775
864.000000	0.347606
865.000000	0.347475
866.000000	0.347350
867.000000	0.347181
868.000000	0.347035
869.000000	0.346831
870.000000	0.346574
871.000000	0.346336
872.000000	0.346140
873.000000	0.345939
874.000000	0.345821
875.000000	0.345629
876.000000	0.345389
877.000000	0.345139
878.000000	0.344937
879.000000	0.344739
880.000000	0.344397
881.000000	0.344166
882.000000	0.343925
883.000000	0.343654
884.000000	0.343300
885.000000	0.342960
886.000000	0.342682
887.000000	0.342476
888.000000	0.342187
889.000000	0.341951
890.000000	0.341708
891.000000	0.341573
892.000000	0.341379
893.000000	0.341157
894.000000	0.341031
895.000000	0.340815
896.000000	0.340468
897.000000	0.340095
898.000000	0.339834
899.000000	0.339609
900.000000	0.339361
901.000000	0.339064
902.000000	0.338873
903.000000	0.338645
904.000000	0.338454
905.000000	0.338291
906.000000	0.338184
907.000000	0.337900
908.000000	0.337537
909.000000	0.337353
910.000000	0.337221
911.000000	0.337092
912.000000	0.336931
913.000000	0.336594
914.000000	0.336207
915.000000	0.335881
916.000000	0.335517
917.000000	0.335070
918.000000	0.334743
919.000000	0.334636
920.000000	0.334605
921.000000	0.334407
922.000000	0.334061
923.000000	0.333716
924.000000	0.333526
925.000000	0.333301
926.000000	0.332987
927.000000	0.332714
928.000000	0.332535
929.000000	0.332275
930.000000	0.331793
931.000000	0.331541
932.000000	0.331407
933.000000	0.331310
934.000000	0.331113
935.000000	0.330740
936.000000	0.330405
937.000000	0.330157
938.000000	0.329822
939.000000	0.329572
940.000000	0.329361
941.000000	0.329170
942.000000	0.328758
943.000000	0.328319
944.000000	0.327951
945.000000	0.327965
946.000000	0.327758
947.000000	0.327483
948.000000	0.327371
949.000000	0.327117
950.000000	0.326933
951.000000	0.326724
952.000000	0.326253
953.000000	0.326038
954.000000	0.325850
955.000000	0.325432
956.000000	0.325126
957.000000	0.325031
958.000000	0.324958
959.000000	0.324750
960.000000	0.324452
961.000000	0.324165
962.000000	0.323904
963.000000	0.323650
964.000000	0.323415
965.000000	0.323334
966.000000	0.323284
967.000000	0.322845
968.000000	0.322616
969.000000	0.322536
970.000000	0.322383
971.000000	0.322335
972.000000	0.322074
973.000000	0.321596
974.000000	0.321512
975.000000	0.321434
976.000000	0.321285
977.000000	0.321017
978.000000	0.320441
979.000000	0.320402
980.000000	0.320388
981.000000	0.319967
982.000000	0.319870
983.000000	0.319691
984.000000	0.319391
985.000000	0.319223
986.000000	0.319400
987.000000	0.319578
988.000000	0.319412
989.000000	0.319258
990.000000	0.318953
991.000000	0.318768
992.000000	0.318964
993.000000	0.318834
994.000000	0.318545
995.000000	0.318359
996.000000	0.318164
997.000000	0.318192
998.000000	0.318115
999.000000	0.317906
1000.000000	0.317798
1001.000000	0.318186
1002.000000	0.318092
1003.000000	0.317542
1004.000000	0.317043
1005.000000	0.316069
1006.000000	0.315801
1007.000000	0.315781
1008.000000	0.315839
1009.000000	0.316815
1010.000000	0.316698
1011.000000	0.316389
1012.000000	0.317348
1013.000000	0.317074
1014.000000	0.316219
1015.000000	0.316011
1016.000000	0.315619
1017.000000	0.315600
1018.000000	0.316368
1019.000000	0.316572
1020.000000	0.316686
1021.000000	0.316593
1022.000000	0.316394
1023.000000	0.316450
1024.000000	0.316604
1025.000000	0.316772
1026.000000	0.316478
1027.000000	0.316243
1028.000000	0.316311
1029.000000	0.316125
1030.000000	0.316141
1031.000000	0.316430
1032.000000	0.316664
1033.000000	0.316945
1034.000000	0.316905
1035.000000	0.316499
1036.000000	0.316406
1037.000000	0.316280
1038.000000	0.316183
1039.000000	0.316342
1040.000000	0.316679
1041.000000	0.316778
1042.000000	0.316509
1043.000000	0.316902
1044.000000	0.317684
1045.000000	0.317996
1046.000000	0.318554
1047.000000	0.319014
1048.000000	0.319267
1049.000000	0.319188
1050.000000	0.318989
1051.000000	0.318980
1052.000000	0.318600
1053.000000	0.318604
1054.000000	0.319337
1055.000000	0.319589
1056.000000	0.319636
1057.000000	0.319774
1058.000000	0.319711
1059.000000	0.319832
1060.000000	0.320187
1061.000000	0.320362
1062.000000	0.320840
1063.000000	0.321299
1064.000000	0.321609
1065.000000	0.321943
1066.000000	0.322148
1067.000000	0.322041
1068.000000	0.322025
1069.000000	0.321828
1070.000000	0.321953
1071.000000	0.322249
1072.000000	0.322578
1073.000000	0.323483
1074.000000	0.323834
1075.000000	0.323681
1076.000000	0.323960
1077.000000	0.324059
1078.000000	0.324159
1079.000000	0.324268
1080.000000	0.324467
1081.000000	0.324767
1082.000000	0.325222
1083.000000	0.325522
1084.000000	0.326047
1085.000000	0.326369
1086.000000	0.326497
1087.000000	0.326490
1088.000000	0.326083
1089.000000	0.326055
1090.000000	0.325953
1091.000000	0.325916
1092.000000	0.326488
1093.000000	0.327152
1094.000000	0.327588
1095.000000	0.327939
1096.000000	0.328321
1097.000000	0.328758
1098.000000	0.328927
1099.000000	0.328905
1100.000000	0.329001
1101.000000	0.328638
1102.000000	0.328778
1103.000000	0.329382
1104.000000	0.329713
1105.000000	0.330169
1106.000000	0.330472
1107.000000	0.330326
1108.000000	0.330481
1109.000000	0.330787
1110.000000	0.331317
1111.000000	0.331479
1112.000000	0.331576
1113.000000	0.331862
1114.000000	0.332048
1115.000000	0.332222
1116.000000	0.332589
1117.000000	0.332893
1118.000000	0.333029
1119.000000	0.333139
1120.000000	0.333404
1121.000000	0.333534
1122.000000	0.333465
1123.000000	0.333732
1124.000000	0.333938
1125.000000	0.334173
1126.000000	0.334506
1127.000000	0.334657
1128.000000	0.334724
1129.000000	0.334761
1130.000000	0.334775
1131.000000	0.334592
1132.000000	0.334685
1133.000000	0.335038
1134.000000	0.335157
1135.000000	0.335221
1136.000000	0.335303
1137.000000	0.335291
1138.000000	0.335222
1139.000000	0.335194
1140.000000	0.335345
1141.000000	0.335305
1142.000000	0.335508
1143.000000	0.336083
1144.000000	0.336502
1145.000000	0.336691
1146.000000	0.336908
1147.000000	0.337007
1148.000000	0.336854
1149.000000	0.336844
1150.000000	0.336856
1151.000000	0.336882
1152.000000	0.336784
1153.000000	0.336872
1154.000000	0.337063
1155.000000	0.337147
1156.000000	0.337295
1157.000000	0.337409
1158.000000	0.337345
1159.000000	0.337380
1160.000000	0.337529
1161.000000	0.337559
1162.000000	0.337470
1163.000000	0.337760
1164.000000	0.337914
1165.000000	0.337828
1166.000000	0.337854
1167.000000	0.337865
1168.000000	0.337795
1169.000000	0.337662
1170.000000	0.337684
1171.000000	0.337736
1172.000000	0.337876
1173.000000	0.338172
1174.000000	0.338297
1175.000000	0.338357
1176.000000	0.338372
1177.000000	0.338295
1178.000000	0.338344
1179.000000	0.338449
1180.000000	0.338532
1181.000000	0.338803
1182.000000	0.339011
1183.000000	0.339121
1184.000000	0.339135
1185.000000	0.339193
1186.000000	0.339183
1187.000000	0.339189
1188.000000	0.339245
1189.000000	0.339225
1190.000000	0.339112
1191.000000	0.339150
1192.000000	0.339395
1193.000000	0.339630
1194.000000	0.339887
1195.000000	0.339978
1196.000000	0.339772
1197.000000	0.339793
1198.000000	0.339988
1199.000000	0.340016
1200.000000	0.340002
1201.000000	0.340021
1202.000000	0.340181
1203.000000	0.340235
1204.000000	0.340396
1205.000000	0.340745
1206.000000	0.340780
1207.000000	0.340615
1208.000000	0.340530
1209.000000	0.340454
1210.000000	0.340433
1211.000000	0.340445
1212.000000	0.340403
1213.000000	0.340424
1214.000000	0.340444
1215.000000	0.340331
1216.000000	0.340375
1217.000000	0.340523
1218.000000	0.340585
1219.000000	0.340702
1220.000000	0.340849
1221.000000	0.340886
1222.000000	0.340915
1223.000000	0.340908
1224.000000	0.340935
1225.000000	0.341071
1226.000000	0.341184
1227.000000	0.341234
1228.000000	0.341379
1229.000000	0.341393
1230.000000	0.341196
1231.000000	0.341182
1232.000000	0.341360
1233.000000	0.341523
1234.000000	0.341813
1235.000000	0.341906
1236.000000	0.341708
1237.000000	0.341776
1238.000000	0.341882
1239.000000	0.341894
1240.000000	0.341944
1241.000000	0.342050
1242.000000	0.342092
1243.000000	0.341974
1244.000000	0.341995
1245.000000	0.342255
1246.000000	0.342241
1247.000000	0.342402
1248.000000	0.342841
1249.000000	0.343026
1250.000000	0.343017
1251.000000	0.342990
1252.000000	0.343004
1253.000000	0.342824
1254.000000	0.342819
1255.000000	0.343069
1256.000000	0.343155
1257.000000	0.343137
1258.000000	0.343210
1259.000000	0.343255
1260.000000	0.343324
1261.000000	0.343304
1262.000000	0.343381
1263.000000	0.343622
1264.000000	0.343621
1265.000000	0.343661
1266.000000	0.343723
1267.000000	0.343634
1268.000000	0.343690
1269.000000	0.343760
1270.000000	0.343846
1271.000000	0.343765
1272.000000	0.343712
1273.000000	0.343792
1274.000000	0.343765
1275.000000	0.343741
1276.000000	0.343803
1277.000000	0.343854
1278.000000	0.343710
1279.000000	0.343685
1280.000000	0.343741
1281.000000	0.343654
1282.000000	0.343482
1283.000000	0.343548
1284.000000	0.343577
1285.000000	0.343647
1286.000000	0.343832
1287.000000	0.344056
1288.000000	0.344135
1289.000000	0.344180
1290.000000	0.344259
1291.000000	0.344199
1292.000000	0.344137
1293.000000	0.344229
1294.000000	0.344238
1295.000000	0.344277
1296.000000	0.344424
1297.000000	0.344378
1298.000000	0.344389
1299.000000	0.344488
1300.000000	0.344532
1301.000000	0.344587
1302.000000	0.344575
1303.000000	0.344652
1304.000000	0.344640
1305.000000	0.344660
1306.000000	0.344661
1307.000000	0.344674
1308.000000	0.344677
1309.000000	0.344663
1310.000000	0.344674
1311.000000	0.344706
1312.000000	0.344734
1313.000000	0.344740
1314.000000	0.344702
1315.000000	0.344645
1316.000000	0.344570
1317.000000	0.344497
1318.000000	0.344531
1319.000000	0.344433
1320.000000	0.344278
1321.000000	0.344116
1322.000000	0.343963
1323.000000	0.344044
1324.000000	0.344217
1325.000000	0.344140
1326.000000	0.344032
1327.000000	0.343927
1328.000000	0.343772
1329.000000	0.343654
1330.000000	0.343750
1331.000000	0.343695
1332.000000	0.343555
1333.000000	0.343490
1334.000000	0.343545
1335.000000	0.343536
1336.000000	0.343456
1337.000000	0.343422
1338.000000	0.343344
1339.000000	0.343256
1340.000000	0.343152
1341.000000	0.343197
1342.000000	0.343199
1343.000000	0.343143
1344.000000	0.343059
1345.000000	0.342835
1346.000000	0.342664
1347.000000	0.342457
1348.000000	0.342249
1349.000000	0.342044
1350.000000	0.342020
1351.000000	0.341907
1352.000000	0.341692
1353.000000	0.341637
1354.000000	0.341564
1355.000000	0.341462
1356.000000	0.341490
1357.000000	0.341378
1358.000000	0.341210
1359.000000	0.341036
1360.000000	0.340892
1361.000000	0.340870
1362.000000	0.340735
1363.000000	0.340502
1364.000000	0.340358
1365.000000	0.340124
1366.000000	0.340006
1367.000000	0.340008
1368.000000	0.339957
1369.000000	0.339932
1370.000000	0.339841
1371.000000	0.339552
1372.000000	0.339217
1373.000000	0.338910
1374.000000	0.338608
1375.000000	0.338208
1376.000000	0.337964
1377.000000	0.337705
1378.000000	0.337149
1379.000000	0.336839
1380.000000	0.336648
1381.000000	0.336097
1382.000000	0.335717
1383.000000	0.335346
1384.000000	0.334563
1385.000000	0.333906
1386.000000	0.333385
1387.000000	0.332721
1388.000000	0.332027
1389.000000	0.331336
1390.000000	0.330648
1391.000000	0.329978
1392.000000	0.329205
1393.000000	0.328294
1394.000000	0.327346
1395.000000	0.326333
1396.000000	0.325149
1397.000000	0.324000
1398.000000	0.322802
1399.000000	0.321576
1400.000000	0.320244
1401.000000	0.319016
1402.000000	0.317890
1403.000000	0.316680
1404.000000	0.315548
1405.000000	0.314427
1406.000000	0.313238
1407.000000	0.312272
1408.000000	0.311434
1409.000000	0.310582
1410.000000	0.309775
1411.000000	0.308877
1412.000000	0.307963
1413.000000	0.307117
1414.000000	0.306279
1415.000000	0.305545
1416.000000	0.304809
1417.000000	0.304162
1418.000000	0.303568
1419.000000	0.302953
1420.000000	0.302295
1421.000000	0.301647
1422.000000	0.301000
1423.000000	0.300534
1424.000000	0.300000
1425.000000	0.299423
1426.000000	0.298873
1427.000000	0.298314
1428.000000	0.297743
1429.000000	0.297246
1430.000000	0.296806
1431.000000	0.296310
1432.000000	0.295850
1433.000000	0.295502
1434.000000	0.295060
1435.000000	0.294607
1436.000000	0.294273
1437.000000	0.294006
1438.000000	0.293632
1439.000000	0.293220
1440.000000	0.292974
1441.000000	0.292693
1442.000000	0.292590
1443.000000	0.292614
1444.000000	0.292827
1445.000000	0.292841
1446.000000	0.292910
1447.000000	0.293038
1448.000000	0.293077
1449.000000	0.293179
1450.000000	0.293215
1451.000000	0.293288
1452.000000	0.293308
1453.000000	0.293280
1454.000000	0.293333
1455.000000	0.293303
1456.000000	0.293301
1457.000000	0.293434
1458.000000	0.293531
1459.000000	0.293575
1460.000000	0.293725
1461.000000	0.293847
1462.000000	0.293958
1463.000000	0.294048
1464.000000	0.294069
1465.000000	0.294126
1466.000000	0.294108
1467.000000	0.294163
1468.000000	0.294321
1469.000000	0.294518
1470.000000	0.294716
1471.000000	0.294975
1472.000000	0.295179
1473.000000	0.295370
1474.000000	0.295540
1475.000000	0.295716
1476.000000	0.295956
1477.000000	0.296241
1478.000000	0.296511
1479.000000	0.296756
1480.000000	0.297061
1481.000000	0.297412
1482.000000	0.297863
1483.000000	0.298331
1484.000000	0.298908
1485.000000	0.299367
1486.000000	0.299737
1487.000000	0.300162
1488.000000	0.300615
1489.000000	0.301051
1490.000000	0.301377
1491.000000	0.301744
1492.000000	0.302074
1493.000000	0.302393
1494.000000	0.302660
1495.000000	0.302993
1496.000000	0.303332
1497.000000	0.303639
1498.000000	0.304022
1499.000000	0.304296
1500.000000	0.304419
1501.000000	0.304565
1502.000000	0.304710
1503.000000	0.304898
1504.000000	0.305181
1505.000000	0.305484
1506.000000	0.305766
1507.000000	0.306006
1508.000000	0.306361
1509.000000	0.306716
1510.000000	0.306907
1511.000000	0.307151
1512.000000	0.307346
1513.000000	0.307469
1514.000000	0.307695
1515.000000	0.307906
1516.000000	0.308087
1517.000000	0.308223
1518.000000	0.308332
1519.000000	0.308355
1520.000000	0.308434
1521.000000	0.308457
1522.000000	0.308505
1523.000000	0.308657
1524.000000	0.308685
1525.000000	0.308919
1526.000000	0.309189
1527.000000	0.309339
1528.000000	0.309620
1529.000000	0.309776
1530.000000	0.309771
1531.000000	0.309915
1532.000000	0.310112
1533.000000	0.310237
1534.000000	0.310434
1535.000000	0.310691
1536.000000	0.310803
1537.000000	0.310975
1538.000000	0.311088
1539.000000	0.311034
1540.000000	0.311137
1541.000000	0.311284
1542.000000	0.311279
1543.000000	0.311316
1544.000000	0.311434
1545.000000	0.311442
1546.000000	0.311543
1547.000000	0.311713
1548.000000	0.311673
1549.000000	0.311611
1550.000000	0.311537
1551.000000	0.311601
1552.000000	0.311733
1553.000000	0.311733
1554.000000	0.311752
1555.000000	0.311776
1556.000000	0.311901
1557.000000	0.312049
1558.000000	0.312101
1559.000000	0.312086
1560.000000	0.312064
1561.000000	0.311939
1562.000000	0.311913
1563.000000	0.312047
1564.000000	0.312091
1565.000000	0.312076
1566.000000	0.312031
1567.000000	0.312066
1568.000000	0.312068
1569.000000	0.312130
1570.000000	0.312127
1571.000000	0.312039
1572.000000	0.312017
1573.000000	0.311990
1574.000000	0.312020
1575.000000	0.312160
1576.000000	0.312256
1577.000000	0.312356
1578.000000	0.312370
1579.000000	0.312384
1580.000000	0.312402
1581.000000	0.312447
1582.000000	0.312442
1583.000000	0.312398
1584.000000	0.312359
1585.000000	0.312406
1586.000000	0.312371
1587.000000	0.312280
1588.000000	0.312295
1589.000000	0.312282
1590.000000	0.312311
1591.000000	0.312521
1592.000000	0.312611
1593.000000	0.312673
1594.000000	0.312701
1595.000000	0.312704
1596.000000	0.312742
1597.000000	0.312800
1598.000000	0.312798
1599.000000	0.312845
1600.000000	0.312862
1601.000000	0.312873
1602.000000	0.312937
1603.000000	0.313073
1604.000000	0.313142
1605.000000	0.313245
1606.000000	0.313282
1607.000000	0.313347
1608.000000	0.313358
1609.000000	0.313335
1610.000000	0.313293
1611.000000	0.313228
1612.000000	0.313188
1613.000000	0.313247
1614.000000	0.313291
1615.000000	0.313356
1616.000000	0.313489
1617.000000	0.313671
1618.000000	0.313723
1619.000000	0.313703
1620.000000	0.313821
1621.000000	0.313958
1622.000000	0.314120
1623.000000	0.314419
1624.000000	0.314539
1625.000000	0.314329
1626.000000	0.314315
1627.000000	0.314375
1628.000000	0.314446
1629.000000	0.314580
1630.000000	0.314670
1631.000000	0.314646
1632.000000	0.314708
1633.000000	0.314875
1634.000000	0.314981
1635.000000	0.315081
1636.000000	0.315203
1637.000000	0.315303
1638.000000	0.315401
1639.000000	0.315674
1640.000000	0.315761
1641.000000	0.315769
1642.000000	0.315877
1643.000000	0.315948
1644.000000	0.316110
1645.000000	0.316409
1646.000000	0.316531
1647.000000	0.316679
1648.000000	0.316764
1649.000000	0.316793
1650.000000	0.316929
1651.000000	0.317163
1652.000000	0.317283
1653.000000	0.317304
1654.000000	0.317534
1655.000000	0.317686
1656.000000	0.317878
1657.000000	0.318387
1658.000000	0.318618
1659.000000	0.318839
1660.000000	0.319016
1661.000000	0.318969
1662.000000	0.319075
1663.000000	0.319159
1664.000000	0.319297
1665.000000	0.319553
1666.000000	0.319740
1667.000000	0.319810
1668.000000	0.319882
1669.000000	0.319897
1670.000000	0.319912
1671.000000	0.320019
1672.000000	0.320113
1673.000000	0.320155
1674.000000	0.320292
1675.000000	0.320471
1676.000000	0.320685
1677.000000	0.320790
1678.000000	0.320743
1679.000000	0.320891
1680.000000	0.320972
1681.000000	0.320993
1682.000000	0.321220
1683.000000	0.321178
1684.000000	0.321153
1685.000000	0.321385
1686.000000	0.321303
1687.000000	0.321385
1688.000000	0.321636
1689.000000	0.321638
1690.000000	0.321646
1691.000000	0.321817
1692.000000	0.321833
1693.000000	0.321833
1694.000000	0.321970
1695.000000	0.322149
1696.000000	0.322036
1697.000000	0.321976
1698.000000	0.321920
1699.000000	0.321920
1700.000000	0.322018
1701.000000	0.322174
1702.000000	0.322201
1703.000000	0.322185
1704.000000	0.322251
1705.000000	0.322288
1706.000000	0.322317
1707.000000	0.322362
1708.000000	0.322317
1709.000000	0.322353
1710.000000	0.322608
1711.000000	0.322725
1712.000000	0.322851
1713.000000	0.322997
1714.000000	0.323119
1715.000000	0.323229
1716.000000	0.323475
1717.000000	0.323519
1718.000000	0.323346
1719.000000	0.323241
1720.000000	0.323090
1721.000000	0.323048
1722.000000	0.323042
1723.000000	0.323122
1724.000000	0.323371
1725.000000	0.323511
1726.000000	0.323618
1727.000000	0.323644
1728.000000	0.323484
1729.000000	0.323391
1730.000000	0.323381
1731.000000	0.323419
1732.000000	0.323554
1733.000000	0.323656
1734.000000	0.323653
1735.000000	0.323676
1736.000000	0.323580
1737.000000	0.323693
1738.000000	0.323965
1739.000000	0.324091
1740.000000	0.324298
1741.000000	0.324279
1742.000000	0.324044
1743.000000	0.324068
1744.000000	0.324059
1745.000000	0.324183
1746.000000	0.324474
1747.000000	0.324652
1748.000000	0.324727
1749.000000	0.324747
1750.000000	0.324675
1751.000000	0.324550
1752.000000	0.324620
1753.000000	0.324661
1754.000000	0.324618
1755.000000	0.324570
1756.000000	0.324508
1757.000000	0.324272
1758.000000	0.324196
1759.000000	0.324258
1760.000000	0.324273
1761.000000	0.324221
1762.000000	0.324277
1763.000000	0.324519
1764.000000	0.324533
1765.000000	0.324391
1766.000000	0.324426
1767.000000	0.324235
1768.000000	0.324249
1769.000000	0.324696
1770.000000	0.324925
1771.000000	0.325024
1772.000000	0.325189
1773.000000	0.325321
1774.000000	0.325408
1775.000000	0.325540
1776.000000	0.325667
1777.000000	0.325687
1778.000000	0.325763
1779.000000	0.325898
1780.000000	0.326001
1781.000000	0.326065
1782.000000	0.326064
1783.000000	0.326060
1784.000000	0.326132
1785.000000	0.326098
1786.000000	0.326181
1787.000000	0.326417
1788.000000	0.326592
1789.000000	0.326738
1790.000000	0.326885
1791.000000	0.326928
1792.000000	0.326997
1793.000000	0.326982
1794.000000	0.326860
1795.000000	0.326835
1796.000000	0.326676
1797.000000	0.326673
1798.000000	0.326946
1799.000000	0.326963
1800.000000	0.326853
1801.000000	0.327234
1802.000000	0.327174
1803.000000	0.326355
1804.000000	0.326538
1805.000000	0.327091
1806.000000	0.327647
1807.000000	0.329406
1808.000000	0.329803
1809.000000	0.329501
1810.000000	0.329238
1811.000000	0.328661
1812.000000	0.327032
1813.000000	0.326306
1814.000000	0.325846
1815.000000	0.325671
1816.000000	0.325480
1817.000000	0.325623
1818.000000	0.326329
1819.000000	0.327287
1820.000000	0.327586
1821.000000	0.328350
1822.000000	0.328607
1823.000000	0.328274
1824.000000	0.327956
1825.000000	0.327304
1826.000000	0.327193
1827.000000	0.327011
1828.000000	0.326947
1829.000000	0.327059
1830.000000	0.327301
1831.000000	0.327324
1832.000000	0.327030
1833.000000	0.326853
1834.000000	0.326592
1835.000000	0.326502
1836.000000	0.326606
1837.000000	0.326571
1838.000000	0.326345
1839.000000	0.326490
1840.000000	0.326334
1841.000000	0.324844
1842.000000	0.324676
1843.000000	0.325093
1844.000000	0.325084
1845.000000	0.325690
1846.000000	0.325845
1847.000000	0.325823
1848.000000	0.324650
1849.000000	0.323340
1850.000000	0.322111
1851.000000	0.321419
1852.000000	0.320494
1853.000000	0.320113
1854.000000	0.320305
1855.000000	0.320235
1856.000000	0.319865
1857.000000	0.320114
1858.000000	0.320618
1859.000000	0.320583
1860.000000	0.319727
1861.000000	0.318850
1862.000000	0.317576
1863.000000	0.315226
1864.000000	0.313903
1865.000000	0.312951
1866.000000	0.311820
1867.000000	0.310844
1868.000000	0.309962
1869.000000	0.308830
1870.000000	0.307396
1871.000000	0.306324
1872.000000	0.306111
1873.000000	0.305166
1874.000000	0.304424
1875.000000	0.302951
1876.000000	0.300791
1877.000000	0.297944
1878.000000	0.294884
1879.000000	0.292188
1880.000000	0.290104
1881.000000	0.287027
1882.000000	0.283991
1883.000000	0.281391
1884.000000	0.278536
1885.000000	0.275288
1886.000000	0.272132
1887.000000	0.269071
1888.000000	0.265601
1889.000000	0.261886
1890.000000	0.257804
1891.000000	0.254487
1892.000000	0.250486
1893.000000	0.246262
1894.000000	0.242498
1895.000000	0.237966
1896.000000	0.232587
1897.000000	0.227938
1898.000000	0.224091
1899.000000	0.220472
1900.000000	0.218098
1901.000000	0.216122
1902.000000	0.213352
1903.000000	0.210833
1904.000000	0.209384
1905.000000	0.207426
1906.000000	0.205338
1907.000000	0.203461
1908.000000	0.201956
1909.000000	0.199422
1910.000000	0.197491
1911.000000	0.196705
1912.000000	0.195849
1913.000000	0.195745
1914.000000	0.195622
1915.000000	0.195370
1916.000000	0.195781
1917.000000	0.195385
1918.000000	0.194589
1919.000000	0.193878
1920.000000	0.192924
1921.000000	0.191260
1922.000000	0.190514
1923.000000	0.190334
1924.000000	0.190058
1925.000000	0.189952
1926.000000	0.190245
1927.000000	0.190312
1928.000000	0.190259
1929.000000	0.190248
1930.000000	0.190520
1931.000000	0.190577
1932.000000	0.191359
1933.000000	0.192383
1934.000000	0.192977
1935.000000	0.193682
1936.000000	0.193813
1937.000000	0.193973
1938.000000	0.194586
1939.000000	0.194646
1940.000000	0.194336
1941.000000	0.194078
1942.000000	0.194233
1943.000000	0.193859
1944.000000	0.193978
1945.000000	0.194358
1946.000000	0.194111
1947.000000	0.194261
1948.000000	0.194629
1949.000000	0.194810
1950.000000	0.194544
1951.000000	0.194031
1952.000000	0.193147
1953.000000	0.192190
1954.000000	0.191506
1955.000000	0.191393
1956.000000	0.191603
1957.000000	0.191981
1958.000000	0.191815
1959.000000	0.191522
1960.000000	0.191145
1961.000000	0.190423
1962.000000	0.190022
1963.000000	0.189836
1964.000000	0.189665
1965.000000	0.189412
1966.000000	0.190079
1967.000000	0.190906
1968.000000	0.191178
1969.000000	0.191687
1970.000000	0.191460
1971.000000	0.190840
1972.000000	0.190815
1973.000000	0.190768
1974.000000	0.190917
1975.000000	0.191354
1976.000000	0.192237
1977.000000	0.192566
1978.000000	0.193118
1979.000000	0.193317
1980.000000	0.192968
1981.000000	0.193175
1982.000000	0.193217
1983.000000	0.193398
1984.000000	0.193556
1985.000000	0.193604
1986.000000	0.193798
1987.000000	0.194134
1988.000000	0.194557
1989.000000	0.195127
1990.000000	0.195945
1991.000000	0.196789
1992.000000	0.197544
1993.000000	0.198301
1994.000000	0.199782
1995.000000	0.200943
1996.000000	0.202086
1997.000000	0.203030
1998.000000	0.203742
1999.000000	0.204349
2000.000000	0.204780
2001.000000	0.205190
2002.000000	0.205907
2003.000000	0.206715
2004.000000	0.207426
2005.000000	0.208127
2006.000000	0.208517
2007.000000	0.208801
2008.000000	0.209373
2009.000000	0.209853
2010.000000	0.210883
2011.000000	0.212597
2012.000000	0.213644
2013.000000	0.214707
2014.000000	0.215489
2015.000000	0.215957
2016.000000	0.216204
2017.000000	0.216625
2018.000000	0.217567
2019.000000	0.218784
2020.000000	0.219880
2021.000000	0.220837
2022.000000	0.222006
2023.000000	0.222792
2024.000000	0.222988
2025.000000	0.223781
2026.000000	0.224863
2027.000000	0.225501
2028.000000	0.226051
2029.000000	0.226620
2030.000000	0.226786
2031.000000	0.227205
2032.000000	0.227809
2033.000000	0.228520
2034.000000	0.229441
2035.000000	0.230854
2036.000000	0.231377
2037.000000	0.231894
2038.000000	0.232357
2039.000000	0.231968
2040.000000	0.232393
2041.000000	0.233742
2042.000000	0.234933
2043.000000	0.236632
2044.000000	0.238135
2045.000000	0.238836
2046.000000	0.239589
2047.000000	0.240320
2048.000000	0.240703
2049.000000	0.241228
2050.000000	0.241634
2051.000000	0.241896
2052.000000	0.241568
2053.000000	0.241839
2054.000000	0.242511
2055.000000	0.243305
2056.000000	0.244609
2057.000000	0.245915
2058.000000	0.246846
2059.000000	0.247453
2060.000000	0.247775
2061.000000	0.247361
2062.000000	0.247620
2063.000000	0.248072
2064.000000	0.248441
2065.000000	0.249303
2066.000000	0.249826
2067.000000	0.250467
2068.000000	0.250799
2069.000000	0.250846
2070.000000	0.251387
2071.000000	0.251676
2072.000000	0.251724
2073.000000	0.252288
2074.000000	0.252933
2075.000000	0.253528
2076.000000	0.253946
2077.000000	0.254724
2078.000000	0.255812
2079.000000	0.256724
2080.000000	0.258233
2081.000000	0.259045
2082.000000	0.259516
2083.000000	0.259524
2084.000000	0.259704
2085.000000	0.260071
2086.000000	0.260963
2087.000000	0.261596
2088.000000	0.261928
2089.000000	0.262369
2090.000000	0.262600
2091.000000	0.262588
2092.000000	0.262929
2093.000000	0.263350
2094.000000	0.263703
2095.000000	0.264332
2096.000000	0.264651
2097.000000	0.264971
2098.000000	0.264610
2099.000000	0.264119
2100.000000	0.264195
2101.000000	0.264364
2102.000000	0.265297
2103.000000	0.266383
2104.000000	0.267175
2105.000000	0.267988
2106.000000	0.268671
2107.000000	0.269400
2108.000000	0.270108
2109.000000	0.270941
2110.000000	0.271779
2111.000000	0.272219
2112.000000	0.272558
2113.000000	0.272548
2114.000000	0.272211
2115.000000	0.272130
2116.000000	0.272199
2117.000000	0.272354
2118.000000	0.272663
2119.000000	0.272875
2120.000000	0.273085
2121.000000	0.273270
2122.000000	0.273456
2123.000000	0.273552
2124.000000	0.273922
2125.000000	0.274362
2126.000000	0.274961
2127.000000	0.276145
2128.000000	0.276729
2129.000000	0.277067
2130.000000	0.277194
2131.000000	0.277417
2132.000000	0.277165
2133.000000	0.277196
2134.000000	0.277573
2135.000000	0.277040
2136.000000	0.276362
2137.000000	0.276032
2138.000000	0.275411
2139.000000	0.275504
2140.000000	0.276248
2141.000000	0.276939
2142.000000	0.278007
2143.000000	0.278649
2144.000000	0.279995
2145.000000	0.280395
2146.000000	0.280023
2147.000000	0.280166
2148.000000	0.280075
2149.000000	0.279051
2150.000000	0.279113
2151.000000	0.280052
2152.000000	0.280982
2153.000000	0.282279
2154.000000	0.282589
2155.000000	0.282493
2156.000000	0.282179
2157.000000	0.281094
2158.000000	0.280337
2159.000000	0.279402
2160.000000	0.279055
2161.000000	0.278514
2162.000000	0.278681
2163.000000	0.280053
2164.000000	0.280605
2165.000000	0.281058
2166.000000	0.281764
2167.000000	0.281398
2168.000000	0.281418
2169.000000	0.280957
2170.000000	0.280626
2171.000000	0.280465
2172.000000	0.280089
2173.000000	0.279907
2174.000000	0.279848
2175.000000	0.280143
2176.000000	0.281058
2177.000000	0.281468
2178.000000	0.282539
2179.000000	0.282516
2180.000000	0.280671
2181.000000	0.280295
2182.000000	0.279233
2183.000000	0.279364
2184.000000	0.279906
2185.000000	0.281330
2186.000000	0.282280
2187.000000	0.282510
2188.000000	0.283949
2189.000000	0.284372
2190.000000	0.284937
2191.000000	0.285881
2192.000000	0.285925
2193.000000	0.285127
2194.000000	0.284712
2195.000000	0.283828
2196.000000	0.283230
2197.000000	0.281877
2198.000000	0.281835
2199.000000	0.283515
2200.000000	0.284168
2201.000000	0.286085
2202.000000	0.286464
2203.000000	0.285627
2204.000000	0.282589
2205.000000	0.280506
2206.000000	0.278654
2207.000000	0.275131
2208.000000	0.275183
2209.000000	0.275349
2210.000000	0.276034
2211.000000	0.281192
2212.000000	0.285291
2213.000000	0.286213
2214.000000	0.285417
2215.000000	0.285100
2216.000000	0.281275
2217.000000	0.280291
2218.000000	0.281639
2219.000000	0.281780
2220.000000	0.281697
2221.000000	0.281702
2222.000000	0.282051
2223.000000	0.282053
2224.000000	0.282212
2225.000000	0.281124
2226.000000	0.280106
2227.000000	0.279041
2228.000000	0.279443
2229.000000	0.280109
2230.000000	0.280415
2231.000000	0.281227
2232.000000	0.282185
2233.000000	0.283331
2234.000000	0.283883
2235.000000	0.284594
2236.000000	0.283692
2237.000000	0.279912
2238.000000	0.278207
2239.000000	0.276277
2240.000000	0.275925
2241.000000	0.277462
2242.000000	0.277402
2243.000000	0.278210
2244.000000	0.277115
2245.000000	0.273244
2246.000000	0.272411
2247.000000	0.271413
2248.000000	0.271867
2249.000000	0.275628
2250.000000	0.277066
2251.000000	0.278150
2252.000000	0.277544
2253.000000	0.274884
2254.000000	0.274320
2255.000000	0.272036
2256.000000	0.272174
2257.000000	0.274297
2258.000000	0.274361
2259.000000	0.277267
2260.000000	0.279327
2261.000000	0.280265
2262.000000	0.281067
2263.000000	0.279787
2264.000000	0.276368
2265.000000	0.275098
2266.000000	0.273430
2267.000000	0.272768
2268.000000	0.273345
2269.000000	0.272871
2270.000000	0.272160
2271.000000	0.270582
2272.000000	0.267546
2273.000000	0.266848
2274.000000	0.267194
2275.000000	0.267424
2276.000000	0.269177
2277.000000	0.270499
2278.000000	0.269803
2279.000000	0.267440
2280.000000	0.266704
2281.000000	0.266582
2282.000000	0.264394
2283.000000	0.262980
2284.000000	0.260137
2285.000000	0.255747
2286.000000	0.254777
2287.000000	0.254646
2288.000000	0.253377
2289.000000	0.252834
2290.000000	0.252446
2291.000000	0.251755
2292.000000	0.251797
2293.000000	0.251951
2294.000000	0.250842
2295.000000	0.247639
2296.000000	0.245972
2297.000000	0.243559
2298.000000	0.243370
2299.000000	0.246286
2300.000000	0.247306
2301.000000	0.248855
2302.000000	0.248792
2303.000000	0.245689
2304.000000	0.244699
2305.000000	0.244835
2306.000000	0.244797
2307.000000	0.245329
2308.000000	0.245667
2309.000000	0.247033
2310.000000	0.247535
2311.000000	0.249311
2312.000000	0.250817
2313.000000	0.249920
2314.000000	0.247426
2315.000000	0.244529
2316.000000	0.242961
2317.000000	0.241572
2318.000000	0.242680
2319.000000	0.247084
2320.000000	0.250357
2321.000000	0.253644
2322.000000	0.256876
2323.000000	0.256008
2324.000000	0.254315
2325.000000	0.252378
2326.000000	0.248486
2327.000000	0.245113
2328.000000	0.241122
2329.000000	0.239016
2330.000000	0.237123
2331.000000	0.233858
2332.000000	0.233778
2333.000000	0.233608
2334.000000	0.235208
2335.000000	0.238183
2336.000000	0.244637
2337.000000	0.246858
2338.000000	0.249019
2339.000000	0.248020
2340.000000	0.241854
2341.000000	0.239295
2342.000000	0.235680
2343.000000	0.234924
2344.000000	0.238892
2345.000000	0.239328
2346.000000	0.239774
2347.000000	0.239077
2348.000000	0.236492
2349.000000	0.232706
2350.000000	0.231503
2351.000000	0.230405
2352.000000	0.227909
2353.000000	0.228710
2354.000000	0.228103
2355.000000	0.225492
2356.000000	0.224687
2357.000000	0.222115
2358.000000	0.221699
2359.000000	0.222214
2360.000000	0.220438
2361.000000	0.218432
2362.000000	0.212239
2363.000000	0.207177
2364.000000	0.202747
2365.000000	0.200036
2366.000000	0.201881
2367.000000	0.204456
2368.000000	0.211598
2369.000000	0.216957
2370.000000	0.218611
2371.000000	0.218188
2372.000000	0.215079
2373.000000	0.216018
2374.000000	0.216125
2375.000000	0.212502
2376.000000	0.207652
2377.000000	0.203695
2378.000000	0.202452
2379.000000	0.204827
2380.000000	0.210209
2381.000000	0.210959
2382.000000	0.208643
2383.000000	0.206138
2384.000000	0.202241
2385.000000	0.201094
2386.000000	0.199250
2387.000000	0.194930
2388.000000	0.190881
2389.000000	0.186747
2390.000000	0.185406
2391.000000	0.181186
2392.000000	0.175995
2393.000000	0.173291
2394.000000	0.172620
2395.000000	0.176948
2396.000000	0.181760
2397.000000	0.190828
2398.000000	0.200378
2399.000000	0.204598
2400.000000	0.206429
2401.000000	0.203099
2402.000000	0.194207
2403.000000	0.188408
2404.000000	0.188810
2405.000000	0.190345
2406.000000	0.188035
2407.000000	0.179627
2408.000000	0.175944
2409.000000	0.177262
2410.000000	0.180418
2411.000000	0.193180
2412.000000	0.201013
2413.000000	0.195123
2414.000000	0.194565
2415.000000	0.194820
2416.000000	0.193328
2417.000000	0.198150
2418.000000	0.194943
2419.000000	0.187811
2420.000000	0.183653
2421.000000	0.173824
2422.000000	0.171518
2423.000000	0.171109
2424.000000	0.162723
2425.000000	0.172186
2426.000000	0.184976
2427.000000	0.191682
2428.000000	0.201191
2429.000000	0.198711
2430.000000	0.193229
2431.000000	0.191131
2432.000000	0.192411
2433.000000	0.191112
2434.000000	0.182748
2435.000000	0.177727
2436.000000	0.175481
2437.000000	0.168868
2438.000000	0.170183
2439.000000	0.170073
2440.000000	0.166065
2441.000000	0.180660
2442.000000	0.185900
2443.000000	0.184804
2444.000000	0.193242
2445.000000	0.190981
2446.000000	0.201104
2447.000000	0.211666
2448.000000	0.208222
2449.000000	0.205671
2450.000000	0.188096
2451.000000	0.185094
2452.000000	0.187768
2453.000000	0.165101
2454.000000	0.168371
2455.000000	0.175917
2456.000000	0.172598
2457.000000	0.191665
2458.000000	0.197899
2459.000000	0.197834
2460.000000	0.214443
2461.000000	0.224665
2462.000000	0.232612
2463.000000	0.233345
2464.000000	0.211422
2465.000000	0.181622
2466.000000	0.163304
2467.000000	0.151605
2468.000000	0.149108
2469.000000	0.169235
2470.000000	0.179318
2471.000000	0.170707
2472.000000	0.165433
2473.000000	0.158563
2474.000000	0.157849
2475.000000	0.178793
2476.000000	0.187928
2477.000000	0.173289
2478.000000	0.167669
2479.000000	0.147956
2480.000000	0.142467
2481.000000	0.195718
2482.000000	0.243808
2483.000000	0.244260
2484.000000	0.239136
2485.000000	0.193190
2486.000000	0.109423
2487.000000	0.118787
2488.000000	0.143683
2489.000000	0.142231
2490.000000	0.207764
2491.000000	0.204678
2492.000000	0.204534
2493.000000	0.221887
2494.000000	0.212420
2495.000000	0.190295
2496.000000	0.164735
2497.000000	0.095669
2498.000000	0.066726
2499.000000	0.050349
2500.000000	0.049373
