# Wavelength	Nau-1_80_FV7_20_00001.asd.rts.txt
350.000000	0.118628
351.000000	0.095838
352.000000	0.108554
353.000000	0.113448
354.000000	0.094905
355.000000	0.089464
356.000000	0.094836
357.000000	0.101028
358.000000	0.089746
359.000000	0.094600
360.000000	0.103865
361.000000	0.098856
362.000000	0.092624
363.000000	0.091434
364.000000	0.096872
365.000000	0.105981
366.000000	0.100248
367.000000	0.085693
368.000000	0.090858
369.000000	0.097788
370.000000	0.100588
371.000000	0.097826
372.000000	0.096610
373.000000	0.096649
374.000000	0.097342
375.000000	0.098977
376.000000	0.102122
377.000000	0.105831
378.000000	0.107837
379.000000	0.105488
380.000000	0.101866
381.000000	0.101881
382.000000	0.103975
383.000000	0.104381
384.000000	0.102104
385.000000	0.103545
386.000000	0.105520
387.000000	0.107333
388.000000	0.110829
389.000000	0.113355
390.000000	0.114951
391.000000	0.116436
392.000000	0.117644
393.000000	0.118686
394.000000	0.119919
395.000000	0.122621
396.000000	0.125057
397.000000	0.126445
398.000000	0.126989
399.000000	0.128845
400.000000	0.130828
401.000000	0.130450
402.000000	0.131837
403.000000	0.134309
404.000000	0.136557
405.000000	0.137993
406.000000	0.139490
407.000000	0.141195
408.000000	0.141610
409.000000	0.143532
410.000000	0.146370
411.000000	0.147607
412.000000	0.148952
413.000000	0.150284
414.000000	0.151239
415.000000	0.152343
416.000000	0.152672
417.000000	0.152293
418.000000	0.153779
419.000000	0.154982
420.000000	0.155268
421.000000	0.155122
422.000000	0.155079
423.000000	0.155216
424.000000	0.155479
425.000000	0.155847
426.000000	0.156147
427.000000	0.156141
428.000000	0.155293
429.000000	0.155050
430.000000	0.155560
431.000000	0.155206
432.000000	0.155227
433.000000	0.155489
434.000000	0.155382
435.000000	0.155497
436.000000	0.155369
437.000000	0.154612
438.000000	0.154191
439.000000	0.153610
440.000000	0.152790
441.000000	0.152391
442.000000	0.152039
443.000000	0.151522
444.000000	0.150801
445.000000	0.150750
446.000000	0.151133
447.000000	0.151394
448.000000	0.152247
449.000000	0.153238
450.000000	0.154213
451.000000	0.156122
452.000000	0.158584
453.000000	0.161272
454.000000	0.163996
455.000000	0.167175
456.000000	0.170535
457.000000	0.173449
458.000000	0.176434
459.000000	0.179454
460.000000	0.182376
461.000000	0.184846
462.000000	0.187170
463.000000	0.189372
464.000000	0.191323
465.000000	0.193174
466.000000	0.194752
467.000000	0.195783
468.000000	0.197258
469.000000	0.198737
470.000000	0.199664
471.000000	0.200447
472.000000	0.201188
473.000000	0.202004
474.000000	0.203127
475.000000	0.204014
476.000000	0.204632
477.000000	0.205198
478.000000	0.205702
479.000000	0.206286
480.000000	0.206873
481.000000	0.207760
482.000000	0.208563
483.000000	0.208894
484.000000	0.209861
485.000000	0.210770
486.000000	0.211408
487.000000	0.211996
488.000000	0.212668
489.000000	0.213386
490.000000	0.213956
491.000000	0.214742
492.000000	0.215623
493.000000	0.216294
494.000000	0.217211
495.000000	0.217960
496.000000	0.218351
497.000000	0.219232
498.000000	0.220069
499.000000	0.220818
500.000000	0.221881
501.000000	0.222730
502.000000	0.223473
503.000000	0.224401
504.000000	0.225168
505.000000	0.225956
506.000000	0.226961
507.000000	0.227936
508.000000	0.228842
509.000000	0.229702
510.000000	0.230770
511.000000	0.231844
512.000000	0.232862
513.000000	0.233809
514.000000	0.234884
515.000000	0.236012
516.000000	0.236995
517.000000	0.238041
518.000000	0.239161
519.000000	0.240252
520.000000	0.241297
521.000000	0.242386
522.000000	0.243575
523.000000	0.244872
524.000000	0.246196
525.000000	0.247443
526.000000	0.248542
527.000000	0.249862
528.000000	0.251229
529.000000	0.252463
530.000000	0.253835
531.000000	0.255241
532.000000	0.256554
533.000000	0.257993
534.000000	0.259401
535.000000	0.260773
536.000000	0.262315
537.000000	0.263747
538.000000	0.265132
539.000000	0.266640
540.000000	0.268146
541.000000	0.269592
542.000000	0.270998
543.000000	0.272472
544.000000	0.274006
545.000000	0.275502
546.000000	0.276937
547.000000	0.278422
548.000000	0.279945
549.000000	0.281315
550.000000	0.282760
551.000000	0.284276
552.000000	0.285737
553.000000	0.287190
554.000000	0.288604
555.000000	0.289985
556.000000	0.291471
557.000000	0.292791
558.000000	0.294040
559.000000	0.295407
560.000000	0.296677
561.000000	0.297907
562.000000	0.299118
563.000000	0.300274
564.000000	0.301423
565.000000	0.302506
566.000000	0.303601
567.000000	0.304633
568.000000	0.305559
569.000000	0.306514
570.000000	0.307440
571.000000	0.308314
572.000000	0.309160
573.000000	0.310000
574.000000	0.310802
575.000000	0.311583
576.000000	0.312338
577.000000	0.313029
578.000000	0.313684
579.000000	0.314242
580.000000	0.314777
581.000000	0.315309
582.000000	0.315766
583.000000	0.316245
584.000000	0.316723
585.000000	0.317114
586.000000	0.317456
587.000000	0.317771
588.000000	0.318079
589.000000	0.318380
590.000000	0.318685
591.000000	0.318967
592.000000	0.319075
593.000000	0.319277
594.000000	0.319581
595.000000	0.319739
596.000000	0.319823
597.000000	0.319940
598.000000	0.320101
599.000000	0.320148
600.000000	0.320210
601.000000	0.320325
602.000000	0.320461
603.000000	0.320563
604.000000	0.320611
605.000000	0.320585
606.000000	0.320621
607.000000	0.320669
608.000000	0.320553
609.000000	0.320516
610.000000	0.320510
611.000000	0.320440
612.000000	0.320429
613.000000	0.320416
614.000000	0.320394
615.000000	0.320388
616.000000	0.320339
617.000000	0.320266
618.000000	0.320388
619.000000	0.320489
620.000000	0.320465
621.000000	0.320345
622.000000	0.320330
623.000000	0.320348
624.000000	0.320325
625.000000	0.320385
626.000000	0.320462
627.000000	0.320525
628.000000	0.320594
629.000000	0.320718
630.000000	0.320754
631.000000	0.320766
632.000000	0.320796
633.000000	0.320858
634.000000	0.320935
635.000000	0.320996
636.000000	0.321044
637.000000	0.321093
638.000000	0.321255
639.000000	0.321362
640.000000	0.321473
641.000000	0.321666
642.000000	0.321756
643.000000	0.321798
644.000000	0.321912
645.000000	0.321984
646.000000	0.322120
647.000000	0.322335
648.000000	0.322407
649.000000	0.322556
650.000000	0.322806
651.000000	0.323000
652.000000	0.323111
653.000000	0.323270
654.000000	0.323583
655.000000	0.323855
656.000000	0.324148
657.000000	0.324463
658.000000	0.324698
659.000000	0.324924
660.000000	0.325173
661.000000	0.325457
662.000000	0.325710
663.000000	0.325979
664.000000	0.326268
665.000000	0.326591
666.000000	0.326905
667.000000	0.327155
668.000000	0.327529
669.000000	0.327903
670.000000	0.328212
671.000000	0.328527
672.000000	0.328947
673.000000	0.329419
674.000000	0.329778
675.000000	0.330099
676.000000	0.330455
677.000000	0.330917
678.000000	0.331323
679.000000	0.331721
680.000000	0.332167
681.000000	0.332635
682.000000	0.333140
683.000000	0.333615
684.000000	0.334158
685.000000	0.334710
686.000000	0.335273
687.000000	0.335801
688.000000	0.336245
689.000000	0.336671
690.000000	0.337171
691.000000	0.337727
692.000000	0.338201
693.000000	0.338674
694.000000	0.339289
695.000000	0.339901
696.000000	0.340514
697.000000	0.341179
698.000000	0.341834
699.000000	0.342467
700.000000	0.343085
701.000000	0.343667
702.000000	0.344291
703.000000	0.344928
704.000000	0.345457
705.000000	0.346106
706.000000	0.346798
707.000000	0.347430
708.000000	0.347990
709.000000	0.348559
710.000000	0.349214
711.000000	0.349838
712.000000	0.350466
713.000000	0.351134
714.000000	0.351808
715.000000	0.352432
716.000000	0.353061
717.000000	0.353763
718.000000	0.354404
719.000000	0.354994
720.000000	0.355586
721.000000	0.356202
722.000000	0.356758
723.000000	0.357321
724.000000	0.357956
725.000000	0.358515
726.000000	0.359116
727.000000	0.359776
728.000000	0.360369
729.000000	0.360963
730.000000	0.361561
731.000000	0.362131
732.000000	0.362693
733.000000	0.363276
734.000000	0.363787
735.000000	0.364291
736.000000	0.364865
737.000000	0.365305
738.000000	0.365782
739.000000	0.366343
740.000000	0.366804
741.000000	0.367284
742.000000	0.367769
743.000000	0.368213
744.000000	0.368652
745.000000	0.368966
746.000000	0.369280
747.000000	0.369655
748.000000	0.369969
749.000000	0.370259
750.000000	0.370529
751.000000	0.370845
752.000000	0.371091
753.000000	0.371295
754.000000	0.371576
755.000000	0.371852
756.000000	0.372099
757.000000	0.372262
758.000000	0.372396
759.000000	0.372547
760.000000	0.372660
761.000000	0.372822
762.000000	0.372974
763.000000	0.373088
764.000000	0.373247
765.000000	0.373328
766.000000	0.373356
767.000000	0.373373
768.000000	0.373390
769.000000	0.373365
770.000000	0.373302
771.000000	0.373258
772.000000	0.373198
773.000000	0.373067
774.000000	0.372964
775.000000	0.372767
776.000000	0.372596
777.000000	0.372514
778.000000	0.372415
779.000000	0.372357
780.000000	0.372293
781.000000	0.372043
782.000000	0.371788
783.000000	0.371649
784.000000	0.371487
785.000000	0.371300
786.000000	0.371059
787.000000	0.370769
788.000000	0.370524
789.000000	0.370231
790.000000	0.369891
791.000000	0.369596
792.000000	0.369283
793.000000	0.368916
794.000000	0.368512
795.000000	0.368220
796.000000	0.367916
797.000000	0.367558
798.000000	0.367206
799.000000	0.366835
800.000000	0.366451
801.000000	0.366073
802.000000	0.365748
803.000000	0.365374
804.000000	0.364960
805.000000	0.364598
806.000000	0.364150
807.000000	0.363732
808.000000	0.363382
809.000000	0.362987
810.000000	0.362546
811.000000	0.362078
812.000000	0.361689
813.000000	0.361304
814.000000	0.360899
815.000000	0.360519
816.000000	0.359934
817.000000	0.359306
818.000000	0.358757
819.000000	0.358316
820.000000	0.357951
821.000000	0.357571
822.000000	0.357177
823.000000	0.356777
824.000000	0.356261
825.000000	0.355667
826.000000	0.355213
827.000000	0.354775
828.000000	0.354315
829.000000	0.353877
830.000000	0.353385
831.000000	0.352886
832.000000	0.352307
833.000000	0.351807
834.000000	0.351390
835.000000	0.351040
836.000000	0.350610
837.000000	0.350111
838.000000	0.349590
839.000000	0.349069
840.000000	0.348518
841.000000	0.347997
842.000000	0.347508
843.000000	0.346987
844.000000	0.346543
845.000000	0.346170
846.000000	0.345817
847.000000	0.345513
848.000000	0.345147
849.000000	0.344667
850.000000	0.344237
851.000000	0.343819
852.000000	0.343426
853.000000	0.343033
854.000000	0.342540
855.000000	0.342150
856.000000	0.341893
857.000000	0.341522
858.000000	0.341128
859.000000	0.340715
860.000000	0.340396
861.000000	0.339978
862.000000	0.339543
863.000000	0.339166
864.000000	0.338728
865.000000	0.338315
866.000000	0.337981
867.000000	0.337608
868.000000	0.337260
869.000000	0.336895
870.000000	0.336548
871.000000	0.336057
872.000000	0.335619
873.000000	0.335282
874.000000	0.334988
875.000000	0.334684
876.000000	0.334326
877.000000	0.333840
878.000000	0.333511
879.000000	0.333283
880.000000	0.332968
881.000000	0.332767
882.000000	0.332507
883.000000	0.332191
884.000000	0.331825
885.000000	0.331491
886.000000	0.331219
887.000000	0.331013
888.000000	0.330737
889.000000	0.330498
890.000000	0.330185
891.000000	0.329870
892.000000	0.329566
893.000000	0.329221
894.000000	0.328989
895.000000	0.328942
896.000000	0.328844
897.000000	0.328678
898.000000	0.328487
899.000000	0.328146
900.000000	0.327790
901.000000	0.327494
902.000000	0.327373
903.000000	0.327253
904.000000	0.327155
905.000000	0.327034
906.000000	0.326992
907.000000	0.326841
908.000000	0.326615
909.000000	0.326409
910.000000	0.326272
911.000000	0.326111
912.000000	0.325854
913.000000	0.325547
914.000000	0.325222
915.000000	0.325069
916.000000	0.325175
917.000000	0.324975
918.000000	0.324757
919.000000	0.324717
920.000000	0.324475
921.000000	0.324333
922.000000	0.324290
923.000000	0.324169
924.000000	0.324015
925.000000	0.323817
926.000000	0.323642
927.000000	0.323580
928.000000	0.323391
929.000000	0.323173
930.000000	0.323097
931.000000	0.323029
932.000000	0.322957
933.000000	0.322902
934.000000	0.322804
935.000000	0.322757
936.000000	0.322779
937.000000	0.322744
938.000000	0.322640
939.000000	0.322489
940.000000	0.322332
941.000000	0.322377
942.000000	0.322405
943.000000	0.322466
944.000000	0.322452
945.000000	0.322378
946.000000	0.322254
947.000000	0.322286
948.000000	0.322528
949.000000	0.322455
950.000000	0.322382
951.000000	0.322380
952.000000	0.322381
953.000000	0.322337
954.000000	0.322305
955.000000	0.322272
956.000000	0.322299
957.000000	0.322548
958.000000	0.322657
959.000000	0.322336
960.000000	0.322272
961.000000	0.322294
962.000000	0.322300
963.000000	0.322419
964.000000	0.322586
965.000000	0.322739
966.000000	0.322732
967.000000	0.322713
968.000000	0.322841
969.000000	0.322959
970.000000	0.322946
971.000000	0.323082
972.000000	0.323227
973.000000	0.323229
974.000000	0.323182
975.000000	0.323247
976.000000	0.323288
977.000000	0.323208
978.000000	0.323238
979.000000	0.323453
980.000000	0.323525
981.000000	0.323545
982.000000	0.323706
983.000000	0.324024
984.000000	0.324418
985.000000	0.324575
986.000000	0.324622
987.000000	0.324706
988.000000	0.324847
989.000000	0.325267
990.000000	0.325433
991.000000	0.325381
992.000000	0.325444
993.000000	0.325953
994.000000	0.326179
995.000000	0.326234
996.000000	0.326427
997.000000	0.326818
998.000000	0.327073
999.000000	0.327256
1000.000000	0.327794
1001.000000	0.327149
1002.000000	0.327247
1003.000000	0.327727
1004.000000	0.327792
1005.000000	0.327184
1006.000000	0.327362
1007.000000	0.327874
1008.000000	0.328413
1009.000000	0.329218
1010.000000	0.330003
1011.000000	0.330008
1012.000000	0.329652
1013.000000	0.329441
1014.000000	0.329438
1015.000000	0.329990
1016.000000	0.330680
1017.000000	0.330777
1018.000000	0.330847
1019.000000	0.330904
1020.000000	0.330615
1021.000000	0.330648
1022.000000	0.331200
1023.000000	0.331892
1024.000000	0.332830
1025.000000	0.333658
1026.000000	0.334006
1027.000000	0.333690
1028.000000	0.333377
1029.000000	0.333862
1030.000000	0.334763
1031.000000	0.335648
1032.000000	0.336752
1033.000000	0.337457
1034.000000	0.337874
1035.000000	0.337933
1036.000000	0.338199
1037.000000	0.338029
1038.000000	0.338113
1039.000000	0.338361
1040.000000	0.339135
1041.000000	0.339569
1042.000000	0.340143
1043.000000	0.340819
1044.000000	0.341306
1045.000000	0.341486
1046.000000	0.342081
1047.000000	0.342697
1048.000000	0.343406
1049.000000	0.343557
1050.000000	0.343347
1051.000000	0.343772
1052.000000	0.344222
1053.000000	0.344489
1054.000000	0.345494
1055.000000	0.346220
1056.000000	0.346519
1057.000000	0.346769
1058.000000	0.347692
1059.000000	0.347648
1060.000000	0.347990
1061.000000	0.348839
1062.000000	0.349321
1063.000000	0.350175
1064.000000	0.351105
1065.000000	0.352135
1066.000000	0.352759
1067.000000	0.353621
1068.000000	0.354065
1069.000000	0.353468
1070.000000	0.353722
1071.000000	0.354375
1072.000000	0.354978
1073.000000	0.355826
1074.000000	0.357084
1075.000000	0.357816
1076.000000	0.358270
1077.000000	0.358755
1078.000000	0.359068
1079.000000	0.359678
1080.000000	0.360651
1081.000000	0.361224
1082.000000	0.361746
1083.000000	0.362435
1084.000000	0.363159
1085.000000	0.363700
1086.000000	0.364346
1087.000000	0.364876
1088.000000	0.364905
1089.000000	0.365187
1090.000000	0.365585
1091.000000	0.365857
1092.000000	0.366467
1093.000000	0.367481
1094.000000	0.368130
1095.000000	0.368814
1096.000000	0.369476
1097.000000	0.369862
1098.000000	0.370512
1099.000000	0.371368
1100.000000	0.372132
1101.000000	0.372796
1102.000000	0.373493
1103.000000	0.374212
1104.000000	0.374883
1105.000000	0.375343
1106.000000	0.376121
1107.000000	0.377185
1108.000000	0.377913
1109.000000	0.378649
1110.000000	0.379450
1111.000000	0.380192
1112.000000	0.380696
1113.000000	0.381328
1114.000000	0.382151
1115.000000	0.382804
1116.000000	0.383420
1117.000000	0.383792
1118.000000	0.383854
1119.000000	0.384241
1120.000000	0.384523
1121.000000	0.384954
1122.000000	0.385873
1123.000000	0.386794
1124.000000	0.387338
1125.000000	0.388053
1126.000000	0.388923
1127.000000	0.389582
1128.000000	0.390155
1129.000000	0.390735
1130.000000	0.391229
1131.000000	0.391487
1132.000000	0.392017
1133.000000	0.392817
1134.000000	0.393325
1135.000000	0.393703
1136.000000	0.394155
1137.000000	0.394466
1138.000000	0.394776
1139.000000	0.395149
1140.000000	0.395783
1141.000000	0.396488
1142.000000	0.397080
1143.000000	0.397814
1144.000000	0.398550
1145.000000	0.398974
1146.000000	0.399177
1147.000000	0.399587
1148.000000	0.399983
1149.000000	0.400313
1150.000000	0.400610
1151.000000	0.401036
1152.000000	0.401342
1153.000000	0.401832
1154.000000	0.402510
1155.000000	0.402999
1156.000000	0.403484
1157.000000	0.403947
1158.000000	0.404217
1159.000000	0.404599
1160.000000	0.404999
1161.000000	0.405426
1162.000000	0.405893
1163.000000	0.406693
1164.000000	0.407292
1165.000000	0.407662
1166.000000	0.408136
1167.000000	0.408440
1168.000000	0.408859
1169.000000	0.409393
1170.000000	0.409921
1171.000000	0.410628
1172.000000	0.411074
1173.000000	0.411259
1174.000000	0.411670
1175.000000	0.411929
1176.000000	0.412341
1177.000000	0.413259
1178.000000	0.413813
1179.000000	0.414194
1180.000000	0.414517
1181.000000	0.414765
1182.000000	0.414977
1183.000000	0.415393
1184.000000	0.415983
1185.000000	0.416486
1186.000000	0.417106
1187.000000	0.417519
1188.000000	0.417793
1189.000000	0.418133
1190.000000	0.418557
1191.000000	0.418867
1192.000000	0.419207
1193.000000	0.419725
1194.000000	0.420092
1195.000000	0.420464
1196.000000	0.420978
1197.000000	0.421298
1198.000000	0.421326
1199.000000	0.421616
1200.000000	0.421985
1201.000000	0.422372
1202.000000	0.422744
1203.000000	0.423061
1204.000000	0.423255
1205.000000	0.423538
1206.000000	0.423780
1207.000000	0.424263
1208.000000	0.424481
1209.000000	0.424531
1210.000000	0.424794
1211.000000	0.425110
1212.000000	0.425410
1213.000000	0.425955
1214.000000	0.426314
1215.000000	0.426473
1216.000000	0.426693
1217.000000	0.426858
1218.000000	0.427017
1219.000000	0.427187
1220.000000	0.427452
1221.000000	0.427622
1222.000000	0.427784
1223.000000	0.428126
1224.000000	0.428485
1225.000000	0.428680
1226.000000	0.428987
1227.000000	0.429200
1228.000000	0.429225
1229.000000	0.429326
1230.000000	0.429456
1231.000000	0.429542
1232.000000	0.429704
1233.000000	0.430029
1234.000000	0.430482
1235.000000	0.430720
1236.000000	0.430797
1237.000000	0.431024
1238.000000	0.431088
1239.000000	0.431253
1240.000000	0.431580
1241.000000	0.431841
1242.000000	0.431977
1243.000000	0.432153
1244.000000	0.432315
1245.000000	0.432610
1246.000000	0.432968
1247.000000	0.433296
1248.000000	0.433594
1249.000000	0.433753
1250.000000	0.433899
1251.000000	0.434094
1252.000000	0.434255
1253.000000	0.434556
1254.000000	0.434670
1255.000000	0.434622
1256.000000	0.434660
1257.000000	0.434635
1258.000000	0.434746
1259.000000	0.434959
1260.000000	0.435073
1261.000000	0.435050
1262.000000	0.435052
1263.000000	0.435016
1264.000000	0.434951
1265.000000	0.435096
1266.000000	0.435279
1267.000000	0.435552
1268.000000	0.435900
1269.000000	0.435979
1270.000000	0.436192
1271.000000	0.436246
1272.000000	0.436227
1273.000000	0.436369
1274.000000	0.436451
1275.000000	0.436548
1276.000000	0.436743
1277.000000	0.436885
1278.000000	0.436861
1279.000000	0.436858
1280.000000	0.436761
1281.000000	0.436673
1282.000000	0.436614
1283.000000	0.436684
1284.000000	0.436688
1285.000000	0.436739
1286.000000	0.436828
1287.000000	0.436943
1288.000000	0.437038
1289.000000	0.437054
1290.000000	0.436954
1291.000000	0.436885
1292.000000	0.436894
1293.000000	0.436957
1294.000000	0.437025
1295.000000	0.437128
1296.000000	0.437211
1297.000000	0.437185
1298.000000	0.437229
1299.000000	0.437286
1300.000000	0.437360
1301.000000	0.437468
1302.000000	0.437519
1303.000000	0.437753
1304.000000	0.437776
1305.000000	0.437880
1306.000000	0.437868
1307.000000	0.437772
1308.000000	0.437710
1309.000000	0.437532
1310.000000	0.437485
1311.000000	0.437547
1312.000000	0.437500
1313.000000	0.437519
1314.000000	0.437535
1315.000000	0.437279
1316.000000	0.437131
1317.000000	0.437120
1318.000000	0.436972
1319.000000	0.436748
1320.000000	0.436725
1321.000000	0.436590
1322.000000	0.436384
1323.000000	0.436319
1324.000000	0.436141
1325.000000	0.435927
1326.000000	0.435825
1327.000000	0.435818
1328.000000	0.435887
1329.000000	0.435845
1330.000000	0.435858
1331.000000	0.435827
1332.000000	0.435830
1333.000000	0.435697
1334.000000	0.435525
1335.000000	0.435519
1336.000000	0.435405
1337.000000	0.435384
1338.000000	0.435552
1339.000000	0.435517
1340.000000	0.435225
1341.000000	0.435089
1342.000000	0.434991
1343.000000	0.434882
1344.000000	0.434862
1345.000000	0.434852
1346.000000	0.434747
1347.000000	0.434499
1348.000000	0.434294
1349.000000	0.434008
1350.000000	0.433861
1351.000000	0.433793
1352.000000	0.433657
1353.000000	0.433514
1354.000000	0.433484
1355.000000	0.433325
1356.000000	0.433285
1357.000000	0.433195
1358.000000	0.432906
1359.000000	0.432743
1360.000000	0.432659
1361.000000	0.432745
1362.000000	0.432624
1363.000000	0.432491
1364.000000	0.432319
1365.000000	0.431891
1366.000000	0.431697
1367.000000	0.431664
1368.000000	0.431499
1369.000000	0.431394
1370.000000	0.431105
1371.000000	0.430564
1372.000000	0.430003
1373.000000	0.429464
1374.000000	0.428816
1375.000000	0.428234
1376.000000	0.427780
1377.000000	0.427191
1378.000000	0.426512
1379.000000	0.425593
1380.000000	0.424632
1381.000000	0.423701
1382.000000	0.422605
1383.000000	0.421534
1384.000000	0.420365
1385.000000	0.418971
1386.000000	0.417579
1387.000000	0.416338
1388.000000	0.414803
1389.000000	0.413075
1390.000000	0.411636
1391.000000	0.410010
1392.000000	0.408250
1393.000000	0.406459
1394.000000	0.404693
1395.000000	0.402869
1396.000000	0.400930
1397.000000	0.399039
1398.000000	0.397158
1399.000000	0.395276
1400.000000	0.393288
1401.000000	0.391408
1402.000000	0.389718
1403.000000	0.387793
1404.000000	0.386006
1405.000000	0.384150
1406.000000	0.382018
1407.000000	0.380184
1408.000000	0.378306
1409.000000	0.376574
1410.000000	0.375331
1411.000000	0.373913
1412.000000	0.372523
1413.000000	0.371553
1414.000000	0.370619
1415.000000	0.369995
1416.000000	0.369712
1417.000000	0.369527
1418.000000	0.369389
1419.000000	0.369326
1420.000000	0.369299
1421.000000	0.369335
1422.000000	0.369378
1423.000000	0.369478
1424.000000	0.369322
1425.000000	0.369085
1426.000000	0.368624
1427.000000	0.368053
1428.000000	0.367574
1429.000000	0.366914
1430.000000	0.366472
1431.000000	0.366212
1432.000000	0.366038
1433.000000	0.365946
1434.000000	0.366294
1435.000000	0.366922
1436.000000	0.367810
1437.000000	0.369034
1438.000000	0.370413
1439.000000	0.372044
1440.000000	0.373900
1441.000000	0.376229
1442.000000	0.378424
1443.000000	0.380644
1444.000000	0.382890
1445.000000	0.385048
1446.000000	0.387042
1447.000000	0.389086
1448.000000	0.390880
1449.000000	0.392433
1450.000000	0.393836
1451.000000	0.394981
1452.000000	0.395867
1453.000000	0.396461
1454.000000	0.396897
1455.000000	0.397275
1456.000000	0.397681
1457.000000	0.398226
1458.000000	0.398708
1459.000000	0.399011
1460.000000	0.399200
1461.000000	0.399361
1462.000000	0.399528
1463.000000	0.399729
1464.000000	0.400135
1465.000000	0.400586
1466.000000	0.401016
1467.000000	0.401507
1468.000000	0.401848
1469.000000	0.402263
1470.000000	0.402682
1471.000000	0.403089
1472.000000	0.403589
1473.000000	0.404194
1474.000000	0.404700
1475.000000	0.405313
1476.000000	0.406003
1477.000000	0.406560
1478.000000	0.407081
1479.000000	0.407571
1480.000000	0.408048
1481.000000	0.408495
1482.000000	0.408970
1483.000000	0.409550
1484.000000	0.410180
1485.000000	0.410720
1486.000000	0.411296
1487.000000	0.411812
1488.000000	0.412227
1489.000000	0.412743
1490.000000	0.413156
1491.000000	0.413641
1492.000000	0.414129
1493.000000	0.414561
1494.000000	0.414909
1495.000000	0.415311
1496.000000	0.415752
1497.000000	0.416101
1498.000000	0.416444
1499.000000	0.416779
1500.000000	0.417118
1501.000000	0.417391
1502.000000	0.417786
1503.000000	0.418209
1504.000000	0.418527
1505.000000	0.418916
1506.000000	0.419302
1507.000000	0.419559
1508.000000	0.419916
1509.000000	0.420266
1510.000000	0.420567
1511.000000	0.421003
1512.000000	0.421314
1513.000000	0.421570
1514.000000	0.421876
1515.000000	0.422086
1516.000000	0.422446
1517.000000	0.422747
1518.000000	0.422924
1519.000000	0.423110
1520.000000	0.423292
1521.000000	0.423338
1522.000000	0.423554
1523.000000	0.423900
1524.000000	0.424010
1525.000000	0.424305
1526.000000	0.424647
1527.000000	0.424822
1528.000000	0.425111
1529.000000	0.425282
1530.000000	0.425224
1531.000000	0.425422
1532.000000	0.425792
1533.000000	0.426147
1534.000000	0.426605
1535.000000	0.426943
1536.000000	0.427058
1537.000000	0.427212
1538.000000	0.427357
1539.000000	0.427519
1540.000000	0.427687
1541.000000	0.427869
1542.000000	0.428086
1543.000000	0.428245
1544.000000	0.428392
1545.000000	0.428660
1546.000000	0.428989
1547.000000	0.429222
1548.000000	0.429361
1549.000000	0.429541
1550.000000	0.429599
1551.000000	0.429592
1552.000000	0.429813
1553.000000	0.429980
1554.000000	0.430057
1555.000000	0.430270
1556.000000	0.430425
1557.000000	0.430443
1558.000000	0.430646
1559.000000	0.430936
1560.000000	0.431071
1561.000000	0.431337
1562.000000	0.431424
1563.000000	0.431277
1564.000000	0.431299
1565.000000	0.431367
1566.000000	0.431322
1567.000000	0.431412
1568.000000	0.431520
1569.000000	0.431656
1570.000000	0.431784
1571.000000	0.432040
1572.000000	0.432061
1573.000000	0.431915
1574.000000	0.431937
1575.000000	0.431861
1576.000000	0.432024
1577.000000	0.432488
1578.000000	0.432611
1579.000000	0.432780
1580.000000	0.432828
1581.000000	0.432694
1582.000000	0.432731
1583.000000	0.432793
1584.000000	0.432812
1585.000000	0.432968
1586.000000	0.433110
1587.000000	0.433275
1588.000000	0.433386
1589.000000	0.433538
1590.000000	0.433627
1591.000000	0.433629
1592.000000	0.433700
1593.000000	0.433837
1594.000000	0.433915
1595.000000	0.434099
1596.000000	0.434148
1597.000000	0.434121
1598.000000	0.434110
1599.000000	0.434078
1600.000000	0.434003
1601.000000	0.434063
1602.000000	0.434034
1603.000000	0.433933
1604.000000	0.433923
1605.000000	0.433979
1606.000000	0.433952
1607.000000	0.433953
1608.000000	0.433980
1609.000000	0.434130
1610.000000	0.434104
1611.000000	0.434043
1612.000000	0.434029
1613.000000	0.434004
1614.000000	0.434015
1615.000000	0.434237
1616.000000	0.434413
1617.000000	0.434522
1618.000000	0.434585
1619.000000	0.434562
1620.000000	0.434620
1621.000000	0.434693
1622.000000	0.434850
1623.000000	0.435105
1624.000000	0.435257
1625.000000	0.435204
1626.000000	0.435146
1627.000000	0.435035
1628.000000	0.435047
1629.000000	0.435065
1630.000000	0.435109
1631.000000	0.435146
1632.000000	0.435155
1633.000000	0.435128
1634.000000	0.435183
1635.000000	0.435401
1636.000000	0.435419
1637.000000	0.435416
1638.000000	0.435367
1639.000000	0.435253
1640.000000	0.435200
1641.000000	0.435302
1642.000000	0.435301
1643.000000	0.435302
1644.000000	0.435165
1645.000000	0.434901
1646.000000	0.434678
1647.000000	0.434422
1648.000000	0.434234
1649.000000	0.434246
1650.000000	0.434215
1651.000000	0.434195
1652.000000	0.434288
1653.000000	0.434413
1654.000000	0.434457
1655.000000	0.434471
1656.000000	0.434367
1657.000000	0.434241
1658.000000	0.434167
1659.000000	0.434229
1660.000000	0.434241
1661.000000	0.434102
1662.000000	0.434075
1663.000000	0.434036
1664.000000	0.434060
1665.000000	0.434154
1666.000000	0.434312
1667.000000	0.434436
1668.000000	0.434420
1669.000000	0.434358
1670.000000	0.434270
1671.000000	0.434181
1672.000000	0.434212
1673.000000	0.434258
1674.000000	0.434380
1675.000000	0.434589
1676.000000	0.434646
1677.000000	0.434659
1678.000000	0.434514
1679.000000	0.434361
1680.000000	0.434358
1681.000000	0.434411
1682.000000	0.434511
1683.000000	0.434604
1684.000000	0.434673
1685.000000	0.434638
1686.000000	0.434334
1687.000000	0.434152
1688.000000	0.434060
1689.000000	0.434006
1690.000000	0.434104
1691.000000	0.434214
1692.000000	0.434039
1693.000000	0.433853
1694.000000	0.433733
1695.000000	0.433726
1696.000000	0.434014
1697.000000	0.434058
1698.000000	0.434141
1699.000000	0.434179
1700.000000	0.433895
1701.000000	0.433985
1702.000000	0.434190
1703.000000	0.434130
1704.000000	0.434103
1705.000000	0.434206
1706.000000	0.434343
1707.000000	0.434329
1708.000000	0.434448
1709.000000	0.434294
1710.000000	0.433782
1711.000000	0.433590
1712.000000	0.433595
1713.000000	0.433476
1714.000000	0.433543
1715.000000	0.433416
1716.000000	0.433126
1717.000000	0.432876
1718.000000	0.432436
1719.000000	0.432203
1720.000000	0.432107
1721.000000	0.432067
1722.000000	0.432287
1723.000000	0.432246
1724.000000	0.432123
1725.000000	0.432084
1726.000000	0.431811
1727.000000	0.431695
1728.000000	0.431663
1729.000000	0.431484
1730.000000	0.431437
1731.000000	0.431335
1732.000000	0.431157
1733.000000	0.431181
1734.000000	0.431118
1735.000000	0.431042
1736.000000	0.431009
1737.000000	0.430940
1738.000000	0.430773
1739.000000	0.430807
1740.000000	0.430992
1741.000000	0.430940
1742.000000	0.430890
1743.000000	0.430864
1744.000000	0.430703
1745.000000	0.430527
1746.000000	0.430378
1747.000000	0.430165
1748.000000	0.429950
1749.000000	0.429846
1750.000000	0.429731
1751.000000	0.429884
1752.000000	0.429937
1753.000000	0.429696
1754.000000	0.429587
1755.000000	0.429316
1756.000000	0.429130
1757.000000	0.429152
1758.000000	0.429102
1759.000000	0.428863
1760.000000	0.428861
1761.000000	0.429054
1762.000000	0.429032
1763.000000	0.429173
1764.000000	0.429049
1765.000000	0.428419
1766.000000	0.428185
1767.000000	0.427932
1768.000000	0.427711
1769.000000	0.427857
1770.000000	0.427855
1771.000000	0.427735
1772.000000	0.427576
1773.000000	0.427285
1774.000000	0.427103
1775.000000	0.426960
1776.000000	0.426850
1777.000000	0.426810
1778.000000	0.426649
1779.000000	0.426410
1780.000000	0.426241
1781.000000	0.425990
1782.000000	0.425844
1783.000000	0.425809
1784.000000	0.425863
1785.000000	0.425843
1786.000000	0.425823
1787.000000	0.425907
1788.000000	0.426035
1789.000000	0.425984
1790.000000	0.425819
1791.000000	0.425672
1792.000000	0.425479
1793.000000	0.425400
1794.000000	0.425587
1795.000000	0.425642
1796.000000	0.425587
1797.000000	0.425591
1798.000000	0.425582
1799.000000	0.425504
1800.000000	0.425538
1801.000000	0.425433
1802.000000	0.425550
1803.000000	0.425641
1804.000000	0.426038
1805.000000	0.427416
1806.000000	0.427666
1807.000000	0.427355
1808.000000	0.427291
1809.000000	0.427242
1810.000000	0.426072
1811.000000	0.425846
1812.000000	0.425789
1813.000000	0.426318
1814.000000	0.427795
1815.000000	0.428310
1816.000000	0.428965
1817.000000	0.429139
1818.000000	0.428707
1819.000000	0.428220
1820.000000	0.427939
1821.000000	0.427705
1822.000000	0.427296
1823.000000	0.426277
1824.000000	0.425807
1825.000000	0.425292
1826.000000	0.425293
1827.000000	0.425794
1828.000000	0.426110
1829.000000	0.425479
1830.000000	0.425352
1831.000000	0.425252
1832.000000	0.424405
1833.000000	0.424405
1834.000000	0.425460
1835.000000	0.425788
1836.000000	0.426195
1837.000000	0.426149
1838.000000	0.425514
1839.000000	0.424605
1840.000000	0.424623
1841.000000	0.423963
1842.000000	0.423705
1843.000000	0.423986
1844.000000	0.424128
1845.000000	0.423964
1846.000000	0.424235
1847.000000	0.424855
1848.000000	0.424974
1849.000000	0.425493
1850.000000	0.425336
1851.000000	0.425081
1852.000000	0.424352
1853.000000	0.424323
1854.000000	0.424215
1855.000000	0.423829
1856.000000	0.423795
1857.000000	0.423208
1858.000000	0.421585
1859.000000	0.419901
1860.000000	0.418345
1861.000000	0.416965
1862.000000	0.415786
1863.000000	0.415117
1864.000000	0.414284
1865.000000	0.413658
1866.000000	0.412669
1867.000000	0.411644
1868.000000	0.410646
1869.000000	0.408390
1870.000000	0.406044
1871.000000	0.404323
1872.000000	0.401861
1873.000000	0.400089
1874.000000	0.399282
1875.000000	0.397912
1876.000000	0.396163
1877.000000	0.394198
1878.000000	0.391896
1879.000000	0.388969
1880.000000	0.385917
1881.000000	0.382344
1882.000000	0.378683
1883.000000	0.374670
1884.000000	0.370423
1885.000000	0.365202
1886.000000	0.360674
1887.000000	0.356262
1888.000000	0.351423
1889.000000	0.347097
1890.000000	0.342734
1891.000000	0.337397
1892.000000	0.331599
1893.000000	0.325554
1894.000000	0.319260
1895.000000	0.312931
1896.000000	0.306465
1897.000000	0.300747
1898.000000	0.294900
1899.000000	0.289500
1900.000000	0.285783
1901.000000	0.281517
1902.000000	0.277034
1903.000000	0.273731
1904.000000	0.270720
1905.000000	0.268408
1906.000000	0.266034
1907.000000	0.264291
1908.000000	0.262698
1909.000000	0.261571
1910.000000	0.260649
1911.000000	0.261357
1912.000000	0.262263
1913.000000	0.263088
1914.000000	0.264667
1915.000000	0.265925
1916.000000	0.268198
1917.000000	0.269933
1918.000000	0.271898
1919.000000	0.272942
1920.000000	0.274136
1921.000000	0.274914
1922.000000	0.276118
1923.000000	0.278376
1924.000000	0.280403
1925.000000	0.281606
1926.000000	0.282774
1927.000000	0.283891
1928.000000	0.285028
1929.000000	0.286228
1930.000000	0.287880
1931.000000	0.289294
1932.000000	0.290431
1933.000000	0.291340
1934.000000	0.292352
1935.000000	0.293038
1936.000000	0.293784
1937.000000	0.294538
1938.000000	0.294898
1939.000000	0.295762
1940.000000	0.297056
1941.000000	0.298089
1942.000000	0.299160
1943.000000	0.300813
1944.000000	0.301856
1945.000000	0.302803
1946.000000	0.303793
1947.000000	0.304352
1948.000000	0.304837
1949.000000	0.305176
1950.000000	0.305376
1951.000000	0.305670
1952.000000	0.306072
1953.000000	0.306428
1954.000000	0.307057
1955.000000	0.307384
1956.000000	0.307571
1957.000000	0.308434
1958.000000	0.309169
1959.000000	0.310744
1960.000000	0.312218
1961.000000	0.312701
1962.000000	0.313329
1963.000000	0.313867
1964.000000	0.313922
1965.000000	0.314328
1966.000000	0.315119
1967.000000	0.315638
1968.000000	0.316873
1969.000000	0.318038
1970.000000	0.319229
1971.000000	0.320366
1972.000000	0.320758
1973.000000	0.321351
1974.000000	0.321796
1975.000000	0.322501
1976.000000	0.323451
1977.000000	0.324535
1978.000000	0.325236
1979.000000	0.325876
1980.000000	0.326861
1981.000000	0.328229
1982.000000	0.329197
1983.000000	0.329819
1984.000000	0.330443
1985.000000	0.330397
1986.000000	0.331008
1987.000000	0.331921
1988.000000	0.333282
1989.000000	0.334601
1990.000000	0.336075
1991.000000	0.337222
1992.000000	0.337981
1993.000000	0.338935
1994.000000	0.339526
1995.000000	0.340140
1996.000000	0.341750
1997.000000	0.342833
1998.000000	0.343990
1999.000000	0.344879
2000.000000	0.345653
2001.000000	0.345906
2002.000000	0.346406
2003.000000	0.347928
2004.000000	0.349285
2005.000000	0.349878
2006.000000	0.350687
2007.000000	0.350847
2008.000000	0.351371
2009.000000	0.351950
2010.000000	0.352811
2011.000000	0.353916
2012.000000	0.354609
2013.000000	0.355163
2014.000000	0.355486
2015.000000	0.355588
2016.000000	0.355757
2017.000000	0.356658
2018.000000	0.358013
2019.000000	0.359379
2020.000000	0.360582
2021.000000	0.361738
2022.000000	0.362679
2023.000000	0.363590
2024.000000	0.364535
2025.000000	0.365429
2026.000000	0.366144
2027.000000	0.366648
2028.000000	0.366878
2029.000000	0.367301
2030.000000	0.367779
2031.000000	0.367938
2032.000000	0.368275
2033.000000	0.369183
2034.000000	0.369740
2035.000000	0.370392
2036.000000	0.370598
2037.000000	0.370856
2038.000000	0.370916
2039.000000	0.370627
2040.000000	0.370564
2041.000000	0.370604
2042.000000	0.370936
2043.000000	0.371641
2044.000000	0.372697
2045.000000	0.373795
2046.000000	0.374629
2047.000000	0.375307
2048.000000	0.375669
2049.000000	0.376120
2050.000000	0.375794
2051.000000	0.376065
2052.000000	0.376384
2053.000000	0.376782
2054.000000	0.377955
2055.000000	0.378870
2056.000000	0.379430
2057.000000	0.379849
2058.000000	0.379402
2059.000000	0.379675
2060.000000	0.379910
2061.000000	0.379897
2062.000000	0.380168
2063.000000	0.381157
2064.000000	0.381225
2065.000000	0.381279
2066.000000	0.381358
2067.000000	0.381591
2068.000000	0.381359
2069.000000	0.381717
2070.000000	0.382048
2071.000000	0.382062
2072.000000	0.382230
2073.000000	0.382861
2074.000000	0.383332
2075.000000	0.383689
2076.000000	0.384538
2077.000000	0.384819
2078.000000	0.384384
2079.000000	0.384264
2080.000000	0.383829
2081.000000	0.383818
2082.000000	0.384036
2083.000000	0.384652
2084.000000	0.385008
2085.000000	0.385128
2086.000000	0.385104
2087.000000	0.384907
2088.000000	0.384799
2089.000000	0.385288
2090.000000	0.385521
2091.000000	0.385880
2092.000000	0.385923
2093.000000	0.385712
2094.000000	0.385793
2095.000000	0.385707
2096.000000	0.386111
2097.000000	0.387072
2098.000000	0.387687
2099.000000	0.387911
2100.000000	0.388011
2101.000000	0.387943
2102.000000	0.387766
2103.000000	0.388003
2104.000000	0.388351
2105.000000	0.388549
2106.000000	0.388776
2107.000000	0.388719
2108.000000	0.388220
2109.000000	0.388257
2110.000000	0.387913
2111.000000	0.388104
2112.000000	0.388890
2113.000000	0.389322
2114.000000	0.389488
2115.000000	0.389989
2116.000000	0.390440
2117.000000	0.390551
2118.000000	0.391114
2119.000000	0.391115
2120.000000	0.391010
2121.000000	0.390693
2122.000000	0.390273
2123.000000	0.389171
2124.000000	0.388959
2125.000000	0.388962
2126.000000	0.389098
2127.000000	0.390444
2128.000000	0.390853
2129.000000	0.390689
2130.000000	0.390315
2131.000000	0.389913
2132.000000	0.389307
2133.000000	0.389783
2134.000000	0.391170
2135.000000	0.391955
2136.000000	0.391861
2137.000000	0.391820
2138.000000	0.391144
2139.000000	0.390497
2140.000000	0.389485
2141.000000	0.389353
2142.000000	0.389499
2143.000000	0.389340
2144.000000	0.390057
2145.000000	0.390246
2146.000000	0.390049
2147.000000	0.390186
2148.000000	0.389560
2149.000000	0.389900
2150.000000	0.389908
2151.000000	0.388353
2152.000000	0.388019
2153.000000	0.387238
2154.000000	0.386757
2155.000000	0.386828
2156.000000	0.386702
2157.000000	0.386646
2158.000000	0.386394
2159.000000	0.385915
2160.000000	0.385613
2161.000000	0.385551
2162.000000	0.385054
2163.000000	0.384000
2164.000000	0.383402
2165.000000	0.382525
2166.000000	0.381703
2167.000000	0.382243
2168.000000	0.383533
2169.000000	0.384557
2170.000000	0.384125
2171.000000	0.383513
2172.000000	0.381461
2173.000000	0.380804
2174.000000	0.380506
2175.000000	0.380595
2176.000000	0.381972
2177.000000	0.382072
2178.000000	0.381301
2179.000000	0.381121
2180.000000	0.380577
2181.000000	0.380444
2182.000000	0.379953
2183.000000	0.380140
2184.000000	0.379929
2185.000000	0.379541
2186.000000	0.379765
2187.000000	0.379724
2188.000000	0.379361
2189.000000	0.378547
2190.000000	0.376951
2191.000000	0.375808
2192.000000	0.374973
2193.000000	0.374054
2194.000000	0.373692
2195.000000	0.374323
2196.000000	0.374649
2197.000000	0.375747
2198.000000	0.375531
2199.000000	0.374619
2200.000000	0.373877
2201.000000	0.371652
2202.000000	0.370295
2203.000000	0.369625
2204.000000	0.368999
2205.000000	0.365352
2206.000000	0.364223
2207.000000	0.364047
2208.000000	0.361759
2209.000000	0.362476
2210.000000	0.363586
2211.000000	0.363211
2212.000000	0.365589
2213.000000	0.366317
2214.000000	0.366427
2215.000000	0.367772
2216.000000	0.368934
2217.000000	0.370678
2218.000000	0.374759
2219.000000	0.376419
2220.000000	0.376291
2221.000000	0.376809
2222.000000	0.377905
2223.000000	0.377241
2224.000000	0.375552
2225.000000	0.374557
2226.000000	0.371086
2227.000000	0.367798
2228.000000	0.367308
2229.000000	0.365012
2230.000000	0.362185
2231.000000	0.361893
2232.000000	0.360818
2233.000000	0.361319
2234.000000	0.363541
2235.000000	0.363803
2236.000000	0.363830
2237.000000	0.362889
2238.000000	0.362149
2239.000000	0.360400
2240.000000	0.360392
2241.000000	0.361321
2242.000000	0.361823
2243.000000	0.363196
2244.000000	0.363926
2245.000000	0.364595
2246.000000	0.364307
2247.000000	0.362890
2248.000000	0.362334
2249.000000	0.362302
2250.000000	0.360078
2251.000000	0.359424
2252.000000	0.358617
2253.000000	0.355387
2254.000000	0.355880
2255.000000	0.355939
2256.000000	0.356643
2257.000000	0.361021
2258.000000	0.362202
2259.000000	0.361454
2260.000000	0.361828
2261.000000	0.359294
2262.000000	0.353411
2263.000000	0.348875
2264.000000	0.342766
2265.000000	0.338994
2266.000000	0.335107
2267.000000	0.333222
2268.000000	0.334435
2269.000000	0.333917
2270.000000	0.334735
2271.000000	0.333487
2272.000000	0.330054
2273.000000	0.327647
2274.000000	0.325110
2275.000000	0.321655
2276.000000	0.317879
2277.000000	0.314527
2278.000000	0.309811
2279.000000	0.306691
2280.000000	0.304420
2281.000000	0.301510
2282.000000	0.298993
2283.000000	0.297131
2284.000000	0.294924
2285.000000	0.293874
2286.000000	0.293612
2287.000000	0.291397
2288.000000	0.290567
2289.000000	0.290829
2290.000000	0.291718
2291.000000	0.293584
2292.000000	0.295140
2293.000000	0.297201
2294.000000	0.299843
2295.000000	0.302498
2296.000000	0.305858
2297.000000	0.311042
2298.000000	0.314412
2299.000000	0.316589
2300.000000	0.320078
2301.000000	0.324384
2302.000000	0.326644
2303.000000	0.328423
2304.000000	0.329963
2305.000000	0.329886
2306.000000	0.330408
2307.000000	0.330882
2308.000000	0.332994
2309.000000	0.333666
2310.000000	0.333730
2311.000000	0.335058
2312.000000	0.335224
2313.000000	0.335337
2314.000000	0.335362
2315.000000	0.335280
2316.000000	0.336275
2317.000000	0.337162
2318.000000	0.338651
2319.000000	0.341168
2320.000000	0.342706
2321.000000	0.343410
2322.000000	0.343189
2323.000000	0.340576
2324.000000	0.338132
2325.000000	0.337737
2326.000000	0.336300
2327.000000	0.337252
2328.000000	0.339633
2329.000000	0.340023
2330.000000	0.341251
2331.000000	0.340272
2332.000000	0.338276
2333.000000	0.337006
2334.000000	0.334837
2335.000000	0.334227
2336.000000	0.333472
2337.000000	0.334160
2338.000000	0.337660
2339.000000	0.337843
2340.000000	0.338644
2341.000000	0.337512
2342.000000	0.331399
2343.000000	0.329808
2344.000000	0.330121
2345.000000	0.328388
2346.000000	0.327754
2347.000000	0.326086
2348.000000	0.322659
2349.000000	0.320210
2350.000000	0.319208
2351.000000	0.319454
2352.000000	0.316922
2353.000000	0.312926
2354.000000	0.310175
2355.000000	0.308184
2356.000000	0.307696
2357.000000	0.309583
2358.000000	0.308163
2359.000000	0.305511
2360.000000	0.307218
2361.000000	0.307745
2362.000000	0.308404
2363.000000	0.313262
2364.000000	0.313252
2365.000000	0.311235
2366.000000	0.311664
2367.000000	0.307429
2368.000000	0.301665
2369.000000	0.300400
2370.000000	0.297934
2371.000000	0.296634
2372.000000	0.300024
2373.000000	0.302630
2374.000000	0.304856
2375.000000	0.304412
2376.000000	0.304470
2377.000000	0.301428
2378.000000	0.296292
2379.000000	0.295663
2380.000000	0.290858
2381.000000	0.286756
2382.000000	0.281730
2383.000000	0.275301
2384.000000	0.274286
2385.000000	0.270852
2386.000000	0.271751
2387.000000	0.277304
2388.000000	0.276741
2389.000000	0.277090
2390.000000	0.280472
2391.000000	0.276554
2392.000000	0.266500
2393.000000	0.265033
2394.000000	0.262551
2395.000000	0.257372
2396.000000	0.258101
2397.000000	0.253455
2398.000000	0.250825
2399.000000	0.246492
2400.000000	0.244706
2401.000000	0.254358
2402.000000	0.257488
2403.000000	0.262832
2404.000000	0.268518
2405.000000	0.265685
2406.000000	0.261479
2407.000000	0.258330
2408.000000	0.259716
2409.000000	0.259775
2410.000000	0.259015
2411.000000	0.260647
2412.000000	0.264664
2413.000000	0.261982
2414.000000	0.264373
2415.000000	0.268927
2416.000000	0.258955
2417.000000	0.260740
2418.000000	0.253096
2419.000000	0.243010
2420.000000	0.248501
2421.000000	0.244043
2422.000000	0.249192
2423.000000	0.257146
2424.000000	0.263103
2425.000000	0.270508
2426.000000	0.273094
2427.000000	0.276194
2428.000000	0.265792
2429.000000	0.258803
2430.000000	0.257222
2431.000000	0.247825
2432.000000	0.251580
2433.000000	0.254959
2434.000000	0.253994
2435.000000	0.267835
2436.000000	0.271920
2437.000000	0.264960
2438.000000	0.268301
2439.000000	0.255951
2440.000000	0.234793
2441.000000	0.224894
2442.000000	0.214564
2443.000000	0.218322
2444.000000	0.222527
2445.000000	0.217162
2446.000000	0.211433
2447.000000	0.198026
2448.000000	0.197435
2449.000000	0.198264
2450.000000	0.206678
2451.000000	0.223521
2452.000000	0.231865
2453.000000	0.248509
2454.000000	0.249055
2455.000000	0.232863
2456.000000	0.215553
2457.000000	0.211596
2458.000000	0.226906
2459.000000	0.229938
2460.000000	0.228854
2461.000000	0.212417
2462.000000	0.181669
2463.000000	0.180547
2464.000000	0.181139
2465.000000	0.174529
2466.000000	0.181443
2467.000000	0.180981
2468.000000	0.194480
2469.000000	0.220398
2470.000000	0.234173
2471.000000	0.227274
2472.000000	0.214476
2473.000000	0.188917
2474.000000	0.154913
2475.000000	0.158345
2476.000000	0.155621
2477.000000	0.160266
2478.000000	0.195418
2479.000000	0.208557
2480.000000	0.216317
2481.000000	0.220983
2482.000000	0.213519
2483.000000	0.193565
2484.000000	0.163138
2485.000000	0.163315
2486.000000	0.159069
2487.000000	0.150458
2488.000000	0.174491
2489.000000	0.192609
2490.000000	0.191170
2491.000000	0.166025
2492.000000	0.148355
2493.000000	0.095285
2494.000000	0.074031
2495.000000	0.087469
2496.000000	0.097535
2497.000000	0.136089
2498.000000	0.141078
2499.000000	0.137654
2500.000000	0.125547
