# Wavelength	NAu-2-10_HEX-80_FV7-10_00000.asd.rts.txt
350.000000	0.247507
351.000000	0.271222
352.000000	0.260556
353.000000	0.246432
354.000000	0.246565
355.000000	0.240944
356.000000	0.240722
357.000000	0.247214
358.000000	0.251155
359.000000	0.245054
360.000000	0.242361
361.000000	0.255464
362.000000	0.256352
363.000000	0.253990
364.000000	0.254345
365.000000	0.249878
366.000000	0.249424
367.000000	0.252043
368.000000	0.248776
369.000000	0.251147
370.000000	0.252381
371.000000	0.243892
372.000000	0.247158
373.000000	0.253921
374.000000	0.256410
375.000000	0.254257
376.000000	0.251740
377.000000	0.250158
378.000000	0.248102
379.000000	0.252269
380.000000	0.257209
381.000000	0.255741
382.000000	0.253259
383.000000	0.251391
384.000000	0.251755
385.000000	0.257558
386.000000	0.260861
387.000000	0.260278
388.000000	0.260677
389.000000	0.260561
390.000000	0.260280
391.000000	0.260288
392.000000	0.259796
393.000000	0.260460
394.000000	0.262664
395.000000	0.261662
396.000000	0.261141
397.000000	0.262081
398.000000	0.262014
399.000000	0.262293
400.000000	0.262786
401.000000	0.262724
402.000000	0.263217
403.000000	0.263836
404.000000	0.264400
405.000000	0.266324
406.000000	0.267663
407.000000	0.267552
408.000000	0.266477
409.000000	0.266254
410.000000	0.266829
411.000000	0.266975
412.000000	0.266969
413.000000	0.267499
414.000000	0.268888
415.000000	0.268574
416.000000	0.268347
417.000000	0.269209
418.000000	0.269961
419.000000	0.270026
420.000000	0.269850
421.000000	0.270843
422.000000	0.271557
423.000000	0.271589
424.000000	0.271131
425.000000	0.271718
426.000000	0.272707
427.000000	0.273267
428.000000	0.272846
429.000000	0.272851
430.000000	0.273572
431.000000	0.273886
432.000000	0.273757
433.000000	0.273627
434.000000	0.274296
435.000000	0.274887
436.000000	0.275274
437.000000	0.275509
438.000000	0.275904
439.000000	0.276088
440.000000	0.276076
441.000000	0.276315
442.000000	0.276513
443.000000	0.276755
444.000000	0.277569
445.000000	0.278332
446.000000	0.278801
447.000000	0.278744
448.000000	0.278743
449.000000	0.279104
450.000000	0.279874
451.000000	0.280563
452.000000	0.280890
453.000000	0.280963
454.000000	0.281649
455.000000	0.282010
456.000000	0.282112
457.000000	0.282234
458.000000	0.282871
459.000000	0.283496
460.000000	0.283694
461.000000	0.283929
462.000000	0.284477
463.000000	0.285102
464.000000	0.285237
465.000000	0.285425
466.000000	0.285727
467.000000	0.286078
468.000000	0.286765
469.000000	0.287332
470.000000	0.287442
471.000000	0.287460
472.000000	0.287622
473.000000	0.288007
474.000000	0.288211
475.000000	0.288289
476.000000	0.288505
477.000000	0.288986
478.000000	0.289407
479.000000	0.289859
480.000000	0.290195
481.000000	0.290412
482.000000	0.290740
483.000000	0.291131
484.000000	0.291694
485.000000	0.292028
486.000000	0.292174
487.000000	0.292256
488.000000	0.292612
489.000000	0.293080
490.000000	0.293110
491.000000	0.293165
492.000000	0.293488
493.000000	0.293996
494.000000	0.294022
495.000000	0.294032
496.000000	0.294330
497.000000	0.294681
498.000000	0.294959
499.000000	0.295195
500.000000	0.295389
501.000000	0.295428
502.000000	0.295510
503.000000	0.295854
504.000000	0.296171
505.000000	0.296424
506.000000	0.296637
507.000000	0.296797
508.000000	0.297055
509.000000	0.297434
510.000000	0.297879
511.000000	0.298287
512.000000	0.298676
513.000000	0.299101
514.000000	0.299431
515.000000	0.299760
516.000000	0.300165
517.000000	0.300574
518.000000	0.300974
519.000000	0.301300
520.000000	0.301760
521.000000	0.302246
522.000000	0.302696
523.000000	0.303064
524.000000	0.303680
525.000000	0.304407
526.000000	0.304911
527.000000	0.305546
528.000000	0.306267
529.000000	0.307017
530.000000	0.307783
531.000000	0.308704
532.000000	0.309731
533.000000	0.310738
534.000000	0.311735
535.000000	0.312713
536.000000	0.313687
537.000000	0.314685
538.000000	0.315664
539.000000	0.316548
540.000000	0.317503
541.000000	0.318370
542.000000	0.319074
543.000000	0.319897
544.000000	0.320747
545.000000	0.321498
546.000000	0.322252
547.000000	0.323094
548.000000	0.324026
549.000000	0.324869
550.000000	0.325771
551.000000	0.326754
552.000000	0.327749
553.000000	0.328833
554.000000	0.329980
555.000000	0.331169
556.000000	0.332396
557.000000	0.333602
558.000000	0.334907
559.000000	0.336226
560.000000	0.337494
561.000000	0.338803
562.000000	0.340138
563.000000	0.341383
564.000000	0.342582
565.000000	0.343667
566.000000	0.344683
567.000000	0.345696
568.000000	0.346701
569.000000	0.347644
570.000000	0.348519
571.000000	0.349318
572.000000	0.350068
573.000000	0.350722
574.000000	0.351267
575.000000	0.351773
576.000000	0.352200
577.000000	0.352559
578.000000	0.352947
579.000000	0.353366
580.000000	0.353697
581.000000	0.353917
582.000000	0.354165
583.000000	0.354352
584.000000	0.354474
585.000000	0.354575
586.000000	0.354653
587.000000	0.354705
588.000000	0.354723
589.000000	0.354687
590.000000	0.354631
591.000000	0.354572
592.000000	0.354461
593.000000	0.354340
594.000000	0.354219
595.000000	0.354094
596.000000	0.353931
597.000000	0.353737
598.000000	0.353428
599.000000	0.353179
600.000000	0.352947
601.000000	0.352603
602.000000	0.352333
603.000000	0.352055
604.000000	0.351725
605.000000	0.351321
606.000000	0.351033
607.000000	0.350803
608.000000	0.350407
609.000000	0.350073
610.000000	0.349771
611.000000	0.349432
612.000000	0.349234
613.000000	0.349069
614.000000	0.348875
615.000000	0.348577
616.000000	0.348327
617.000000	0.348138
618.000000	0.348014
619.000000	0.347825
620.000000	0.347558
621.000000	0.347316
622.000000	0.347040
623.000000	0.346767
624.000000	0.346541
625.000000	0.346391
626.000000	0.346273
627.000000	0.346157
628.000000	0.346008
629.000000	0.346022
630.000000	0.345982
631.000000	0.345784
632.000000	0.345700
633.000000	0.345656
634.000000	0.345521
635.000000	0.345418
636.000000	0.345397
637.000000	0.345427
638.000000	0.345396
639.000000	0.345366
640.000000	0.345403
641.000000	0.345389
642.000000	0.345431
643.000000	0.345512
644.000000	0.345580
645.000000	0.345614
646.000000	0.345704
647.000000	0.345866
648.000000	0.345996
649.000000	0.346187
650.000000	0.346439
651.000000	0.346708
652.000000	0.346921
653.000000	0.347145
654.000000	0.347409
655.000000	0.347654
656.000000	0.347897
657.000000	0.348126
658.000000	0.348503
659.000000	0.348947
660.000000	0.349358
661.000000	0.349649
662.000000	0.349978
663.000000	0.350418
664.000000	0.350872
665.000000	0.351355
666.000000	0.351855
667.000000	0.352333
668.000000	0.352861
669.000000	0.353399
670.000000	0.353936
671.000000	0.354519
672.000000	0.355137
673.000000	0.355767
674.000000	0.356404
675.000000	0.357047
676.000000	0.357721
677.000000	0.358470
678.000000	0.359256
679.000000	0.359991
680.000000	0.360659
681.000000	0.361374
682.000000	0.362228
683.000000	0.363119
684.000000	0.363999
685.000000	0.364882
686.000000	0.365784
687.000000	0.366659
688.000000	0.367505
689.000000	0.368362
690.000000	0.369310
691.000000	0.370374
692.000000	0.371375
693.000000	0.372368
694.000000	0.373473
695.000000	0.374545
696.000000	0.375582
697.000000	0.376640
698.000000	0.377766
699.000000	0.378926
700.000000	0.380084
701.000000	0.381196
702.000000	0.382371
703.000000	0.383600
704.000000	0.384780
705.000000	0.385986
706.000000	0.387195
707.000000	0.388461
708.000000	0.389713
709.000000	0.390965
710.000000	0.392257
711.000000	0.393534
712.000000	0.394798
713.000000	0.396073
714.000000	0.397345
715.000000	0.398650
716.000000	0.399953
717.000000	0.401165
718.000000	0.402490
719.000000	0.403818
720.000000	0.405053
721.000000	0.406258
722.000000	0.407450
723.000000	0.408701
724.000000	0.409912
725.000000	0.411140
726.000000	0.412431
727.000000	0.413609
728.000000	0.414829
729.000000	0.416028
730.000000	0.417099
731.000000	0.418277
732.000000	0.419475
733.000000	0.420682
734.000000	0.421813
735.000000	0.422899
736.000000	0.424065
737.000000	0.425121
738.000000	0.426084
739.000000	0.427104
740.000000	0.428064
741.000000	0.429112
742.000000	0.430123
743.000000	0.431043
744.000000	0.432023
745.000000	0.432912
746.000000	0.433779
747.000000	0.434614
748.000000	0.435417
749.000000	0.436181
750.000000	0.436891
751.000000	0.437718
752.000000	0.438481
753.000000	0.439182
754.000000	0.439935
755.000000	0.440673
756.000000	0.441371
757.000000	0.441963
758.000000	0.442574
759.000000	0.443236
760.000000	0.443842
761.000000	0.444416
762.000000	0.444909
763.000000	0.445353
764.000000	0.445940
765.000000	0.446429
766.000000	0.446873
767.000000	0.447340
768.000000	0.447741
769.000000	0.448158
770.000000	0.448600
771.000000	0.448936
772.000000	0.449286
773.000000	0.449596
774.000000	0.449932
775.000000	0.450193
776.000000	0.450473
777.000000	0.450805
778.000000	0.451099
779.000000	0.451399
780.000000	0.451693
781.000000	0.451885
782.000000	0.452030
783.000000	0.452247
784.000000	0.452399
785.000000	0.452605
786.000000	0.452816
787.000000	0.452985
788.000000	0.453114
789.000000	0.453290
790.000000	0.453476
791.000000	0.453642
792.000000	0.453878
793.000000	0.454090
794.000000	0.454214
795.000000	0.454379
796.000000	0.454445
797.000000	0.454392
798.000000	0.454353
799.000000	0.454398
800.000000	0.454502
801.000000	0.454611
802.000000	0.454731
803.000000	0.454863
804.000000	0.455009
805.000000	0.454965
806.000000	0.454879
807.000000	0.454902
808.000000	0.454960
809.000000	0.455017
810.000000	0.455031
811.000000	0.454971
812.000000	0.454901
813.000000	0.454869
814.000000	0.454878
815.000000	0.454926
816.000000	0.454867
817.000000	0.454796
818.000000	0.454733
819.000000	0.454815
820.000000	0.454894
821.000000	0.454850
822.000000	0.454852
823.000000	0.454826
824.000000	0.454731
825.000000	0.454698
826.000000	0.454578
827.000000	0.454471
828.000000	0.454485
829.000000	0.454478
830.000000	0.454362
831.000000	0.454263
832.000000	0.454172
833.000000	0.454008
834.000000	0.453886
835.000000	0.453892
836.000000	0.453728
837.000000	0.453483
838.000000	0.453313
839.000000	0.453353
840.000000	0.453337
841.000000	0.453308
842.000000	0.453264
843.000000	0.453060
844.000000	0.452867
845.000000	0.452722
846.000000	0.452634
847.000000	0.452527
848.000000	0.452429
849.000000	0.452413
850.000000	0.452332
851.000000	0.452177
852.000000	0.452063
853.000000	0.452106
854.000000	0.452049
855.000000	0.452015
856.000000	0.451936
857.000000	0.451682
858.000000	0.451516
859.000000	0.451431
860.000000	0.451308
861.000000	0.451170
862.000000	0.451062
863.000000	0.450915
864.000000	0.450699
865.000000	0.450409
866.000000	0.450136
867.000000	0.450039
868.000000	0.449981
869.000000	0.449813
870.000000	0.449570
871.000000	0.449303
872.000000	0.449096
873.000000	0.448884
874.000000	0.448617
875.000000	0.448438
876.000000	0.448276
877.000000	0.447907
878.000000	0.447626
879.000000	0.447506
880.000000	0.447346
881.000000	0.447210
882.000000	0.447067
883.000000	0.446930
884.000000	0.446745
885.000000	0.446668
886.000000	0.446532
887.000000	0.446291
888.000000	0.446036
889.000000	0.445756
890.000000	0.445411
891.000000	0.445243
892.000000	0.444939
893.000000	0.444646
894.000000	0.444564
895.000000	0.444337
896.000000	0.444058
897.000000	0.443788
898.000000	0.443569
899.000000	0.443352
900.000000	0.443224
901.000000	0.443143
902.000000	0.443086
903.000000	0.442782
904.000000	0.442461
905.000000	0.442283
906.000000	0.442259
907.000000	0.442096
908.000000	0.441841
909.000000	0.441656
910.000000	0.441388
911.000000	0.441192
912.000000	0.441152
913.000000	0.440735
914.000000	0.440328
915.000000	0.440115
916.000000	0.439867
917.000000	0.439634
918.000000	0.439555
919.000000	0.439569
920.000000	0.439175
921.000000	0.438910
922.000000	0.438849
923.000000	0.438761
924.000000	0.438421
925.000000	0.438022
926.000000	0.437751
927.000000	0.437527
928.000000	0.437240
929.000000	0.436877
930.000000	0.436502
931.000000	0.436291
932.000000	0.436065
933.000000	0.435769
934.000000	0.435354
935.000000	0.435165
936.000000	0.435016
937.000000	0.434610
938.000000	0.434370
939.000000	0.434256
940.000000	0.434077
941.000000	0.433800
942.000000	0.433533
943.000000	0.433369
944.000000	0.433165
945.000000	0.432996
946.000000	0.432743
947.000000	0.432502
948.000000	0.432294
949.000000	0.432014
950.000000	0.431702
951.000000	0.431324
952.000000	0.430948
953.000000	0.430588
954.000000	0.430361
955.000000	0.430202
956.000000	0.429963
957.000000	0.429714
958.000000	0.429404
959.000000	0.429131
960.000000	0.428902
961.000000	0.428729
962.000000	0.428553
963.000000	0.428322
964.000000	0.428067
965.000000	0.427922
966.000000	0.427765
967.000000	0.427408
968.000000	0.427072
969.000000	0.426736
970.000000	0.426436
971.000000	0.425994
972.000000	0.425743
973.000000	0.425658
974.000000	0.425506
975.000000	0.425256
976.000000	0.425048
977.000000	0.424965
978.000000	0.424828
979.000000	0.424806
980.000000	0.424621
981.000000	0.424499
982.000000	0.424308
983.000000	0.423772
984.000000	0.423265
985.000000	0.423545
986.000000	0.423623
987.000000	0.423455
988.000000	0.423047
989.000000	0.422658
990.000000	0.422712
991.000000	0.422791
992.000000	0.422468
993.000000	0.422458
994.000000	0.422484
995.000000	0.422550
996.000000	0.422351
997.000000	0.422176
998.000000	0.422183
999.000000	0.422345
1000.000000	0.422058
1001.000000	0.423162
1002.000000	0.422150
1003.000000	0.421273
1004.000000	0.421135
1005.000000	0.421387
1006.000000	0.421094
1007.000000	0.421252
1008.000000	0.421187
1009.000000	0.420542
1010.000000	0.420076
1011.000000	0.419743
1012.000000	0.419934
1013.000000	0.419932
1014.000000	0.419197
1015.000000	0.419168
1016.000000	0.419500
1017.000000	0.419753
1018.000000	0.420634
1019.000000	0.420745
1020.000000	0.420618
1021.000000	0.420004
1022.000000	0.418551
1023.000000	0.418395
1024.000000	0.418244
1025.000000	0.419596
1026.000000	0.420295
1027.000000	0.420071
1028.000000	0.420291
1029.000000	0.420010
1030.000000	0.420007
1031.000000	0.420781
1032.000000	0.421130
1033.000000	0.420741
1034.000000	0.420700
1035.000000	0.420702
1036.000000	0.420827
1037.000000	0.420908
1038.000000	0.421085
1039.000000	0.421595
1040.000000	0.422048
1041.000000	0.422234
1042.000000	0.422636
1043.000000	0.423085
1044.000000	0.423067
1045.000000	0.423054
1046.000000	0.423166
1047.000000	0.423258
1048.000000	0.423198
1049.000000	0.423324
1050.000000	0.423745
1051.000000	0.423807
1052.000000	0.423326
1053.000000	0.423299
1054.000000	0.423735
1055.000000	0.423976
1056.000000	0.424142
1057.000000	0.425170
1058.000000	0.425738
1059.000000	0.425373
1060.000000	0.425380
1061.000000	0.425430
1062.000000	0.425310
1063.000000	0.425665
1064.000000	0.426011
1065.000000	0.426543
1066.000000	0.427057
1067.000000	0.427720
1068.000000	0.427979
1069.000000	0.428070
1070.000000	0.428254
1071.000000	0.428102
1072.000000	0.428290
1073.000000	0.429021
1074.000000	0.429447
1075.000000	0.429330
1076.000000	0.429426
1077.000000	0.429428
1078.000000	0.429214
1079.000000	0.429300
1080.000000	0.429880
1081.000000	0.430036
1082.000000	0.430072
1083.000000	0.430202
1084.000000	0.430448
1085.000000	0.430575
1086.000000	0.430442
1087.000000	0.430730
1088.000000	0.431040
1089.000000	0.431268
1090.000000	0.431746
1091.000000	0.432162
1092.000000	0.432070
1093.000000	0.432151
1094.000000	0.432272
1095.000000	0.432173
1096.000000	0.432522
1097.000000	0.433176
1098.000000	0.433682
1099.000000	0.434433
1100.000000	0.434803
1101.000000	0.434885
1102.000000	0.434974
1103.000000	0.434724
1104.000000	0.434763
1105.000000	0.434770
1106.000000	0.435012
1107.000000	0.435699
1108.000000	0.435910
1109.000000	0.436153
1110.000000	0.436195
1111.000000	0.436171
1112.000000	0.435652
1113.000000	0.435796
1114.000000	0.436251
1115.000000	0.436574
1116.000000	0.437207
1117.000000	0.437478
1118.000000	0.437526
1119.000000	0.437555
1120.000000	0.437339
1121.000000	0.437377
1122.000000	0.437679
1123.000000	0.438072
1124.000000	0.438354
1125.000000	0.438597
1126.000000	0.438549
1127.000000	0.438634
1128.000000	0.438758
1129.000000	0.438990
1130.000000	0.439164
1131.000000	0.439453
1132.000000	0.439541
1133.000000	0.439570
1134.000000	0.439659
1135.000000	0.439666
1136.000000	0.439637
1137.000000	0.439577
1138.000000	0.439499
1139.000000	0.439512
1140.000000	0.439544
1141.000000	0.439572
1142.000000	0.439520
1143.000000	0.439149
1144.000000	0.439166
1145.000000	0.439030
1146.000000	0.439024
1147.000000	0.438979
1148.000000	0.438940
1149.000000	0.438943
1150.000000	0.438974
1151.000000	0.438956
1152.000000	0.438905
1153.000000	0.438863
1154.000000	0.438736
1155.000000	0.438563
1156.000000	0.438418
1157.000000	0.438270
1158.000000	0.437899
1159.000000	0.437681
1160.000000	0.437513
1161.000000	0.437388
1162.000000	0.437394
1163.000000	0.437660
1164.000000	0.437493
1165.000000	0.437345
1166.000000	0.437318
1167.000000	0.437134
1168.000000	0.437025
1169.000000	0.437170
1170.000000	0.437126
1171.000000	0.436961
1172.000000	0.436929
1173.000000	0.436903
1174.000000	0.436860
1175.000000	0.436788
1176.000000	0.436708
1177.000000	0.436753
1178.000000	0.436735
1179.000000	0.436633
1180.000000	0.436536
1181.000000	0.436579
1182.000000	0.436467
1183.000000	0.436563
1184.000000	0.436930
1185.000000	0.437025
1186.000000	0.437162
1187.000000	0.437104
1188.000000	0.436775
1189.000000	0.436598
1190.000000	0.436485
1191.000000	0.436330
1192.000000	0.436260
1193.000000	0.436427
1194.000000	0.436553
1195.000000	0.436610
1196.000000	0.436744
1197.000000	0.436781
1198.000000	0.436648
1199.000000	0.436616
1200.000000	0.436639
1201.000000	0.436661
1202.000000	0.436542
1203.000000	0.436564
1204.000000	0.436481
1205.000000	0.436344
1206.000000	0.436254
1207.000000	0.436300
1208.000000	0.436221
1209.000000	0.436227
1210.000000	0.436191
1211.000000	0.436103
1212.000000	0.436033
1213.000000	0.435965
1214.000000	0.435999
1215.000000	0.436073
1216.000000	0.436108
1217.000000	0.436263
1218.000000	0.436220
1219.000000	0.436001
1220.000000	0.435906
1221.000000	0.435959
1222.000000	0.435978
1223.000000	0.436146
1224.000000	0.436342
1225.000000	0.436355
1226.000000	0.436332
1227.000000	0.436325
1228.000000	0.436441
1229.000000	0.436424
1230.000000	0.436288
1231.000000	0.436236
1232.000000	0.436375
1233.000000	0.436462
1234.000000	0.436571
1235.000000	0.436644
1236.000000	0.436480
1237.000000	0.436511
1238.000000	0.436554
1239.000000	0.436590
1240.000000	0.436645
1241.000000	0.436818
1242.000000	0.436840
1243.000000	0.436874
1244.000000	0.436992
1245.000000	0.437118
1246.000000	0.437220
1247.000000	0.437410
1248.000000	0.437599
1249.000000	0.437665
1250.000000	0.437660
1251.000000	0.437836
1252.000000	0.437876
1253.000000	0.437769
1254.000000	0.437828
1255.000000	0.437978
1256.000000	0.438037
1257.000000	0.438233
1258.000000	0.438391
1259.000000	0.438298
1260.000000	0.438374
1261.000000	0.438409
1262.000000	0.438473
1263.000000	0.438546
1264.000000	0.438847
1265.000000	0.439167
1266.000000	0.439324
1267.000000	0.439517
1268.000000	0.439700
1269.000000	0.439505
1270.000000	0.439331
1271.000000	0.439202
1272.000000	0.439159
1273.000000	0.439319
1274.000000	0.439587
1275.000000	0.439683
1276.000000	0.439737
1277.000000	0.439782
1278.000000	0.439550
1279.000000	0.439590
1280.000000	0.439655
1281.000000	0.439672
1282.000000	0.439933
1283.000000	0.440089
1284.000000	0.440030
1285.000000	0.440117
1286.000000	0.440239
1287.000000	0.440243
1288.000000	0.440425
1289.000000	0.440379
1290.000000	0.440156
1291.000000	0.440003
1292.000000	0.439872
1293.000000	0.439810
1294.000000	0.439883
1295.000000	0.440015
1296.000000	0.440013
1297.000000	0.440071
1298.000000	0.440173
1299.000000	0.440220
1300.000000	0.440382
1301.000000	0.440370
1302.000000	0.440268
1303.000000	0.440211
1304.000000	0.440096
1305.000000	0.440077
1306.000000	0.439942
1307.000000	0.439766
1308.000000	0.439682
1309.000000	0.439455
1310.000000	0.439381
1311.000000	0.439535
1312.000000	0.439552
1313.000000	0.439555
1314.000000	0.439498
1315.000000	0.439148
1316.000000	0.438966
1317.000000	0.438758
1318.000000	0.438513
1319.000000	0.438260
1320.000000	0.437939
1321.000000	0.437603
1322.000000	0.437262
1323.000000	0.437012
1324.000000	0.436821
1325.000000	0.436658
1326.000000	0.436468
1327.000000	0.436178
1328.000000	0.435966
1329.000000	0.435652
1330.000000	0.435239
1331.000000	0.434926
1332.000000	0.434686
1333.000000	0.434444
1334.000000	0.434359
1335.000000	0.434135
1336.000000	0.433899
1337.000000	0.433596
1338.000000	0.433091
1339.000000	0.432629
1340.000000	0.432329
1341.000000	0.432020
1342.000000	0.431675
1343.000000	0.431286
1344.000000	0.430833
1345.000000	0.430310
1346.000000	0.429797
1347.000000	0.429201
1348.000000	0.428702
1349.000000	0.428062
1350.000000	0.427696
1351.000000	0.427478
1352.000000	0.426903
1353.000000	0.426373
1354.000000	0.426033
1355.000000	0.425489
1356.000000	0.425103
1357.000000	0.424793
1358.000000	0.424279
1359.000000	0.423758
1360.000000	0.423360
1361.000000	0.423136
1362.000000	0.422783
1363.000000	0.422475
1364.000000	0.422077
1365.000000	0.421488
1366.000000	0.421076
1367.000000	0.420720
1368.000000	0.420256
1369.000000	0.419994
1370.000000	0.419433
1371.000000	0.418864
1372.000000	0.418360
1373.000000	0.417682
1374.000000	0.417208
1375.000000	0.416696
1376.000000	0.416163
1377.000000	0.415727
1378.000000	0.415155
1379.000000	0.414356
1380.000000	0.413541
1381.000000	0.412648
1382.000000	0.411698
1383.000000	0.410791
1384.000000	0.409670
1385.000000	0.408429
1386.000000	0.407282
1387.000000	0.406119
1388.000000	0.404815
1389.000000	0.403551
1390.000000	0.402291
1391.000000	0.400851
1392.000000	0.399360
1393.000000	0.397724
1394.000000	0.396012
1395.000000	0.394265
1396.000000	0.392457
1397.000000	0.390458
1398.000000	0.388247
1399.000000	0.386155
1400.000000	0.383961
1401.000000	0.381760
1402.000000	0.379684
1403.000000	0.377522
1404.000000	0.375343
1405.000000	0.373107
1406.000000	0.370863
1407.000000	0.368748
1408.000000	0.366429
1409.000000	0.364150
1410.000000	0.361974
1411.000000	0.359614
1412.000000	0.357330
1413.000000	0.355081
1414.000000	0.352803
1415.000000	0.350690
1416.000000	0.348554
1417.000000	0.346380
1418.000000	0.344173
1419.000000	0.341957
1420.000000	0.339748
1421.000000	0.337705
1422.000000	0.335707
1423.000000	0.333825
1424.000000	0.331867
1425.000000	0.329859
1426.000000	0.327912
1427.000000	0.326034
1428.000000	0.324311
1429.000000	0.322715
1430.000000	0.321150
1431.000000	0.319662
1432.000000	0.318127
1433.000000	0.316599
1434.000000	0.315069
1435.000000	0.313573
1436.000000	0.312140
1437.000000	0.310697
1438.000000	0.309344
1439.000000	0.308126
1440.000000	0.306987
1441.000000	0.305938
1442.000000	0.304905
1443.000000	0.303912
1444.000000	0.302848
1445.000000	0.301789
1446.000000	0.300985
1447.000000	0.300223
1448.000000	0.299486
1449.000000	0.298904
1450.000000	0.298270
1451.000000	0.297562
1452.000000	0.296935
1453.000000	0.296386
1454.000000	0.295816
1455.000000	0.295325
1456.000000	0.295038
1457.000000	0.294758
1458.000000	0.294418
1459.000000	0.294141
1460.000000	0.293799
1461.000000	0.293428
1462.000000	0.293127
1463.000000	0.292730
1464.000000	0.292401
1465.000000	0.292217
1466.000000	0.291983
1467.000000	0.291869
1468.000000	0.291828
1469.000000	0.291787
1470.000000	0.291680
1471.000000	0.291597
1472.000000	0.291629
1473.000000	0.291806
1474.000000	0.292029
1475.000000	0.292327
1476.000000	0.292639
1477.000000	0.292949
1478.000000	0.293436
1479.000000	0.294008
1480.000000	0.294566
1481.000000	0.295150
1482.000000	0.295731
1483.000000	0.296476
1484.000000	0.297409
1485.000000	0.298212
1486.000000	0.299051
1487.000000	0.299875
1488.000000	0.300602
1489.000000	0.301424
1490.000000	0.302276
1491.000000	0.303026
1492.000000	0.303651
1493.000000	0.304334
1494.000000	0.304956
1495.000000	0.305552
1496.000000	0.306129
1497.000000	0.306749
1498.000000	0.307308
1499.000000	0.308041
1500.000000	0.308873
1501.000000	0.309544
1502.000000	0.310151
1503.000000	0.310729
1504.000000	0.311234
1505.000000	0.311795
1506.000000	0.312307
1507.000000	0.312785
1508.000000	0.313364
1509.000000	0.313831
1510.000000	0.314246
1511.000000	0.314739
1512.000000	0.315100
1513.000000	0.315416
1514.000000	0.315864
1515.000000	0.316234
1516.000000	0.316564
1517.000000	0.316863
1518.000000	0.317186
1519.000000	0.317433
1520.000000	0.317659
1521.000000	0.318037
1522.000000	0.318453
1523.000000	0.318791
1524.000000	0.319167
1525.000000	0.319572
1526.000000	0.319791
1527.000000	0.320062
1528.000000	0.320390
1529.000000	0.320623
1530.000000	0.320836
1531.000000	0.321005
1532.000000	0.321150
1533.000000	0.321269
1534.000000	0.321395
1535.000000	0.321619
1536.000000	0.321770
1537.000000	0.321903
1538.000000	0.322006
1539.000000	0.322093
1540.000000	0.322233
1541.000000	0.322347
1542.000000	0.322446
1543.000000	0.322536
1544.000000	0.322551
1545.000000	0.322613
1546.000000	0.322706
1547.000000	0.322814
1548.000000	0.322906
1549.000000	0.322849
1550.000000	0.322798
1551.000000	0.322732
1552.000000	0.322605
1553.000000	0.322592
1554.000000	0.322615
1555.000000	0.322651
1556.000000	0.322853
1557.000000	0.323030
1558.000000	0.323094
1559.000000	0.323020
1560.000000	0.322967
1561.000000	0.322826
1562.000000	0.322806
1563.000000	0.322920
1564.000000	0.322953
1565.000000	0.322983
1566.000000	0.322931
1567.000000	0.322928
1568.000000	0.322905
1569.000000	0.322890
1570.000000	0.322889
1571.000000	0.322880
1572.000000	0.322875
1573.000000	0.322946
1574.000000	0.322950
1575.000000	0.322873
1576.000000	0.322921
1577.000000	0.322978
1578.000000	0.322996
1579.000000	0.323201
1580.000000	0.323183
1581.000000	0.323042
1582.000000	0.323034
1583.000000	0.322975
1584.000000	0.322970
1585.000000	0.323186
1586.000000	0.323270
1587.000000	0.323251
1588.000000	0.323317
1589.000000	0.323425
1590.000000	0.323513
1591.000000	0.323743
1592.000000	0.323831
1593.000000	0.323784
1594.000000	0.323764
1595.000000	0.323714
1596.000000	0.323763
1597.000000	0.323947
1598.000000	0.324036
1599.000000	0.324155
1600.000000	0.324197
1601.000000	0.324226
1602.000000	0.324301
1603.000000	0.324464
1604.000000	0.324516
1605.000000	0.324505
1606.000000	0.324549
1607.000000	0.324627
1608.000000	0.324660
1609.000000	0.324797
1610.000000	0.324854
1611.000000	0.324775
1612.000000	0.324891
1613.000000	0.325207
1614.000000	0.325401
1615.000000	0.325769
1616.000000	0.326034
1617.000000	0.326097
1618.000000	0.326279
1619.000000	0.326457
1620.000000	0.326661
1621.000000	0.326945
1622.000000	0.327271
1623.000000	0.327562
1624.000000	0.327937
1625.000000	0.328264
1626.000000	0.328538
1627.000000	0.328869
1628.000000	0.329210
1629.000000	0.329481
1630.000000	0.329859
1631.000000	0.330249
1632.000000	0.330583
1633.000000	0.330971
1634.000000	0.331268
1635.000000	0.331508
1636.000000	0.331850
1637.000000	0.332224
1638.000000	0.332551
1639.000000	0.332944
1640.000000	0.333322
1641.000000	0.333746
1642.000000	0.334129
1643.000000	0.334604
1644.000000	0.334986
1645.000000	0.335226
1646.000000	0.335500
1647.000000	0.335825
1648.000000	0.336114
1649.000000	0.336528
1650.000000	0.336838
1651.000000	0.337068
1652.000000	0.337461
1653.000000	0.337780
1654.000000	0.338228
1655.000000	0.338814
1656.000000	0.339230
1657.000000	0.339701
1658.000000	0.340135
1659.000000	0.340607
1660.000000	0.341093
1661.000000	0.341519
1662.000000	0.341898
1663.000000	0.342204
1664.000000	0.342611
1665.000000	0.342996
1666.000000	0.343482
1667.000000	0.344025
1668.000000	0.344458
1669.000000	0.344811
1670.000000	0.345125
1671.000000	0.345528
1672.000000	0.345863
1673.000000	0.346098
1674.000000	0.346448
1675.000000	0.346747
1676.000000	0.347191
1677.000000	0.347620
1678.000000	0.347919
1679.000000	0.348299
1680.000000	0.348535
1681.000000	0.348672
1682.000000	0.348845
1683.000000	0.349115
1684.000000	0.349550
1685.000000	0.349964
1686.000000	0.350150
1687.000000	0.350270
1688.000000	0.350399
1689.000000	0.350538
1690.000000	0.350818
1691.000000	0.351210
1692.000000	0.351323
1693.000000	0.351475
1694.000000	0.351722
1695.000000	0.351988
1696.000000	0.352316
1697.000000	0.352524
1698.000000	0.352729
1699.000000	0.352936
1700.000000	0.353004
1701.000000	0.353301
1702.000000	0.353567
1703.000000	0.353774
1704.000000	0.354167
1705.000000	0.354469
1706.000000	0.354753
1707.000000	0.354975
1708.000000	0.355123
1709.000000	0.355211
1710.000000	0.355276
1711.000000	0.355411
1712.000000	0.355583
1713.000000	0.355776
1714.000000	0.356082
1715.000000	0.356312
1716.000000	0.356514
1717.000000	0.356768
1718.000000	0.356952
1719.000000	0.357210
1720.000000	0.357688
1721.000000	0.357962
1722.000000	0.358191
1723.000000	0.358372
1724.000000	0.358364
1725.000000	0.358619
1726.000000	0.358829
1727.000000	0.359201
1728.000000	0.359815
1729.000000	0.360108
1730.000000	0.360523
1731.000000	0.360777
1732.000000	0.360768
1733.000000	0.361047
1734.000000	0.361240
1735.000000	0.361520
1736.000000	0.361939
1737.000000	0.362175
1738.000000	0.362348
1739.000000	0.362579
1740.000000	0.362753
1741.000000	0.362905
1742.000000	0.363089
1743.000000	0.363355
1744.000000	0.363560
1745.000000	0.363813
1746.000000	0.364162
1747.000000	0.364567
1748.000000	0.364758
1749.000000	0.364793
1750.000000	0.364930
1751.000000	0.365208
1752.000000	0.365439
1753.000000	0.365602
1754.000000	0.365741
1755.000000	0.365602
1756.000000	0.365592
1757.000000	0.365666
1758.000000	0.365814
1759.000000	0.366076
1760.000000	0.366212
1761.000000	0.366228
1762.000000	0.366376
1763.000000	0.366565
1764.000000	0.366711
1765.000000	0.366849
1766.000000	0.367134
1767.000000	0.367320
1768.000000	0.367550
1769.000000	0.368165
1770.000000	0.368511
1771.000000	0.368584
1772.000000	0.368794
1773.000000	0.368927
1774.000000	0.369120
1775.000000	0.369419
1776.000000	0.369748
1777.000000	0.370096
1778.000000	0.370329
1779.000000	0.370548
1780.000000	0.370785
1781.000000	0.370909
1782.000000	0.371046
1783.000000	0.371294
1784.000000	0.371561
1785.000000	0.371484
1786.000000	0.371470
1787.000000	0.371768
1788.000000	0.372012
1789.000000	0.372263
1790.000000	0.372489
1791.000000	0.372690
1792.000000	0.372898
1793.000000	0.373116
1794.000000	0.373453
1795.000000	0.373749
1796.000000	0.373950
1797.000000	0.374193
1798.000000	0.374422
1799.000000	0.374697
1800.000000	0.375099
1801.000000	0.375316
1802.000000	0.375278
1803.000000	0.373624
1804.000000	0.373908
1805.000000	0.375589
1806.000000	0.375994
1807.000000	0.376549
1808.000000	0.376913
1809.000000	0.377162
1810.000000	0.375863
1811.000000	0.375576
1812.000000	0.375610
1813.000000	0.375883
1814.000000	0.376337
1815.000000	0.376675
1816.000000	0.377680
1817.000000	0.377856
1818.000000	0.377695
1819.000000	0.377342
1820.000000	0.376756
1821.000000	0.375567
1822.000000	0.375330
1823.000000	0.375056
1824.000000	0.375230
1825.000000	0.376820
1826.000000	0.377259
1827.000000	0.377509
1828.000000	0.376558
1829.000000	0.376950
1830.000000	0.376287
1831.000000	0.376034
1832.000000	0.376483
1833.000000	0.376386
1834.000000	0.375664
1835.000000	0.375198
1836.000000	0.374463
1837.000000	0.374151
1838.000000	0.374068
1839.000000	0.373715
1840.000000	0.373247
1841.000000	0.373115
1842.000000	0.372694
1843.000000	0.371721
1844.000000	0.371368
1845.000000	0.371461
1846.000000	0.370944
1847.000000	0.370273
1848.000000	0.369179
1849.000000	0.367686
1850.000000	0.366600
1851.000000	0.365964
1852.000000	0.365862
1853.000000	0.365282
1854.000000	0.364923
1855.000000	0.363855
1856.000000	0.362027
1857.000000	0.360569
1858.000000	0.358651
1859.000000	0.356212
1860.000000	0.353983
1861.000000	0.351479
1862.000000	0.349397
1863.000000	0.347691
1864.000000	0.345737
1865.000000	0.344032
1866.000000	0.342091
1867.000000	0.339525
1868.000000	0.337782
1869.000000	0.336103
1870.000000	0.333902
1871.000000	0.331846
1872.000000	0.329066
1873.000000	0.325696
1874.000000	0.321325
1875.000000	0.317479
1876.000000	0.313133
1877.000000	0.308450
1878.000000	0.304533
1879.000000	0.300995
1880.000000	0.296625
1881.000000	0.292187
1882.000000	0.287724
1883.000000	0.282467
1884.000000	0.277351
1885.000000	0.272044
1886.000000	0.266749
1887.000000	0.261145
1888.000000	0.255326
1889.000000	0.250375
1890.000000	0.245415
1891.000000	0.240195
1892.000000	0.235281
1893.000000	0.229713
1894.000000	0.224120
1895.000000	0.218637
1896.000000	0.213455
1897.000000	0.207961
1898.000000	0.202356
1899.000000	0.196758
1900.000000	0.191272
1901.000000	0.186045
1902.000000	0.181311
1903.000000	0.176726
1904.000000	0.172421
1905.000000	0.168416
1906.000000	0.164306
1907.000000	0.160242
1908.000000	0.156642
1909.000000	0.153110
1910.000000	0.149792
1911.000000	0.147021
1912.000000	0.144069
1913.000000	0.141557
1914.000000	0.139640
1915.000000	0.137365
1916.000000	0.135296
1917.000000	0.133340
1918.000000	0.131650
1919.000000	0.129197
1920.000000	0.126776
1921.000000	0.125255
1922.000000	0.123940
1923.000000	0.122725
1924.000000	0.122267
1925.000000	0.121435
1926.000000	0.120218
1927.000000	0.119916
1928.000000	0.119680
1929.000000	0.119782
1930.000000	0.120179
1931.000000	0.120051
1932.000000	0.119620
1933.000000	0.119561
1934.000000	0.118726
1935.000000	0.118522
1936.000000	0.118820
1937.000000	0.117993
1938.000000	0.117767
1939.000000	0.117798
1940.000000	0.118187
1941.000000	0.117986
1942.000000	0.118186
1943.000000	0.118282
1944.000000	0.118039
1945.000000	0.117180
1946.000000	0.116524
1947.000000	0.116116
1948.000000	0.115083
1949.000000	0.114741
1950.000000	0.114595
1951.000000	0.114009
1952.000000	0.113064
1953.000000	0.112506
1954.000000	0.111764
1955.000000	0.110884
1956.000000	0.110539
1957.000000	0.110441
1958.000000	0.110587
1959.000000	0.110995
1960.000000	0.111088
1961.000000	0.111006
1962.000000	0.110807
1963.000000	0.110519
1964.000000	0.109658
1965.000000	0.109016
1966.000000	0.108554
1967.000000	0.108058
1968.000000	0.108197
1969.000000	0.108138
1970.000000	0.108172
1971.000000	0.108332
1972.000000	0.108126
1973.000000	0.108199
1974.000000	0.108703
1975.000000	0.108872
1976.000000	0.108815
1977.000000	0.109213
1978.000000	0.109491
1979.000000	0.109874
1980.000000	0.110938
1981.000000	0.112005
1982.000000	0.112686
1983.000000	0.113062
1984.000000	0.113444
1985.000000	0.113326
1986.000000	0.113664
1987.000000	0.114211
1988.000000	0.114860
1989.000000	0.115605
1990.000000	0.116364
1991.000000	0.116605
1992.000000	0.117523
1993.000000	0.118494
1994.000000	0.118793
1995.000000	0.119568
1996.000000	0.120103
1997.000000	0.120805
1998.000000	0.121722
1999.000000	0.122599
2000.000000	0.123459
2001.000000	0.124498
2002.000000	0.125303
2003.000000	0.125890
2004.000000	0.127292
2005.000000	0.128238
2006.000000	0.129269
2007.000000	0.130812
2008.000000	0.131949
2009.000000	0.132702
2010.000000	0.133745
2011.000000	0.134585
2012.000000	0.135773
2013.000000	0.137046
2014.000000	0.138653
2015.000000	0.140267
2016.000000	0.141739
2017.000000	0.143101
2018.000000	0.144332
2019.000000	0.145364
2020.000000	0.146135
2021.000000	0.147133
2022.000000	0.147752
2023.000000	0.148964
2024.000000	0.150844
2025.000000	0.152395
2026.000000	0.154176
2027.000000	0.155463
2028.000000	0.156231
2029.000000	0.156992
2030.000000	0.157590
2031.000000	0.158463
2032.000000	0.159724
2033.000000	0.161265
2034.000000	0.162655
2035.000000	0.164144
2036.000000	0.165617
2037.000000	0.167617
2038.000000	0.168600
2039.000000	0.168980
2040.000000	0.169782
2041.000000	0.170265
2042.000000	0.170960
2043.000000	0.172618
2044.000000	0.174278
2045.000000	0.175453
2046.000000	0.176125
2047.000000	0.177044
2048.000000	0.177881
2049.000000	0.178820
2050.000000	0.179665
2051.000000	0.180512
2052.000000	0.180817
2053.000000	0.181701
2054.000000	0.183049
2055.000000	0.184486
2056.000000	0.186137
2057.000000	0.188482
2058.000000	0.190089
2059.000000	0.191431
2060.000000	0.192184
2061.000000	0.192032
2062.000000	0.192473
2063.000000	0.192374
2064.000000	0.193070
2065.000000	0.194936
2066.000000	0.196097
2067.000000	0.197391
2068.000000	0.198676
2069.000000	0.199541
2070.000000	0.200772
2071.000000	0.202041
2072.000000	0.202737
2073.000000	0.203587
2074.000000	0.204101
2075.000000	0.204878
2076.000000	0.205715
2077.000000	0.206733
2078.000000	0.207863
2079.000000	0.208986
2080.000000	0.210262
2081.000000	0.211512
2082.000000	0.212866
2083.000000	0.214164
2084.000000	0.215407
2085.000000	0.216573
2086.000000	0.217213
2087.000000	0.218635
2088.000000	0.219937
2089.000000	0.220597
2090.000000	0.221922
2091.000000	0.223677
2092.000000	0.225072
2093.000000	0.227128
2094.000000	0.228181
2095.000000	0.228218
2096.000000	0.229020
2097.000000	0.229665
2098.000000	0.230111
2099.000000	0.231227
2100.000000	0.232803
2101.000000	0.233893
2102.000000	0.235181
2103.000000	0.236509
2104.000000	0.237110
2105.000000	0.238127
2106.000000	0.239015
2107.000000	0.240217
2108.000000	0.242112
2109.000000	0.243198
2110.000000	0.243739
2111.000000	0.244196
2112.000000	0.244109
2113.000000	0.243871
2114.000000	0.243871
2115.000000	0.244638
2116.000000	0.245970
2117.000000	0.247359
2118.000000	0.249068
2119.000000	0.250224
2120.000000	0.250938
2121.000000	0.250985
2122.000000	0.251319
2123.000000	0.251119
2124.000000	0.251483
2125.000000	0.252019
2126.000000	0.252543
2127.000000	0.253618
2128.000000	0.254380
2129.000000	0.254912
2130.000000	0.255776
2131.000000	0.255270
2132.000000	0.254859
2133.000000	0.254791
2134.000000	0.254073
2135.000000	0.254844
2136.000000	0.255786
2137.000000	0.256734
2138.000000	0.258382
2139.000000	0.259218
2140.000000	0.259806
2141.000000	0.260146
2142.000000	0.259661
2143.000000	0.259567
2144.000000	0.259819
2145.000000	0.259862
2146.000000	0.259809
2147.000000	0.260300
2148.000000	0.260404
2149.000000	0.261246
2150.000000	0.262102
2151.000000	0.262695
2152.000000	0.263065
2153.000000	0.262434
2154.000000	0.262068
2155.000000	0.261119
2156.000000	0.261013
2157.000000	0.261463
2158.000000	0.261651
2159.000000	0.262297
2160.000000	0.262730
2161.000000	0.262448
2162.000000	0.262962
2163.000000	0.264459
2164.000000	0.264889
2165.000000	0.265349
2166.000000	0.264994
2167.000000	0.264505
2168.000000	0.264162
2169.000000	0.263822
2170.000000	0.264461
2171.000000	0.264494
2172.000000	0.263923
2173.000000	0.264226
2174.000000	0.264965
2175.000000	0.265501
2176.000000	0.266800
2177.000000	0.267116
2178.000000	0.266407
2179.000000	0.266701
2180.000000	0.267406
2181.000000	0.267812
2182.000000	0.268141
2183.000000	0.268409
2184.000000	0.267297
2185.000000	0.265965
2186.000000	0.265520
2187.000000	0.265463
2188.000000	0.266569
2189.000000	0.266866
2190.000000	0.265813
2191.000000	0.265172
2192.000000	0.264486
2193.000000	0.262671
2194.000000	0.262180
2195.000000	0.262813
2196.000000	0.263435
2197.000000	0.265056
2198.000000	0.265711
2199.000000	0.266403
2200.000000	0.266950
2201.000000	0.266308
2202.000000	0.266541
2203.000000	0.267375
2204.000000	0.267791
2205.000000	0.267856
2206.000000	0.267783
2207.000000	0.267895
2208.000000	0.268116
2209.000000	0.269408
2210.000000	0.269531
2211.000000	0.270126
2212.000000	0.270601
2213.000000	0.270205
2214.000000	0.269578
2215.000000	0.268542
2216.000000	0.266006
2217.000000	0.265234
2218.000000	0.264610
2219.000000	0.264006
2220.000000	0.264263
2221.000000	0.264625
2222.000000	0.265063
2223.000000	0.265865
2224.000000	0.267440
2225.000000	0.268412
2226.000000	0.269312
2227.000000	0.270356
2228.000000	0.273624
2229.000000	0.273469
2230.000000	0.272291
2231.000000	0.271955
2232.000000	0.267796
2233.000000	0.266846
2234.000000	0.267209
2235.000000	0.266825
2236.000000	0.267312
2237.000000	0.268939
2238.000000	0.269517
2239.000000	0.269687
2240.000000	0.270100
2241.000000	0.271066
2242.000000	0.271264
2243.000000	0.271393
2244.000000	0.271709
2245.000000	0.271149
2246.000000	0.270490
2247.000000	0.269948
2248.000000	0.269272
2249.000000	0.267435
2250.000000	0.267107
2251.000000	0.269330
2252.000000	0.270391
2253.000000	0.270570
2254.000000	0.271676
2255.000000	0.272357
2256.000000	0.270511
2257.000000	0.269218
2258.000000	0.268938
2259.000000	0.264763
2260.000000	0.261518
2261.000000	0.259737
2262.000000	0.258061
2263.000000	0.257130
2264.000000	0.258374
2265.000000	0.258306
2266.000000	0.258009
2267.000000	0.257794
2268.000000	0.257154
2269.000000	0.257254
2270.000000	0.258294
2271.000000	0.257410
2272.000000	0.255204
2273.000000	0.254969
2274.000000	0.254410
2275.000000	0.254805
2276.000000	0.257788
2277.000000	0.259048
2278.000000	0.258282
2279.000000	0.256281
2280.000000	0.254051
2281.000000	0.252271
2282.000000	0.252383
2283.000000	0.250790
2284.000000	0.249544
2285.000000	0.249229
2286.000000	0.245283
2287.000000	0.242594
2288.000000	0.240258
2289.000000	0.237429
2290.000000	0.238084
2291.000000	0.239617
2292.000000	0.241751
2293.000000	0.243377
2294.000000	0.242789
2295.000000	0.239806
2296.000000	0.238329
2297.000000	0.235131
2298.000000	0.234108
2299.000000	0.236154
2300.000000	0.234986
2301.000000	0.231641
2302.000000	0.230215
2303.000000	0.227837
2304.000000	0.226532
2305.000000	0.228491
2306.000000	0.228999
2307.000000	0.228508
2308.000000	0.228326
2309.000000	0.227555
2310.000000	0.223661
2311.000000	0.221759
2312.000000	0.218347
2313.000000	0.217910
2314.000000	0.219532
2315.000000	0.218953
2316.000000	0.220657
2317.000000	0.218317
2318.000000	0.216066
2319.000000	0.214444
2320.000000	0.210868
2321.000000	0.210628
2322.000000	0.209441
2323.000000	0.208325
2324.000000	0.207747
2325.000000	0.208092
2326.000000	0.210057
2327.000000	0.210068
2328.000000	0.210016
2329.000000	0.208151
2330.000000	0.203603
2331.000000	0.200648
2332.000000	0.198893
2333.000000	0.197073
2334.000000	0.196491
2335.000000	0.195903
2336.000000	0.194630
2337.000000	0.193929
2338.000000	0.195098
2339.000000	0.194421
2340.000000	0.193426
2341.000000	0.192456
2342.000000	0.188854
2343.000000	0.186704
2344.000000	0.185669
2345.000000	0.184374
2346.000000	0.184529
2347.000000	0.183989
2348.000000	0.182837
2349.000000	0.181779
2350.000000	0.180890
2351.000000	0.179622
2352.000000	0.177597
2353.000000	0.176521
2354.000000	0.172678
2355.000000	0.165400
2356.000000	0.164222
2357.000000	0.160495
2358.000000	0.157748
2359.000000	0.161615
2360.000000	0.158932
2361.000000	0.158022
2362.000000	0.157348
2363.000000	0.154404
2364.000000	0.154759
2365.000000	0.153985
2366.000000	0.152795
2367.000000	0.152414
2368.000000	0.154989
2369.000000	0.155744
2370.000000	0.155030
2371.000000	0.154157
2372.000000	0.149384
2373.000000	0.148012
2374.000000	0.149985
2375.000000	0.152925
2376.000000	0.158169
2377.000000	0.156166
2378.000000	0.152011
2379.000000	0.150460
2380.000000	0.144472
2381.000000	0.141209
2382.000000	0.139981
2383.000000	0.138801
2384.000000	0.136396
2385.000000	0.134122
2386.000000	0.134320
2387.000000	0.130816
2388.000000	0.127212
2389.000000	0.124190
2390.000000	0.121357
2391.000000	0.120421
2392.000000	0.122117
2393.000000	0.125152
2394.000000	0.123191
2395.000000	0.117810
2396.000000	0.112192
2397.000000	0.109880
2398.000000	0.110544
2399.000000	0.111909
2400.000000	0.119908
2401.000000	0.122122
2402.000000	0.122343
2403.000000	0.130003
2404.000000	0.125700
2405.000000	0.117589
2406.000000	0.111372
2407.000000	0.103706
2408.000000	0.099656
2409.000000	0.098512
2410.000000	0.101465
2411.000000	0.104324
2412.000000	0.104946
2413.000000	0.107307
2414.000000	0.109982
2415.000000	0.109549
2416.000000	0.109764
2417.000000	0.107616
2418.000000	0.102893
2419.000000	0.101768
2420.000000	0.102690
2421.000000	0.106582
2422.000000	0.109490
2423.000000	0.105940
2424.000000	0.101753
2425.000000	0.096748
2426.000000	0.097864
2427.000000	0.100321
2428.000000	0.093841
2429.000000	0.089817
2430.000000	0.082608
2431.000000	0.080373
2432.000000	0.087898
2433.000000	0.087773
2434.000000	0.086573
2435.000000	0.089205
2436.000000	0.089574
2437.000000	0.084120
2438.000000	0.085726
2439.000000	0.091426
2440.000000	0.080844
2441.000000	0.085725
2442.000000	0.101565
2443.000000	0.093212
2444.000000	0.094727
2445.000000	0.099804
2446.000000	0.090981
2447.000000	0.088285
2448.000000	0.090398
2449.000000	0.086738
2450.000000	0.072232
2451.000000	0.076061
2452.000000	0.087720
2453.000000	0.100436
2454.000000	0.114675
2455.000000	0.104595
2456.000000	0.096853
2457.000000	0.083442
2458.000000	0.069493
2459.000000	0.082370
2460.000000	0.085870
2461.000000	0.086809
2462.000000	0.096119
2463.000000	0.088293
2464.000000	0.080774
2465.000000	0.077449
2466.000000	0.067856
2467.000000	0.069565
2468.000000	0.066996
2469.000000	0.046886
2470.000000	0.047093
2471.000000	0.040898
2472.000000	0.045640
2473.000000	0.067333
2474.000000	0.068446
2475.000000	0.079034
2476.000000	0.065725
2477.000000	0.038070
2478.000000	0.018256
2479.000000	0.013558
2480.000000	0.028843
2481.000000	0.041052
2482.000000	0.085161
2483.000000	0.115843
2484.000000	0.078811
2485.000000	0.042990
2486.000000	-0.002400
2487.000000	-0.057828
2488.000000	-0.041656
2489.000000	-0.019721
2490.000000	0.000419
2491.000000	0.009867
2492.000000	0.017529
2493.000000	0.061884
2494.000000	0.063414
2495.000000	-0.009870
2496.000000	-0.011979
2497.000000	-0.007446
2498.000000	0.005356
2499.000000	0.136290
2500.000000	0.178394
