# Wavelength	Nau-1_10_FV7_90_00000.asd.rts.txt
350.000000	0.201412
351.000000	0.198720
352.000000	0.200633
353.000000	0.200176
354.000000	0.196705
355.000000	0.190320
356.000000	0.193303
357.000000	0.202254
358.000000	0.199152
359.000000	0.198972
360.000000	0.200156
361.000000	0.197480
362.000000	0.189370
363.000000	0.187877
364.000000	0.196298
365.000000	0.199553
366.000000	0.199192
367.000000	0.197241
368.000000	0.197124
369.000000	0.198051
370.000000	0.199318
371.000000	0.200329
372.000000	0.202892
373.000000	0.203448
374.000000	0.201135
375.000000	0.201536
376.000000	0.202647
377.000000	0.203424
378.000000	0.203933
379.000000	0.203110
380.000000	0.202500
381.000000	0.204679
382.000000	0.206410
383.000000	0.207659
384.000000	0.208836
385.000000	0.209572
386.000000	0.209777
387.000000	0.209602
388.000000	0.209009
389.000000	0.209754
390.000000	0.211285
391.000000	0.212119
392.000000	0.214163
393.000000	0.214748
394.000000	0.212891
395.000000	0.215146
396.000000	0.215872
397.000000	0.213842
398.000000	0.213470
399.000000	0.214684
400.000000	0.216407
401.000000	0.216883
402.000000	0.217022
403.000000	0.217662
404.000000	0.219204
405.000000	0.219782
406.000000	0.220212
407.000000	0.220773
408.000000	0.220409
409.000000	0.220659
410.000000	0.221473
411.000000	0.221877
412.000000	0.222102
413.000000	0.222229
414.000000	0.222387
415.000000	0.222903
416.000000	0.223578
417.000000	0.224225
418.000000	0.224768
419.000000	0.225158
420.000000	0.225503
421.000000	0.226070
422.000000	0.226127
423.000000	0.225940
424.000000	0.226145
425.000000	0.226778
426.000000	0.227248
427.000000	0.227264
428.000000	0.227807
429.000000	0.228046
430.000000	0.227929
431.000000	0.228484
432.000000	0.228482
433.000000	0.228389
434.000000	0.229410
435.000000	0.229238
436.000000	0.228842
437.000000	0.229338
438.000000	0.229514
439.000000	0.229819
440.000000	0.230352
441.000000	0.229978
442.000000	0.229839
443.000000	0.230163
444.000000	0.230750
445.000000	0.230716
446.000000	0.230587
447.000000	0.230995
448.000000	0.231359
449.000000	0.231739
450.000000	0.232252
451.000000	0.233034
452.000000	0.233423
453.000000	0.233427
454.000000	0.234041
455.000000	0.234845
456.000000	0.235665
457.000000	0.236243
458.000000	0.236949
459.000000	0.237608
460.000000	0.238049
461.000000	0.238130
462.000000	0.238720
463.000000	0.239765
464.000000	0.240008
465.000000	0.240140
466.000000	0.240401
467.000000	0.240946
468.000000	0.241568
469.000000	0.241923
470.000000	0.241926
471.000000	0.242152
472.000000	0.242577
473.000000	0.243062
474.000000	0.243218
475.000000	0.243350
476.000000	0.243693
477.000000	0.244112
478.000000	0.244365
479.000000	0.244677
480.000000	0.245102
481.000000	0.245232
482.000000	0.245495
483.000000	0.246010
484.000000	0.246225
485.000000	0.246326
486.000000	0.246595
487.000000	0.246903
488.000000	0.247221
489.000000	0.247545
490.000000	0.247863
491.000000	0.248260
492.000000	0.248611
493.000000	0.248679
494.000000	0.249043
495.000000	0.249455
496.000000	0.249710
497.000000	0.250145
498.000000	0.250597
499.000000	0.251002
500.000000	0.251199
501.000000	0.251449
502.000000	0.251848
503.000000	0.252319
504.000000	0.252637
505.000000	0.252867
506.000000	0.253137
507.000000	0.253531
508.000000	0.253933
509.000000	0.254253
510.000000	0.254608
511.000000	0.254951
512.000000	0.255309
513.000000	0.255711
514.000000	0.256098
515.000000	0.256465
516.000000	0.256780
517.000000	0.257290
518.000000	0.257790
519.000000	0.258074
520.000000	0.258505
521.000000	0.258953
522.000000	0.259355
523.000000	0.259719
524.000000	0.260148
525.000000	0.260557
526.000000	0.260808
527.000000	0.261268
528.000000	0.261769
529.000000	0.262122
530.000000	0.262486
531.000000	0.262889
532.000000	0.263272
533.000000	0.263755
534.000000	0.264138
535.000000	0.264414
536.000000	0.264818
537.000000	0.265156
538.000000	0.265490
539.000000	0.265939
540.000000	0.266211
541.000000	0.266482
542.000000	0.266950
543.000000	0.267367
544.000000	0.267774
545.000000	0.268145
546.000000	0.268557
547.000000	0.268912
548.000000	0.269277
549.000000	0.269745
550.000000	0.270173
551.000000	0.270596
552.000000	0.271041
553.000000	0.271515
554.000000	0.271936
555.000000	0.272294
556.000000	0.272829
557.000000	0.273192
558.000000	0.273461
559.000000	0.273939
560.000000	0.274346
561.000000	0.274717
562.000000	0.275081
563.000000	0.275421
564.000000	0.275833
565.000000	0.276290
566.000000	0.276721
567.000000	0.277086
568.000000	0.277392
569.000000	0.277821
570.000000	0.278236
571.000000	0.278590
572.000000	0.278932
573.000000	0.279328
574.000000	0.279706
575.000000	0.280019
576.000000	0.280402
577.000000	0.280750
578.000000	0.281026
579.000000	0.281237
580.000000	0.281543
581.000000	0.281946
582.000000	0.282181
583.000000	0.282517
584.000000	0.282920
585.000000	0.283197
586.000000	0.283510
587.000000	0.283802
588.000000	0.283997
589.000000	0.284220
590.000000	0.284484
591.000000	0.284777
592.000000	0.285058
593.000000	0.285322
594.000000	0.285571
595.000000	0.285821
596.000000	0.286153
597.000000	0.286479
598.000000	0.286564
599.000000	0.286572
600.000000	0.286607
601.000000	0.286670
602.000000	0.286853
603.000000	0.287016
604.000000	0.287142
605.000000	0.287435
606.000000	0.287688
607.000000	0.287903
608.000000	0.288203
609.000000	0.288461
610.000000	0.288674
611.000000	0.288878
612.000000	0.289114
613.000000	0.289313
614.000000	0.289471
615.000000	0.289619
616.000000	0.289751
617.000000	0.289834
618.000000	0.289891
619.000000	0.290018
620.000000	0.290129
621.000000	0.290142
622.000000	0.290118
623.000000	0.290144
624.000000	0.290256
625.000000	0.290300
626.000000	0.290394
627.000000	0.290562
628.000000	0.290664
629.000000	0.290809
630.000000	0.290891
631.000000	0.290974
632.000000	0.291089
633.000000	0.291245
634.000000	0.291427
635.000000	0.291655
636.000000	0.291899
637.000000	0.292128
638.000000	0.292400
639.000000	0.292549
640.000000	0.292641
641.000000	0.292782
642.000000	0.292986
643.000000	0.293150
644.000000	0.293164
645.000000	0.293263
646.000000	0.293417
647.000000	0.293553
648.000000	0.293716
649.000000	0.293860
650.000000	0.293956
651.000000	0.294045
652.000000	0.294192
653.000000	0.294372
654.000000	0.294444
655.000000	0.294629
656.000000	0.294913
657.000000	0.295174
658.000000	0.295343
659.000000	0.295527
660.000000	0.295751
661.000000	0.295948
662.000000	0.296124
663.000000	0.296308
664.000000	0.296449
665.000000	0.296610
666.000000	0.296772
667.000000	0.296892
668.000000	0.297103
669.000000	0.297336
670.000000	0.297539
671.000000	0.297691
672.000000	0.297851
673.000000	0.298020
674.000000	0.298170
675.000000	0.298344
676.000000	0.298537
677.000000	0.298739
678.000000	0.298888
679.000000	0.299065
680.000000	0.299298
681.000000	0.299383
682.000000	0.299557
683.000000	0.299770
684.000000	0.299905
685.000000	0.300010
686.000000	0.300182
687.000000	0.300463
688.000000	0.300704
689.000000	0.300880
690.000000	0.301036
691.000000	0.301221
692.000000	0.301338
693.000000	0.301461
694.000000	0.301710
695.000000	0.301895
696.000000	0.302045
697.000000	0.302268
698.000000	0.302490
699.000000	0.302751
700.000000	0.303061
701.000000	0.303230
702.000000	0.303429
703.000000	0.303674
704.000000	0.303817
705.000000	0.303993
706.000000	0.304191
707.000000	0.304427
708.000000	0.304612
709.000000	0.304780
710.000000	0.304989
711.000000	0.305195
712.000000	0.305359
713.000000	0.305513
714.000000	0.305735
715.000000	0.305976
716.000000	0.306193
717.000000	0.306324
718.000000	0.306457
719.000000	0.306600
720.000000	0.306762
721.000000	0.306948
722.000000	0.307080
723.000000	0.307205
724.000000	0.307356
725.000000	0.307500
726.000000	0.307729
727.000000	0.308006
728.000000	0.308218
729.000000	0.308401
730.000000	0.308552
731.000000	0.308723
732.000000	0.308868
733.000000	0.309001
734.000000	0.309089
735.000000	0.309253
736.000000	0.309524
737.000000	0.309644
738.000000	0.309689
739.000000	0.309806
740.000000	0.309924
741.000000	0.310088
742.000000	0.310252
743.000000	0.310351
744.000000	0.310383
745.000000	0.310379
746.000000	0.310425
747.000000	0.310513
748.000000	0.310647
749.000000	0.310837
750.000000	0.311013
751.000000	0.311023
752.000000	0.311027
753.000000	0.311105
754.000000	0.311252
755.000000	0.311349
756.000000	0.311438
757.000000	0.311545
758.000000	0.311633
759.000000	0.311687
760.000000	0.311673
761.000000	0.311792
762.000000	0.311868
763.000000	0.311876
764.000000	0.311960
765.000000	0.312034
766.000000	0.312117
767.000000	0.312220
768.000000	0.312275
769.000000	0.312302
770.000000	0.312320
771.000000	0.312330
772.000000	0.312380
773.000000	0.312430
774.000000	0.312532
775.000000	0.312629
776.000000	0.312765
777.000000	0.312911
778.000000	0.312877
779.000000	0.312750
780.000000	0.312640
781.000000	0.312663
782.000000	0.312571
783.000000	0.312558
784.000000	0.312684
785.000000	0.312744
786.000000	0.312778
787.000000	0.312817
788.000000	0.312854
789.000000	0.312925
790.000000	0.312968
791.000000	0.312934
792.000000	0.313005
793.000000	0.313054
794.000000	0.312990
795.000000	0.313009
796.000000	0.313026
797.000000	0.313010
798.000000	0.312998
799.000000	0.313008
800.000000	0.313015
801.000000	0.312994
802.000000	0.312979
803.000000	0.312905
804.000000	0.312811
805.000000	0.312818
806.000000	0.312753
807.000000	0.312740
808.000000	0.312862
809.000000	0.312795
810.000000	0.312704
811.000000	0.312709
812.000000	0.312591
813.000000	0.312558
814.000000	0.312609
815.000000	0.312581
816.000000	0.312549
817.000000	0.312461
818.000000	0.312220
819.000000	0.312161
820.000000	0.312266
821.000000	0.312371
822.000000	0.312277
823.000000	0.312184
824.000000	0.312107
825.000000	0.312100
826.000000	0.312025
827.000000	0.311952
828.000000	0.311949
829.000000	0.311871
830.000000	0.311742
831.000000	0.311608
832.000000	0.311376
833.000000	0.311297
834.000000	0.311261
835.000000	0.311197
836.000000	0.311184
837.000000	0.311148
838.000000	0.311102
839.000000	0.311079
840.000000	0.310954
841.000000	0.310873
842.000000	0.310909
843.000000	0.310863
844.000000	0.310814
845.000000	0.310750
846.000000	0.310629
847.000000	0.310563
848.000000	0.310550
849.000000	0.310578
850.000000	0.310566
851.000000	0.310415
852.000000	0.310220
853.000000	0.310243
854.000000	0.310236
855.000000	0.310247
856.000000	0.310197
857.000000	0.309961
858.000000	0.309849
859.000000	0.309853
860.000000	0.309663
861.000000	0.309410
862.000000	0.309227
863.000000	0.309136
864.000000	0.308931
865.000000	0.308730
866.000000	0.308628
867.000000	0.308532
868.000000	0.308542
869.000000	0.308522
870.000000	0.308385
871.000000	0.308284
872.000000	0.308213
873.000000	0.308107
874.000000	0.308047
875.000000	0.307860
876.000000	0.307617
877.000000	0.307429
878.000000	0.307435
879.000000	0.307412
880.000000	0.307115
881.000000	0.306822
882.000000	0.306637
883.000000	0.306462
884.000000	0.306081
885.000000	0.305858
886.000000	0.305748
887.000000	0.305646
888.000000	0.305301
889.000000	0.305112
890.000000	0.304974
891.000000	0.304831
892.000000	0.304690
893.000000	0.304484
894.000000	0.304308
895.000000	0.304140
896.000000	0.303856
897.000000	0.303564
898.000000	0.303408
899.000000	0.303191
900.000000	0.302974
901.000000	0.302782
902.000000	0.302703
903.000000	0.302570
904.000000	0.302429
905.000000	0.302278
906.000000	0.302209
907.000000	0.302109
908.000000	0.301959
909.000000	0.301677
910.000000	0.301371
911.000000	0.301080
912.000000	0.300853
913.000000	0.300763
914.000000	0.300597
915.000000	0.300346
916.000000	0.300016
917.000000	0.299787
918.000000	0.299643
919.000000	0.299512
920.000000	0.299383
921.000000	0.299072
922.000000	0.298704
923.000000	0.298503
924.000000	0.298261
925.000000	0.297995
926.000000	0.297710
927.000000	0.297211
928.000000	0.296967
929.000000	0.296789
930.000000	0.296349
931.000000	0.295910
932.000000	0.295647
933.000000	0.295535
934.000000	0.295249
935.000000	0.294960
936.000000	0.294821
937.000000	0.294774
938.000000	0.294582
939.000000	0.294442
940.000000	0.294251
941.000000	0.293929
942.000000	0.293819
943.000000	0.293691
944.000000	0.293311
945.000000	0.292975
946.000000	0.292890
947.000000	0.292857
948.000000	0.292534
949.000000	0.292096
950.000000	0.291950
951.000000	0.292005
952.000000	0.291809
953.000000	0.291557
954.000000	0.291188
955.000000	0.290695
956.000000	0.290603
957.000000	0.290450
958.000000	0.290138
959.000000	0.289860
960.000000	0.289642
961.000000	0.289574
962.000000	0.289510
963.000000	0.289112
964.000000	0.288724
965.000000	0.288415
966.000000	0.288076
967.000000	0.287764
968.000000	0.287520
969.000000	0.287326
970.000000	0.287226
971.000000	0.287001
972.000000	0.286765
973.000000	0.286570
974.000000	0.286533
975.000000	0.286353
976.000000	0.286054
977.000000	0.285735
978.000000	0.285468
979.000000	0.285608
980.000000	0.285647
981.000000	0.285306
982.000000	0.285193
983.000000	0.285029
984.000000	0.284752
985.000000	0.284455
986.000000	0.284445
987.000000	0.284438
988.000000	0.284183
989.000000	0.284188
990.000000	0.284166
991.000000	0.283953
992.000000	0.283593
993.000000	0.283612
994.000000	0.283571
995.000000	0.283282
996.000000	0.282561
997.000000	0.282929
998.000000	0.283260
999.000000	0.283044
1000.000000	0.282943
1001.000000	0.283041
1002.000000	0.283264
1003.000000	0.282944
1004.000000	0.282875
1005.000000	0.283394
1006.000000	0.283475
1007.000000	0.283420
1008.000000	0.283007
1009.000000	0.282937
1010.000000	0.282265
1011.000000	0.281476
1012.000000	0.281874
1013.000000	0.282144
1014.000000	0.281414
1015.000000	0.281182
1016.000000	0.281180
1017.000000	0.280770
1018.000000	0.281291
1019.000000	0.281634
1020.000000	0.282351
1021.000000	0.282281
1022.000000	0.282047
1023.000000	0.282000
1024.000000	0.281521
1025.000000	0.281279
1026.000000	0.281482
1027.000000	0.282024
1028.000000	0.281966
1029.000000	0.282140
1030.000000	0.282572
1031.000000	0.282096
1032.000000	0.281823
1033.000000	0.281793
1034.000000	0.281741
1035.000000	0.281576
1036.000000	0.281800
1037.000000	0.282594
1038.000000	0.282324
1039.000000	0.281544
1040.000000	0.281279
1041.000000	0.280595
1042.000000	0.281133
1043.000000	0.283031
1044.000000	0.283712
1045.000000	0.283480
1046.000000	0.283269
1047.000000	0.283160
1048.000000	0.282438
1049.000000	0.282203
1050.000000	0.282336
1051.000000	0.282516
1052.000000	0.282630
1053.000000	0.282793
1054.000000	0.283505
1055.000000	0.283876
1056.000000	0.283861
1057.000000	0.284341
1058.000000	0.284671
1059.000000	0.284961
1060.000000	0.285451
1061.000000	0.285525
1062.000000	0.285733
1063.000000	0.286072
1064.000000	0.286076
1065.000000	0.285598
1066.000000	0.285818
1067.000000	0.286176
1068.000000	0.286431
1069.000000	0.287148
1070.000000	0.287590
1071.000000	0.287853
1072.000000	0.287926
1073.000000	0.287848
1074.000000	0.288026
1075.000000	0.288036
1076.000000	0.288052
1077.000000	0.288029
1078.000000	0.288074
1079.000000	0.288259
1080.000000	0.288245
1081.000000	0.288590
1082.000000	0.289726
1083.000000	0.290051
1084.000000	0.290106
1085.000000	0.290271
1086.000000	0.289896
1087.000000	0.289998
1088.000000	0.290301
1089.000000	0.290639
1090.000000	0.290981
1091.000000	0.291669
1092.000000	0.292426
1093.000000	0.293032
1094.000000	0.293201
1095.000000	0.292967
1096.000000	0.293069
1097.000000	0.292830
1098.000000	0.293064
1099.000000	0.293675
1100.000000	0.294177
1101.000000	0.294790
1102.000000	0.295169
1103.000000	0.295606
1104.000000	0.295875
1105.000000	0.295744
1106.000000	0.295862
1107.000000	0.295908
1108.000000	0.296041
1109.000000	0.296312
1110.000000	0.296786
1111.000000	0.297012
1112.000000	0.297249
1113.000000	0.297370
1114.000000	0.297285
1115.000000	0.297407
1116.000000	0.297679
1117.000000	0.297706
1118.000000	0.297422
1119.000000	0.297605
1120.000000	0.298087
1121.000000	0.298205
1122.000000	0.298495
1123.000000	0.298943
1124.000000	0.298829
1125.000000	0.298973
1126.000000	0.299661
1127.000000	0.299887
1128.000000	0.299909
1129.000000	0.299612
1130.000000	0.299702
1131.000000	0.299741
1132.000000	0.299801
1133.000000	0.300146
1134.000000	0.300341
1135.000000	0.300270
1136.000000	0.300408
1137.000000	0.300756
1138.000000	0.300893
1139.000000	0.301039
1140.000000	0.301239
1141.000000	0.301220
1142.000000	0.301424
1143.000000	0.301806
1144.000000	0.302150
1145.000000	0.302451
1146.000000	0.302593
1147.000000	0.302747
1148.000000	0.302686
1149.000000	0.302722
1150.000000	0.302760
1151.000000	0.302927
1152.000000	0.303090
1153.000000	0.303267
1154.000000	0.303579
1155.000000	0.303695
1156.000000	0.303645
1157.000000	0.303697
1158.000000	0.303663
1159.000000	0.303698
1160.000000	0.303855
1161.000000	0.303911
1162.000000	0.303998
1163.000000	0.304120
1164.000000	0.304171
1165.000000	0.304155
1166.000000	0.304289
1167.000000	0.304519
1168.000000	0.304520
1169.000000	0.304548
1170.000000	0.304507
1171.000000	0.304248
1172.000000	0.304247
1173.000000	0.304368
1174.000000	0.304376
1175.000000	0.304424
1176.000000	0.304358
1177.000000	0.304172
1178.000000	0.304154
1179.000000	0.304154
1180.000000	0.304152
1181.000000	0.304459
1182.000000	0.304528
1183.000000	0.304329
1184.000000	0.304382
1185.000000	0.304386
1186.000000	0.304268
1187.000000	0.304292
1188.000000	0.304464
1189.000000	0.304532
1190.000000	0.304636
1191.000000	0.304705
1192.000000	0.304857
1193.000000	0.305041
1194.000000	0.305089
1195.000000	0.305180
1196.000000	0.305302
1197.000000	0.305357
1198.000000	0.305407
1199.000000	0.305375
1200.000000	0.305176
1201.000000	0.305111
1202.000000	0.305035
1203.000000	0.305132
1204.000000	0.305354
1205.000000	0.305428
1206.000000	0.305373
1207.000000	0.305258
1208.000000	0.305205
1209.000000	0.305117
1210.000000	0.305074
1211.000000	0.305074
1212.000000	0.305082
1213.000000	0.305152
1214.000000	0.305215
1215.000000	0.305298
1216.000000	0.305384
1217.000000	0.305443
1218.000000	0.305415
1219.000000	0.305325
1220.000000	0.305440
1221.000000	0.305405
1222.000000	0.305347
1223.000000	0.305351
1224.000000	0.305318
1225.000000	0.305306
1226.000000	0.305345
1227.000000	0.305214
1228.000000	0.305015
1229.000000	0.304944
1230.000000	0.304813
1231.000000	0.304722
1232.000000	0.304937
1233.000000	0.305024
1234.000000	0.304926
1235.000000	0.304920
1236.000000	0.304948
1237.000000	0.304937
1238.000000	0.304840
1239.000000	0.304793
1240.000000	0.304742
1241.000000	0.304656
1242.000000	0.304622
1243.000000	0.304646
1244.000000	0.304732
1245.000000	0.304810
1246.000000	0.304911
1247.000000	0.305025
1248.000000	0.305041
1249.000000	0.305206
1250.000000	0.305267
1251.000000	0.305228
1252.000000	0.305272
1253.000000	0.305370
1254.000000	0.305305
1255.000000	0.305193
1256.000000	0.305164
1257.000000	0.305081
1258.000000	0.305050
1259.000000	0.305007
1260.000000	0.305082
1261.000000	0.305189
1262.000000	0.305192
1263.000000	0.305279
1264.000000	0.305307
1265.000000	0.305150
1266.000000	0.304920
1267.000000	0.304821
1268.000000	0.304888
1269.000000	0.305034
1270.000000	0.305126
1271.000000	0.305078
1272.000000	0.305076
1273.000000	0.305030
1274.000000	0.304890
1275.000000	0.304735
1276.000000	0.304520
1277.000000	0.304520
1278.000000	0.304529
1279.000000	0.304505
1280.000000	0.304517
1281.000000	0.304476
1282.000000	0.304341
1283.000000	0.304406
1284.000000	0.304645
1285.000000	0.304754
1286.000000	0.304901
1287.000000	0.304817
1288.000000	0.304647
1289.000000	0.304568
1290.000000	0.304470
1291.000000	0.304311
1292.000000	0.304251
1293.000000	0.304178
1294.000000	0.304096
1295.000000	0.304245
1296.000000	0.304226
1297.000000	0.304051
1298.000000	0.304128
1299.000000	0.304107
1300.000000	0.304198
1301.000000	0.304421
1302.000000	0.304418
1303.000000	0.304317
1304.000000	0.304278
1305.000000	0.304270
1306.000000	0.304238
1307.000000	0.304257
1308.000000	0.304313
1309.000000	0.304440
1310.000000	0.304421
1311.000000	0.304412
1312.000000	0.304265
1313.000000	0.304109
1314.000000	0.304045
1315.000000	0.303956
1316.000000	0.304059
1317.000000	0.304173
1318.000000	0.304177
1319.000000	0.304323
1320.000000	0.304515
1321.000000	0.304420
1322.000000	0.304244
1323.000000	0.304241
1324.000000	0.304350
1325.000000	0.304455
1326.000000	0.304538
1327.000000	0.304576
1328.000000	0.304548
1329.000000	0.304489
1330.000000	0.304451
1331.000000	0.304404
1332.000000	0.304358
1333.000000	0.304306
1334.000000	0.304330
1335.000000	0.304364
1336.000000	0.304433
1337.000000	0.304330
1338.000000	0.304053
1339.000000	0.303847
1340.000000	0.303795
1341.000000	0.303894
1342.000000	0.304040
1343.000000	0.304096
1344.000000	0.303943
1345.000000	0.303774
1346.000000	0.303864
1347.000000	0.303739
1348.000000	0.303562
1349.000000	0.303418
1350.000000	0.303209
1351.000000	0.303121
1352.000000	0.303226
1353.000000	0.303248
1354.000000	0.303179
1355.000000	0.303216
1356.000000	0.303305
1357.000000	0.303266
1358.000000	0.303282
1359.000000	0.303220
1360.000000	0.303104
1361.000000	0.302878
1362.000000	0.302829
1363.000000	0.302805
1364.000000	0.302769
1365.000000	0.302824
1366.000000	0.302775
1367.000000	0.302583
1368.000000	0.302532
1369.000000	0.302723
1370.000000	0.302747
1371.000000	0.302768
1372.000000	0.302853
1373.000000	0.302823
1374.000000	0.302823
1375.000000	0.302828
1376.000000	0.302863
1377.000000	0.302906
1378.000000	0.302959
1379.000000	0.303114
1380.000000	0.303262
1381.000000	0.303254
1382.000000	0.303193
1383.000000	0.302981
1384.000000	0.302621
1385.000000	0.302534
1386.000000	0.302538
1387.000000	0.302491
1388.000000	0.302680
1389.000000	0.302787
1390.000000	0.302689
1391.000000	0.302638
1392.000000	0.302589
1393.000000	0.302489
1394.000000	0.302369
1395.000000	0.302267
1396.000000	0.302125
1397.000000	0.301936
1398.000000	0.301649
1399.000000	0.301460
1400.000000	0.301327
1401.000000	0.301212
1402.000000	0.301199
1403.000000	0.301027
1404.000000	0.300997
1405.000000	0.300903
1406.000000	0.300805
1407.000000	0.300789
1408.000000	0.300656
1409.000000	0.300469
1410.000000	0.300321
1411.000000	0.300275
1412.000000	0.300138
1413.000000	0.300082
1414.000000	0.300160
1415.000000	0.300024
1416.000000	0.299981
1417.000000	0.300040
1418.000000	0.299898
1419.000000	0.299988
1420.000000	0.299993
1421.000000	0.299806
1422.000000	0.299840
1423.000000	0.299940
1424.000000	0.299862
1425.000000	0.299984
1426.000000	0.299881
1427.000000	0.299611
1428.000000	0.299528
1429.000000	0.299372
1430.000000	0.299352
1431.000000	0.299378
1432.000000	0.299304
1433.000000	0.299201
1434.000000	0.299147
1435.000000	0.299127
1436.000000	0.299144
1437.000000	0.299192
1438.000000	0.299254
1439.000000	0.299347
1440.000000	0.299464
1441.000000	0.299652
1442.000000	0.299859
1443.000000	0.300031
1444.000000	0.300255
1445.000000	0.300443
1446.000000	0.300615
1447.000000	0.300675
1448.000000	0.300668
1449.000000	0.300794
1450.000000	0.300971
1451.000000	0.301180
1452.000000	0.301375
1453.000000	0.301420
1454.000000	0.301336
1455.000000	0.301278
1456.000000	0.301359
1457.000000	0.301411
1458.000000	0.301425
1459.000000	0.301471
1460.000000	0.301375
1461.000000	0.301336
1462.000000	0.301407
1463.000000	0.301317
1464.000000	0.301230
1465.000000	0.301212
1466.000000	0.301124
1467.000000	0.301034
1468.000000	0.301023
1469.000000	0.301080
1470.000000	0.300943
1471.000000	0.300899
1472.000000	0.301005
1473.000000	0.300998
1474.000000	0.300959
1475.000000	0.301037
1476.000000	0.301049
1477.000000	0.301051
1478.000000	0.301203
1479.000000	0.301358
1480.000000	0.301407
1481.000000	0.301437
1482.000000	0.301539
1483.000000	0.301571
1484.000000	0.301506
1485.000000	0.301488
1486.000000	0.301461
1487.000000	0.301416
1488.000000	0.301416
1489.000000	0.301387
1490.000000	0.301159
1491.000000	0.301121
1492.000000	0.301099
1493.000000	0.301047
1494.000000	0.301002
1495.000000	0.300995
1496.000000	0.300993
1497.000000	0.301045
1498.000000	0.301191
1499.000000	0.301282
1500.000000	0.301410
1501.000000	0.301322
1502.000000	0.301232
1503.000000	0.301378
1504.000000	0.301436
1505.000000	0.301414
1506.000000	0.301447
1507.000000	0.301344
1508.000000	0.301233
1509.000000	0.301289
1510.000000	0.301318
1511.000000	0.301322
1512.000000	0.301386
1513.000000	0.301440
1514.000000	0.301517
1515.000000	0.301608
1516.000000	0.301739
1517.000000	0.301768
1518.000000	0.301727
1519.000000	0.301766
1520.000000	0.301814
1521.000000	0.301720
1522.000000	0.301721
1523.000000	0.301742
1524.000000	0.301608
1525.000000	0.301618
1526.000000	0.301709
1527.000000	0.301765
1528.000000	0.301833
1529.000000	0.301809
1530.000000	0.301635
1531.000000	0.301538
1532.000000	0.301521
1533.000000	0.301503
1534.000000	0.301533
1535.000000	0.301498
1536.000000	0.301339
1537.000000	0.301317
1538.000000	0.301306
1539.000000	0.301193
1540.000000	0.301192
1541.000000	0.301180
1542.000000	0.301091
1543.000000	0.301096
1544.000000	0.301099
1545.000000	0.301087
1546.000000	0.301208
1547.000000	0.301332
1548.000000	0.301252
1549.000000	0.301244
1550.000000	0.301256
1551.000000	0.301139
1552.000000	0.301149
1553.000000	0.301117
1554.000000	0.301060
1555.000000	0.301092
1556.000000	0.301102
1557.000000	0.301135
1558.000000	0.301163
1559.000000	0.301073
1560.000000	0.301069
1561.000000	0.301175
1562.000000	0.301161
1563.000000	0.301185
1564.000000	0.301170
1565.000000	0.301045
1566.000000	0.300973
1567.000000	0.301006
1568.000000	0.300972
1569.000000	0.301010
1570.000000	0.300987
1571.000000	0.300880
1572.000000	0.300887
1573.000000	0.300948
1574.000000	0.301014
1575.000000	0.301183
1576.000000	0.301227
1577.000000	0.301184
1578.000000	0.301138
1579.000000	0.301104
1580.000000	0.301067
1581.000000	0.301078
1582.000000	0.301077
1583.000000	0.301057
1584.000000	0.301000
1585.000000	0.300996
1586.000000	0.301024
1587.000000	0.301040
1588.000000	0.301084
1589.000000	0.301214
1590.000000	0.301267
1591.000000	0.301286
1592.000000	0.301366
1593.000000	0.301524
1594.000000	0.301542
1595.000000	0.301577
1596.000000	0.301555
1597.000000	0.301425
1598.000000	0.301340
1599.000000	0.301351
1600.000000	0.301249
1601.000000	0.301118
1602.000000	0.301007
1603.000000	0.300908
1604.000000	0.300788
1605.000000	0.300690
1606.000000	0.300598
1607.000000	0.300511
1608.000000	0.300471
1609.000000	0.300551
1610.000000	0.300510
1611.000000	0.300418
1612.000000	0.300412
1613.000000	0.300535
1614.000000	0.300577
1615.000000	0.300724
1616.000000	0.300808
1617.000000	0.300720
1618.000000	0.300706
1619.000000	0.300747
1620.000000	0.300754
1621.000000	0.300717
1622.000000	0.300793
1623.000000	0.300947
1624.000000	0.300951
1625.000000	0.300770
1626.000000	0.300704
1627.000000	0.300642
1628.000000	0.300572
1629.000000	0.300551
1630.000000	0.300590
1631.000000	0.300514
1632.000000	0.300430
1633.000000	0.300478
1634.000000	0.300435
1635.000000	0.300279
1636.000000	0.300243
1637.000000	0.300353
1638.000000	0.300320
1639.000000	0.300245
1640.000000	0.300211
1641.000000	0.300156
1642.000000	0.300172
1643.000000	0.300404
1644.000000	0.300435
1645.000000	0.300394
1646.000000	0.300285
1647.000000	0.300031
1648.000000	0.299895
1649.000000	0.299918
1650.000000	0.299837
1651.000000	0.299769
1652.000000	0.299719
1653.000000	0.299554
1654.000000	0.299491
1655.000000	0.299457
1656.000000	0.299314
1657.000000	0.299179
1658.000000	0.299128
1659.000000	0.299158
1660.000000	0.299302
1661.000000	0.299555
1662.000000	0.299587
1663.000000	0.299522
1664.000000	0.299553
1665.000000	0.299501
1666.000000	0.299570
1667.000000	0.299679
1668.000000	0.299794
1669.000000	0.299917
1670.000000	0.299826
1671.000000	0.299834
1672.000000	0.299790
1673.000000	0.299440
1674.000000	0.299398
1675.000000	0.299581
1676.000000	0.299590
1677.000000	0.299768
1678.000000	0.299940
1679.000000	0.299675
1680.000000	0.299533
1681.000000	0.299583
1682.000000	0.299601
1683.000000	0.299763
1684.000000	0.299878
1685.000000	0.299843
1686.000000	0.299908
1687.000000	0.300016
1688.000000	0.300026
1689.000000	0.300166
1690.000000	0.300196
1691.000000	0.300240
1692.000000	0.300397
1693.000000	0.300369
1694.000000	0.300239
1695.000000	0.300293
1696.000000	0.300278
1697.000000	0.300266
1698.000000	0.300454
1699.000000	0.300487
1700.000000	0.300347
1701.000000	0.300401
1702.000000	0.300369
1703.000000	0.300243
1704.000000	0.300193
1705.000000	0.300196
1706.000000	0.300130
1707.000000	0.300142
1708.000000	0.300357
1709.000000	0.300345
1710.000000	0.300292
1711.000000	0.300287
1712.000000	0.300273
1713.000000	0.300185
1714.000000	0.300050
1715.000000	0.300023
1716.000000	0.299960
1717.000000	0.300001
1718.000000	0.300327
1719.000000	0.300298
1720.000000	0.300079
1721.000000	0.299996
1722.000000	0.299715
1723.000000	0.299724
1724.000000	0.300122
1725.000000	0.300211
1726.000000	0.300135
1727.000000	0.300164
1728.000000	0.300059
1729.000000	0.299934
1730.000000	0.300067
1731.000000	0.299958
1732.000000	0.299597
1733.000000	0.299527
1734.000000	0.299364
1735.000000	0.299375
1736.000000	0.299572
1737.000000	0.299610
1738.000000	0.299697
1739.000000	0.299677
1740.000000	0.299522
1741.000000	0.299460
1742.000000	0.299385
1743.000000	0.299435
1744.000000	0.299547
1745.000000	0.299593
1746.000000	0.299677
1747.000000	0.299682
1748.000000	0.299618
1749.000000	0.299490
1750.000000	0.299376
1751.000000	0.299329
1752.000000	0.299386
1753.000000	0.299470
1754.000000	0.299437
1755.000000	0.299290
1756.000000	0.299170
1757.000000	0.298941
1758.000000	0.298818
1759.000000	0.298781
1760.000000	0.298709
1761.000000	0.298549
1762.000000	0.298514
1763.000000	0.298659
1764.000000	0.298615
1765.000000	0.298448
1766.000000	0.298450
1767.000000	0.298336
1768.000000	0.298247
1769.000000	0.298450
1770.000000	0.298500
1771.000000	0.298301
1772.000000	0.298307
1773.000000	0.298453
1774.000000	0.298378
1775.000000	0.298244
1776.000000	0.298249
1777.000000	0.298172
1778.000000	0.298115
1779.000000	0.298204
1780.000000	0.298197
1781.000000	0.297954
1782.000000	0.298029
1783.000000	0.298356
1784.000000	0.298625
1785.000000	0.298731
1786.000000	0.298577
1787.000000	0.298602
1788.000000	0.298689
1789.000000	0.298680
1790.000000	0.298726
1791.000000	0.298663
1792.000000	0.298430
1793.000000	0.298337
1794.000000	0.298322
1795.000000	0.298381
1796.000000	0.298674
1797.000000	0.298695
1798.000000	0.298579
1799.000000	0.298479
1800.000000	0.298137
1801.000000	0.298245
1802.000000	0.298187
1803.000000	0.298763
1804.000000	0.298984
1805.000000	0.299472
1806.000000	0.299585
1807.000000	0.299536
1808.000000	0.299384
1809.000000	0.298941
1810.000000	0.298530
1811.000000	0.298390
1812.000000	0.298408
1813.000000	0.298359
1814.000000	0.298305
1815.000000	0.298548
1816.000000	0.299244
1817.000000	0.299123
1818.000000	0.298847
1819.000000	0.298944
1820.000000	0.298011
1821.000000	0.297170
1822.000000	0.296643
1823.000000	0.296296
1824.000000	0.295898
1825.000000	0.295258
1826.000000	0.295227
1827.000000	0.295314
1828.000000	0.295731
1829.000000	0.296697
1830.000000	0.297318
1831.000000	0.297644
1832.000000	0.297982
1833.000000	0.297832
1834.000000	0.296693
1835.000000	0.296577
1836.000000	0.296618
1837.000000	0.296577
1838.000000	0.296719
1839.000000	0.297521
1840.000000	0.297221
1841.000000	0.296713
1842.000000	0.296391
1843.000000	0.295487
1844.000000	0.295653
1845.000000	0.296432
1846.000000	0.296975
1847.000000	0.298245
1848.000000	0.298713
1849.000000	0.298437
1850.000000	0.298003
1851.000000	0.297779
1852.000000	0.297248
1853.000000	0.297083
1854.000000	0.296883
1855.000000	0.296853
1856.000000	0.296940
1857.000000	0.297015
1858.000000	0.296671
1859.000000	0.296395
1860.000000	0.296114
1861.000000	0.295455
1862.000000	0.295344
1863.000000	0.296064
1864.000000	0.296206
1865.000000	0.296362
1866.000000	0.296277
1867.000000	0.295824
1868.000000	0.295300
1869.000000	0.294993
1870.000000	0.294912
1871.000000	0.295202
1872.000000	0.295633
1873.000000	0.295860
1874.000000	0.295795
1875.000000	0.296140
1876.000000	0.296654
1877.000000	0.296598
1878.000000	0.295716
1879.000000	0.295067
1880.000000	0.294349
1881.000000	0.293492
1882.000000	0.293292
1883.000000	0.293106
1884.000000	0.292909
1885.000000	0.292072
1886.000000	0.291848
1887.000000	0.291921
1888.000000	0.292211
1889.000000	0.292597
1890.000000	0.292428
1891.000000	0.292378
1892.000000	0.291947
1893.000000	0.290510
1894.000000	0.289600
1895.000000	0.288602
1896.000000	0.287277
1897.000000	0.286414
1898.000000	0.286710
1899.000000	0.287084
1900.000000	0.287644
1901.000000	0.287866
1902.000000	0.287532
1903.000000	0.287184
1904.000000	0.287563
1905.000000	0.287901
1906.000000	0.287620
1907.000000	0.287074
1908.000000	0.286999
1909.000000	0.286413
1910.000000	0.285770
1911.000000	0.286320
1912.000000	0.286336
1913.000000	0.286449
1914.000000	0.286548
1915.000000	0.286089
1916.000000	0.286646
1917.000000	0.286848
1918.000000	0.286977
1919.000000	0.287166
1920.000000	0.287642
1921.000000	0.287700
1922.000000	0.287795
1923.000000	0.288031
1924.000000	0.288323
1925.000000	0.288020
1926.000000	0.287615
1927.000000	0.287541
1928.000000	0.287298
1929.000000	0.287005
1930.000000	0.286968
1931.000000	0.287015
1932.000000	0.286971
1933.000000	0.287326
1934.000000	0.287845
1935.000000	0.288461
1936.000000	0.288840
1937.000000	0.289065
1938.000000	0.289440
1939.000000	0.289598
1940.000000	0.289559
1941.000000	0.289654
1942.000000	0.289673
1943.000000	0.289008
1944.000000	0.288218
1945.000000	0.287906
1946.000000	0.287621
1947.000000	0.287390
1948.000000	0.287637
1949.000000	0.287629
1950.000000	0.287324
1951.000000	0.287247
1952.000000	0.287460
1953.000000	0.287601
1954.000000	0.287751
1955.000000	0.287974
1956.000000	0.288148
1957.000000	0.288153
1958.000000	0.287812
1959.000000	0.287466
1960.000000	0.286828
1961.000000	0.286736
1962.000000	0.286853
1963.000000	0.287496
1964.000000	0.287910
1965.000000	0.288174
1966.000000	0.287632
1967.000000	0.286943
1968.000000	0.286766
1969.000000	0.286599
1970.000000	0.286816
1971.000000	0.286955
1972.000000	0.286840
1973.000000	0.286882
1974.000000	0.287425
1975.000000	0.287669
1976.000000	0.287994
1977.000000	0.287851
1978.000000	0.287753
1979.000000	0.287625
1980.000000	0.287150
1981.000000	0.287594
1982.000000	0.287918
1983.000000	0.288121
1984.000000	0.288391
1985.000000	0.288771
1986.000000	0.288927
1987.000000	0.289097
1988.000000	0.289355
1989.000000	0.289569
1990.000000	0.289527
1991.000000	0.289082
1992.000000	0.289047
1993.000000	0.288664
1994.000000	0.288976
1995.000000	0.289696
1996.000000	0.289956
1997.000000	0.290373
1998.000000	0.291157
1999.000000	0.291244
2000.000000	0.291067
2001.000000	0.290933
2002.000000	0.289882
2003.000000	0.289363
2004.000000	0.288962
2005.000000	0.288005
2006.000000	0.287907
2007.000000	0.287858
2008.000000	0.287870
2009.000000	0.288241
2010.000000	0.288399
2011.000000	0.288194
2012.000000	0.288280
2013.000000	0.288284
2014.000000	0.288565
2015.000000	0.288915
2016.000000	0.289406
2017.000000	0.289714
2018.000000	0.289962
2019.000000	0.290355
2020.000000	0.290541
2021.000000	0.290641
2022.000000	0.290569
2023.000000	0.290514
2024.000000	0.290414
2025.000000	0.290264
2026.000000	0.290132
2027.000000	0.289657
2028.000000	0.288412
2029.000000	0.287791
2030.000000	0.287559
2031.000000	0.287379
2032.000000	0.287864
2033.000000	0.288276
2034.000000	0.288328
2035.000000	0.287999
2036.000000	0.287908
2037.000000	0.288020
2038.000000	0.287886
2039.000000	0.287646
2040.000000	0.287595
2041.000000	0.287615
2042.000000	0.287851
2043.000000	0.288373
2044.000000	0.288771
2045.000000	0.288568
2046.000000	0.288524
2047.000000	0.288628
2048.000000	0.288743
2049.000000	0.288831
2050.000000	0.288846
2051.000000	0.288658
2052.000000	0.287710
2053.000000	0.287449
2054.000000	0.287875
2055.000000	0.287903
2056.000000	0.288410
2057.000000	0.289500
2058.000000	0.289488
2059.000000	0.289946
2060.000000	0.290118
2061.000000	0.289953
2062.000000	0.289896
2063.000000	0.290093
2064.000000	0.289612
2065.000000	0.288640
2066.000000	0.288211
2067.000000	0.287897
2068.000000	0.287909
2069.000000	0.288440
2070.000000	0.289026
2071.000000	0.288850
2072.000000	0.288799
2073.000000	0.288758
2074.000000	0.288473
2075.000000	0.288460
2076.000000	0.288806
2077.000000	0.288683
2078.000000	0.288425
2079.000000	0.288145
2080.000000	0.287616
2081.000000	0.287302
2082.000000	0.286893
2083.000000	0.286812
2084.000000	0.287289
2085.000000	0.287534
2086.000000	0.287821
2087.000000	0.287998
2088.000000	0.288279
2089.000000	0.288433
2090.000000	0.288397
2091.000000	0.288453
2092.000000	0.288653
2093.000000	0.288542
2094.000000	0.288557
2095.000000	0.289257
2096.000000	0.289283
2097.000000	0.288435
2098.000000	0.288292
2099.000000	0.288187
2100.000000	0.288027
2101.000000	0.288923
2102.000000	0.289462
2103.000000	0.289689
2104.000000	0.289627
2105.000000	0.289537
2106.000000	0.288916
2107.000000	0.288785
2108.000000	0.288905
2109.000000	0.289031
2110.000000	0.289151
2111.000000	0.289053
2112.000000	0.288875
2113.000000	0.288375
2114.000000	0.287565
2115.000000	0.287631
2116.000000	0.287919
2117.000000	0.287751
2118.000000	0.287887
2119.000000	0.287813
2120.000000	0.288020
2121.000000	0.288345
2122.000000	0.288318
2123.000000	0.288114
2124.000000	0.288365
2125.000000	0.288754
2126.000000	0.289000
2127.000000	0.289758
2128.000000	0.290228
2129.000000	0.290426
2130.000000	0.289774
2131.000000	0.289828
2132.000000	0.290217
2133.000000	0.290396
2134.000000	0.291129
2135.000000	0.290919
2136.000000	0.290409
2137.000000	0.290152
2138.000000	0.289456
2139.000000	0.289020
2140.000000	0.289032
2141.000000	0.288773
2142.000000	0.288026
2143.000000	0.287717
2144.000000	0.288310
2145.000000	0.288161
2146.000000	0.287762
2147.000000	0.287734
2148.000000	0.287152
2149.000000	0.286849
2150.000000	0.287437
2151.000000	0.287953
2152.000000	0.288361
2153.000000	0.288320
2154.000000	0.288046
2155.000000	0.287019
2156.000000	0.286805
2157.000000	0.287032
2158.000000	0.286841
2159.000000	0.286938
2160.000000	0.286968
2161.000000	0.286402
2162.000000	0.286115
2163.000000	0.285728
2164.000000	0.285780
2165.000000	0.285809
2166.000000	0.286413
2167.000000	0.288190
2168.000000	0.289717
2169.000000	0.289502
2170.000000	0.289233
2171.000000	0.288719
2172.000000	0.286590
2173.000000	0.286080
2174.000000	0.286513
2175.000000	0.286481
2176.000000	0.286741
2177.000000	0.286835
2178.000000	0.287035
2179.000000	0.287185
2180.000000	0.287191
2181.000000	0.287376
2182.000000	0.287219
2183.000000	0.286483
2184.000000	0.286452
2185.000000	0.286150
2186.000000	0.286102
2187.000000	0.285851
2188.000000	0.285905
2189.000000	0.285864
2190.000000	0.285057
2191.000000	0.286535
2192.000000	0.286742
2193.000000	0.286392
2194.000000	0.286482
2195.000000	0.286753
2196.000000	0.286381
2197.000000	0.285764
2198.000000	0.285405
2199.000000	0.284585
2200.000000	0.284286
2201.000000	0.285339
2202.000000	0.284927
2203.000000	0.282815
2204.000000	0.281772
2205.000000	0.282471
2206.000000	0.281643
2207.000000	0.283411
2208.000000	0.286206
2209.000000	0.284484
2210.000000	0.285178
2211.000000	0.285589
2212.000000	0.284239
2213.000000	0.284553
2214.000000	0.285591
2215.000000	0.286473
2216.000000	0.288722
2217.000000	0.289400
2218.000000	0.289846
2219.000000	0.289897
2220.000000	0.287850
2221.000000	0.287548
2222.000000	0.287737
2223.000000	0.288296
2224.000000	0.290356
2225.000000	0.291542
2226.000000	0.291327
2227.000000	0.289957
2228.000000	0.286549
2229.000000	0.286020
2230.000000	0.286739
2231.000000	0.287260
2232.000000	0.289260
2233.000000	0.288827
2234.000000	0.288547
2235.000000	0.287997
2236.000000	0.286160
2237.000000	0.283085
2238.000000	0.281972
2239.000000	0.279507
2240.000000	0.279067
2241.000000	0.281969
2242.000000	0.281984
2243.000000	0.279957
2244.000000	0.280875
2245.000000	0.282793
2246.000000	0.283952
2247.000000	0.287482
2248.000000	0.289031
2249.000000	0.289015
2250.000000	0.287681
2251.000000	0.288274
2252.000000	0.289523
2253.000000	0.290615
2254.000000	0.290326
2255.000000	0.290046
2256.000000	0.289265
2257.000000	0.287874
2258.000000	0.289602
2259.000000	0.291777
2260.000000	0.293853
2261.000000	0.294249
2262.000000	0.294627
2263.000000	0.293510
2264.000000	0.289368
2265.000000	0.287735
2266.000000	0.287834
2267.000000	0.286640
2268.000000	0.284720
2269.000000	0.283950
2270.000000	0.281903
2271.000000	0.282058
2272.000000	0.284655
2273.000000	0.286131
2274.000000	0.289144
2275.000000	0.290808
2276.000000	0.291818
2277.000000	0.292620
2278.000000	0.289945
2279.000000	0.285961
2280.000000	0.281786
2281.000000	0.278363
2282.000000	0.278574
2283.000000	0.278603
2284.000000	0.278068
2285.000000	0.278979
2286.000000	0.279853
2287.000000	0.280998
2288.000000	0.284196
2289.000000	0.284999
2290.000000	0.283086
2291.000000	0.281881
2292.000000	0.279528
2293.000000	0.277615
2294.000000	0.277668
2295.000000	0.281063
2296.000000	0.281547
2297.000000	0.281137
2298.000000	0.281463
2299.000000	0.281485
2300.000000	0.281774
2301.000000	0.283087
2302.000000	0.283776
2303.000000	0.283955
2304.000000	0.282836
2305.000000	0.280477
2306.000000	0.279473
2307.000000	0.277428
2308.000000	0.277425
2309.000000	0.279729
2310.000000	0.281175
2311.000000	0.283665
2312.000000	0.284973
2313.000000	0.283087
2314.000000	0.281991
2315.000000	0.279642
2316.000000	0.277540
2317.000000	0.279907
2318.000000	0.282274
2319.000000	0.285559
2320.000000	0.288193
2321.000000	0.288684
2322.000000	0.289509
2323.000000	0.287225
2324.000000	0.285975
2325.000000	0.285518
2326.000000	0.283344
2327.000000	0.284434
2328.000000	0.284322
2329.000000	0.281795
2330.000000	0.280011
2331.000000	0.278824
2332.000000	0.279711
2333.000000	0.279485
2334.000000	0.278692
2335.000000	0.279194
2336.000000	0.278869
2337.000000	0.276960
2338.000000	0.276377
2339.000000	0.275344
2340.000000	0.270056
2341.000000	0.269584
2342.000000	0.272675
2343.000000	0.274447
2344.000000	0.277710
2345.000000	0.279612
2346.000000	0.280705
2347.000000	0.282159
2348.000000	0.283183
2349.000000	0.285443
2350.000000	0.286271
2351.000000	0.286704
2352.000000	0.284942
2353.000000	0.285522
2354.000000	0.283752
2355.000000	0.282636
2356.000000	0.285814
2357.000000	0.282692
2358.000000	0.281271
2359.000000	0.282899
2360.000000	0.280262
2361.000000	0.280757
2362.000000	0.282863
2363.000000	0.281067
2364.000000	0.276161
2365.000000	0.272928
2366.000000	0.270906
2367.000000	0.268771
2368.000000	0.273207
2369.000000	0.276210
2370.000000	0.276666
2371.000000	0.282048
2372.000000	0.282929
2373.000000	0.282132
2374.000000	0.284839
2375.000000	0.286246
2376.000000	0.285652
2377.000000	0.282716
2378.000000	0.279695
2379.000000	0.276122
2380.000000	0.274570
2381.000000	0.277731
2382.000000	0.276985
2383.000000	0.273661
2384.000000	0.272283
2385.000000	0.269430
2386.000000	0.267079
2387.000000	0.266279
2388.000000	0.266632
2389.000000	0.269012
2390.000000	0.269754
2391.000000	0.272506
2392.000000	0.274157
2393.000000	0.267119
2394.000000	0.263289
2395.000000	0.267078
2396.000000	0.271516
2397.000000	0.272372
2398.000000	0.274658
2399.000000	0.276101
2400.000000	0.270004
2401.000000	0.273880
2402.000000	0.286341
2403.000000	0.291359
2404.000000	0.293876
2405.000000	0.291833
2406.000000	0.280204
2407.000000	0.264800
2408.000000	0.256325
2409.000000	0.251620
2410.000000	0.246424
2411.000000	0.250137
2412.000000	0.254614
2413.000000	0.258317
2414.000000	0.262652
2415.000000	0.259264
2416.000000	0.257761
2417.000000	0.256239
2418.000000	0.255080
2419.000000	0.264645
2420.000000	0.271106
2421.000000	0.269020
2422.000000	0.270380
2423.000000	0.269134
2424.000000	0.263546
2425.000000	0.268848
2426.000000	0.278149
2427.000000	0.278496
2428.000000	0.279342
2429.000000	0.283932
2430.000000	0.278201
2431.000000	0.265175
2432.000000	0.261209
2433.000000	0.251725
2434.000000	0.247132
2435.000000	0.263856
2436.000000	0.271565
2437.000000	0.272752
2438.000000	0.276622
2439.000000	0.272700
2440.000000	0.272330
2441.000000	0.285857
2442.000000	0.295115
2443.000000	0.291147
2444.000000	0.290347
2445.000000	0.288098
2446.000000	0.285395
2447.000000	0.289208
2448.000000	0.283190
2449.000000	0.270954
2450.000000	0.254960
2451.000000	0.240002
2452.000000	0.243576
2453.000000	0.244648
2454.000000	0.247414
2455.000000	0.259175
2456.000000	0.264305
2457.000000	0.271200
2458.000000	0.272875
2459.000000	0.266519
2460.000000	0.252644
2461.000000	0.235658
2462.000000	0.233717
2463.000000	0.233558
2464.000000	0.245078
2465.000000	0.276842
2466.000000	0.294640
2467.000000	0.293263
2468.000000	0.293434
2469.000000	0.266190
2470.000000	0.235253
2471.000000	0.256794
2472.000000	0.270633
2473.000000	0.266139
2474.000000	0.285180
2475.000000	0.293464
2476.000000	0.271626
2477.000000	0.240830
2478.000000	0.218973
2479.000000	0.185757
2480.000000	0.178364
2481.000000	0.237143
2482.000000	0.303897
2483.000000	0.333063
2484.000000	0.337429
2485.000000	0.330509
2486.000000	0.292870
2487.000000	0.285556
2488.000000	0.320162
2489.000000	0.314928
2490.000000	0.293091
2491.000000	0.257449
2492.000000	0.217330
2493.000000	0.163780
2494.000000	0.150880
2495.000000	0.174902
2496.000000	0.166047
2497.000000	0.138294
2498.000000	0.132936
2499.000000	0.120510
2500.000000	0.121592
