# Wavelength	NAu-1-20_HEX-60_FV7-20_00002.asd.rts.txt
350.000000	0.199823
351.000000	0.213035
352.000000	0.216409
353.000000	0.210297
354.000000	0.201853
355.000000	0.196633
356.000000	0.201971
357.000000	0.210479
358.000000	0.200376
359.000000	0.200598
360.000000	0.206395
361.000000	0.205837
362.000000	0.204271
363.000000	0.203808
364.000000	0.204657
365.000000	0.204834
366.000000	0.207670
367.000000	0.210187
368.000000	0.204132
369.000000	0.202036
370.000000	0.203684
371.000000	0.205380
372.000000	0.208453
373.000000	0.210808
374.000000	0.211835
375.000000	0.213987
376.000000	0.213584
377.000000	0.210401
378.000000	0.207350
379.000000	0.210809
380.000000	0.215887
381.000000	0.215903
382.000000	0.215910
383.000000	0.216744
384.000000	0.218246
385.000000	0.218104
386.000000	0.218529
387.000000	0.219859
388.000000	0.220128
389.000000	0.220153
390.000000	0.220815
391.000000	0.222654
392.000000	0.224980
393.000000	0.226543
394.000000	0.226941
395.000000	0.228680
396.000000	0.229527
397.000000	0.229367
398.000000	0.231049
399.000000	0.232956
400.000000	0.234836
401.000000	0.236744
402.000000	0.238450
403.000000	0.239268
404.000000	0.239228
405.000000	0.240732
406.000000	0.241971
407.000000	0.242401
408.000000	0.243627
409.000000	0.244758
410.000000	0.245760
411.000000	0.246984
412.000000	0.248187
413.000000	0.249006
414.000000	0.249274
415.000000	0.249829
416.000000	0.250482
417.000000	0.251067
418.000000	0.251673
419.000000	0.252160
420.000000	0.252370
421.000000	0.252066
422.000000	0.252489
423.000000	0.253125
424.000000	0.253155
425.000000	0.253868
426.000000	0.254678
427.000000	0.255012
428.000000	0.255114
429.000000	0.254902
430.000000	0.254547
431.000000	0.254567
432.000000	0.254732
433.000000	0.255024
434.000000	0.255560
435.000000	0.255576
436.000000	0.255493
437.000000	0.255700
438.000000	0.255435
439.000000	0.255005
440.000000	0.254733
441.000000	0.254565
442.000000	0.254448
443.000000	0.254357
444.000000	0.254457
445.000000	0.254512
446.000000	0.254667
447.000000	0.255004
448.000000	0.255873
449.000000	0.256861
450.000000	0.257708
451.000000	0.258683
452.000000	0.259965
453.000000	0.261566
454.000000	0.263576
455.000000	0.265411
456.000000	0.267221
457.000000	0.269251
458.000000	0.271166
459.000000	0.272972
460.000000	0.274705
461.000000	0.275920
462.000000	0.277182
463.000000	0.278585
464.000000	0.280004
465.000000	0.280912
466.000000	0.281360
467.000000	0.281954
468.000000	0.282845
469.000000	0.283676
470.000000	0.284230
471.000000	0.284886
472.000000	0.285528
473.000000	0.286076
474.000000	0.286529
475.000000	0.286971
476.000000	0.287562
477.000000	0.288144
478.000000	0.288772
479.000000	0.289449
480.000000	0.289778
481.000000	0.289992
482.000000	0.290427
483.000000	0.291043
484.000000	0.291639
485.000000	0.292161
486.000000	0.292756
487.000000	0.293244
488.000000	0.293679
489.000000	0.294165
490.000000	0.294834
491.000000	0.295291
492.000000	0.295705
493.000000	0.296218
494.000000	0.296873
495.000000	0.297456
496.000000	0.297844
497.000000	0.298442
498.000000	0.299059
499.000000	0.299678
500.000000	0.300260
501.000000	0.300798
502.000000	0.301412
503.000000	0.302163
504.000000	0.302689
505.000000	0.303190
506.000000	0.303871
507.000000	0.304346
508.000000	0.304975
509.000000	0.305795
510.000000	0.306265
511.000000	0.306818
512.000000	0.307529
513.000000	0.308143
514.000000	0.308864
515.000000	0.309652
516.000000	0.310336
517.000000	0.311043
518.000000	0.311771
519.000000	0.312436
520.000000	0.313236
521.000000	0.314029
522.000000	0.314759
523.000000	0.315459
524.000000	0.316207
525.000000	0.316985
526.000000	0.317777
527.000000	0.318650
528.000000	0.319425
529.000000	0.320023
530.000000	0.320848
531.000000	0.321769
532.000000	0.322565
533.000000	0.323297
534.000000	0.324104
535.000000	0.324978
536.000000	0.325805
537.000000	0.326709
538.000000	0.327592
539.000000	0.328286
540.000000	0.329159
541.000000	0.330100
542.000000	0.330980
543.000000	0.331718
544.000000	0.332456
545.000000	0.333212
546.000000	0.334061
547.000000	0.335001
548.000000	0.335972
549.000000	0.336752
550.000000	0.337499
551.000000	0.338318
552.000000	0.339209
553.000000	0.340030
554.000000	0.340835
555.000000	0.341682
556.000000	0.342554
557.000000	0.343319
558.000000	0.344080
559.000000	0.344789
560.000000	0.345440
561.000000	0.346175
562.000000	0.347007
563.000000	0.347751
564.000000	0.348475
565.000000	0.349158
566.000000	0.349881
567.000000	0.350564
568.000000	0.351159
569.000000	0.351812
570.000000	0.352397
571.000000	0.352900
572.000000	0.353434
573.000000	0.353984
574.000000	0.354518
575.000000	0.355060
576.000000	0.355506
577.000000	0.355937
578.000000	0.356486
579.000000	0.356993
580.000000	0.357516
581.000000	0.358030
582.000000	0.358355
583.000000	0.358636
584.000000	0.358950
585.000000	0.359354
586.000000	0.359787
587.000000	0.360196
588.000000	0.360535
589.000000	0.360799
590.000000	0.361066
591.000000	0.361366
592.000000	0.361590
593.000000	0.361902
594.000000	0.362277
595.000000	0.362507
596.000000	0.362767
597.000000	0.363085
598.000000	0.363307
599.000000	0.363435
600.000000	0.363588
601.000000	0.363752
602.000000	0.363849
603.000000	0.363961
604.000000	0.364135
605.000000	0.364308
606.000000	0.364505
607.000000	0.364677
608.000000	0.364730
609.000000	0.364865
610.000000	0.365051
611.000000	0.365191
612.000000	0.365224
613.000000	0.365253
614.000000	0.365385
615.000000	0.365531
616.000000	0.365633
617.000000	0.365673
618.000000	0.365805
619.000000	0.365934
620.000000	0.366021
621.000000	0.366118
622.000000	0.366135
623.000000	0.366116
624.000000	0.366117
625.000000	0.366179
626.000000	0.366288
627.000000	0.366440
628.000000	0.366660
629.000000	0.366897
630.000000	0.367023
631.000000	0.367218
632.000000	0.367365
633.000000	0.367461
634.000000	0.367535
635.000000	0.367781
636.000000	0.368009
637.000000	0.368113
638.000000	0.368300
639.000000	0.368506
640.000000	0.368745
641.000000	0.368884
642.000000	0.368951
643.000000	0.369058
644.000000	0.369310
645.000000	0.369447
646.000000	0.369562
647.000000	0.369719
648.000000	0.369891
649.000000	0.370084
650.000000	0.370266
651.000000	0.370422
652.000000	0.370600
653.000000	0.370823
654.000000	0.371008
655.000000	0.371299
656.000000	0.371584
657.000000	0.371707
658.000000	0.371922
659.000000	0.372144
660.000000	0.372332
661.000000	0.372623
662.000000	0.372794
663.000000	0.372924
664.000000	0.373138
665.000000	0.373381
666.000000	0.373647
667.000000	0.373902
668.000000	0.374188
669.000000	0.374468
670.000000	0.374720
671.000000	0.374921
672.000000	0.375180
673.000000	0.375477
674.000000	0.375704
675.000000	0.375957
676.000000	0.376241
677.000000	0.376550
678.000000	0.376825
679.000000	0.377097
680.000000	0.377383
681.000000	0.377583
682.000000	0.377874
683.000000	0.378191
684.000000	0.378510
685.000000	0.378782
686.000000	0.379090
687.000000	0.379474
688.000000	0.379805
689.000000	0.380109
690.000000	0.380466
691.000000	0.380855
692.000000	0.381214
693.000000	0.381592
694.000000	0.381940
695.000000	0.382277
696.000000	0.382608
697.000000	0.382942
698.000000	0.383280
699.000000	0.383618
700.000000	0.383966
701.000000	0.384358
702.000000	0.384707
703.000000	0.384996
704.000000	0.385370
705.000000	0.385760
706.000000	0.386105
707.000000	0.386463
708.000000	0.386732
709.000000	0.386971
710.000000	0.387283
711.000000	0.387742
712.000000	0.388147
713.000000	0.388448
714.000000	0.388714
715.000000	0.389083
716.000000	0.389491
717.000000	0.389759
718.000000	0.390141
719.000000	0.390500
720.000000	0.390748
721.000000	0.391138
722.000000	0.391441
723.000000	0.391690
724.000000	0.392058
725.000000	0.392376
726.000000	0.392701
727.000000	0.392978
728.000000	0.393329
729.000000	0.393654
730.000000	0.393829
731.000000	0.394127
732.000000	0.394456
733.000000	0.394798
734.000000	0.395073
735.000000	0.395348
736.000000	0.395718
737.000000	0.395967
738.000000	0.396114
739.000000	0.396358
740.000000	0.396617
741.000000	0.396922
742.000000	0.397237
743.000000	0.397510
744.000000	0.397790
745.000000	0.397949
746.000000	0.398062
747.000000	0.398158
748.000000	0.398434
749.000000	0.398682
750.000000	0.398746
751.000000	0.398887
752.000000	0.399047
753.000000	0.399216
754.000000	0.399379
755.000000	0.399534
756.000000	0.399713
757.000000	0.399879
758.000000	0.400002
759.000000	0.400120
760.000000	0.400187
761.000000	0.400318
762.000000	0.400499
763.000000	0.400647
764.000000	0.400737
765.000000	0.400839
766.000000	0.400900
767.000000	0.400883
768.000000	0.400953
769.000000	0.401012
770.000000	0.401031
771.000000	0.401076
772.000000	0.401240
773.000000	0.401327
774.000000	0.401223
775.000000	0.401209
776.000000	0.401228
777.000000	0.401184
778.000000	0.401107
779.000000	0.401133
780.000000	0.401230
781.000000	0.401175
782.000000	0.401083
783.000000	0.401058
784.000000	0.400963
785.000000	0.400907
786.000000	0.400803
787.000000	0.400629
788.000000	0.400519
789.000000	0.400475
790.000000	0.400460
791.000000	0.400465
792.000000	0.400433
793.000000	0.400324
794.000000	0.400148
795.000000	0.400003
796.000000	0.399925
797.000000	0.399897
798.000000	0.399855
799.000000	0.399810
800.000000	0.399772
801.000000	0.399754
802.000000	0.399753
803.000000	0.399694
804.000000	0.399575
805.000000	0.399344
806.000000	0.399094
807.000000	0.398915
808.000000	0.398697
809.000000	0.398566
810.000000	0.398472
811.000000	0.398326
812.000000	0.398073
813.000000	0.397911
814.000000	0.397860
815.000000	0.397804
816.000000	0.397620
817.000000	0.397359
818.000000	0.397045
819.000000	0.396993
820.000000	0.396968
821.000000	0.396797
822.000000	0.396604
823.000000	0.396497
824.000000	0.396384
825.000000	0.396263
826.000000	0.396155
827.000000	0.395976
828.000000	0.395751
829.000000	0.395550
830.000000	0.395338
831.000000	0.395149
832.000000	0.394850
833.000000	0.394697
834.000000	0.394553
835.000000	0.394331
836.000000	0.394103
837.000000	0.393923
838.000000	0.393770
839.000000	0.393508
840.000000	0.393295
841.000000	0.393117
842.000000	0.392899
843.000000	0.392801
844.000000	0.392683
845.000000	0.392496
846.000000	0.392395
847.000000	0.392130
848.000000	0.391841
849.000000	0.391742
850.000000	0.391569
851.000000	0.391301
852.000000	0.391035
853.000000	0.390867
854.000000	0.390617
855.000000	0.390455
856.000000	0.390363
857.000000	0.390129
858.000000	0.389884
859.000000	0.389657
860.000000	0.389604
861.000000	0.389398
862.000000	0.389119
863.000000	0.388892
864.000000	0.388701
865.000000	0.388587
866.000000	0.388572
867.000000	0.388539
868.000000	0.388524
869.000000	0.388380
870.000000	0.388068
871.000000	0.387692
872.000000	0.387480
873.000000	0.387425
874.000000	0.387328
875.000000	0.387072
876.000000	0.386808
877.000000	0.386678
878.000000	0.386374
879.000000	0.386150
880.000000	0.385953
881.000000	0.385662
882.000000	0.385319
883.000000	0.385098
884.000000	0.385092
885.000000	0.385004
886.000000	0.384855
887.000000	0.384704
888.000000	0.384490
889.000000	0.384337
890.000000	0.384120
891.000000	0.383925
892.000000	0.383770
893.000000	0.383593
894.000000	0.383479
895.000000	0.383253
896.000000	0.383032
897.000000	0.382823
898.000000	0.382597
899.000000	0.382347
900.000000	0.382127
901.000000	0.381949
902.000000	0.381929
903.000000	0.381737
904.000000	0.381483
905.000000	0.381235
906.000000	0.380974
907.000000	0.380790
908.000000	0.380732
909.000000	0.380578
910.000000	0.380426
911.000000	0.380293
912.000000	0.380169
913.000000	0.379887
914.000000	0.379617
915.000000	0.379512
916.000000	0.379474
917.000000	0.379277
918.000000	0.379105
919.000000	0.379043
920.000000	0.378833
921.000000	0.378575
922.000000	0.378433
923.000000	0.378493
924.000000	0.378129
925.000000	0.377821
926.000000	0.377815
927.000000	0.377595
928.000000	0.377398
929.000000	0.377218
930.000000	0.377003
931.000000	0.376833
932.000000	0.376739
933.000000	0.376712
934.000000	0.376569
935.000000	0.376330
936.000000	0.376157
937.000000	0.376010
938.000000	0.375676
939.000000	0.375528
940.000000	0.375500
941.000000	0.375453
942.000000	0.375291
943.000000	0.375119
944.000000	0.374896
945.000000	0.374789
946.000000	0.374765
947.000000	0.374812
948.000000	0.374799
949.000000	0.374535
950.000000	0.374332
951.000000	0.374163
952.000000	0.373828
953.000000	0.373677
954.000000	0.373541
955.000000	0.373212
956.000000	0.373000
957.000000	0.372830
958.000000	0.372687
959.000000	0.372694
960.000000	0.372589
961.000000	0.372550
962.000000	0.372509
963.000000	0.372171
964.000000	0.372080
965.000000	0.371984
966.000000	0.371559
967.000000	0.371448
968.000000	0.371351
969.000000	0.371211
970.000000	0.371191
971.000000	0.370862
972.000000	0.370652
973.000000	0.370617
974.000000	0.370525
975.000000	0.370403
976.000000	0.370347
977.000000	0.370342
978.000000	0.369998
979.000000	0.370103
980.000000	0.370224
981.000000	0.370087
982.000000	0.370021
983.000000	0.369840
984.000000	0.369675
985.000000	0.369787
986.000000	0.369533
987.000000	0.369444
988.000000	0.369651
989.000000	0.369403
990.000000	0.369371
991.000000	0.369594
992.000000	0.369845
993.000000	0.369520
994.000000	0.369233
995.000000	0.369291
996.000000	0.369247
997.000000	0.369334
998.000000	0.369495
999.000000	0.369717
1000.000000	0.369793
1001.000000	0.369534
1002.000000	0.369564
1003.000000	0.369907
1004.000000	0.369978
1005.000000	0.369643
1006.000000	0.369523
1007.000000	0.369531
1008.000000	0.369584
1009.000000	0.369764
1010.000000	0.370189
1011.000000	0.370722
1012.000000	0.370852
1013.000000	0.369846
1014.000000	0.369465
1015.000000	0.369687
1016.000000	0.369550
1017.000000	0.369962
1018.000000	0.370987
1019.000000	0.371262
1020.000000	0.370784
1021.000000	0.370642
1022.000000	0.370775
1023.000000	0.370911
1024.000000	0.370786
1025.000000	0.371692
1026.000000	0.371767
1027.000000	0.370826
1028.000000	0.370625
1029.000000	0.370426
1030.000000	0.370301
1031.000000	0.371311
1032.000000	0.371810
1033.000000	0.371543
1034.000000	0.371841
1035.000000	0.372366
1036.000000	0.372568
1037.000000	0.372931
1038.000000	0.373219
1039.000000	0.373495
1040.000000	0.373396
1041.000000	0.373815
1042.000000	0.373811
1043.000000	0.373788
1044.000000	0.374318
1045.000000	0.374780
1046.000000	0.375363
1047.000000	0.375668
1048.000000	0.375811
1049.000000	0.375839
1050.000000	0.375554
1051.000000	0.375498
1052.000000	0.375391
1053.000000	0.375458
1054.000000	0.375994
1055.000000	0.376410
1056.000000	0.376954
1057.000000	0.377282
1058.000000	0.377885
1059.000000	0.377990
1060.000000	0.378472
1061.000000	0.379190
1062.000000	0.379424
1063.000000	0.379724
1064.000000	0.380055
1065.000000	0.380141
1066.000000	0.380481
1067.000000	0.381078
1068.000000	0.381442
1069.000000	0.381819
1070.000000	0.381940
1071.000000	0.381544
1072.000000	0.381807
1073.000000	0.382332
1074.000000	0.382995
1075.000000	0.383684
1076.000000	0.384270
1077.000000	0.384537
1078.000000	0.384433
1079.000000	0.384563
1080.000000	0.384892
1081.000000	0.385116
1082.000000	0.385161
1083.000000	0.385689
1084.000000	0.386889
1085.000000	0.387354
1086.000000	0.387462
1087.000000	0.387899
1088.000000	0.388125
1089.000000	0.388222
1090.000000	0.388370
1091.000000	0.388646
1092.000000	0.388865
1093.000000	0.389198
1094.000000	0.389374
1095.000000	0.389656
1096.000000	0.390094
1097.000000	0.390401
1098.000000	0.390693
1099.000000	0.391338
1100.000000	0.391711
1101.000000	0.391330
1102.000000	0.391655
1103.000000	0.392458
1104.000000	0.393049
1105.000000	0.394062
1106.000000	0.394598
1107.000000	0.394601
1108.000000	0.394770
1109.000000	0.394910
1110.000000	0.394894
1111.000000	0.395148
1112.000000	0.395574
1113.000000	0.395966
1114.000000	0.396525
1115.000000	0.396850
1116.000000	0.397051
1117.000000	0.397405
1118.000000	0.397649
1119.000000	0.397953
1120.000000	0.398562
1121.000000	0.398848
1122.000000	0.398992
1123.000000	0.399441
1124.000000	0.399489
1125.000000	0.399807
1126.000000	0.400515
1127.000000	0.400804
1128.000000	0.400944
1129.000000	0.401015
1130.000000	0.401156
1131.000000	0.401020
1132.000000	0.401158
1133.000000	0.401636
1134.000000	0.401910
1135.000000	0.402014
1136.000000	0.402237
1137.000000	0.402614
1138.000000	0.402694
1139.000000	0.402692
1140.000000	0.402913
1141.000000	0.403003
1142.000000	0.403118
1143.000000	0.403388
1144.000000	0.403659
1145.000000	0.403625
1146.000000	0.403488
1147.000000	0.403518
1148.000000	0.403431
1149.000000	0.403544
1150.000000	0.403781
1151.000000	0.404094
1152.000000	0.404490
1153.000000	0.404809
1154.000000	0.405234
1155.000000	0.405404
1156.000000	0.405338
1157.000000	0.405443
1158.000000	0.405487
1159.000000	0.405474
1160.000000	0.405441
1161.000000	0.405491
1162.000000	0.405647
1163.000000	0.405810
1164.000000	0.405879
1165.000000	0.405952
1166.000000	0.405973
1167.000000	0.405689
1168.000000	0.405712
1169.000000	0.405916
1170.000000	0.406124
1171.000000	0.406577
1172.000000	0.406792
1173.000000	0.406867
1174.000000	0.406981
1175.000000	0.406973
1176.000000	0.406954
1177.000000	0.407071
1178.000000	0.407123
1179.000000	0.407062
1180.000000	0.407003
1181.000000	0.407065
1182.000000	0.407081
1183.000000	0.407254
1184.000000	0.407317
1185.000000	0.407456
1186.000000	0.407728
1187.000000	0.407776
1188.000000	0.407704
1189.000000	0.407683
1190.000000	0.407601
1191.000000	0.407637
1192.000000	0.407891
1193.000000	0.408187
1194.000000	0.408401
1195.000000	0.408560
1196.000000	0.408740
1197.000000	0.408800
1198.000000	0.408703
1199.000000	0.408719
1200.000000	0.408721
1201.000000	0.408689
1202.000000	0.408761
1203.000000	0.408776
1204.000000	0.408744
1205.000000	0.408826
1206.000000	0.408851
1207.000000	0.409020
1208.000000	0.409080
1209.000000	0.409160
1210.000000	0.409262
1211.000000	0.409401
1212.000000	0.409455
1213.000000	0.409553
1214.000000	0.409619
1215.000000	0.409536
1216.000000	0.409558
1217.000000	0.409593
1218.000000	0.409606
1219.000000	0.409676
1220.000000	0.409767
1221.000000	0.409820
1222.000000	0.409933
1223.000000	0.410024
1224.000000	0.410057
1225.000000	0.410114
1226.000000	0.410174
1227.000000	0.410001
1228.000000	0.410000
1229.000000	0.409977
1230.000000	0.409814
1231.000000	0.409740
1232.000000	0.409979
1233.000000	0.410171
1234.000000	0.410376
1235.000000	0.410502
1236.000000	0.410450
1237.000000	0.410542
1238.000000	0.410579
1239.000000	0.410618
1240.000000	0.410720
1241.000000	0.410872
1242.000000	0.410886
1243.000000	0.410783
1244.000000	0.410757
1245.000000	0.410944
1246.000000	0.411162
1247.000000	0.411377
1248.000000	0.411587
1249.000000	0.411671
1250.000000	0.411622
1251.000000	0.411641
1252.000000	0.411613
1253.000000	0.411517
1254.000000	0.411546
1255.000000	0.411658
1256.000000	0.411712
1257.000000	0.411915
1258.000000	0.411990
1259.000000	0.411833
1260.000000	0.411816
1261.000000	0.411685
1262.000000	0.411632
1263.000000	0.411678
1264.000000	0.411692
1265.000000	0.411779
1266.000000	0.411900
1267.000000	0.411899
1268.000000	0.411841
1269.000000	0.411691
1270.000000	0.411617
1271.000000	0.411685
1272.000000	0.411859
1273.000000	0.412102
1274.000000	0.412230
1275.000000	0.412303
1276.000000	0.412372
1277.000000	0.412459
1278.000000	0.412367
1279.000000	0.412362
1280.000000	0.412248
1281.000000	0.412172
1282.000000	0.412215
1283.000000	0.412309
1284.000000	0.412341
1285.000000	0.412447
1286.000000	0.412620
1287.000000	0.412686
1288.000000	0.412767
1289.000000	0.412717
1290.000000	0.412579
1291.000000	0.412464
1292.000000	0.412384
1293.000000	0.412493
1294.000000	0.412585
1295.000000	0.412595
1296.000000	0.412587
1297.000000	0.412500
1298.000000	0.412366
1299.000000	0.412190
1300.000000	0.412153
1301.000000	0.412152
1302.000000	0.412066
1303.000000	0.412195
1304.000000	0.412133
1305.000000	0.412051
1306.000000	0.411922
1307.000000	0.411812
1308.000000	0.411748
1309.000000	0.411600
1310.000000	0.411540
1311.000000	0.411632
1312.000000	0.411504
1313.000000	0.411453
1314.000000	0.411498
1315.000000	0.411342
1316.000000	0.411295
1317.000000	0.411295
1318.000000	0.411171
1319.000000	0.411007
1320.000000	0.410929
1321.000000	0.410721
1322.000000	0.410397
1323.000000	0.410233
1324.000000	0.410148
1325.000000	0.409961
1326.000000	0.409727
1327.000000	0.409575
1328.000000	0.409600
1329.000000	0.409415
1330.000000	0.409228
1331.000000	0.409002
1332.000000	0.408726
1333.000000	0.408370
1334.000000	0.407982
1335.000000	0.407825
1336.000000	0.407687
1337.000000	0.407528
1338.000000	0.407445
1339.000000	0.407345
1340.000000	0.407071
1341.000000	0.406861
1342.000000	0.406584
1343.000000	0.406392
1344.000000	0.406185
1345.000000	0.405807
1346.000000	0.405726
1347.000000	0.405534
1348.000000	0.405325
1349.000000	0.405176
1350.000000	0.404855
1351.000000	0.404441
1352.000000	0.404147
1353.000000	0.403864
1354.000000	0.403515
1355.000000	0.403061
1356.000000	0.402739
1357.000000	0.402410
1358.000000	0.402095
1359.000000	0.401926
1360.000000	0.401719
1361.000000	0.401562
1362.000000	0.401233
1363.000000	0.400786
1364.000000	0.400513
1365.000000	0.400099
1366.000000	0.399853
1367.000000	0.399841
1368.000000	0.399684
1369.000000	0.399420
1370.000000	0.399192
1371.000000	0.398761
1372.000000	0.398191
1373.000000	0.397774
1374.000000	0.397290
1375.000000	0.396780
1376.000000	0.396566
1377.000000	0.396210
1378.000000	0.395649
1379.000000	0.395098
1380.000000	0.394616
1381.000000	0.394167
1382.000000	0.393633
1383.000000	0.393049
1384.000000	0.392283
1385.000000	0.391561
1386.000000	0.390941
1387.000000	0.390159
1388.000000	0.389342
1389.000000	0.388419
1390.000000	0.387371
1391.000000	0.386238
1392.000000	0.385110
1393.000000	0.383955
1394.000000	0.382740
1395.000000	0.381528
1396.000000	0.380415
1397.000000	0.379147
1398.000000	0.377646
1399.000000	0.376292
1400.000000	0.374984
1401.000000	0.373549
1402.000000	0.372145
1403.000000	0.370720
1404.000000	0.369138
1405.000000	0.367605
1406.000000	0.366079
1407.000000	0.364599
1408.000000	0.363169
1409.000000	0.361639
1410.000000	0.360091
1411.000000	0.358434
1412.000000	0.356820
1413.000000	0.355401
1414.000000	0.353918
1415.000000	0.352502
1416.000000	0.351157
1417.000000	0.349783
1418.000000	0.348471
1419.000000	0.347318
1420.000000	0.346149
1421.000000	0.345027
1422.000000	0.343878
1423.000000	0.342704
1424.000000	0.341373
1425.000000	0.340097
1426.000000	0.338818
1427.000000	0.337509
1428.000000	0.336284
1429.000000	0.335107
1430.000000	0.333928
1431.000000	0.332815
1432.000000	0.331761
1433.000000	0.330760
1434.000000	0.329872
1435.000000	0.329143
1436.000000	0.328470
1437.000000	0.327958
1438.000000	0.327389
1439.000000	0.326829
1440.000000	0.326422
1441.000000	0.326110
1442.000000	0.325835
1443.000000	0.325577
1444.000000	0.325405
1445.000000	0.325325
1446.000000	0.325141
1447.000000	0.324958
1448.000000	0.324758
1449.000000	0.324369
1450.000000	0.324057
1451.000000	0.323838
1452.000000	0.323526
1453.000000	0.323254
1454.000000	0.322981
1455.000000	0.322730
1456.000000	0.322567
1457.000000	0.322460
1458.000000	0.322304
1459.000000	0.322002
1460.000000	0.321668
1461.000000	0.321256
1462.000000	0.320932
1463.000000	0.320789
1464.000000	0.320717
1465.000000	0.320774
1466.000000	0.320723
1467.000000	0.320529
1468.000000	0.320394
1469.000000	0.320417
1470.000000	0.320510
1471.000000	0.320648
1472.000000	0.320747
1473.000000	0.320879
1474.000000	0.320991
1475.000000	0.321207
1476.000000	0.321593
1477.000000	0.322021
1478.000000	0.322360
1479.000000	0.322683
1480.000000	0.322993
1481.000000	0.323318
1482.000000	0.323665
1483.000000	0.324158
1484.000000	0.324763
1485.000000	0.325291
1486.000000	0.325852
1487.000000	0.326334
1488.000000	0.326731
1489.000000	0.327276
1490.000000	0.327737
1491.000000	0.328288
1492.000000	0.328919
1493.000000	0.329499
1494.000000	0.330077
1495.000000	0.330559
1496.000000	0.330908
1497.000000	0.331391
1498.000000	0.331872
1499.000000	0.332418
1500.000000	0.333107
1501.000000	0.333624
1502.000000	0.333969
1503.000000	0.334400
1504.000000	0.334740
1505.000000	0.335088
1506.000000	0.335546
1507.000000	0.335845
1508.000000	0.336217
1509.000000	0.336629
1510.000000	0.336924
1511.000000	0.337300
1512.000000	0.337625
1513.000000	0.337938
1514.000000	0.338334
1515.000000	0.338617
1516.000000	0.338872
1517.000000	0.339099
1518.000000	0.339242
1519.000000	0.339333
1520.000000	0.339496
1521.000000	0.339542
1522.000000	0.339672
1523.000000	0.339997
1524.000000	0.340207
1525.000000	0.340453
1526.000000	0.340629
1527.000000	0.340636
1528.000000	0.340708
1529.000000	0.340757
1530.000000	0.340707
1531.000000	0.340790
1532.000000	0.340912
1533.000000	0.340992
1534.000000	0.341156
1535.000000	0.341298
1536.000000	0.341290
1537.000000	0.341441
1538.000000	0.341511
1539.000000	0.341486
1540.000000	0.341609
1541.000000	0.341639
1542.000000	0.341785
1543.000000	0.342085
1544.000000	0.342284
1545.000000	0.342465
1546.000000	0.342639
1547.000000	0.342819
1548.000000	0.343027
1549.000000	0.343213
1550.000000	0.343247
1551.000000	0.343245
1552.000000	0.343330
1553.000000	0.343321
1554.000000	0.343428
1555.000000	0.343667
1556.000000	0.343618
1557.000000	0.343471
1558.000000	0.343486
1559.000000	0.343416
1560.000000	0.343378
1561.000000	0.343575
1562.000000	0.343610
1563.000000	0.343564
1564.000000	0.343529
1565.000000	0.343449
1566.000000	0.343314
1567.000000	0.343242
1568.000000	0.343207
1569.000000	0.343290
1570.000000	0.343282
1571.000000	0.343217
1572.000000	0.343171
1573.000000	0.343075
1574.000000	0.343089
1575.000000	0.343238
1576.000000	0.343300
1577.000000	0.343348
1578.000000	0.343331
1579.000000	0.343294
1580.000000	0.343288
1581.000000	0.343325
1582.000000	0.343407
1583.000000	0.343616
1584.000000	0.343596
1585.000000	0.343569
1586.000000	0.343564
1587.000000	0.343331
1588.000000	0.343313
1589.000000	0.343509
1590.000000	0.343597
1591.000000	0.343793
1592.000000	0.343864
1593.000000	0.343846
1594.000000	0.343809
1595.000000	0.343748
1596.000000	0.343740
1597.000000	0.343789
1598.000000	0.343778
1599.000000	0.343788
1600.000000	0.343740
1601.000000	0.343726
1602.000000	0.343709
1603.000000	0.343668
1604.000000	0.343675
1605.000000	0.343744
1606.000000	0.343763
1607.000000	0.343852
1608.000000	0.343969
1609.000000	0.344101
1610.000000	0.344247
1611.000000	0.344515
1612.000000	0.344684
1613.000000	0.344943
1614.000000	0.345059
1615.000000	0.345167
1616.000000	0.345242
1617.000000	0.345099
1618.000000	0.345135
1619.000000	0.345223
1620.000000	0.345298
1621.000000	0.345469
1622.000000	0.345695
1623.000000	0.345903
1624.000000	0.346083
1625.000000	0.346176
1626.000000	0.346259
1627.000000	0.346272
1628.000000	0.346452
1629.000000	0.346710
1630.000000	0.346978
1631.000000	0.347290
1632.000000	0.347470
1633.000000	0.347541
1634.000000	0.347789
1635.000000	0.348123
1636.000000	0.348411
1637.000000	0.348820
1638.000000	0.349189
1639.000000	0.349626
1640.000000	0.349825
1641.000000	0.350004
1642.000000	0.350190
1643.000000	0.350194
1644.000000	0.350351
1645.000000	0.350659
1646.000000	0.350856
1647.000000	0.351024
1648.000000	0.351238
1649.000000	0.351565
1650.000000	0.351880
1651.000000	0.352278
1652.000000	0.352606
1653.000000	0.352864
1654.000000	0.353170
1655.000000	0.353389
1656.000000	0.353544
1657.000000	0.353785
1658.000000	0.353993
1659.000000	0.354246
1660.000000	0.354477
1661.000000	0.354633
1662.000000	0.354794
1663.000000	0.354905
1664.000000	0.355021
1665.000000	0.355091
1666.000000	0.355328
1667.000000	0.355485
1668.000000	0.355779
1669.000000	0.356258
1670.000000	0.356512
1671.000000	0.356848
1672.000000	0.357134
1673.000000	0.357276
1674.000000	0.357590
1675.000000	0.357782
1676.000000	0.357892
1677.000000	0.358035
1678.000000	0.358025
1679.000000	0.358187
1680.000000	0.358349
1681.000000	0.358456
1682.000000	0.358707
1683.000000	0.358887
1684.000000	0.359082
1685.000000	0.359331
1686.000000	0.359433
1687.000000	0.359538
1688.000000	0.359674
1689.000000	0.359786
1690.000000	0.359857
1691.000000	0.360109
1692.000000	0.360232
1693.000000	0.360289
1694.000000	0.360437
1695.000000	0.360501
1696.000000	0.360428
1697.000000	0.360436
1698.000000	0.360488
1699.000000	0.360598
1700.000000	0.360889
1701.000000	0.361115
1702.000000	0.361042
1703.000000	0.361073
1704.000000	0.361177
1705.000000	0.361319
1706.000000	0.361684
1707.000000	0.361879
1708.000000	0.361906
1709.000000	0.362002
1710.000000	0.362167
1711.000000	0.362330
1712.000000	0.362644
1713.000000	0.362798
1714.000000	0.362844
1715.000000	0.362999
1716.000000	0.363206
1717.000000	0.363313
1718.000000	0.363443
1719.000000	0.363427
1720.000000	0.363247
1721.000000	0.363205
1722.000000	0.363101
1723.000000	0.363198
1724.000000	0.363525
1725.000000	0.363764
1726.000000	0.363981
1727.000000	0.364193
1728.000000	0.364314
1729.000000	0.364369
1730.000000	0.364620
1731.000000	0.364673
1732.000000	0.364523
1733.000000	0.364619
1734.000000	0.364566
1735.000000	0.364674
1736.000000	0.364947
1737.000000	0.365083
1738.000000	0.365185
1739.000000	0.365391
1740.000000	0.365614
1741.000000	0.365746
1742.000000	0.365921
1743.000000	0.366137
1744.000000	0.366259
1745.000000	0.366401
1746.000000	0.366611
1747.000000	0.366852
1748.000000	0.366924
1749.000000	0.366976
1750.000000	0.366995
1751.000000	0.366931
1752.000000	0.367078
1753.000000	0.367229
1754.000000	0.367383
1755.000000	0.367608
1756.000000	0.367716
1757.000000	0.367784
1758.000000	0.367827
1759.000000	0.367775
1760.000000	0.367699
1761.000000	0.367436
1762.000000	0.367379
1763.000000	0.367408
1764.000000	0.367478
1765.000000	0.367763
1766.000000	0.367856
1767.000000	0.367739
1768.000000	0.367653
1769.000000	0.367540
1770.000000	0.367621
1771.000000	0.367732
1772.000000	0.367915
1773.000000	0.368224
1774.000000	0.368408
1775.000000	0.368653
1776.000000	0.368849
1777.000000	0.368940
1778.000000	0.369009
1779.000000	0.369008
1780.000000	0.369130
1781.000000	0.369209
1782.000000	0.369353
1783.000000	0.369711
1784.000000	0.369830
1785.000000	0.369805
1786.000000	0.369848
1787.000000	0.370048
1788.000000	0.370418
1789.000000	0.370703
1790.000000	0.371021
1791.000000	0.371146
1792.000000	0.371111
1793.000000	0.371185
1794.000000	0.371297
1795.000000	0.371366
1796.000000	0.371408
1797.000000	0.371523
1798.000000	0.371517
1799.000000	0.371707
1800.000000	0.372276
1801.000000	0.371875
1802.000000	0.371769
1803.000000	0.371856
1804.000000	0.371916
1805.000000	0.372697
1806.000000	0.373047
1807.000000	0.372937
1808.000000	0.373027
1809.000000	0.373060
1810.000000	0.373515
1811.000000	0.373809
1812.000000	0.373819
1813.000000	0.374625
1814.000000	0.376416
1815.000000	0.377145
1816.000000	0.378386
1817.000000	0.378341
1818.000000	0.376567
1819.000000	0.375621
1820.000000	0.376071
1821.000000	0.375859
1822.000000	0.376225
1823.000000	0.378141
1824.000000	0.378393
1825.000000	0.377658
1826.000000	0.377440
1827.000000	0.377031
1828.000000	0.376046
1829.000000	0.375915
1830.000000	0.375809
1831.000000	0.375665
1832.000000	0.375796
1833.000000	0.375668
1834.000000	0.375117
1835.000000	0.375028
1836.000000	0.375130
1837.000000	0.375148
1838.000000	0.375283
1839.000000	0.375379
1840.000000	0.375123
1841.000000	0.374572
1842.000000	0.374069
1843.000000	0.373264
1844.000000	0.372851
1845.000000	0.372449
1846.000000	0.372184
1847.000000	0.371997
1848.000000	0.371660
1849.000000	0.371629
1850.000000	0.371010
1851.000000	0.370481
1852.000000	0.369726
1853.000000	0.369319
1854.000000	0.368858
1855.000000	0.368164
1856.000000	0.367449
1857.000000	0.366610
1858.000000	0.365922
1859.000000	0.365280
1860.000000	0.364290
1861.000000	0.363333
1862.000000	0.362031
1863.000000	0.359981
1864.000000	0.358570
1865.000000	0.357572
1866.000000	0.356061
1867.000000	0.354582
1868.000000	0.352678
1869.000000	0.350220
1870.000000	0.348036
1871.000000	0.345149
1872.000000	0.342605
1873.000000	0.340580
1874.000000	0.338914
1875.000000	0.336950
1876.000000	0.335362
1877.000000	0.333144
1878.000000	0.329814
1879.000000	0.326362
1880.000000	0.323109
1881.000000	0.319864
1882.000000	0.316813
1883.000000	0.313383
1884.000000	0.309894
1885.000000	0.305990
1886.000000	0.301937
1887.000000	0.297517
1888.000000	0.293287
1889.000000	0.289129
1890.000000	0.284859
1891.000000	0.280533
1892.000000	0.276408
1893.000000	0.271969
1894.000000	0.267093
1895.000000	0.262265
1896.000000	0.257426
1897.000000	0.252824
1898.000000	0.248011
1899.000000	0.243940
1900.000000	0.240299
1901.000000	0.235634
1902.000000	0.231170
1903.000000	0.227530
1904.000000	0.223580
1905.000000	0.219866
1906.000000	0.216140
1907.000000	0.212656
1908.000000	0.208592
1909.000000	0.205263
1910.000000	0.202350
1911.000000	0.199896
1912.000000	0.197644
1913.000000	0.195133
1914.000000	0.192941
1915.000000	0.190893
1916.000000	0.189549
1917.000000	0.187896
1918.000000	0.186526
1919.000000	0.184757
1920.000000	0.183190
1921.000000	0.181515
1922.000000	0.180287
1923.000000	0.179885
1924.000000	0.179262
1925.000000	0.178952
1926.000000	0.178823
1927.000000	0.178167
1928.000000	0.177844
1929.000000	0.177890
1930.000000	0.177709
1931.000000	0.177341
1932.000000	0.177426
1933.000000	0.177004
1934.000000	0.176579
1935.000000	0.176634
1936.000000	0.177155
1937.000000	0.178371
1938.000000	0.178895
1939.000000	0.178961
1940.000000	0.178580
1941.000000	0.178125
1942.000000	0.177093
1943.000000	0.176640
1944.000000	0.177111
1945.000000	0.177075
1946.000000	0.176923
1947.000000	0.176643
1948.000000	0.175505
1949.000000	0.174735
1950.000000	0.174167
1951.000000	0.173608
1952.000000	0.173208
1953.000000	0.173203
1954.000000	0.173256
1955.000000	0.173543
1956.000000	0.173588
1957.000000	0.173562
1958.000000	0.173207
1959.000000	0.172339
1960.000000	0.171769
1961.000000	0.171565
1962.000000	0.171373
1963.000000	0.171329
1964.000000	0.171484
1965.000000	0.171298
1966.000000	0.170880
1967.000000	0.170842
1968.000000	0.170974
1969.000000	0.171348
1970.000000	0.171537
1971.000000	0.171415
1972.000000	0.171359
1973.000000	0.171265
1974.000000	0.171323
1975.000000	0.171384
1976.000000	0.171638
1977.000000	0.171256
1978.000000	0.171017
1979.000000	0.171106
1980.000000	0.171163
1981.000000	0.171956
1982.000000	0.172842
1983.000000	0.173729
1984.000000	0.174452
1985.000000	0.175132
1986.000000	0.175574
1987.000000	0.175894
1988.000000	0.176173
1989.000000	0.176417
1990.000000	0.177316
1991.000000	0.178121
1992.000000	0.178664
1993.000000	0.179106
1994.000000	0.179204
1995.000000	0.179302
1996.000000	0.179844
1997.000000	0.180565
1998.000000	0.181620
1999.000000	0.182765
2000.000000	0.184234
2001.000000	0.185535
2002.000000	0.186947
2003.000000	0.188460
2004.000000	0.189410
2005.000000	0.190045
2006.000000	0.190712
2007.000000	0.191155
2008.000000	0.192170
2009.000000	0.193654
2010.000000	0.195163
2011.000000	0.197250
2012.000000	0.198605
2013.000000	0.199639
2014.000000	0.200617
2015.000000	0.201191
2016.000000	0.201604
2017.000000	0.202766
2018.000000	0.203448
2019.000000	0.204641
2020.000000	0.206063
2021.000000	0.207370
2022.000000	0.208800
2023.000000	0.210318
2024.000000	0.212075
2025.000000	0.213479
2026.000000	0.214880
2027.000000	0.215782
2028.000000	0.216203
2029.000000	0.216558
2030.000000	0.217281
2031.000000	0.218072
2032.000000	0.219233
2033.000000	0.220922
2034.000000	0.222243
2035.000000	0.223547
2036.000000	0.224761
2037.000000	0.226177
2038.000000	0.227087
2039.000000	0.227487
2040.000000	0.228675
2041.000000	0.229896
2042.000000	0.230553
2043.000000	0.231403
2044.000000	0.232303
2045.000000	0.232585
2046.000000	0.233354
2047.000000	0.234227
2048.000000	0.235423
2049.000000	0.236488
2050.000000	0.237211
2051.000000	0.238172
2052.000000	0.239352
2053.000000	0.240144
2054.000000	0.241049
2055.000000	0.241916
2056.000000	0.242661
2057.000000	0.243505
2058.000000	0.244125
2059.000000	0.244939
2060.000000	0.245974
2061.000000	0.247165
2062.000000	0.248128
2063.000000	0.249470
2064.000000	0.250299
2065.000000	0.250848
2066.000000	0.251162
2067.000000	0.251464
2068.000000	0.251880
2069.000000	0.251910
2070.000000	0.252268
2071.000000	0.252619
2072.000000	0.253314
2073.000000	0.253969
2074.000000	0.254595
2075.000000	0.255296
2076.000000	0.256117
2077.000000	0.256754
2078.000000	0.257251
2079.000000	0.257935
2080.000000	0.258525
2081.000000	0.259414
2082.000000	0.260687
2083.000000	0.261855
2084.000000	0.262786
2085.000000	0.264070
2086.000000	0.264807
2087.000000	0.265322
2088.000000	0.266150
2089.000000	0.266843
2090.000000	0.267996
2091.000000	0.269786
2092.000000	0.271140
2093.000000	0.272651
2094.000000	0.274061
2095.000000	0.275398
2096.000000	0.276412
2097.000000	0.277374
2098.000000	0.277966
2099.000000	0.278059
2100.000000	0.278512
2101.000000	0.278916
2102.000000	0.279159
2103.000000	0.279906
2104.000000	0.280610
2105.000000	0.281251
2106.000000	0.282176
2107.000000	0.282820
2108.000000	0.283241
2109.000000	0.283645
2110.000000	0.283555
2111.000000	0.284073
2112.000000	0.284772
2113.000000	0.284918
2114.000000	0.286685
2115.000000	0.288194
2116.000000	0.288895
2117.000000	0.289827
2118.000000	0.289975
2119.000000	0.289900
2120.000000	0.289982
2121.000000	0.290049
2122.000000	0.290335
2123.000000	0.290433
2124.000000	0.290855
2125.000000	0.291984
2126.000000	0.292661
2127.000000	0.293312
2128.000000	0.293921
2129.000000	0.294483
2130.000000	0.294451
2131.000000	0.294305
2132.000000	0.294759
2133.000000	0.295425
2134.000000	0.295927
2135.000000	0.296503
2136.000000	0.296671
2137.000000	0.296683
2138.000000	0.296164
2139.000000	0.296075
2140.000000	0.295907
2141.000000	0.296042
2142.000000	0.296504
2143.000000	0.296590
2144.000000	0.296980
2145.000000	0.297242
2146.000000	0.297224
2147.000000	0.297811
2148.000000	0.298086
2149.000000	0.298030
2150.000000	0.298949
2151.000000	0.299321
2152.000000	0.299744
2153.000000	0.300498
2154.000000	0.300275
2155.000000	0.299083
2156.000000	0.298560
2157.000000	0.297546
2158.000000	0.297200
2159.000000	0.297355
2160.000000	0.297573
2161.000000	0.298271
2162.000000	0.298840
2163.000000	0.299586
2164.000000	0.300100
2165.000000	0.300340
2166.000000	0.300676
2167.000000	0.301382
2168.000000	0.300954
2169.000000	0.301192
2170.000000	0.301268
2171.000000	0.301005
2172.000000	0.300544
2173.000000	0.300192
2174.000000	0.299240
2175.000000	0.299127
2176.000000	0.299481
2177.000000	0.300054
2178.000000	0.301549
2179.000000	0.302139
2180.000000	0.302506
2181.000000	0.302757
2182.000000	0.301788
2183.000000	0.301292
2184.000000	0.301027
2185.000000	0.299715
2186.000000	0.298703
2187.000000	0.298328
2188.000000	0.297241
2189.000000	0.296729
2190.000000	0.296756
2191.000000	0.297710
2192.000000	0.298516
2193.000000	0.300813
2194.000000	0.301433
2195.000000	0.301414
2196.000000	0.300888
2197.000000	0.298195
2198.000000	0.297630
2199.000000	0.298406
2200.000000	0.298045
2201.000000	0.298471
2202.000000	0.298696
2203.000000	0.297835
2204.000000	0.296396
2205.000000	0.295995
2206.000000	0.295990
2207.000000	0.295680
2208.000000	0.295568
2209.000000	0.296296
2210.000000	0.298149
2211.000000	0.299097
2212.000000	0.301971
2213.000000	0.304391
2214.000000	0.307724
2215.000000	0.308405
2216.000000	0.307536
2217.000000	0.308152
2218.000000	0.308260
2219.000000	0.307854
2220.000000	0.308728
2221.000000	0.308501
2222.000000	0.305056
2223.000000	0.304634
2224.000000	0.306589
2225.000000	0.306952
2226.000000	0.307663
2227.000000	0.309233
2228.000000	0.310535
2229.000000	0.309457
2230.000000	0.308646
2231.000000	0.308002
2232.000000	0.304024
2233.000000	0.302167
2234.000000	0.302200
2235.000000	0.303391
2236.000000	0.303503
2237.000000	0.305226
2238.000000	0.305421
2239.000000	0.302594
2240.000000	0.302040
2241.000000	0.302458
2242.000000	0.303342
2243.000000	0.306340
2244.000000	0.307808
2245.000000	0.309313
2246.000000	0.309897
2247.000000	0.308961
2248.000000	0.307946
2249.000000	0.307029
2250.000000	0.304809
2251.000000	0.301683
2252.000000	0.299728
2253.000000	0.298410
2254.000000	0.298224
2255.000000	0.299156
2256.000000	0.299711
2257.000000	0.301737
2258.000000	0.303953
2259.000000	0.305070
2260.000000	0.306123
2261.000000	0.306000
2262.000000	0.303208
2263.000000	0.302843
2264.000000	0.303751
2265.000000	0.303650
2266.000000	0.304009
2267.000000	0.303069
2268.000000	0.301157
2269.000000	0.299441
2270.000000	0.296888
2271.000000	0.295223
2272.000000	0.293873
2273.000000	0.292055
2274.000000	0.290607
2275.000000	0.288686
2276.000000	0.286379
2277.000000	0.283888
2278.000000	0.280951
2279.000000	0.278402
2280.000000	0.275578
2281.000000	0.274161
2282.000000	0.273532
2283.000000	0.273010
2284.000000	0.272821
2285.000000	0.271410
2286.000000	0.271288
2287.000000	0.271157
2288.000000	0.271644
2289.000000	0.273076
2290.000000	0.272572
2291.000000	0.273152
2292.000000	0.273091
2293.000000	0.271774
2294.000000	0.271454
2295.000000	0.271093
2296.000000	0.271378
2297.000000	0.272907
2298.000000	0.272859
2299.000000	0.273218
2300.000000	0.271989
2301.000000	0.267655
2302.000000	0.266210
2303.000000	0.265182
2304.000000	0.264639
2305.000000	0.266933
2306.000000	0.267526
2307.000000	0.266807
2308.000000	0.266970
2309.000000	0.268781
2310.000000	0.268150
2311.000000	0.269528
2312.000000	0.269972
2313.000000	0.267926
2314.000000	0.267505
2315.000000	0.266583
2316.000000	0.266155
2317.000000	0.265722
2318.000000	0.264883
2319.000000	0.263932
2320.000000	0.261251
2321.000000	0.259907
2322.000000	0.257807
2323.000000	0.256352
2324.000000	0.258263
2325.000000	0.257224
2326.000000	0.257454
2327.000000	0.257714
2328.000000	0.253542
2329.000000	0.252960
2330.000000	0.251926
2331.000000	0.251019
2332.000000	0.253173
2333.000000	0.252118
2334.000000	0.250660
2335.000000	0.249003
2336.000000	0.244354
2337.000000	0.241590
2338.000000	0.241101
2339.000000	0.238649
2340.000000	0.234816
2341.000000	0.232438
2342.000000	0.227537
2343.000000	0.226293
2344.000000	0.229765
2345.000000	0.231887
2346.000000	0.237901
2347.000000	0.239391
2348.000000	0.239569
2349.000000	0.233181
2350.000000	0.227434
2351.000000	0.220985
2352.000000	0.216671
2353.000000	0.217443
2354.000000	0.218448
2355.000000	0.219037
2356.000000	0.219598
2357.000000	0.218463
2358.000000	0.211994
2359.000000	0.206660
2360.000000	0.204882
2361.000000	0.203797
2362.000000	0.208945
2363.000000	0.215268
2364.000000	0.216620
2365.000000	0.214179
2366.000000	0.211190
2367.000000	0.207594
2368.000000	0.205300
2369.000000	0.204273
2370.000000	0.199386
2371.000000	0.199099
2372.000000	0.195163
2373.000000	0.191710
2374.000000	0.196443
2375.000000	0.191019
2376.000000	0.189270
2377.000000	0.189708
2378.000000	0.184697
2379.000000	0.190326
2380.000000	0.194627
2381.000000	0.193314
2382.000000	0.192033
2383.000000	0.188021
2384.000000	0.186292
2385.000000	0.189454
2386.000000	0.193338
2387.000000	0.191061
2388.000000	0.184773
2389.000000	0.178252
2390.000000	0.169563
2391.000000	0.168444
2392.000000	0.174830
2393.000000	0.177208
2394.000000	0.180179
2395.000000	0.182702
2396.000000	0.178581
2397.000000	0.177724
2398.000000	0.179420
2399.000000	0.176736
2400.000000	0.173968
2401.000000	0.166380
2402.000000	0.158144
2403.000000	0.153827
2404.000000	0.151176
2405.000000	0.158091
2406.000000	0.170387
2407.000000	0.177092
2408.000000	0.174765
2409.000000	0.167779
2410.000000	0.157004
2411.000000	0.146739
2412.000000	0.144199
2413.000000	0.144127
2414.000000	0.147804
2415.000000	0.150036
2416.000000	0.151248
2417.000000	0.159172
2418.000000	0.163089
2419.000000	0.163738
2420.000000	0.163278
2421.000000	0.160165
2422.000000	0.155550
2423.000000	0.155088
2424.000000	0.161486
2425.000000	0.164377
2426.000000	0.165409
2427.000000	0.165038
2428.000000	0.168148
2429.000000	0.179190
2430.000000	0.183182
2431.000000	0.185552
2432.000000	0.186485
2433.000000	0.172540
2434.000000	0.166862
2435.000000	0.171174
2436.000000	0.166587
2437.000000	0.164667
2438.000000	0.169692
2439.000000	0.167231
2440.000000	0.163376
2441.000000	0.169751
2442.000000	0.169365
2443.000000	0.165342
2444.000000	0.170805
2445.000000	0.167354
2446.000000	0.162523
2447.000000	0.160380
2448.000000	0.151544
2449.000000	0.152007
2450.000000	0.152451
2451.000000	0.155840
2452.000000	0.153583
2453.000000	0.138645
2454.000000	0.132785
2455.000000	0.124897
2456.000000	0.114630
2457.000000	0.103105
2458.000000	0.096298
2459.000000	0.103847
2460.000000	0.123098
2461.000000	0.158121
2462.000000	0.181647
2463.000000	0.184456
2464.000000	0.195060
2465.000000	0.186349
2466.000000	0.172893
2467.000000	0.169007
2468.000000	0.132394
2469.000000	0.115914
2470.000000	0.133417
2471.000000	0.127694
2472.000000	0.134919
2473.000000	0.141961
2474.000000	0.105259
2475.000000	0.108471
2476.000000	0.141042
2477.000000	0.146841
2478.000000	0.163554
2479.000000	0.140732
2480.000000	0.077477
2481.000000	0.063779
2482.000000	0.063808
2483.000000	0.051603
2484.000000	0.064992
2485.000000	0.059295
2486.000000	0.048270
2487.000000	0.076195
2488.000000	0.079230
2489.000000	0.048794
2490.000000	0.082060
2491.000000	0.108844
2492.000000	0.127431
2493.000000	0.157596
2494.000000	0.178188
2495.000000	0.202346
2496.000000	0.189961
2497.000000	0.158044
2498.000000	0.132533
2499.000000	0.058017
2500.000000	0.041176
