# Wavelength	NAu-2-30_HEX-50_FV7-20_000000002.asd.rts.txt
350.000000	0.160230
351.000000	0.166673
352.000000	0.167836
353.000000	0.162931
354.000000	0.156622
355.000000	0.158545
356.000000	0.160511
357.000000	0.161468
358.000000	0.162178
359.000000	0.164236
360.000000	0.164280
361.000000	0.159418
362.000000	0.160132
363.000000	0.162279
364.000000	0.162229
365.000000	0.161742
366.000000	0.160340
367.000000	0.159130
368.000000	0.161152
369.000000	0.162868
370.000000	0.164029
371.000000	0.165103
372.000000	0.163819
373.000000	0.162430
374.000000	0.162711
375.000000	0.162822
376.000000	0.163416
377.000000	0.164206
378.000000	0.164209
379.000000	0.163718
380.000000	0.163466
381.000000	0.164536
382.000000	0.164093
383.000000	0.163238
384.000000	0.163286
385.000000	0.164364
386.000000	0.164996
387.000000	0.165209
388.000000	0.166401
389.000000	0.167790
390.000000	0.168430
391.000000	0.167329
392.000000	0.166556
393.000000	0.166542
394.000000	0.167144
395.000000	0.167342
396.000000	0.167828
397.000000	0.168516
398.000000	0.168245
399.000000	0.168326
400.000000	0.168753
401.000000	0.168905
402.000000	0.169188
403.000000	0.169341
404.000000	0.169338
405.000000	0.170119
406.000000	0.170788
407.000000	0.170976
408.000000	0.171084
409.000000	0.171315
410.000000	0.171627
411.000000	0.171796
412.000000	0.172164
413.000000	0.172478
414.000000	0.172507
415.000000	0.172780
416.000000	0.173181
417.000000	0.173580
418.000000	0.173933
419.000000	0.174179
420.000000	0.174372
421.000000	0.174670
422.000000	0.174921
423.000000	0.175132
424.000000	0.175423
425.000000	0.175903
426.000000	0.176361
427.000000	0.176663
428.000000	0.177100
429.000000	0.177368
430.000000	0.177524
431.000000	0.178140
432.000000	0.178510
433.000000	0.178635
434.000000	0.178906
435.000000	0.179286
436.000000	0.179556
437.000000	0.179585
438.000000	0.179921
439.000000	0.180285
440.000000	0.180574
441.000000	0.180848
442.000000	0.181163
443.000000	0.181464
444.000000	0.181732
445.000000	0.181955
446.000000	0.182252
447.000000	0.182612
448.000000	0.182918
449.000000	0.183256
450.000000	0.183676
451.000000	0.184036
452.000000	0.184459
453.000000	0.184923
454.000000	0.185422
455.000000	0.185792
456.000000	0.186134
457.000000	0.186528
458.000000	0.186940
459.000000	0.187291
460.000000	0.187602
461.000000	0.188190
462.000000	0.188683
463.000000	0.188858
464.000000	0.189152
465.000000	0.189457
466.000000	0.189752
467.000000	0.190150
468.000000	0.190491
469.000000	0.190768
470.000000	0.191124
471.000000	0.191416
472.000000	0.191690
473.000000	0.192001
474.000000	0.192272
475.000000	0.192588
476.000000	0.193023
477.000000	0.193379
478.000000	0.193560
479.000000	0.193828
480.000000	0.194312
481.000000	0.194667
482.000000	0.194986
483.000000	0.195252
484.000000	0.195552
485.000000	0.195855
486.000000	0.196215
487.000000	0.196392
488.000000	0.196603
489.000000	0.196891
490.000000	0.197169
491.000000	0.197435
492.000000	0.197652
493.000000	0.197705
494.000000	0.197854
495.000000	0.198066
496.000000	0.198252
497.000000	0.198396
498.000000	0.198543
499.000000	0.198741
500.000000	0.198902
501.000000	0.199045
502.000000	0.199199
503.000000	0.199335
504.000000	0.199549
505.000000	0.199766
506.000000	0.199929
507.000000	0.200232
508.000000	0.200544
509.000000	0.200788
510.000000	0.201140
511.000000	0.201497
512.000000	0.201853
513.000000	0.202222
514.000000	0.202581
515.000000	0.202956
516.000000	0.203339
517.000000	0.203731
518.000000	0.204141
519.000000	0.204516
520.000000	0.204911
521.000000	0.205360
522.000000	0.205865
523.000000	0.206358
524.000000	0.206900
525.000000	0.207504
526.000000	0.208195
527.000000	0.208888
528.000000	0.209623
529.000000	0.210493
530.000000	0.211391
531.000000	0.212364
532.000000	0.213377
533.000000	0.214445
534.000000	0.215543
535.000000	0.216652
536.000000	0.217796
537.000000	0.218909
538.000000	0.219987
539.000000	0.221036
540.000000	0.222039
541.000000	0.222982
542.000000	0.223891
543.000000	0.224780
544.000000	0.225692
545.000000	0.226593
546.000000	0.227507
547.000000	0.228432
548.000000	0.229385
549.000000	0.230326
550.000000	0.231348
551.000000	0.232453
552.000000	0.233580
553.000000	0.234792
554.000000	0.236043
555.000000	0.237310
556.000000	0.238672
557.000000	0.240072
558.000000	0.241561
559.000000	0.243006
560.000000	0.244465
561.000000	0.245986
562.000000	0.247479
563.000000	0.248900
564.000000	0.250300
565.000000	0.251639
566.000000	0.252934
567.000000	0.254170
568.000000	0.255325
569.000000	0.256440
570.000000	0.257485
571.000000	0.258440
572.000000	0.259318
573.000000	0.260110
574.000000	0.260791
575.000000	0.261390
576.000000	0.261948
577.000000	0.262455
578.000000	0.262940
579.000000	0.263325
580.000000	0.263638
581.000000	0.263894
582.000000	0.264098
583.000000	0.264265
584.000000	0.264410
585.000000	0.264543
586.000000	0.264589
587.000000	0.264560
588.000000	0.264493
589.000000	0.264400
590.000000	0.264269
591.000000	0.264099
592.000000	0.263895
593.000000	0.263692
594.000000	0.263474
595.000000	0.263172
596.000000	0.262856
597.000000	0.262581
598.000000	0.262307
599.000000	0.261962
600.000000	0.261621
601.000000	0.261275
602.000000	0.260874
603.000000	0.260476
604.000000	0.260102
605.000000	0.259667
606.000000	0.259214
607.000000	0.258770
608.000000	0.258359
609.000000	0.257991
610.000000	0.257622
611.000000	0.257198
612.000000	0.256721
613.000000	0.256238
614.000000	0.255804
615.000000	0.255366
616.000000	0.254923
617.000000	0.254472
618.000000	0.254102
619.000000	0.253772
620.000000	0.253444
621.000000	0.253136
622.000000	0.252860
623.000000	0.252603
624.000000	0.252350
625.000000	0.252111
626.000000	0.251870
627.000000	0.251634
628.000000	0.251453
629.000000	0.251306
630.000000	0.251094
631.000000	0.250913
632.000000	0.250759
633.000000	0.250622
634.000000	0.250478
635.000000	0.250341
636.000000	0.250243
637.000000	0.250183
638.000000	0.250134
639.000000	0.250119
640.000000	0.250155
641.000000	0.250113
642.000000	0.250122
643.000000	0.250178
644.000000	0.250246
645.000000	0.250349
646.000000	0.250461
647.000000	0.250554
648.000000	0.250698
649.000000	0.250867
650.000000	0.251034
651.000000	0.251213
652.000000	0.251390
653.000000	0.251604
654.000000	0.251847
655.000000	0.252118
656.000000	0.252427
657.000000	0.252742
658.000000	0.253104
659.000000	0.253515
660.000000	0.253944
661.000000	0.254343
662.000000	0.254762
663.000000	0.255241
664.000000	0.255727
665.000000	0.256236
666.000000	0.256775
667.000000	0.257326
668.000000	0.257912
669.000000	0.258516
670.000000	0.259135
671.000000	0.259787
672.000000	0.260466
673.000000	0.261159
674.000000	0.261863
675.000000	0.262602
676.000000	0.263376
677.000000	0.264189
678.000000	0.265028
679.000000	0.265892
680.000000	0.266786
681.000000	0.267700
682.000000	0.268636
683.000000	0.269557
684.000000	0.270594
685.000000	0.271621
686.000000	0.272661
687.000000	0.273729
688.000000	0.274792
689.000000	0.275873
690.000000	0.277021
691.000000	0.278210
692.000000	0.279372
693.000000	0.280561
694.000000	0.281816
695.000000	0.283099
696.000000	0.284393
697.000000	0.285689
698.000000	0.287010
699.000000	0.288353
700.000000	0.289715
701.000000	0.291073
702.000000	0.292462
703.000000	0.293864
704.000000	0.295236
705.000000	0.296680
706.000000	0.298151
707.000000	0.299635
708.000000	0.301173
709.000000	0.302733
710.000000	0.304309
711.000000	0.305912
712.000000	0.307555
713.000000	0.309229
714.000000	0.310835
715.000000	0.312439
716.000000	0.314060
717.000000	0.315673
718.000000	0.317280
719.000000	0.318883
720.000000	0.320492
721.000000	0.322088
722.000000	0.323651
723.000000	0.325247
724.000000	0.326880
725.000000	0.328460
726.000000	0.330059
727.000000	0.331634
728.000000	0.333175
729.000000	0.334706
730.000000	0.336202
731.000000	0.337724
732.000000	0.339217
733.000000	0.340699
734.000000	0.342153
735.000000	0.343600
736.000000	0.345123
737.000000	0.346546
738.000000	0.347929
739.000000	0.349343
740.000000	0.350648
741.000000	0.351961
742.000000	0.353249
743.000000	0.354462
744.000000	0.355630
745.000000	0.356766
746.000000	0.357919
747.000000	0.359033
748.000000	0.360196
749.000000	0.361353
750.000000	0.362426
751.000000	0.363491
752.000000	0.364483
753.000000	0.365430
754.000000	0.366403
755.000000	0.367359
756.000000	0.368276
757.000000	0.369091
758.000000	0.369918
759.000000	0.370746
760.000000	0.371500
761.000000	0.372309
762.000000	0.373093
763.000000	0.373816
764.000000	0.374559
765.000000	0.375265
766.000000	0.375949
767.000000	0.376612
768.000000	0.377195
769.000000	0.377720
770.000000	0.378216
771.000000	0.378706
772.000000	0.379212
773.000000	0.379659
774.000000	0.380099
775.000000	0.380509
776.000000	0.380926
777.000000	0.381347
778.000000	0.381735
779.000000	0.382068
780.000000	0.382373
781.000000	0.382692
782.000000	0.382998
783.000000	0.383365
784.000000	0.383655
785.000000	0.383857
786.000000	0.384074
787.000000	0.384343
788.000000	0.384584
789.000000	0.384794
790.000000	0.384978
791.000000	0.385204
792.000000	0.385372
793.000000	0.385493
794.000000	0.385600
795.000000	0.385692
796.000000	0.385779
797.000000	0.385857
798.000000	0.385931
799.000000	0.386005
800.000000	0.386094
801.000000	0.386212
802.000000	0.386314
803.000000	0.386385
804.000000	0.386468
805.000000	0.386553
806.000000	0.386571
807.000000	0.386613
808.000000	0.386647
809.000000	0.386597
810.000000	0.386561
811.000000	0.386580
812.000000	0.386517
813.000000	0.386479
814.000000	0.386472
815.000000	0.386437
816.000000	0.386387
817.000000	0.386351
818.000000	0.386262
819.000000	0.386237
820.000000	0.386224
821.000000	0.386135
822.000000	0.386029
823.000000	0.385980
824.000000	0.385917
825.000000	0.385875
826.000000	0.385837
827.000000	0.385738
828.000000	0.385620
829.000000	0.385568
830.000000	0.385486
831.000000	0.385409
832.000000	0.385244
833.000000	0.385116
834.000000	0.385017
835.000000	0.384943
836.000000	0.384789
837.000000	0.384609
838.000000	0.384449
839.000000	0.384300
840.000000	0.384173
841.000000	0.384075
842.000000	0.383961
843.000000	0.383881
844.000000	0.383814
845.000000	0.383710
846.000000	0.383587
847.000000	0.383464
848.000000	0.383289
849.000000	0.383058
850.000000	0.382860
851.000000	0.382655
852.000000	0.382476
853.000000	0.382326
854.000000	0.382086
855.000000	0.381921
856.000000	0.381813
857.000000	0.381634
858.000000	0.381525
859.000000	0.381429
860.000000	0.381245
861.000000	0.381055
862.000000	0.380886
863.000000	0.380648
864.000000	0.380382
865.000000	0.380133
866.000000	0.379952
867.000000	0.379802
868.000000	0.379641
869.000000	0.379416
870.000000	0.379213
871.000000	0.379004
872.000000	0.378758
873.000000	0.378437
874.000000	0.378263
875.000000	0.378052
876.000000	0.377809
877.000000	0.377528
878.000000	0.377192
879.000000	0.376953
880.000000	0.376726
881.000000	0.376563
882.000000	0.376354
883.000000	0.376131
884.000000	0.375889
885.000000	0.375597
886.000000	0.375250
887.000000	0.374923
888.000000	0.374737
889.000000	0.374500
890.000000	0.374143
891.000000	0.373916
892.000000	0.373708
893.000000	0.373422
894.000000	0.373184
895.000000	0.373000
896.000000	0.372720
897.000000	0.372386
898.000000	0.372102
899.000000	0.371826
900.000000	0.371595
901.000000	0.371372
902.000000	0.371168
903.000000	0.370925
904.000000	0.370688
905.000000	0.370410
906.000000	0.370236
907.000000	0.370018
908.000000	0.369756
909.000000	0.369404
910.000000	0.369013
911.000000	0.368653
912.000000	0.368377
913.000000	0.368045
914.000000	0.367786
915.000000	0.367680
916.000000	0.367544
917.000000	0.367253
918.000000	0.367001
919.000000	0.366874
920.000000	0.366651
921.000000	0.366372
922.000000	0.366068
923.000000	0.365746
924.000000	0.365507
925.000000	0.365281
926.000000	0.365044
927.000000	0.364743
928.000000	0.364470
929.000000	0.364184
930.000000	0.363832
931.000000	0.363520
932.000000	0.363228
933.000000	0.362977
934.000000	0.362718
935.000000	0.362497
936.000000	0.362315
937.000000	0.362048
938.000000	0.361763
939.000000	0.361482
940.000000	0.361172
941.000000	0.360950
942.000000	0.360709
943.000000	0.360513
944.000000	0.360253
945.000000	0.359980
946.000000	0.359615
947.000000	0.359318
948.000000	0.359170
949.000000	0.358972
950.000000	0.358768
951.000000	0.358507
952.000000	0.358192
953.000000	0.357973
954.000000	0.357769
955.000000	0.357431
956.000000	0.357078
957.000000	0.356850
958.000000	0.356628
959.000000	0.356359
960.000000	0.356121
961.000000	0.355986
962.000000	0.355867
963.000000	0.355587
964.000000	0.355333
965.000000	0.355142
966.000000	0.354866
967.000000	0.354544
968.000000	0.354311
969.000000	0.354085
970.000000	0.353842
971.000000	0.353602
972.000000	0.353427
973.000000	0.353249
974.000000	0.353063
975.000000	0.352841
976.000000	0.352608
977.000000	0.352392
978.000000	0.352220
979.000000	0.352228
980.000000	0.352068
981.000000	0.351818
982.000000	0.351666
983.000000	0.351489
984.000000	0.351317
985.000000	0.351171
986.000000	0.350995
987.000000	0.350786
988.000000	0.350508
989.000000	0.350534
990.000000	0.350456
991.000000	0.350310
992.000000	0.350292
993.000000	0.350245
994.000000	0.350107
995.000000	0.350069
996.000000	0.350017
997.000000	0.349873
998.000000	0.349823
999.000000	0.349990
1000.000000	0.350066
1001.000000	0.350143
1002.000000	0.349965
1003.000000	0.349770
1004.000000	0.349719
1005.000000	0.349903
1006.000000	0.349778
1007.000000	0.349702
1008.000000	0.349421
1009.000000	0.349243
1010.000000	0.348966
1011.000000	0.348927
1012.000000	0.349144
1013.000000	0.348855
1014.000000	0.348777
1015.000000	0.348884
1016.000000	0.348940
1017.000000	0.349104
1018.000000	0.349446
1019.000000	0.349577
1020.000000	0.349754
1021.000000	0.349465
1022.000000	0.349004
1023.000000	0.349039
1024.000000	0.348895
1025.000000	0.349058
1026.000000	0.349526
1027.000000	0.349691
1028.000000	0.349697
1029.000000	0.349926
1030.000000	0.350036
1031.000000	0.349987
1032.000000	0.350014
1033.000000	0.349988
1034.000000	0.349920
1035.000000	0.349697
1036.000000	0.349701
1037.000000	0.349831
1038.000000	0.349837
1039.000000	0.349924
1040.000000	0.350340
1041.000000	0.350510
1042.000000	0.350415
1043.000000	0.350586
1044.000000	0.350869
1045.000000	0.351207
1046.000000	0.351499
1047.000000	0.351764
1048.000000	0.351981
1049.000000	0.352131
1050.000000	0.352252
1051.000000	0.352370
1052.000000	0.352333
1053.000000	0.352384
1054.000000	0.352690
1055.000000	0.352914
1056.000000	0.353167
1057.000000	0.353505
1058.000000	0.353686
1059.000000	0.353668
1060.000000	0.353831
1061.000000	0.354168
1062.000000	0.354327
1063.000000	0.354565
1064.000000	0.354843
1065.000000	0.355025
1066.000000	0.355241
1067.000000	0.355569
1068.000000	0.355761
1069.000000	0.355729
1070.000000	0.355896
1071.000000	0.356209
1072.000000	0.356439
1073.000000	0.356704
1074.000000	0.357156
1075.000000	0.357363
1076.000000	0.357627
1077.000000	0.357949
1078.000000	0.358047
1079.000000	0.358244
1080.000000	0.358473
1081.000000	0.358729
1082.000000	0.359145
1083.000000	0.359406
1084.000000	0.359711
1085.000000	0.359925
1086.000000	0.359861
1087.000000	0.360075
1088.000000	0.360335
1089.000000	0.360522
1090.000000	0.360778
1091.000000	0.360960
1092.000000	0.361048
1093.000000	0.361393
1094.000000	0.361623
1095.000000	0.361789
1096.000000	0.362094
1097.000000	0.362513
1098.000000	0.362749
1099.000000	0.362892
1100.000000	0.363176
1101.000000	0.363318
1102.000000	0.363504
1103.000000	0.363827
1104.000000	0.364109
1105.000000	0.364276
1106.000000	0.364505
1107.000000	0.364784
1108.000000	0.364974
1109.000000	0.365163
1110.000000	0.365352
1111.000000	0.365558
1112.000000	0.365746
1113.000000	0.365988
1114.000000	0.366342
1115.000000	0.366523
1116.000000	0.366598
1117.000000	0.366788
1118.000000	0.366957
1119.000000	0.367051
1120.000000	0.367139
1121.000000	0.367310
1122.000000	0.367583
1123.000000	0.367965
1124.000000	0.368252
1125.000000	0.368527
1126.000000	0.368647
1127.000000	0.368732
1128.000000	0.368792
1129.000000	0.368874
1130.000000	0.369009
1131.000000	0.369161
1132.000000	0.369231
1133.000000	0.369368
1134.000000	0.369525
1135.000000	0.369590
1136.000000	0.369629
1137.000000	0.369656
1138.000000	0.369713
1139.000000	0.369824
1140.000000	0.369994
1141.000000	0.370215
1142.000000	0.370399
1143.000000	0.370464
1144.000000	0.370670
1145.000000	0.370755
1146.000000	0.370755
1147.000000	0.370806
1148.000000	0.370712
1149.000000	0.370768
1150.000000	0.370937
1151.000000	0.371038
1152.000000	0.371121
1153.000000	0.371168
1154.000000	0.371072
1155.000000	0.371074
1156.000000	0.371117
1157.000000	0.371166
1158.000000	0.371231
1159.000000	0.371247
1160.000000	0.371203
1161.000000	0.371171
1162.000000	0.371167
1163.000000	0.371313
1164.000000	0.371400
1165.000000	0.371415
1166.000000	0.371481
1167.000000	0.371481
1168.000000	0.371518
1169.000000	0.371621
1170.000000	0.371720
1171.000000	0.371921
1172.000000	0.372023
1173.000000	0.372001
1174.000000	0.372058
1175.000000	0.372047
1176.000000	0.372065
1177.000000	0.372318
1178.000000	0.372395
1179.000000	0.372315
1180.000000	0.372278
1181.000000	0.372301
1182.000000	0.372292
1183.000000	0.372405
1184.000000	0.372538
1185.000000	0.372608
1186.000000	0.372633
1187.000000	0.372669
1188.000000	0.372703
1189.000000	0.372688
1190.000000	0.372711
1191.000000	0.372702
1192.000000	0.372743
1193.000000	0.372898
1194.000000	0.372942
1195.000000	0.373025
1196.000000	0.373126
1197.000000	0.373184
1198.000000	0.373237
1199.000000	0.373312
1200.000000	0.373359
1201.000000	0.373416
1202.000000	0.373506
1203.000000	0.373590
1204.000000	0.373658
1205.000000	0.373776
1206.000000	0.373819
1207.000000	0.373953
1208.000000	0.373975
1209.000000	0.373993
1210.000000	0.374038
1211.000000	0.374055
1212.000000	0.374084
1213.000000	0.374189
1214.000000	0.374285
1215.000000	0.374364
1216.000000	0.374417
1217.000000	0.374438
1218.000000	0.374430
1219.000000	0.374379
1220.000000	0.374416
1221.000000	0.374466
1222.000000	0.374483
1223.000000	0.374542
1224.000000	0.374616
1225.000000	0.374654
1226.000000	0.374777
1227.000000	0.374851
1228.000000	0.374945
1229.000000	0.374940
1230.000000	0.374811
1231.000000	0.374748
1232.000000	0.374789
1233.000000	0.374925
1234.000000	0.375172
1235.000000	0.375277
1236.000000	0.375210
1237.000000	0.375287
1238.000000	0.375307
1239.000000	0.375343
1240.000000	0.375457
1241.000000	0.375539
1242.000000	0.375569
1243.000000	0.375660
1244.000000	0.375763
1245.000000	0.375950
1246.000000	0.376086
1247.000000	0.376221
1248.000000	0.376376
1249.000000	0.376516
1250.000000	0.376641
1251.000000	0.376767
1252.000000	0.376854
1253.000000	0.376948
1254.000000	0.377018
1255.000000	0.377046
1256.000000	0.377099
1257.000000	0.377167
1258.000000	0.377287
1259.000000	0.377372
1260.000000	0.377505
1261.000000	0.377592
1262.000000	0.377696
1263.000000	0.377880
1264.000000	0.377934
1265.000000	0.378024
1266.000000	0.378135
1267.000000	0.378147
1268.000000	0.378201
1269.000000	0.378212
1270.000000	0.378279
1271.000000	0.378371
1272.000000	0.378474
1273.000000	0.378623
1274.000000	0.378691
1275.000000	0.378753
1276.000000	0.378825
1277.000000	0.378969
1278.000000	0.379056
1279.000000	0.379096
1280.000000	0.379044
1281.000000	0.378995
1282.000000	0.378910
1283.000000	0.378991
1284.000000	0.379106
1285.000000	0.379210
1286.000000	0.379352
1287.000000	0.379446
1288.000000	0.379522
1289.000000	0.379543
1290.000000	0.379499
1291.000000	0.379516
1292.000000	0.379531
1293.000000	0.379553
1294.000000	0.379610
1295.000000	0.379643
1296.000000	0.379664
1297.000000	0.379731
1298.000000	0.379792
1299.000000	0.379804
1300.000000	0.379889
1301.000000	0.379888
1302.000000	0.379824
1303.000000	0.379876
1304.000000	0.379815
1305.000000	0.379764
1306.000000	0.379694
1307.000000	0.379624
1308.000000	0.379589
1309.000000	0.379560
1310.000000	0.379526
1311.000000	0.379538
1312.000000	0.379480
1313.000000	0.379470
1314.000000	0.379437
1315.000000	0.379338
1316.000000	0.379386
1317.000000	0.379432
1318.000000	0.379389
1319.000000	0.379312
1320.000000	0.379274
1321.000000	0.379159
1322.000000	0.379004
1323.000000	0.378923
1324.000000	0.378843
1325.000000	0.378697
1326.000000	0.378541
1327.000000	0.378459
1328.000000	0.378438
1329.000000	0.378303
1330.000000	0.378163
1331.000000	0.378069
1332.000000	0.377996
1333.000000	0.377865
1334.000000	0.377838
1335.000000	0.377779
1336.000000	0.377625
1337.000000	0.377512
1338.000000	0.377390
1339.000000	0.377213
1340.000000	0.377005
1341.000000	0.376843
1342.000000	0.376661
1343.000000	0.376462
1344.000000	0.376336
1345.000000	0.376194
1346.000000	0.376104
1347.000000	0.375894
1348.000000	0.375656
1349.000000	0.375388
1350.000000	0.375203
1351.000000	0.375009
1352.000000	0.374762
1353.000000	0.374500
1354.000000	0.374240
1355.000000	0.373921
1356.000000	0.373687
1357.000000	0.373437
1358.000000	0.373167
1359.000000	0.372958
1360.000000	0.372709
1361.000000	0.372492
1362.000000	0.372249
1363.000000	0.371929
1364.000000	0.371690
1365.000000	0.371477
1366.000000	0.371288
1367.000000	0.371121
1368.000000	0.370942
1369.000000	0.370864
1370.000000	0.370586
1371.000000	0.370258
1372.000000	0.369909
1373.000000	0.369488
1374.000000	0.369155
1375.000000	0.368787
1376.000000	0.368458
1377.000000	0.368154
1378.000000	0.367786
1379.000000	0.367289
1380.000000	0.366776
1381.000000	0.366217
1382.000000	0.365522
1383.000000	0.364902
1384.000000	0.364174
1385.000000	0.363321
1386.000000	0.362571
1387.000000	0.361770
1388.000000	0.360855
1389.000000	0.359910
1390.000000	0.358911
1391.000000	0.357744
1392.000000	0.356571
1393.000000	0.355310
1394.000000	0.353999
1395.000000	0.352666
1396.000000	0.351324
1397.000000	0.349809
1398.000000	0.348160
1399.000000	0.346543
1400.000000	0.344776
1401.000000	0.343073
1402.000000	0.341461
1403.000000	0.339780
1404.000000	0.338186
1405.000000	0.336619
1406.000000	0.335045
1407.000000	0.333608
1408.000000	0.332129
1409.000000	0.330769
1410.000000	0.329622
1411.000000	0.328365
1412.000000	0.327095
1413.000000	0.325936
1414.000000	0.324732
1415.000000	0.323661
1416.000000	0.322654
1417.000000	0.321620
1418.000000	0.320593
1419.000000	0.319576
1420.000000	0.318566
1421.000000	0.317691
1422.000000	0.316761
1423.000000	0.315893
1424.000000	0.314953
1425.000000	0.313964
1426.000000	0.313016
1427.000000	0.312144
1428.000000	0.311353
1429.000000	0.310595
1430.000000	0.309899
1431.000000	0.309235
1432.000000	0.308520
1433.000000	0.307805
1434.000000	0.307128
1435.000000	0.306490
1436.000000	0.305910
1437.000000	0.305402
1438.000000	0.304854
1439.000000	0.304317
1440.000000	0.303893
1441.000000	0.303503
1442.000000	0.303215
1443.000000	0.302970
1444.000000	0.302815
1445.000000	0.302713
1446.000000	0.302644
1447.000000	0.302616
1448.000000	0.302633
1449.000000	0.302640
1450.000000	0.302661
1451.000000	0.302756
1452.000000	0.302773
1453.000000	0.302759
1454.000000	0.302742
1455.000000	0.302689
1456.000000	0.302718
1457.000000	0.302772
1458.000000	0.302786
1459.000000	0.302786
1460.000000	0.302766
1461.000000	0.302678
1462.000000	0.302595
1463.000000	0.302538
1464.000000	0.302496
1465.000000	0.302552
1466.000000	0.302620
1467.000000	0.302698
1468.000000	0.302777
1469.000000	0.302871
1470.000000	0.302938
1471.000000	0.303069
1472.000000	0.303274
1473.000000	0.303607
1474.000000	0.303937
1475.000000	0.304296
1476.000000	0.304700
1477.000000	0.305083
1478.000000	0.305502
1479.000000	0.305943
1480.000000	0.306354
1481.000000	0.306777
1482.000000	0.307262
1483.000000	0.307761
1484.000000	0.308267
1485.000000	0.308792
1486.000000	0.309321
1487.000000	0.309862
1488.000000	0.310462
1489.000000	0.311039
1490.000000	0.311500
1491.000000	0.312002
1492.000000	0.312459
1493.000000	0.312920
1494.000000	0.313341
1495.000000	0.313768
1496.000000	0.314174
1497.000000	0.314609
1498.000000	0.315080
1499.000000	0.315540
1500.000000	0.315997
1501.000000	0.316412
1502.000000	0.316810
1503.000000	0.317261
1504.000000	0.317723
1505.000000	0.318162
1506.000000	0.318583
1507.000000	0.318936
1508.000000	0.319290
1509.000000	0.319623
1510.000000	0.319907
1511.000000	0.320215
1512.000000	0.320455
1513.000000	0.320704
1514.000000	0.321009
1515.000000	0.321206
1516.000000	0.321478
1517.000000	0.321727
1518.000000	0.321882
1519.000000	0.322043
1520.000000	0.322204
1521.000000	0.322329
1522.000000	0.322584
1523.000000	0.322907
1524.000000	0.323135
1525.000000	0.323380
1526.000000	0.323562
1527.000000	0.323705
1528.000000	0.323930
1529.000000	0.324140
1530.000000	0.324265
1531.000000	0.324467
1532.000000	0.324656
1533.000000	0.324790
1534.000000	0.324981
1535.000000	0.325175
1536.000000	0.325279
1537.000000	0.325456
1538.000000	0.325664
1539.000000	0.325780
1540.000000	0.325902
1541.000000	0.326048
1542.000000	0.326144
1543.000000	0.326223
1544.000000	0.326300
1545.000000	0.326423
1546.000000	0.326545
1547.000000	0.326621
1548.000000	0.326697
1549.000000	0.326746
1550.000000	0.326755
1551.000000	0.326796
1552.000000	0.326873
1553.000000	0.326920
1554.000000	0.326944
1555.000000	0.326982
1556.000000	0.327014
1557.000000	0.327032
1558.000000	0.327069
1559.000000	0.327061
1560.000000	0.327046
1561.000000	0.327065
1562.000000	0.327052
1563.000000	0.327062
1564.000000	0.327074
1565.000000	0.327083
1566.000000	0.327011
1567.000000	0.327009
1568.000000	0.326982
1569.000000	0.326967
1570.000000	0.326970
1571.000000	0.326974
1572.000000	0.326968
1573.000000	0.326975
1574.000000	0.326985
1575.000000	0.327011
1576.000000	0.327044
1577.000000	0.327074
1578.000000	0.327072
1579.000000	0.327116
1580.000000	0.327132
1581.000000	0.327200
1582.000000	0.327232
1583.000000	0.327221
1584.000000	0.327204
1585.000000	0.327244
1586.000000	0.327297
1587.000000	0.327384
1588.000000	0.327429
1589.000000	0.327477
1590.000000	0.327504
1591.000000	0.327516
1592.000000	0.327531
1593.000000	0.327576
1594.000000	0.327594
1595.000000	0.327634
1596.000000	0.327668
1597.000000	0.327728
1598.000000	0.327749
1599.000000	0.327774
1600.000000	0.327789
1601.000000	0.327851
1602.000000	0.327925
1603.000000	0.328063
1604.000000	0.328146
1605.000000	0.328256
1606.000000	0.328305
1607.000000	0.328342
1608.000000	0.328377
1609.000000	0.328438
1610.000000	0.328475
1611.000000	0.328529
1612.000000	0.328567
1613.000000	0.328661
1614.000000	0.328757
1615.000000	0.328948
1616.000000	0.329103
1617.000000	0.329194
1618.000000	0.329296
1619.000000	0.329333
1620.000000	0.329442
1621.000000	0.329643
1622.000000	0.329878
1623.000000	0.330103
1624.000000	0.330335
1625.000000	0.330461
1626.000000	0.330568
1627.000000	0.330694
1628.000000	0.330892
1629.000000	0.331083
1630.000000	0.331318
1631.000000	0.331570
1632.000000	0.331728
1633.000000	0.331837
1634.000000	0.332018
1635.000000	0.332246
1636.000000	0.332438
1637.000000	0.332694
1638.000000	0.332851
1639.000000	0.332966
1640.000000	0.333131
1641.000000	0.333371
1642.000000	0.333580
1643.000000	0.333833
1644.000000	0.334058
1645.000000	0.334251
1646.000000	0.334414
1647.000000	0.334614
1648.000000	0.334767
1649.000000	0.334956
1650.000000	0.335170
1651.000000	0.335430
1652.000000	0.335706
1653.000000	0.335953
1654.000000	0.336227
1655.000000	0.336473
1656.000000	0.336600
1657.000000	0.336763
1658.000000	0.336904
1659.000000	0.337080
1660.000000	0.337291
1661.000000	0.337416
1662.000000	0.337622
1663.000000	0.337831
1664.000000	0.338041
1665.000000	0.338312
1666.000000	0.338596
1667.000000	0.338797
1668.000000	0.338994
1669.000000	0.339177
1670.000000	0.339284
1671.000000	0.339436
1672.000000	0.339612
1673.000000	0.339715
1674.000000	0.339976
1675.000000	0.340252
1676.000000	0.340459
1677.000000	0.340656
1678.000000	0.340767
1679.000000	0.340890
1680.000000	0.341038
1681.000000	0.341214
1682.000000	0.341366
1683.000000	0.341497
1684.000000	0.341656
1685.000000	0.341776
1686.000000	0.341813
1687.000000	0.341880
1688.000000	0.341897
1689.000000	0.341966
1690.000000	0.342051
1691.000000	0.342168
1692.000000	0.342225
1693.000000	0.342271
1694.000000	0.342359
1695.000000	0.342502
1696.000000	0.342594
1697.000000	0.342607
1698.000000	0.342585
1699.000000	0.342619
1700.000000	0.342622
1701.000000	0.342771
1702.000000	0.342840
1703.000000	0.342875
1704.000000	0.343058
1705.000000	0.343177
1706.000000	0.343289
1707.000000	0.343401
1708.000000	0.343475
1709.000000	0.343486
1710.000000	0.343545
1711.000000	0.343639
1712.000000	0.343763
1713.000000	0.343846
1714.000000	0.343984
1715.000000	0.344112
1716.000000	0.344232
1717.000000	0.344324
1718.000000	0.344384
1719.000000	0.344437
1720.000000	0.344508
1721.000000	0.344568
1722.000000	0.344617
1723.000000	0.344715
1724.000000	0.344855
1725.000000	0.344997
1726.000000	0.345083
1727.000000	0.345202
1728.000000	0.345254
1729.000000	0.345276
1730.000000	0.345452
1731.000000	0.345594
1732.000000	0.345724
1733.000000	0.345911
1734.000000	0.345995
1735.000000	0.346125
1736.000000	0.346228
1737.000000	0.346336
1738.000000	0.346506
1739.000000	0.346603
1740.000000	0.346631
1741.000000	0.346683
1742.000000	0.346723
1743.000000	0.346845
1744.000000	0.346983
1745.000000	0.347088
1746.000000	0.347214
1747.000000	0.347272
1748.000000	0.347286
1749.000000	0.347273
1750.000000	0.347242
1751.000000	0.347336
1752.000000	0.347486
1753.000000	0.347470
1754.000000	0.347534
1755.000000	0.347636
1756.000000	0.347662
1757.000000	0.347676
1758.000000	0.347723
1759.000000	0.347675
1760.000000	0.347704
1761.000000	0.347824
1762.000000	0.347833
1763.000000	0.347783
1764.000000	0.347812
1765.000000	0.347754
1766.000000	0.347811
1767.000000	0.347921
1768.000000	0.347965
1769.000000	0.348125
1770.000000	0.348267
1771.000000	0.348326
1772.000000	0.348433
1773.000000	0.348494
1774.000000	0.348597
1775.000000	0.348841
1776.000000	0.348947
1777.000000	0.348942
1778.000000	0.349010
1779.000000	0.349018
1780.000000	0.349102
1781.000000	0.349260
1782.000000	0.349300
1783.000000	0.349324
1784.000000	0.349432
1785.000000	0.349419
1786.000000	0.349558
1787.000000	0.349833
1788.000000	0.349980
1789.000000	0.350066
1790.000000	0.350117
1791.000000	0.350145
1792.000000	0.350325
1793.000000	0.350411
1794.000000	0.350417
1795.000000	0.350507
1796.000000	0.350550
1797.000000	0.350645
1798.000000	0.350822
1799.000000	0.350969
1800.000000	0.351202
1801.000000	0.351237
1802.000000	0.351176
1803.000000	0.350580
1804.000000	0.350738
1805.000000	0.351227
1806.000000	0.351386
1807.000000	0.351928
1808.000000	0.352162
1809.000000	0.351880
1810.000000	0.351633
1811.000000	0.351817
1812.000000	0.352222
1813.000000	0.352600
1814.000000	0.353622
1815.000000	0.353819
1816.000000	0.353614
1817.000000	0.353369
1818.000000	0.352761
1819.000000	0.352225
1820.000000	0.352043
1821.000000	0.351892
1822.000000	0.351813
1823.000000	0.351806
1824.000000	0.351741
1825.000000	0.351582
1826.000000	0.351653
1827.000000	0.351810
1828.000000	0.351776
1829.000000	0.351930
1830.000000	0.351713
1831.000000	0.351465
1832.000000	0.350870
1833.000000	0.350665
1834.000000	0.350573
1835.000000	0.350462
1836.000000	0.350401
1837.000000	0.350296
1838.000000	0.350071
1839.000000	0.349818
1840.000000	0.349389
1841.000000	0.348961
1842.000000	0.348607
1843.000000	0.348101
1844.000000	0.347782
1845.000000	0.347459
1846.000000	0.347309
1847.000000	0.347214
1848.000000	0.346884
1849.000000	0.346666
1850.000000	0.346421
1851.000000	0.346079
1852.000000	0.345517
1853.000000	0.345030
1854.000000	0.344302
1855.000000	0.343671
1856.000000	0.343013
1857.000000	0.342143
1858.000000	0.341463
1859.000000	0.340782
1860.000000	0.339690
1861.000000	0.338855
1862.000000	0.337564
1863.000000	0.335941
1864.000000	0.334455
1865.000000	0.332680
1866.000000	0.331054
1867.000000	0.329487
1868.000000	0.327966
1869.000000	0.326263
1870.000000	0.324621
1871.000000	0.322828
1872.000000	0.320880
1873.000000	0.318855
1874.000000	0.316725
1875.000000	0.314476
1876.000000	0.311960
1877.000000	0.309087
1878.000000	0.306090
1879.000000	0.302948
1880.000000	0.299668
1881.000000	0.296212
1882.000000	0.292702
1883.000000	0.289300
1884.000000	0.285645
1885.000000	0.281647
1886.000000	0.277589
1887.000000	0.273518
1888.000000	0.268673
1889.000000	0.263779
1890.000000	0.259172
1891.000000	0.254078
1892.000000	0.249105
1893.000000	0.244543
1894.000000	0.239569
1895.000000	0.234720
1896.000000	0.230088
1897.000000	0.225619
1898.000000	0.220728
1899.000000	0.216439
1900.000000	0.212319
1901.000000	0.208277
1902.000000	0.204736
1903.000000	0.201387
1904.000000	0.198156
1905.000000	0.195149
1906.000000	0.192473
1907.000000	0.190131
1908.000000	0.187910
1909.000000	0.186008
1910.000000	0.184329
1911.000000	0.182651
1912.000000	0.181183
1913.000000	0.179773
1914.000000	0.178469
1915.000000	0.177084
1916.000000	0.175857
1917.000000	0.174779
1918.000000	0.173984
1919.000000	0.173206
1920.000000	0.172448
1921.000000	0.171849
1922.000000	0.171331
1923.000000	0.170974
1924.000000	0.170904
1925.000000	0.170631
1926.000000	0.170286
1927.000000	0.170176
1928.000000	0.170145
1929.000000	0.170174
1930.000000	0.170447
1931.000000	0.170777
1932.000000	0.171261
1933.000000	0.171666
1934.000000	0.171912
1935.000000	0.172397
1936.000000	0.172593
1937.000000	0.172578
1938.000000	0.172743
1939.000000	0.172815
1940.000000	0.172772
1941.000000	0.172742
1942.000000	0.172849
1943.000000	0.172736
1944.000000	0.172460
1945.000000	0.172213
1946.000000	0.171928
1947.000000	0.171623
1948.000000	0.171405
1949.000000	0.171290
1950.000000	0.171050
1951.000000	0.170645
1952.000000	0.170153
1953.000000	0.169624
1954.000000	0.169125
1955.000000	0.168798
1956.000000	0.168527
1957.000000	0.168387
1958.000000	0.168312
1959.000000	0.168223
1960.000000	0.168205
1961.000000	0.168096
1962.000000	0.167960
1963.000000	0.167767
1964.000000	0.167559
1965.000000	0.167443
1966.000000	0.167553
1967.000000	0.167736
1968.000000	0.167939
1969.000000	0.168076
1970.000000	0.168196
1971.000000	0.168151
1972.000000	0.167980
1973.000000	0.167959
1974.000000	0.168061
1975.000000	0.168165
1976.000000	0.168305
1977.000000	0.168665
1978.000000	0.169052
1979.000000	0.169506
1980.000000	0.170027
1981.000000	0.170741
1982.000000	0.171284
1983.000000	0.171722
1984.000000	0.172172
1985.000000	0.172519
1986.000000	0.172969
1987.000000	0.173474
1988.000000	0.174134
1989.000000	0.174792
1990.000000	0.175522
1991.000000	0.176102
1992.000000	0.176671
1993.000000	0.177271
1994.000000	0.178029
1995.000000	0.178846
1996.000000	0.179592
1997.000000	0.180259
1998.000000	0.180785
1999.000000	0.181543
2000.000000	0.182383
2001.000000	0.183065
2002.000000	0.184165
2003.000000	0.185359
2004.000000	0.186006
2005.000000	0.186805
2006.000000	0.187577
2007.000000	0.188138
2008.000000	0.189052
2009.000000	0.190261
2010.000000	0.191332
2011.000000	0.192562
2012.000000	0.193564
2013.000000	0.194292
2014.000000	0.195207
2015.000000	0.196246
2016.000000	0.196931
2017.000000	0.197920
2018.000000	0.199208
2019.000000	0.200298
2020.000000	0.201546
2021.000000	0.202724
2022.000000	0.203844
2023.000000	0.204890
2024.000000	0.206006
2025.000000	0.207025
2026.000000	0.207838
2027.000000	0.208693
2028.000000	0.209503
2029.000000	0.210313
2030.000000	0.211194
2031.000000	0.211952
2032.000000	0.212904
2033.000000	0.213951
2034.000000	0.214869
2035.000000	0.215924
2036.000000	0.216773
2037.000000	0.217504
2038.000000	0.218324
2039.000000	0.219139
2040.000000	0.220052
2041.000000	0.221011
2042.000000	0.222039
2043.000000	0.222816
2044.000000	0.223544
2045.000000	0.224519
2046.000000	0.225428
2047.000000	0.226357
2048.000000	0.227479
2049.000000	0.228528
2050.000000	0.229179
2051.000000	0.229896
2052.000000	0.230611
2053.000000	0.231215
2054.000000	0.231865
2055.000000	0.232559
2056.000000	0.233285
2057.000000	0.233994
2058.000000	0.234722
2059.000000	0.235421
2060.000000	0.236078
2061.000000	0.236672
2062.000000	0.237368
2063.000000	0.238142
2064.000000	0.238746
2065.000000	0.239574
2066.000000	0.240231
2067.000000	0.240807
2068.000000	0.241674
2069.000000	0.242719
2070.000000	0.243502
2071.000000	0.244257
2072.000000	0.245082
2073.000000	0.245736
2074.000000	0.246371
2075.000000	0.247124
2076.000000	0.247958
2077.000000	0.248705
2078.000000	0.249571
2079.000000	0.250261
2080.000000	0.250839
2081.000000	0.251487
2082.000000	0.252183
2083.000000	0.252630
2084.000000	0.253081
2085.000000	0.253849
2086.000000	0.254588
2087.000000	0.255387
2088.000000	0.256231
2089.000000	0.257040
2090.000000	0.257869
2091.000000	0.258671
2092.000000	0.259488
2093.000000	0.260462
2094.000000	0.261210
2095.000000	0.261899
2096.000000	0.262614
2097.000000	0.263206
2098.000000	0.263643
2099.000000	0.264343
2100.000000	0.264795
2101.000000	0.265272
2102.000000	0.266075
2103.000000	0.266640
2104.000000	0.267202
2105.000000	0.267808
2106.000000	0.268388
2107.000000	0.268974
2108.000000	0.269534
2109.000000	0.270176
2110.000000	0.270768
2111.000000	0.271323
2112.000000	0.271804
2113.000000	0.272261
2114.000000	0.272700
2115.000000	0.272844
2116.000000	0.273020
2117.000000	0.273283
2118.000000	0.273577
2119.000000	0.273923
2120.000000	0.274365
2121.000000	0.274973
2122.000000	0.275503
2123.000000	0.275996
2124.000000	0.276564
2125.000000	0.277330
2126.000000	0.277778
2127.000000	0.278163
2128.000000	0.278625
2129.000000	0.278911
2130.000000	0.279013
2131.000000	0.279285
2132.000000	0.279545
2133.000000	0.279818
2134.000000	0.280444
2135.000000	0.280789
2136.000000	0.281120
2137.000000	0.281400
2138.000000	0.281487
2139.000000	0.281654
2140.000000	0.281917
2141.000000	0.281997
2142.000000	0.281971
2143.000000	0.281817
2144.000000	0.281578
2145.000000	0.281629
2146.000000	0.281910
2147.000000	0.282240
2148.000000	0.282693
2149.000000	0.283281
2150.000000	0.283319
2151.000000	0.283367
2152.000000	0.283281
2153.000000	0.282866
2154.000000	0.282876
2155.000000	0.283213
2156.000000	0.283367
2157.000000	0.283709
2158.000000	0.283936
2159.000000	0.284152
2160.000000	0.284320
2161.000000	0.284275
2162.000000	0.284518
2163.000000	0.284857
2164.000000	0.284951
2165.000000	0.285138
2166.000000	0.285227
2167.000000	0.284982
2168.000000	0.284829
2169.000000	0.284786
2170.000000	0.284866
2171.000000	0.284858
2172.000000	0.284804
2173.000000	0.284957
2174.000000	0.285160
2175.000000	0.285380
2176.000000	0.286005
2177.000000	0.286098
2178.000000	0.285925
2179.000000	0.285891
2180.000000	0.285392
2181.000000	0.285525
2182.000000	0.285547
2183.000000	0.285548
2184.000000	0.285751
2185.000000	0.285607
2186.000000	0.284846
2187.000000	0.284588
2188.000000	0.284484
2189.000000	0.283941
2190.000000	0.284153
2191.000000	0.284481
2192.000000	0.284666
2193.000000	0.285049
2194.000000	0.285046
2195.000000	0.284716
2196.000000	0.284811
2197.000000	0.284801
2198.000000	0.284687
2199.000000	0.285048
2200.000000	0.285159
2201.000000	0.284631
2202.000000	0.284682
2203.000000	0.285098
2204.000000	0.285024
2205.000000	0.285465
2206.000000	0.285674
2207.000000	0.285878
2208.000000	0.286614
2209.000000	0.286230
2210.000000	0.286213
2211.000000	0.286160
2212.000000	0.285432
2213.000000	0.285267
2214.000000	0.285596
2215.000000	0.285318
2216.000000	0.284941
2217.000000	0.284836
2218.000000	0.284346
2219.000000	0.284303
2220.000000	0.284595
2221.000000	0.284786
2222.000000	0.285083
2223.000000	0.285497
2224.000000	0.285846
2225.000000	0.286888
2226.000000	0.287408
2227.000000	0.287003
2228.000000	0.286991
2229.000000	0.285923
2230.000000	0.284347
2231.000000	0.283838
2232.000000	0.283586
2233.000000	0.283430
2234.000000	0.283886
2235.000000	0.284795
2236.000000	0.285020
2237.000000	0.284968
2238.000000	0.284700
2239.000000	0.283660
2240.000000	0.283306
2241.000000	0.283146
2242.000000	0.282931
2243.000000	0.283155
2244.000000	0.283166
2245.000000	0.282525
2246.000000	0.282414
2247.000000	0.282661
2248.000000	0.282934
2249.000000	0.283884
2250.000000	0.284086
2251.000000	0.283820
2252.000000	0.283214
2253.000000	0.282026
2254.000000	0.281822
2255.000000	0.281795
2256.000000	0.281708
2257.000000	0.281025
2258.000000	0.280808
2259.000000	0.280671
2260.000000	0.280040
2261.000000	0.279705
2262.000000	0.279819
2263.000000	0.279108
2264.000000	0.277778
2265.000000	0.277277
2266.000000	0.277234
2267.000000	0.276660
2268.000000	0.276261
2269.000000	0.275646
2270.000000	0.274392
2271.000000	0.273243
2272.000000	0.272138
2273.000000	0.271235
2274.000000	0.269980
2275.000000	0.269300
2276.000000	0.269420
2277.000000	0.268944
2278.000000	0.268042
2279.000000	0.266367
2280.000000	0.263917
2281.000000	0.262239
2282.000000	0.261116
2283.000000	0.259910
2284.000000	0.258762
2285.000000	0.257066
2286.000000	0.255602
2287.000000	0.254613
2288.000000	0.253392
2289.000000	0.252524
2290.000000	0.251132
2291.000000	0.249570
2292.000000	0.248577
2293.000000	0.247182
2294.000000	0.246274
2295.000000	0.245631
2296.000000	0.245191
2297.000000	0.245186
2298.000000	0.245210
2299.000000	0.245442
2300.000000	0.245220
2301.000000	0.244826
2302.000000	0.244365
2303.000000	0.243193
2304.000000	0.243058
2305.000000	0.243500
2306.000000	0.243941
2307.000000	0.244583
2308.000000	0.246191
2309.000000	0.246924
2310.000000	0.247168
2311.000000	0.247519
2312.000000	0.246619
2313.000000	0.245684
2314.000000	0.245020
2315.000000	0.244254
2316.000000	0.244199
2317.000000	0.244248
2318.000000	0.244592
2319.000000	0.245015
2320.000000	0.244975
2321.000000	0.245278
2322.000000	0.244797
2323.000000	0.243271
2324.000000	0.241745
2325.000000	0.240055
2326.000000	0.238448
2327.000000	0.237594
2328.000000	0.236865
2329.000000	0.236330
2330.000000	0.236495
2331.000000	0.236395
2332.000000	0.237190
2333.000000	0.237187
2334.000000	0.234755
2335.000000	0.233659
2336.000000	0.231642
2337.000000	0.230457
2338.000000	0.230693
2339.000000	0.230384
2340.000000	0.230122
2341.000000	0.229232
2342.000000	0.227350
2343.000000	0.226225
2344.000000	0.225178
2345.000000	0.224289
2346.000000	0.224289
2347.000000	0.223595
2348.000000	0.222728
2349.000000	0.221164
2350.000000	0.219435
2351.000000	0.218215
2352.000000	0.216355
2353.000000	0.215442
2354.000000	0.213928
2355.000000	0.213175
2356.000000	0.213779
2357.000000	0.212038
2358.000000	0.210236
2359.000000	0.208424
2360.000000	0.206422
2361.000000	0.205940
2362.000000	0.205325
2363.000000	0.204486
2364.000000	0.201686
2365.000000	0.198580
2366.000000	0.196641
2367.000000	0.194463
2368.000000	0.193971
2369.000000	0.194743
2370.000000	0.194914
2371.000000	0.194640
2372.000000	0.194345
2373.000000	0.192738
2374.000000	0.189564
2375.000000	0.187682
2376.000000	0.186795
2377.000000	0.186075
2378.000000	0.187847
2379.000000	0.189006
2380.000000	0.188212
2381.000000	0.186676
2382.000000	0.183704
2383.000000	0.181033
2384.000000	0.177585
2385.000000	0.173766
2386.000000	0.170315
2387.000000	0.167190
2388.000000	0.166115
2389.000000	0.166685
2390.000000	0.166639
2391.000000	0.166790
2392.000000	0.167178
2393.000000	0.166603
2394.000000	0.166705
2395.000000	0.167276
2396.000000	0.168407
2397.000000	0.169308
2398.000000	0.169419
2399.000000	0.168458
2400.000000	0.166434
2401.000000	0.166483
2402.000000	0.168049
2403.000000	0.169428
2404.000000	0.171169
2405.000000	0.170653
2406.000000	0.167478
2407.000000	0.164576
2408.000000	0.161028
2409.000000	0.159244
2410.000000	0.160592
2411.000000	0.160989
2412.000000	0.161795
2413.000000	0.161828
2414.000000	0.160753
2415.000000	0.161314
2416.000000	0.160995
2417.000000	0.162522
2418.000000	0.164535
2419.000000	0.163136
2420.000000	0.164649
2421.000000	0.165677
2422.000000	0.163168
2423.000000	0.161588
2424.000000	0.159494
2425.000000	0.157038
2426.000000	0.155424
2427.000000	0.155329
2428.000000	0.156547
2429.000000	0.157484
2430.000000	0.158530
2431.000000	0.160960
2432.000000	0.163338
2433.000000	0.163526
2434.000000	0.163172
2435.000000	0.163669
2436.000000	0.163398
2437.000000	0.164107
2438.000000	0.167965
2439.000000	0.167081
2440.000000	0.164856
2441.000000	0.164339
2442.000000	0.160689
2443.000000	0.159242
2444.000000	0.156502
2445.000000	0.158641
2446.000000	0.164161
2447.000000	0.164266
2448.000000	0.165691
2449.000000	0.162628
2450.000000	0.153772
2451.000000	0.151803
2452.000000	0.158630
2453.000000	0.160680
2454.000000	0.161521
2455.000000	0.163712
2456.000000	0.156560
2457.000000	0.150979
2458.000000	0.151268
2459.000000	0.152812
2460.000000	0.152735
2461.000000	0.153022
2462.000000	0.156376
2463.000000	0.149901
2464.000000	0.142991
2465.000000	0.138908
2466.000000	0.127567
2467.000000	0.121713
2468.000000	0.120604
2469.000000	0.118384
2470.000000	0.120791
2471.000000	0.121432
2472.000000	0.120920
2473.000000	0.123071
2474.000000	0.122150
2475.000000	0.123925
2476.000000	0.126733
2477.000000	0.125248
2478.000000	0.126191
2479.000000	0.124291
2480.000000	0.123757
2481.000000	0.131842
2482.000000	0.136763
2483.000000	0.143207
2484.000000	0.139307
2485.000000	0.126107
2486.000000	0.123508
2487.000000	0.132136
2488.000000	0.147023
2489.000000	0.145025
2490.000000	0.138946
2491.000000	0.112075
2492.000000	0.101630
2493.000000	0.118998
2494.000000	0.126341
2495.000000	0.136426
2496.000000	0.140091
2497.000000	0.134640
2498.000000	0.123979
2499.000000	0.104633
2500.000000	0.093471
