# Wavelength	NAu-2-10_HEX-70_FV7-20_00000.asd.rts.txt
350.000000	0.223306
351.000000	0.216287
352.000000	0.219414
353.000000	0.220640
354.000000	0.216973
355.000000	0.216871
356.000000	0.219875
357.000000	0.223537
358.000000	0.219830
359.000000	0.219627
360.000000	0.220613
361.000000	0.218391
362.000000	0.220537
363.000000	0.221226
364.000000	0.218111
365.000000	0.222153
366.000000	0.222408
367.000000	0.218162
368.000000	0.217798
369.000000	0.219365
370.000000	0.221391
371.000000	0.222421
372.000000	0.222380
373.000000	0.222254
374.000000	0.222954
375.000000	0.223179
376.000000	0.223051
377.000000	0.223065
378.000000	0.224443
379.000000	0.225584
380.000000	0.227037
381.000000	0.230294
382.000000	0.230813
383.000000	0.229855
384.000000	0.229034
385.000000	0.227591
386.000000	0.227518
387.000000	0.229118
388.000000	0.230806
389.000000	0.230175
390.000000	0.229066
391.000000	0.230296
392.000000	0.231125
393.000000	0.231252
394.000000	0.231028
395.000000	0.231693
396.000000	0.232479
397.000000	0.232996
398.000000	0.233489
399.000000	0.233629
400.000000	0.233766
401.000000	0.234351
402.000000	0.234445
403.000000	0.234536
404.000000	0.235174
405.000000	0.235391
406.000000	0.235559
407.000000	0.235922
408.000000	0.236330
409.000000	0.236636
410.000000	0.236947
411.000000	0.237485
412.000000	0.237718
413.000000	0.238039
414.000000	0.238826
415.000000	0.238935
416.000000	0.239134
417.000000	0.239789
418.000000	0.240114
419.000000	0.240381
420.000000	0.240683
421.000000	0.240979
422.000000	0.241249
423.000000	0.241603
424.000000	0.242194
425.000000	0.242355
426.000000	0.242488
427.000000	0.242869
428.000000	0.243030
429.000000	0.243316
430.000000	0.243812
431.000000	0.244262
432.000000	0.244634
433.000000	0.244861
434.000000	0.244996
435.000000	0.245262
436.000000	0.245626
437.000000	0.245970
438.000000	0.246197
439.000000	0.246278
440.000000	0.246366
441.000000	0.246633
442.000000	0.247046
443.000000	0.247376
444.000000	0.247389
445.000000	0.247527
446.000000	0.247952
447.000000	0.248517
448.000000	0.249030
449.000000	0.249416
450.000000	0.249678
451.000000	0.249903
452.000000	0.250166
453.000000	0.250485
454.000000	0.251069
455.000000	0.251464
456.000000	0.251776
457.000000	0.252148
458.000000	0.252381
459.000000	0.252603
460.000000	0.252988
461.000000	0.253396
462.000000	0.253846
463.000000	0.254180
464.000000	0.254411
465.000000	0.254735
466.000000	0.255112
467.000000	0.255475
468.000000	0.255811
469.000000	0.256078
470.000000	0.256396
471.000000	0.256656
472.000000	0.256902
473.000000	0.257189
474.000000	0.257437
475.000000	0.257627
476.000000	0.257915
477.000000	0.258331
478.000000	0.258454
479.000000	0.258612
480.000000	0.259048
481.000000	0.259349
482.000000	0.259682
483.000000	0.260019
484.000000	0.260360
485.000000	0.260573
486.000000	0.260794
487.000000	0.261030
488.000000	0.261354
489.000000	0.261721
490.000000	0.261976
491.000000	0.262207
492.000000	0.262473
493.000000	0.262681
494.000000	0.262860
495.000000	0.263060
496.000000	0.263275
497.000000	0.263529
498.000000	0.263782
499.000000	0.264053
500.000000	0.264232
501.000000	0.264470
502.000000	0.264767
503.000000	0.264974
504.000000	0.265241
505.000000	0.265550
506.000000	0.265852
507.000000	0.266092
508.000000	0.266385
509.000000	0.266732
510.000000	0.267030
511.000000	0.267318
512.000000	0.267656
513.000000	0.268067
514.000000	0.268441
515.000000	0.268798
516.000000	0.269131
517.000000	0.269443
518.000000	0.269813
519.000000	0.270202
520.000000	0.270571
521.000000	0.270955
522.000000	0.271374
523.000000	0.271806
524.000000	0.272239
525.000000	0.272692
526.000000	0.273254
527.000000	0.273754
528.000000	0.274240
529.000000	0.274843
530.000000	0.275449
531.000000	0.276113
532.000000	0.276783
533.000000	0.277481
534.000000	0.278211
535.000000	0.278950
536.000000	0.279689
537.000000	0.280427
538.000000	0.281167
539.000000	0.281894
540.000000	0.282546
541.000000	0.283138
542.000000	0.283741
543.000000	0.284400
544.000000	0.285098
545.000000	0.285744
546.000000	0.286359
547.000000	0.286955
548.000000	0.287583
549.000000	0.288230
550.000000	0.288914
551.000000	0.289644
552.000000	0.290375
553.000000	0.291136
554.000000	0.291955
555.000000	0.292847
556.000000	0.293783
557.000000	0.294651
558.000000	0.295552
559.000000	0.296468
560.000000	0.297352
561.000000	0.298268
562.000000	0.299173
563.000000	0.300006
564.000000	0.300840
565.000000	0.301650
566.000000	0.302497
567.000000	0.303327
568.000000	0.304077
569.000000	0.304760
570.000000	0.305417
571.000000	0.306057
572.000000	0.306695
573.000000	0.307276
574.000000	0.307769
575.000000	0.308228
576.000000	0.308702
577.000000	0.309127
578.000000	0.309521
579.000000	0.309915
580.000000	0.310255
581.000000	0.310540
582.000000	0.310876
583.000000	0.311141
584.000000	0.311341
585.000000	0.311552
586.000000	0.311688
587.000000	0.311796
588.000000	0.311935
589.000000	0.312054
590.000000	0.312159
591.000000	0.312250
592.000000	0.312298
593.000000	0.312361
594.000000	0.312437
595.000000	0.312475
596.000000	0.312487
597.000000	0.312500
598.000000	0.312441
599.000000	0.312375
600.000000	0.312329
601.000000	0.312241
602.000000	0.312161
603.000000	0.312074
604.000000	0.311993
605.000000	0.311964
606.000000	0.311879
607.000000	0.311754
608.000000	0.311682
609.000000	0.311592
610.000000	0.311469
611.000000	0.311313
612.000000	0.311165
613.000000	0.311018
614.000000	0.310892
615.000000	0.310727
616.000000	0.310579
617.000000	0.310447
618.000000	0.310389
619.000000	0.310335
620.000000	0.310263
621.000000	0.310234
622.000000	0.310226
623.000000	0.310212
624.000000	0.310176
625.000000	0.310157
626.000000	0.310123
627.000000	0.310071
628.000000	0.310026
629.000000	0.310043
630.000000	0.310003
631.000000	0.309987
632.000000	0.309955
633.000000	0.309940
634.000000	0.309957
635.000000	0.309955
636.000000	0.309999
637.000000	0.310096
638.000000	0.310176
639.000000	0.310243
640.000000	0.310350
641.000000	0.310420
642.000000	0.310513
643.000000	0.310631
644.000000	0.310764
645.000000	0.310893
646.000000	0.311035
647.000000	0.311179
648.000000	0.311345
649.000000	0.311557
650.000000	0.311783
651.000000	0.311975
652.000000	0.312153
653.000000	0.312362
654.000000	0.312570
655.000000	0.312781
656.000000	0.313033
657.000000	0.313293
658.000000	0.313546
659.000000	0.313817
660.000000	0.314111
661.000000	0.314454
662.000000	0.314775
663.000000	0.315115
664.000000	0.315475
665.000000	0.315874
666.000000	0.316269
667.000000	0.316591
668.000000	0.316972
669.000000	0.317385
670.000000	0.317807
671.000000	0.318227
672.000000	0.318656
673.000000	0.319098
674.000000	0.319576
675.000000	0.320023
676.000000	0.320461
677.000000	0.320948
678.000000	0.321449
679.000000	0.321945
680.000000	0.322447
681.000000	0.322974
682.000000	0.323588
683.000000	0.324204
684.000000	0.324828
685.000000	0.325449
686.000000	0.326079
687.000000	0.326682
688.000000	0.327278
689.000000	0.327887
690.000000	0.328547
691.000000	0.329192
692.000000	0.329824
693.000000	0.330514
694.000000	0.331227
695.000000	0.331977
696.000000	0.332752
697.000000	0.333529
698.000000	0.334284
699.000000	0.335032
700.000000	0.335792
701.000000	0.336522
702.000000	0.337267
703.000000	0.338013
704.000000	0.338728
705.000000	0.339486
706.000000	0.340259
707.000000	0.341080
708.000000	0.341899
709.000000	0.342720
710.000000	0.343567
711.000000	0.344372
712.000000	0.345172
713.000000	0.346001
714.000000	0.346825
715.000000	0.347652
716.000000	0.348481
717.000000	0.349280
718.000000	0.350065
719.000000	0.350854
720.000000	0.351673
721.000000	0.352498
722.000000	0.353292
723.000000	0.354106
724.000000	0.354900
725.000000	0.355650
726.000000	0.356436
727.000000	0.357186
728.000000	0.357928
729.000000	0.358652
730.000000	0.359307
731.000000	0.360029
732.000000	0.360755
733.000000	0.361484
734.000000	0.362152
735.000000	0.362766
736.000000	0.363472
737.000000	0.364161
738.000000	0.364795
739.000000	0.365477
740.000000	0.366084
741.000000	0.366692
742.000000	0.367292
743.000000	0.367846
744.000000	0.368392
745.000000	0.368897
746.000000	0.369414
747.000000	0.369896
748.000000	0.370396
749.000000	0.370936
750.000000	0.371473
751.000000	0.371962
752.000000	0.372405
753.000000	0.372829
754.000000	0.373257
755.000000	0.373654
756.000000	0.374038
757.000000	0.374387
758.000000	0.374737
759.000000	0.375125
760.000000	0.375485
761.000000	0.375883
762.000000	0.376245
763.000000	0.376556
764.000000	0.376931
765.000000	0.377280
766.000000	0.377597
767.000000	0.377886
768.000000	0.378174
769.000000	0.378419
770.000000	0.378635
771.000000	0.378906
772.000000	0.379220
773.000000	0.379466
774.000000	0.379668
775.000000	0.379852
776.000000	0.380011
777.000000	0.380132
778.000000	0.380288
779.000000	0.380474
780.000000	0.380673
781.000000	0.380823
782.000000	0.380961
783.000000	0.381186
784.000000	0.381373
785.000000	0.381508
786.000000	0.381598
787.000000	0.381661
788.000000	0.381758
789.000000	0.381834
790.000000	0.381878
791.000000	0.381955
792.000000	0.382017
793.000000	0.382089
794.000000	0.382201
795.000000	0.382323
796.000000	0.382401
797.000000	0.382454
798.000000	0.382595
799.000000	0.382709
800.000000	0.382780
801.000000	0.382828
802.000000	0.382880
803.000000	0.382884
804.000000	0.382868
805.000000	0.382858
806.000000	0.382869
807.000000	0.382973
808.000000	0.383061
809.000000	0.383125
810.000000	0.383159
811.000000	0.383153
812.000000	0.383147
813.000000	0.383092
814.000000	0.383007
815.000000	0.382998
816.000000	0.382967
817.000000	0.382959
818.000000	0.382937
819.000000	0.382987
820.000000	0.383020
821.000000	0.382952
822.000000	0.382906
823.000000	0.382882
824.000000	0.382840
825.000000	0.382872
826.000000	0.382913
827.000000	0.382915
828.000000	0.382900
829.000000	0.382837
830.000000	0.382724
831.000000	0.382649
832.000000	0.382543
833.000000	0.382519
834.000000	0.382514
835.000000	0.382503
836.000000	0.382463
837.000000	0.382387
838.000000	0.382317
839.000000	0.382274
840.000000	0.382197
841.000000	0.382107
842.000000	0.381998
843.000000	0.381953
844.000000	0.381949
845.000000	0.381921
846.000000	0.381865
847.000000	0.381829
848.000000	0.381785
849.000000	0.381734
850.000000	0.381671
851.000000	0.381543
852.000000	0.381414
853.000000	0.381381
854.000000	0.381260
855.000000	0.381178
856.000000	0.381079
857.000000	0.380771
858.000000	0.380540
859.000000	0.380433
860.000000	0.380379
861.000000	0.380328
862.000000	0.380330
863.000000	0.380349
864.000000	0.380271
865.000000	0.380154
866.000000	0.380046
867.000000	0.379842
868.000000	0.379690
869.000000	0.379528
870.000000	0.379357
871.000000	0.379140
872.000000	0.378980
873.000000	0.378860
874.000000	0.378770
875.000000	0.378610
876.000000	0.378410
877.000000	0.378179
878.000000	0.377977
879.000000	0.377869
880.000000	0.377706
881.000000	0.377564
882.000000	0.377380
883.000000	0.377181
884.000000	0.376950
885.000000	0.376762
886.000000	0.376565
887.000000	0.376378
888.000000	0.376271
889.000000	0.376155
890.000000	0.375918
891.000000	0.375729
892.000000	0.375512
893.000000	0.375239
894.000000	0.375051
895.000000	0.374856
896.000000	0.374616
897.000000	0.374376
898.000000	0.374192
899.000000	0.373961
900.000000	0.373746
901.000000	0.373542
902.000000	0.373399
903.000000	0.373193
904.000000	0.372990
905.000000	0.372766
906.000000	0.372633
907.000000	0.372456
908.000000	0.372257
909.000000	0.372016
910.000000	0.371738
911.000000	0.371494
912.000000	0.371340
913.000000	0.371114
914.000000	0.370887
915.000000	0.370719
916.000000	0.370466
917.000000	0.370205
918.000000	0.369993
919.000000	0.369820
920.000000	0.369637
921.000000	0.369443
922.000000	0.369273
923.000000	0.369125
924.000000	0.368856
925.000000	0.368564
926.000000	0.368335
927.000000	0.368029
928.000000	0.367784
929.000000	0.367562
930.000000	0.367298
931.000000	0.367085
932.000000	0.366870
933.000000	0.366656
934.000000	0.366380
935.000000	0.366130
936.000000	0.365933
937.000000	0.365669
938.000000	0.365338
939.000000	0.365160
940.000000	0.365009
941.000000	0.364761
942.000000	0.364472
943.000000	0.364256
944.000000	0.364038
945.000000	0.363938
946.000000	0.363665
947.000000	0.363384
948.000000	0.363236
949.000000	0.362936
950.000000	0.362619
951.000000	0.362299
952.000000	0.362010
953.000000	0.361786
954.000000	0.361545
955.000000	0.361182
956.000000	0.360947
957.000000	0.360760
958.000000	0.360553
959.000000	0.360398
960.000000	0.360125
961.000000	0.359861
962.000000	0.359619
963.000000	0.359332
964.000000	0.359089
965.000000	0.358864
966.000000	0.358514
967.000000	0.358245
968.000000	0.358063
969.000000	0.357877
970.000000	0.357719
971.000000	0.357674
972.000000	0.357606
973.000000	0.357377
974.000000	0.357107
975.000000	0.356844
976.000000	0.356615
977.000000	0.356416
978.000000	0.356225
979.000000	0.356056
980.000000	0.355740
981.000000	0.355598
982.000000	0.355421
983.000000	0.355210
984.000000	0.355091
985.000000	0.355097
986.000000	0.354947
987.000000	0.354762
988.000000	0.354521
989.000000	0.354195
990.000000	0.354034
991.000000	0.353973
992.000000	0.353916
993.000000	0.353944
994.000000	0.353741
995.000000	0.353518
996.000000	0.353388
997.000000	0.353377
998.000000	0.353382
999.000000	0.353376
1000.000000	0.353173
1001.000000	0.353415
1002.000000	0.353323
1003.000000	0.353193
1004.000000	0.353040
1005.000000	0.352790
1006.000000	0.352428
1007.000000	0.352037
1008.000000	0.351764
1009.000000	0.351574
1010.000000	0.351306
1011.000000	0.351404
1012.000000	0.351626
1013.000000	0.351297
1014.000000	0.351192
1015.000000	0.351292
1016.000000	0.351265
1017.000000	0.351287
1018.000000	0.351635
1019.000000	0.351880
1020.000000	0.352307
1021.000000	0.352059
1022.000000	0.351763
1023.000000	0.351809
1024.000000	0.351417
1025.000000	0.351478
1026.000000	0.351806
1027.000000	0.351611
1028.000000	0.351577
1029.000000	0.351740
1030.000000	0.351829
1031.000000	0.352103
1032.000000	0.352389
1033.000000	0.352479
1034.000000	0.352567
1035.000000	0.352687
1036.000000	0.352774
1037.000000	0.352800
1038.000000	0.352660
1039.000000	0.352482
1040.000000	0.352547
1041.000000	0.352511
1042.000000	0.352580
1043.000000	0.353032
1044.000000	0.353428
1045.000000	0.353506
1046.000000	0.353466
1047.000000	0.353601
1048.000000	0.353603
1049.000000	0.353667
1050.000000	0.353875
1051.000000	0.354069
1052.000000	0.354223
1053.000000	0.354221
1054.000000	0.354412
1055.000000	0.354639
1056.000000	0.354780
1057.000000	0.354917
1058.000000	0.355309
1059.000000	0.355346
1060.000000	0.355648
1061.000000	0.356075
1062.000000	0.356064
1063.000000	0.356354
1064.000000	0.356566
1065.000000	0.356468
1066.000000	0.356651
1067.000000	0.357077
1068.000000	0.357311
1069.000000	0.357509
1070.000000	0.357668
1071.000000	0.357747
1072.000000	0.357931
1073.000000	0.358174
1074.000000	0.358494
1075.000000	0.358800
1076.000000	0.359197
1077.000000	0.359297
1078.000000	0.359300
1079.000000	0.359409
1080.000000	0.359440
1081.000000	0.359636
1082.000000	0.360159
1083.000000	0.360416
1084.000000	0.360594
1085.000000	0.360920
1086.000000	0.361226
1087.000000	0.361518
1088.000000	0.361845
1089.000000	0.362083
1090.000000	0.362176
1091.000000	0.362216
1092.000000	0.362318
1093.000000	0.362729
1094.000000	0.362950
1095.000000	0.363092
1096.000000	0.363299
1097.000000	0.363498
1098.000000	0.363712
1099.000000	0.363890
1100.000000	0.364164
1101.000000	0.364407
1102.000000	0.364650
1103.000000	0.364979
1104.000000	0.365233
1105.000000	0.365440
1106.000000	0.365614
1107.000000	0.365551
1108.000000	0.365672
1109.000000	0.365962
1110.000000	0.366234
1111.000000	0.366455
1112.000000	0.366785
1113.000000	0.367011
1114.000000	0.367122
1115.000000	0.367284
1116.000000	0.367525
1117.000000	0.367657
1118.000000	0.367617
1119.000000	0.367698
1120.000000	0.367866
1121.000000	0.367937
1122.000000	0.368100
1123.000000	0.368449
1124.000000	0.368507
1125.000000	0.368691
1126.000000	0.368982
1127.000000	0.369147
1128.000000	0.369262
1129.000000	0.369372
1130.000000	0.369482
1131.000000	0.369578
1132.000000	0.369590
1133.000000	0.369585
1134.000000	0.369686
1135.000000	0.369708
1136.000000	0.369767
1137.000000	0.369955
1138.000000	0.369996
1139.000000	0.370031
1140.000000	0.370155
1141.000000	0.370255
1142.000000	0.370319
1143.000000	0.370268
1144.000000	0.370404
1145.000000	0.370443
1146.000000	0.370323
1147.000000	0.370307
1148.000000	0.370237
1149.000000	0.370217
1150.000000	0.370198
1151.000000	0.370265
1152.000000	0.370340
1153.000000	0.370425
1154.000000	0.370562
1155.000000	0.370564
1156.000000	0.370491
1157.000000	0.370464
1158.000000	0.370310
1159.000000	0.370225
1160.000000	0.370192
1161.000000	0.370131
1162.000000	0.370105
1163.000000	0.370238
1164.000000	0.370238
1165.000000	0.370193
1166.000000	0.370201
1167.000000	0.370141
1168.000000	0.370079
1169.000000	0.370071
1170.000000	0.370082
1171.000000	0.370145
1172.000000	0.370194
1173.000000	0.370214
1174.000000	0.370228
1175.000000	0.370198
1176.000000	0.370125
1177.000000	0.370121
1178.000000	0.370114
1179.000000	0.370036
1180.000000	0.369961
1181.000000	0.370016
1182.000000	0.370035
1183.000000	0.370097
1184.000000	0.370206
1185.000000	0.370256
1186.000000	0.370310
1187.000000	0.370302
1188.000000	0.370238
1189.000000	0.370172
1190.000000	0.370123
1191.000000	0.370078
1192.000000	0.370144
1193.000000	0.370263
1194.000000	0.370262
1195.000000	0.370288
1196.000000	0.370287
1197.000000	0.370272
1198.000000	0.370252
1199.000000	0.370255
1200.000000	0.370247
1201.000000	0.370248
1202.000000	0.370223
1203.000000	0.370244
1204.000000	0.370262
1205.000000	0.370254
1206.000000	0.370203
1207.000000	0.370245
1208.000000	0.370208
1209.000000	0.370156
1210.000000	0.370171
1211.000000	0.370229
1212.000000	0.370237
1213.000000	0.370302
1214.000000	0.370357
1215.000000	0.370371
1216.000000	0.370374
1217.000000	0.370346
1218.000000	0.370309
1219.000000	0.370267
1220.000000	0.370252
1221.000000	0.370288
1222.000000	0.370300
1223.000000	0.370322
1224.000000	0.370373
1225.000000	0.370320
1226.000000	0.370337
1227.000000	0.370378
1228.000000	0.370414
1229.000000	0.370418
1230.000000	0.370425
1231.000000	0.370383
1232.000000	0.370409
1233.000000	0.370541
1234.000000	0.370713
1235.000000	0.370809
1236.000000	0.370813
1237.000000	0.370892
1238.000000	0.370900
1239.000000	0.370917
1240.000000	0.370971
1241.000000	0.371022
1242.000000	0.370983
1243.000000	0.370932
1244.000000	0.370935
1245.000000	0.371013
1246.000000	0.371077
1247.000000	0.371220
1248.000000	0.371359
1249.000000	0.371430
1250.000000	0.371509
1251.000000	0.371573
1252.000000	0.371572
1253.000000	0.371546
1254.000000	0.371522
1255.000000	0.371438
1256.000000	0.371417
1257.000000	0.371440
1258.000000	0.371507
1259.000000	0.371528
1260.000000	0.371610
1261.000000	0.371697
1262.000000	0.371745
1263.000000	0.371818
1264.000000	0.371846
1265.000000	0.371857
1266.000000	0.371851
1267.000000	0.371852
1268.000000	0.371814
1269.000000	0.371746
1270.000000	0.371804
1271.000000	0.371816
1272.000000	0.371894
1273.000000	0.372071
1274.000000	0.372133
1275.000000	0.372180
1276.000000	0.372259
1277.000000	0.372375
1278.000000	0.372353
1279.000000	0.372358
1280.000000	0.372316
1281.000000	0.372243
1282.000000	0.372193
1283.000000	0.372240
1284.000000	0.372241
1285.000000	0.372264
1286.000000	0.372299
1287.000000	0.372298
1288.000000	0.372365
1289.000000	0.372409
1290.000000	0.372382
1291.000000	0.372398
1292.000000	0.372419
1293.000000	0.372409
1294.000000	0.372443
1295.000000	0.372494
1296.000000	0.372486
1297.000000	0.372522
1298.000000	0.372593
1299.000000	0.372581
1300.000000	0.372597
1301.000000	0.372559
1302.000000	0.372450
1303.000000	0.372400
1304.000000	0.372320
1305.000000	0.372318
1306.000000	0.372246
1307.000000	0.372204
1308.000000	0.372175
1309.000000	0.372094
1310.000000	0.372038
1311.000000	0.372053
1312.000000	0.371983
1313.000000	0.371920
1314.000000	0.371840
1315.000000	0.371658
1316.000000	0.371573
1317.000000	0.371492
1318.000000	0.371335
1319.000000	0.371193
1320.000000	0.371089
1321.000000	0.370963
1322.000000	0.370896
1323.000000	0.370862
1324.000000	0.370824
1325.000000	0.370673
1326.000000	0.370428
1327.000000	0.370214
1328.000000	0.370046
1329.000000	0.369817
1330.000000	0.369603
1331.000000	0.369421
1332.000000	0.369308
1333.000000	0.369142
1334.000000	0.369053
1335.000000	0.368940
1336.000000	0.368771
1337.000000	0.368575
1338.000000	0.368286
1339.000000	0.368073
1340.000000	0.367865
1341.000000	0.367664
1342.000000	0.367513
1343.000000	0.367322
1344.000000	0.367144
1345.000000	0.366928
1346.000000	0.366792
1347.000000	0.366605
1348.000000	0.366385
1349.000000	0.366150
1350.000000	0.365937
1351.000000	0.365660
1352.000000	0.365345
1353.000000	0.365043
1354.000000	0.364780
1355.000000	0.364505
1356.000000	0.364310
1357.000000	0.364022
1358.000000	0.363724
1359.000000	0.363474
1360.000000	0.363202
1361.000000	0.362991
1362.000000	0.362727
1363.000000	0.362375
1364.000000	0.362130
1365.000000	0.361900
1366.000000	0.361672
1367.000000	0.361492
1368.000000	0.361263
1369.000000	0.361089
1370.000000	0.360786
1371.000000	0.360432
1372.000000	0.360081
1373.000000	0.359704
1374.000000	0.359367
1375.000000	0.359029
1376.000000	0.358795
1377.000000	0.358510
1378.000000	0.358157
1379.000000	0.357789
1380.000000	0.357357
1381.000000	0.356862
1382.000000	0.356327
1383.000000	0.355777
1384.000000	0.355124
1385.000000	0.354428
1386.000000	0.353771
1387.000000	0.353100
1388.000000	0.352358
1389.000000	0.351655
1390.000000	0.350962
1391.000000	0.350106
1392.000000	0.349258
1393.000000	0.348321
1394.000000	0.347338
1395.000000	0.346313
1396.000000	0.345246
1397.000000	0.344069
1398.000000	0.342745
1399.000000	0.341464
1400.000000	0.340135
1401.000000	0.338779
1402.000000	0.337478
1403.000000	0.336086
1404.000000	0.334702
1405.000000	0.333303
1406.000000	0.331856
1407.000000	0.330486
1408.000000	0.329047
1409.000000	0.327631
1410.000000	0.326318
1411.000000	0.324889
1412.000000	0.323449
1413.000000	0.322094
1414.000000	0.320688
1415.000000	0.319307
1416.000000	0.317960
1417.000000	0.316604
1418.000000	0.315174
1419.000000	0.313818
1420.000000	0.312396
1421.000000	0.311005
1422.000000	0.309698
1423.000000	0.308460
1424.000000	0.307180
1425.000000	0.305951
1426.000000	0.304692
1427.000000	0.303434
1428.000000	0.302249
1429.000000	0.301093
1430.000000	0.299975
1431.000000	0.298916
1432.000000	0.297886
1433.000000	0.296954
1434.000000	0.295977
1435.000000	0.295075
1436.000000	0.294174
1437.000000	0.293239
1438.000000	0.292356
1439.000000	0.291549
1440.000000	0.290808
1441.000000	0.290130
1442.000000	0.289469
1443.000000	0.288793
1444.000000	0.288182
1445.000000	0.287604
1446.000000	0.287093
1447.000000	0.286608
1448.000000	0.286144
1449.000000	0.285683
1450.000000	0.285211
1451.000000	0.284829
1452.000000	0.284431
1453.000000	0.284052
1454.000000	0.283738
1455.000000	0.283421
1456.000000	0.283209
1457.000000	0.283040
1458.000000	0.282850
1459.000000	0.282689
1460.000000	0.282508
1461.000000	0.282313
1462.000000	0.282122
1463.000000	0.281908
1464.000000	0.281763
1465.000000	0.281682
1466.000000	0.281569
1467.000000	0.281475
1468.000000	0.281393
1469.000000	0.281358
1470.000000	0.281274
1471.000000	0.281267
1472.000000	0.281305
1473.000000	0.281378
1474.000000	0.281482
1475.000000	0.281655
1476.000000	0.281898
1477.000000	0.282169
1478.000000	0.282484
1479.000000	0.282830
1480.000000	0.283191
1481.000000	0.283553
1482.000000	0.283989
1483.000000	0.284434
1484.000000	0.284879
1485.000000	0.285333
1486.000000	0.285789
1487.000000	0.286275
1488.000000	0.286817
1489.000000	0.287345
1490.000000	0.287783
1491.000000	0.288274
1492.000000	0.288726
1493.000000	0.289199
1494.000000	0.289663
1495.000000	0.290103
1496.000000	0.290507
1497.000000	0.290961
1498.000000	0.291452
1499.000000	0.291942
1500.000000	0.292422
1501.000000	0.292867
1502.000000	0.293232
1503.000000	0.293619
1504.000000	0.294043
1505.000000	0.294445
1506.000000	0.294823
1507.000000	0.295162
1508.000000	0.295512
1509.000000	0.295833
1510.000000	0.296121
1511.000000	0.296474
1512.000000	0.296808
1513.000000	0.297110
1514.000000	0.297473
1515.000000	0.297771
1516.000000	0.298040
1517.000000	0.298271
1518.000000	0.298483
1519.000000	0.298685
1520.000000	0.298880
1521.000000	0.299043
1522.000000	0.299262
1523.000000	0.299471
1524.000000	0.299627
1525.000000	0.299843
1526.000000	0.299995
1527.000000	0.300123
1528.000000	0.300288
1529.000000	0.300396
1530.000000	0.300401
1531.000000	0.300474
1532.000000	0.300572
1533.000000	0.300620
1534.000000	0.300726
1535.000000	0.300847
1536.000000	0.300878
1537.000000	0.300967
1538.000000	0.301079
1539.000000	0.301086
1540.000000	0.301089
1541.000000	0.301189
1542.000000	0.301320
1543.000000	0.301420
1544.000000	0.301511
1545.000000	0.301604
1546.000000	0.301652
1547.000000	0.301695
1548.000000	0.301767
1549.000000	0.301821
1550.000000	0.301817
1551.000000	0.301821
1552.000000	0.301858
1553.000000	0.301840
1554.000000	0.301824
1555.000000	0.301866
1556.000000	0.301911
1557.000000	0.301955
1558.000000	0.302013
1559.000000	0.302037
1560.000000	0.302039
1561.000000	0.302071
1562.000000	0.302055
1563.000000	0.302040
1564.000000	0.302049
1565.000000	0.302059
1566.000000	0.301988
1567.000000	0.301990
1568.000000	0.301961
1569.000000	0.301937
1570.000000	0.301918
1571.000000	0.301890
1572.000000	0.301876
1573.000000	0.301885
1574.000000	0.301857
1575.000000	0.301847
1576.000000	0.301854
1577.000000	0.301819
1578.000000	0.301796
1579.000000	0.301868
1580.000000	0.301852
1581.000000	0.301853
1582.000000	0.301829
1583.000000	0.301766
1584.000000	0.301680
1585.000000	0.301638
1586.000000	0.301609
1587.000000	0.301556
1588.000000	0.301546
1589.000000	0.301600
1590.000000	0.301610
1591.000000	0.301634
1592.000000	0.301663
1593.000000	0.301697
1594.000000	0.301719
1595.000000	0.301801
1596.000000	0.301872
1597.000000	0.301960
1598.000000	0.302024
1599.000000	0.302124
1600.000000	0.302157
1601.000000	0.302214
1602.000000	0.302264
1603.000000	0.302329
1604.000000	0.302357
1605.000000	0.302362
1606.000000	0.302410
1607.000000	0.302513
1608.000000	0.302580
1609.000000	0.302729
1610.000000	0.302811
1611.000000	0.302833
1612.000000	0.302916
1613.000000	0.303120
1614.000000	0.303252
1615.000000	0.303453
1616.000000	0.303631
1617.000000	0.303696
1618.000000	0.303823
1619.000000	0.303969
1620.000000	0.304096
1621.000000	0.304271
1622.000000	0.304487
1623.000000	0.304652
1624.000000	0.304831
1625.000000	0.304923
1626.000000	0.305008
1627.000000	0.305085
1628.000000	0.305255
1629.000000	0.305441
1630.000000	0.305672
1631.000000	0.305910
1632.000000	0.306124
1633.000000	0.306357
1634.000000	0.306604
1635.000000	0.306908
1636.000000	0.307162
1637.000000	0.307406
1638.000000	0.307670
1639.000000	0.307974
1640.000000	0.308273
1641.000000	0.308688
1642.000000	0.309006
1643.000000	0.309318
1644.000000	0.309596
1645.000000	0.309819
1646.000000	0.310029
1647.000000	0.310252
1648.000000	0.310435
1649.000000	0.310673
1650.000000	0.310908
1651.000000	0.311159
1652.000000	0.311439
1653.000000	0.311679
1654.000000	0.311960
1655.000000	0.312228
1656.000000	0.312397
1657.000000	0.312616
1658.000000	0.312798
1659.000000	0.313010
1660.000000	0.313253
1661.000000	0.313420
1662.000000	0.313631
1663.000000	0.313829
1664.000000	0.314037
1665.000000	0.314266
1666.000000	0.314548
1667.000000	0.314785
1668.000000	0.315009
1669.000000	0.315218
1670.000000	0.315389
1671.000000	0.315623
1672.000000	0.315880
1673.000000	0.316122
1674.000000	0.316327
1675.000000	0.316575
1676.000000	0.316781
1677.000000	0.316973
1678.000000	0.317144
1679.000000	0.317316
1680.000000	0.317481
1681.000000	0.317618
1682.000000	0.317774
1683.000000	0.317963
1684.000000	0.318141
1685.000000	0.318365
1686.000000	0.318563
1687.000000	0.318720
1688.000000	0.318797
1689.000000	0.318877
1690.000000	0.318969
1691.000000	0.319138
1692.000000	0.319264
1693.000000	0.319382
1694.000000	0.319445
1695.000000	0.319548
1696.000000	0.319668
1697.000000	0.319751
1698.000000	0.319909
1699.000000	0.320062
1700.000000	0.320195
1701.000000	0.320414
1702.000000	0.320512
1703.000000	0.320571
1704.000000	0.320691
1705.000000	0.320820
1706.000000	0.320968
1707.000000	0.321125
1708.000000	0.321301
1709.000000	0.321383
1710.000000	0.321511
1711.000000	0.321643
1712.000000	0.321773
1713.000000	0.321884
1714.000000	0.322012
1715.000000	0.322161
1716.000000	0.322338
1717.000000	0.322471
1718.000000	0.322545
1719.000000	0.322672
1720.000000	0.322840
1721.000000	0.323005
1722.000000	0.323225
1723.000000	0.323440
1724.000000	0.323677
1725.000000	0.323903
1726.000000	0.324087
1727.000000	0.324223
1728.000000	0.324241
1729.000000	0.324233
1730.000000	0.324274
1731.000000	0.324402
1732.000000	0.324575
1733.000000	0.324791
1734.000000	0.324973
1735.000000	0.325138
1736.000000	0.325251
1737.000000	0.325377
1738.000000	0.325522
1739.000000	0.325686
1740.000000	0.325832
1741.000000	0.325967
1742.000000	0.326122
1743.000000	0.326361
1744.000000	0.326607
1745.000000	0.326779
1746.000000	0.326979
1747.000000	0.327139
1748.000000	0.327210
1749.000000	0.327278
1750.000000	0.327324
1751.000000	0.327387
1752.000000	0.327570
1753.000000	0.327716
1754.000000	0.327849
1755.000000	0.327935
1756.000000	0.328037
1757.000000	0.328148
1758.000000	0.328274
1759.000000	0.328393
1760.000000	0.328533
1761.000000	0.328669
1762.000000	0.328755
1763.000000	0.328844
1764.000000	0.328948
1765.000000	0.328956
1766.000000	0.329063
1767.000000	0.329192
1768.000000	0.329236
1769.000000	0.329369
1770.000000	0.329503
1771.000000	0.329535
1772.000000	0.329628
1773.000000	0.329704
1774.000000	0.329799
1775.000000	0.329974
1776.000000	0.330125
1777.000000	0.330256
1778.000000	0.330369
1779.000000	0.330441
1780.000000	0.330580
1781.000000	0.330672
1782.000000	0.330863
1783.000000	0.331201
1784.000000	0.331495
1785.000000	0.331663
1786.000000	0.331792
1787.000000	0.331956
1788.000000	0.332060
1789.000000	0.332134
1790.000000	0.332206
1791.000000	0.332236
1792.000000	0.332314
1793.000000	0.332430
1794.000000	0.332621
1795.000000	0.332766
1796.000000	0.332901
1797.000000	0.333025
1798.000000	0.333046
1799.000000	0.333150
1800.000000	0.333383
1801.000000	0.332961
1802.000000	0.333258
1803.000000	0.333361
1804.000000	0.333750
1805.000000	0.334434
1806.000000	0.334726
1807.000000	0.335084
1808.000000	0.335208
1809.000000	0.334945
1810.000000	0.334561
1811.000000	0.334555
1812.000000	0.334688
1813.000000	0.334788
1814.000000	0.335193
1815.000000	0.335343
1816.000000	0.335408
1817.000000	0.335278
1818.000000	0.335072
1819.000000	0.334875
1820.000000	0.334865
1821.000000	0.334752
1822.000000	0.334704
1823.000000	0.334720
1824.000000	0.334675
1825.000000	0.334425
1826.000000	0.334465
1827.000000	0.334462
1828.000000	0.334731
1829.000000	0.335095
1830.000000	0.334914
1831.000000	0.334800
1832.000000	0.334501
1833.000000	0.334269
1834.000000	0.333911
1835.000000	0.333768
1836.000000	0.333588
1837.000000	0.333524
1838.000000	0.333503
1839.000000	0.333512
1840.000000	0.333427
1841.000000	0.333253
1842.000000	0.333029
1843.000000	0.332538
1844.000000	0.332293
1845.000000	0.332092
1846.000000	0.331873
1847.000000	0.331563
1848.000000	0.331288
1849.000000	0.330972
1850.000000	0.330319
1851.000000	0.329786
1852.000000	0.329161
1853.000000	0.328627
1854.000000	0.328017
1855.000000	0.327265
1856.000000	0.326551
1857.000000	0.325367
1858.000000	0.324117
1859.000000	0.322755
1860.000000	0.321303
1861.000000	0.320313
1862.000000	0.319141
1863.000000	0.318085
1864.000000	0.316975
1865.000000	0.315974
1866.000000	0.314658
1867.000000	0.313224
1868.000000	0.311735
1869.000000	0.309768
1870.000000	0.307498
1871.000000	0.305312
1872.000000	0.303058
1873.000000	0.300917
1874.000000	0.299016
1875.000000	0.296900
1876.000000	0.294665
1877.000000	0.291824
1878.000000	0.288985
1879.000000	0.285851
1880.000000	0.282793
1881.000000	0.279813
1882.000000	0.276434
1883.000000	0.273138
1884.000000	0.269754
1885.000000	0.265901
1886.000000	0.262103
1887.000000	0.258364
1888.000000	0.254291
1889.000000	0.249992
1890.000000	0.246221
1891.000000	0.242726
1892.000000	0.238735
1893.000000	0.234757
1894.000000	0.230545
1895.000000	0.226224
1896.000000	0.221581
1897.000000	0.217584
1898.000000	0.213290
1899.000000	0.209058
1900.000000	0.205226
1901.000000	0.201031
1902.000000	0.197107
1903.000000	0.193661
1904.000000	0.190169
1905.000000	0.186702
1906.000000	0.183310
1907.000000	0.180059
1908.000000	0.176844
1909.000000	0.173821
1910.000000	0.170991
1911.000000	0.168425
1912.000000	0.166077
1913.000000	0.163778
1914.000000	0.161629
1915.000000	0.159570
1916.000000	0.157526
1917.000000	0.155609
1918.000000	0.153829
1919.000000	0.152337
1920.000000	0.150871
1921.000000	0.149708
1922.000000	0.149007
1923.000000	0.148304
1924.000000	0.147499
1925.000000	0.146831
1926.000000	0.146042
1927.000000	0.145324
1928.000000	0.144795
1929.000000	0.144537
1930.000000	0.144206
1931.000000	0.144138
1932.000000	0.144209
1933.000000	0.144178
1934.000000	0.144374
1935.000000	0.144337
1936.000000	0.144171
1937.000000	0.144140
1938.000000	0.143858
1939.000000	0.143638
1940.000000	0.143469
1941.000000	0.143245
1942.000000	0.142798
1943.000000	0.142586
1944.000000	0.142430
1945.000000	0.142197
1946.000000	0.142154
1947.000000	0.142005
1948.000000	0.141554
1949.000000	0.141252
1950.000000	0.140915
1951.000000	0.140436
1952.000000	0.139884
1953.000000	0.139375
1954.000000	0.138938
1955.000000	0.138594
1956.000000	0.138247
1957.000000	0.137970
1958.000000	0.137711
1959.000000	0.137431
1960.000000	0.137160
1961.000000	0.136903
1962.000000	0.136556
1963.000000	0.136057
1964.000000	0.135706
1965.000000	0.135481
1966.000000	0.135296
1967.000000	0.135495
1968.000000	0.135525
1969.000000	0.135517
1970.000000	0.135624
1971.000000	0.135398
1972.000000	0.135160
1973.000000	0.135063
1974.000000	0.135042
1975.000000	0.135078
1976.000000	0.135259
1977.000000	0.135509
1978.000000	0.135720
1979.000000	0.136023
1980.000000	0.136459
1981.000000	0.136917
1982.000000	0.137381
1983.000000	0.137798
1984.000000	0.138186
1985.000000	0.138555
1986.000000	0.138959
1987.000000	0.139375
1988.000000	0.139891
1989.000000	0.140274
1990.000000	0.140740
1991.000000	0.141249
1992.000000	0.141616
1993.000000	0.142208
1994.000000	0.142999
1995.000000	0.143692
1996.000000	0.144554
1997.000000	0.145438
1998.000000	0.146464
1999.000000	0.147305
2000.000000	0.148186
2001.000000	0.148937
2002.000000	0.149498
2003.000000	0.150310
2004.000000	0.151014
2005.000000	0.151623
2006.000000	0.152541
2007.000000	0.153397
2008.000000	0.154389
2009.000000	0.155682
2010.000000	0.156803
2011.000000	0.157781
2012.000000	0.158835
2013.000000	0.159864
2014.000000	0.160804
2015.000000	0.161947
2016.000000	0.162999
2017.000000	0.164000
2018.000000	0.164970
2019.000000	0.165787
2020.000000	0.166514
2021.000000	0.167477
2022.000000	0.168523
2023.000000	0.169636
2024.000000	0.171088
2025.000000	0.172281
2026.000000	0.173401
2027.000000	0.174212
2028.000000	0.174987
2029.000000	0.175774
2030.000000	0.176575
2031.000000	0.177537
2032.000000	0.178432
2033.000000	0.179381
2034.000000	0.180370
2035.000000	0.181456
2036.000000	0.182420
2037.000000	0.183551
2038.000000	0.184557
2039.000000	0.185500
2040.000000	0.186438
2041.000000	0.187361
2042.000000	0.188325
2043.000000	0.189331
2044.000000	0.190207
2045.000000	0.190967
2046.000000	0.191620
2047.000000	0.192393
2048.000000	0.193063
2049.000000	0.193972
2050.000000	0.194865
2051.000000	0.195710
2052.000000	0.196473
2053.000000	0.197241
2054.000000	0.198124
2055.000000	0.199220
2056.000000	0.200005
2057.000000	0.200871
2058.000000	0.201804
2059.000000	0.202348
2060.000000	0.203088
2061.000000	0.203985
2062.000000	0.204757
2063.000000	0.205497
2064.000000	0.206162
2065.000000	0.206953
2066.000000	0.207653
2067.000000	0.208356
2068.000000	0.209312
2069.000000	0.210231
2070.000000	0.210981
2071.000000	0.211693
2072.000000	0.212139
2073.000000	0.212803
2074.000000	0.213650
2075.000000	0.214497
2076.000000	0.215583
2077.000000	0.216505
2078.000000	0.217279
2079.000000	0.218165
2080.000000	0.219180
2081.000000	0.220102
2082.000000	0.221089
2083.000000	0.221946
2084.000000	0.222869
2085.000000	0.223570
2086.000000	0.224153
2087.000000	0.225072
2088.000000	0.225763
2089.000000	0.226415
2090.000000	0.227219
2091.000000	0.228247
2092.000000	0.229062
2093.000000	0.229933
2094.000000	0.230696
2095.000000	0.231236
2096.000000	0.231985
2097.000000	0.232811
2098.000000	0.233411
2099.000000	0.234278
2100.000000	0.235241
2101.000000	0.235923
2102.000000	0.236830
2103.000000	0.237869
2104.000000	0.238714
2105.000000	0.239630
2106.000000	0.240793
2107.000000	0.241595
2108.000000	0.242181
2109.000000	0.242790
2110.000000	0.242989
2111.000000	0.243395
2112.000000	0.243775
2113.000000	0.244055
2114.000000	0.244554
2115.000000	0.245253
2116.000000	0.245748
2117.000000	0.245970
2118.000000	0.246309
2119.000000	0.246635
2120.000000	0.247205
2121.000000	0.248153
2122.000000	0.248795
2123.000000	0.249462
2124.000000	0.250052
2125.000000	0.250504
2126.000000	0.250953
2127.000000	0.251375
2128.000000	0.251843
2129.000000	0.252223
2130.000000	0.252608
2131.000000	0.252943
2132.000000	0.253086
2133.000000	0.253184
2134.000000	0.253384
2135.000000	0.253505
2136.000000	0.253536
2137.000000	0.253612
2138.000000	0.253620
2139.000000	0.253810
2140.000000	0.254084
2141.000000	0.254451
2142.000000	0.255012
2143.000000	0.255137
2144.000000	0.255300
2145.000000	0.255495
2146.000000	0.255502
2147.000000	0.255925
2148.000000	0.256367
2149.000000	0.256586
2150.000000	0.256677
2151.000000	0.256814
2152.000000	0.256669
2153.000000	0.256590
2154.000000	0.256710
2155.000000	0.256961
2156.000000	0.257084
2157.000000	0.257457
2158.000000	0.257649
2159.000000	0.257729
2160.000000	0.257876
2161.000000	0.257887
2162.000000	0.258115
2163.000000	0.258308
2164.000000	0.258506
2165.000000	0.258890
2166.000000	0.259234
2167.000000	0.259482
2168.000000	0.259740
2169.000000	0.259740
2170.000000	0.259814
2171.000000	0.259740
2172.000000	0.259443
2173.000000	0.259284
2174.000000	0.259073
2175.000000	0.258995
2176.000000	0.258813
2177.000000	0.259024
2178.000000	0.259785
2179.000000	0.260176
2180.000000	0.260812
2181.000000	0.261293
2182.000000	0.261024
2183.000000	0.260513
2184.000000	0.260585
2185.000000	0.260450
2186.000000	0.259937
2187.000000	0.260103
2188.000000	0.260092
2189.000000	0.259293
2190.000000	0.259005
2191.000000	0.259089
2192.000000	0.259115
2193.000000	0.259227
2194.000000	0.259430
2195.000000	0.259977
2196.000000	0.260302
2197.000000	0.260489
2198.000000	0.260651
2199.000000	0.260832
2200.000000	0.260918
2201.000000	0.260722
2202.000000	0.260863
2203.000000	0.260956
2204.000000	0.261408
2205.000000	0.260793
2206.000000	0.260394
2207.000000	0.259524
2208.000000	0.258786
2209.000000	0.259660
2210.000000	0.261205
2211.000000	0.262545
2212.000000	0.263331
2213.000000	0.263386
2214.000000	0.262109
2215.000000	0.261691
2216.000000	0.260915
2217.000000	0.260897
2218.000000	0.261593
2219.000000	0.261981
2220.000000	0.262653
2221.000000	0.262942
2222.000000	0.262726
2223.000000	0.262881
2224.000000	0.263005
2225.000000	0.263548
2226.000000	0.263490
2227.000000	0.264350
2228.000000	0.264427
2229.000000	0.263656
2230.000000	0.263399
2231.000000	0.262419
2232.000000	0.261157
2233.000000	0.260404
2234.000000	0.260177
2235.000000	0.260929
2236.000000	0.261525
2237.000000	0.263024
2238.000000	0.263750
2239.000000	0.263907
2240.000000	0.264316
2241.000000	0.265186
2242.000000	0.265284
2243.000000	0.264944
2244.000000	0.264811
2245.000000	0.263657
2246.000000	0.263569
2247.000000	0.264828
2248.000000	0.264830
2249.000000	0.265059
2250.000000	0.264189
2251.000000	0.262281
2252.000000	0.261016
2253.000000	0.259935
2254.000000	0.260081
2255.000000	0.261096
2256.000000	0.261489
2257.000000	0.262375
2258.000000	0.262728
2259.000000	0.261877
2260.000000	0.261455
2261.000000	0.261082
2262.000000	0.260587
2263.000000	0.260188
2264.000000	0.259881
2265.000000	0.259877
2266.000000	0.259919
2267.000000	0.259808
2268.000000	0.260536
2269.000000	0.260254
2270.000000	0.259131
2271.000000	0.258063
2272.000000	0.256001
2273.000000	0.255195
2274.000000	0.255143
2275.000000	0.254950
2276.000000	0.255826
2277.000000	0.255268
2278.000000	0.254453
2279.000000	0.253415
2280.000000	0.251536
2281.000000	0.250717
2282.000000	0.250310
2283.000000	0.249786
2284.000000	0.249571
2285.000000	0.249268
2286.000000	0.248396
2287.000000	0.246774
2288.000000	0.245389
2289.000000	0.243895
2290.000000	0.242545
2291.000000	0.241889
2292.000000	0.240788
2293.000000	0.239687
2294.000000	0.238901
2295.000000	0.237848
2296.000000	0.237426
2297.000000	0.237819
2298.000000	0.237926
2299.000000	0.238194
2300.000000	0.238154
2301.000000	0.238180
2302.000000	0.237487
2303.000000	0.236347
2304.000000	0.235402
2305.000000	0.233577
2306.000000	0.232582
2307.000000	0.231964
2308.000000	0.231706
2309.000000	0.231528
2310.000000	0.232006
2311.000000	0.232590
2312.000000	0.231939
2313.000000	0.230550
2314.000000	0.229133
2315.000000	0.227180
2316.000000	0.225985
2317.000000	0.225628
2318.000000	0.225760
2319.000000	0.225995
2320.000000	0.225769
2321.000000	0.225301
2322.000000	0.224395
2323.000000	0.223247
2324.000000	0.222024
2325.000000	0.221720
2326.000000	0.221521
2327.000000	0.221457
2328.000000	0.221894
2329.000000	0.220334
2330.000000	0.217693
2331.000000	0.215643
2332.000000	0.213991
2333.000000	0.213239
2334.000000	0.213167
2335.000000	0.212613
2336.000000	0.211321
2337.000000	0.210021
2338.000000	0.208116
2339.000000	0.207040
2340.000000	0.206708
2341.000000	0.205752
2342.000000	0.204588
2343.000000	0.203891
2344.000000	0.203069
2345.000000	0.202323
2346.000000	0.202754
2347.000000	0.201982
2348.000000	0.200698
2349.000000	0.198443
2350.000000	0.195808
2351.000000	0.193748
2352.000000	0.192453
2353.000000	0.191818
2354.000000	0.190682
2355.000000	0.190216
2356.000000	0.189262
2357.000000	0.187216
2358.000000	0.185892
2359.000000	0.183913
2360.000000	0.182594
2361.000000	0.182012
2362.000000	0.180249
2363.000000	0.179357
2364.000000	0.177488
2365.000000	0.175079
2366.000000	0.174150
2367.000000	0.173079
2368.000000	0.172386
2369.000000	0.171108
2370.000000	0.170279
2371.000000	0.169957
2372.000000	0.169383
2373.000000	0.169379
2374.000000	0.167668
2375.000000	0.166580
2376.000000	0.166713
2377.000000	0.166327
2378.000000	0.167226
2379.000000	0.167251
2380.000000	0.165160
2381.000000	0.163783
2382.000000	0.162506
2383.000000	0.161235
2384.000000	0.161520
2385.000000	0.160922
2386.000000	0.159068
2387.000000	0.157718
2388.000000	0.154974
2389.000000	0.153275
2390.000000	0.154045
2391.000000	0.153335
2392.000000	0.153788
2393.000000	0.153419
2394.000000	0.151048
2395.000000	0.151384
2396.000000	0.151625
2397.000000	0.152885
2398.000000	0.154165
2399.000000	0.153052
2400.000000	0.152703
2401.000000	0.152709
2402.000000	0.153931
2403.000000	0.155571
2404.000000	0.153902
2405.000000	0.151448
2406.000000	0.149697
2407.000000	0.147689
2408.000000	0.146881
2409.000000	0.145498
2410.000000	0.144430
2411.000000	0.141757
2412.000000	0.139347
2413.000000	0.140357
2414.000000	0.139354
2415.000000	0.138399
2416.000000	0.141216
2417.000000	0.143501
2418.000000	0.144063
2419.000000	0.144462
2420.000000	0.142410
2421.000000	0.140789
2422.000000	0.142523
2423.000000	0.146028
2424.000000	0.149903
2425.000000	0.150577
2426.000000	0.148960
2427.000000	0.150223
2428.000000	0.147727
2429.000000	0.145189
2430.000000	0.145690
2431.000000	0.141648
2432.000000	0.142535
2433.000000	0.145757
2434.000000	0.145775
2435.000000	0.147045
2436.000000	0.146999
2437.000000	0.145082
2438.000000	0.144963
2439.000000	0.144203
2440.000000	0.142298
2441.000000	0.142841
2442.000000	0.140661
2443.000000	0.137560
2444.000000	0.139339
2445.000000	0.140596
2446.000000	0.142602
2447.000000	0.149589
2448.000000	0.152493
2449.000000	0.154440
2450.000000	0.157377
2451.000000	0.153071
2452.000000	0.150696
2453.000000	0.148626
2454.000000	0.143416
2455.000000	0.145411
2456.000000	0.147985
2457.000000	0.145650
2458.000000	0.146760
2459.000000	0.147344
2460.000000	0.146012
2461.000000	0.146446
2462.000000	0.144747
2463.000000	0.143262
2464.000000	0.135766
2465.000000	0.127278
2466.000000	0.127164
2467.000000	0.121771
2468.000000	0.121062
2469.000000	0.121895
2470.000000	0.114143
2471.000000	0.117269
2472.000000	0.120679
2473.000000	0.124694
2474.000000	0.136262
2475.000000	0.138214
2476.000000	0.139871
2477.000000	0.147613
2478.000000	0.151772
2479.000000	0.149912
2480.000000	0.143553
2481.000000	0.139882
2482.000000	0.135600
2483.000000	0.132764
2484.000000	0.136151
2485.000000	0.130596
2486.000000	0.125268
2487.000000	0.134797
2488.000000	0.142778
2489.000000	0.139630
2490.000000	0.130922
2491.000000	0.106489
2492.000000	0.096203
2493.000000	0.101604
2494.000000	0.104322
2495.000000	0.111211
2496.000000	0.113606
2497.000000	0.113145
2498.000000	0.111078
2499.000000	0.108494
2500.000000	0.108974
