# Wavelength	NAu-2-60_HEX-20_FV7-20_000000001.asd.rts.txt
350.000000	0.100481
351.000000	0.099760
352.000000	0.099411
353.000000	0.096332
354.000000	0.091435
355.000000	0.092029
356.000000	0.092284
357.000000	0.092213
358.000000	0.094318
359.000000	0.091939
360.000000	0.089699
361.000000	0.092825
362.000000	0.092896
363.000000	0.090815
364.000000	0.088418
365.000000	0.088599
366.000000	0.088895
367.000000	0.088916
368.000000	0.090326
369.000000	0.088870
370.000000	0.087252
371.000000	0.089410
372.000000	0.090505
373.000000	0.091474
374.000000	0.092940
375.000000	0.091986
376.000000	0.092012
377.000000	0.093124
378.000000	0.092310
379.000000	0.092815
380.000000	0.093322
381.000000	0.091945
382.000000	0.092179
383.000000	0.093373
384.000000	0.094362
385.000000	0.093448
386.000000	0.093124
387.000000	0.093817
388.000000	0.093570
389.000000	0.094344
390.000000	0.095430
391.000000	0.095267
392.000000	0.095089
393.000000	0.094968
394.000000	0.094914
395.000000	0.095364
396.000000	0.096018
397.000000	0.096392
398.000000	0.095568
399.000000	0.095436
400.000000	0.095970
401.000000	0.096302
402.000000	0.096943
403.000000	0.097270
404.000000	0.097019
405.000000	0.097892
406.000000	0.098315
407.000000	0.097885
408.000000	0.098209
409.000000	0.098772
410.000000	0.099053
411.000000	0.098455
412.000000	0.098687
413.000000	0.099147
414.000000	0.099011
415.000000	0.099431
416.000000	0.099873
417.000000	0.100072
418.000000	0.100637
419.000000	0.101018
420.000000	0.101165
421.000000	0.101424
422.000000	0.101804
423.000000	0.102222
424.000000	0.102587
425.000000	0.102882
426.000000	0.103160
427.000000	0.103470
428.000000	0.103831
429.000000	0.104210
430.000000	0.104611
431.000000	0.105108
432.000000	0.105321
433.000000	0.105431
434.000000	0.105900
435.000000	0.106140
436.000000	0.106353
437.000000	0.106753
438.000000	0.106940
439.000000	0.107081
440.000000	0.107321
441.000000	0.107578
442.000000	0.107836
443.000000	0.108123
444.000000	0.108575
445.000000	0.108722
446.000000	0.108888
447.000000	0.109442
448.000000	0.109893
449.000000	0.110348
450.000000	0.110860
451.000000	0.111083
452.000000	0.111473
453.000000	0.112050
454.000000	0.112440
455.000000	0.112797
456.000000	0.113218
457.000000	0.113699
458.000000	0.114097
459.000000	0.114434
460.000000	0.114779
461.000000	0.115123
462.000000	0.115542
463.000000	0.115978
464.000000	0.116370
465.000000	0.116784
466.000000	0.117127
467.000000	0.117270
468.000000	0.117632
469.000000	0.118083
470.000000	0.118458
471.000000	0.118874
472.000000	0.119230
473.000000	0.119512
474.000000	0.119924
475.000000	0.120340
476.000000	0.120736
477.000000	0.121009
478.000000	0.121269
479.000000	0.121633
480.000000	0.122040
481.000000	0.122408
482.000000	0.122709
483.000000	0.122882
484.000000	0.123279
485.000000	0.123575
486.000000	0.123729
487.000000	0.123944
488.000000	0.124240
489.000000	0.124580
490.000000	0.124863
491.000000	0.125099
492.000000	0.125246
493.000000	0.125226
494.000000	0.125316
495.000000	0.125491
496.000000	0.125674
497.000000	0.125845
498.000000	0.125913
499.000000	0.125933
500.000000	0.126050
501.000000	0.126163
502.000000	0.126272
503.000000	0.126383
504.000000	0.126580
505.000000	0.126784
506.000000	0.126930
507.000000	0.127160
508.000000	0.127478
509.000000	0.127837
510.000000	0.128168
511.000000	0.128471
512.000000	0.128776
513.000000	0.129118
514.000000	0.129547
515.000000	0.129990
516.000000	0.130328
517.000000	0.130768
518.000000	0.131204
519.000000	0.131533
520.000000	0.131999
521.000000	0.132501
522.000000	0.133005
523.000000	0.133568
524.000000	0.134147
525.000000	0.134797
526.000000	0.135645
527.000000	0.136505
528.000000	0.137411
529.000000	0.138454
530.000000	0.139562
531.000000	0.140757
532.000000	0.142007
533.000000	0.143313
534.000000	0.144687
535.000000	0.146095
536.000000	0.147475
537.000000	0.148821
538.000000	0.150147
539.000000	0.151466
540.000000	0.152734
541.000000	0.153961
542.000000	0.155167
543.000000	0.156269
544.000000	0.157361
545.000000	0.158458
546.000000	0.159552
547.000000	0.160670
548.000000	0.161852
549.000000	0.163103
550.000000	0.164387
551.000000	0.165746
552.000000	0.167204
553.000000	0.168720
554.000000	0.170326
555.000000	0.172044
556.000000	0.173828
557.000000	0.175650
558.000000	0.177557
559.000000	0.179459
560.000000	0.181357
561.000000	0.183288
562.000000	0.185212
563.000000	0.187103
564.000000	0.188951
565.000000	0.190686
566.000000	0.192386
567.000000	0.194019
568.000000	0.195541
569.000000	0.196937
570.000000	0.198251
571.000000	0.199477
572.000000	0.200583
573.000000	0.201555
574.000000	0.202405
575.000000	0.203192
576.000000	0.203880
577.000000	0.204472
578.000000	0.205006
579.000000	0.205409
580.000000	0.205736
581.000000	0.206015
582.000000	0.206238
583.000000	0.206374
584.000000	0.206436
585.000000	0.206459
586.000000	0.206344
587.000000	0.206138
588.000000	0.205916
589.000000	0.205650
590.000000	0.205335
591.000000	0.204970
592.000000	0.204543
593.000000	0.204078
594.000000	0.203587
595.000000	0.203073
596.000000	0.202497
597.000000	0.201905
598.000000	0.201301
599.000000	0.200666
600.000000	0.200049
601.000000	0.199434
602.000000	0.198794
603.000000	0.198153
604.000000	0.197503
605.000000	0.196759
606.000000	0.196043
607.000000	0.195354
608.000000	0.194611
609.000000	0.193897
610.000000	0.193230
611.000000	0.192597
612.000000	0.191940
613.000000	0.191303
614.000000	0.190723
615.000000	0.190089
616.000000	0.189480
617.000000	0.188897
618.000000	0.188338
619.000000	0.187819
620.000000	0.187313
621.000000	0.186822
622.000000	0.186373
623.000000	0.185935
624.000000	0.185477
625.000000	0.184996
626.000000	0.184568
627.000000	0.184199
628.000000	0.183783
629.000000	0.183456
630.000000	0.183123
631.000000	0.182745
632.000000	0.182477
633.000000	0.182255
634.000000	0.181992
635.000000	0.181807
636.000000	0.181653
637.000000	0.181486
638.000000	0.181327
639.000000	0.181223
640.000000	0.181179
641.000000	0.181057
642.000000	0.180977
643.000000	0.180945
644.000000	0.180939
645.000000	0.180964
646.000000	0.181025
647.000000	0.181106
648.000000	0.181207
649.000000	0.181361
650.000000	0.181562
651.000000	0.181796
652.000000	0.182022
653.000000	0.182262
654.000000	0.182525
655.000000	0.182858
656.000000	0.183245
657.000000	0.183629
658.000000	0.184038
659.000000	0.184472
660.000000	0.184933
661.000000	0.185460
662.000000	0.185971
663.000000	0.186514
664.000000	0.187145
665.000000	0.187778
666.000000	0.188433
667.000000	0.189124
668.000000	0.189839
669.000000	0.190590
670.000000	0.191388
671.000000	0.192234
672.000000	0.193127
673.000000	0.194065
674.000000	0.195067
675.000000	0.196035
676.000000	0.197011
677.000000	0.198074
678.000000	0.199154
679.000000	0.200256
680.000000	0.201398
681.000000	0.202561
682.000000	0.203791
683.000000	0.205052
684.000000	0.206372
685.000000	0.207729
686.000000	0.209134
687.000000	0.210569
688.000000	0.212026
689.000000	0.213521
690.000000	0.215092
691.000000	0.216707
692.000000	0.218336
693.000000	0.220019
694.000000	0.221754
695.000000	0.223491
696.000000	0.225262
697.000000	0.227122
698.000000	0.228969
699.000000	0.230833
700.000000	0.232756
701.000000	0.234706
702.000000	0.236698
703.000000	0.238719
704.000000	0.240752
705.000000	0.242878
706.000000	0.245042
707.000000	0.247206
708.000000	0.249431
709.000000	0.251681
710.000000	0.253946
711.000000	0.256264
712.000000	0.258596
713.000000	0.260938
714.000000	0.263299
715.000000	0.265642
716.000000	0.267979
717.000000	0.270325
718.000000	0.272733
719.000000	0.275152
720.000000	0.277551
721.000000	0.279967
722.000000	0.282388
723.000000	0.284860
724.000000	0.287337
725.000000	0.289772
726.000000	0.292236
727.000000	0.294697
728.000000	0.297144
729.000000	0.299600
730.000000	0.302036
731.000000	0.304502
732.000000	0.306952
733.000000	0.309388
734.000000	0.311760
735.000000	0.314070
736.000000	0.316428
737.000000	0.318716
738.000000	0.320933
739.000000	0.323159
740.000000	0.325287
741.000000	0.327435
742.000000	0.329584
743.000000	0.331689
744.000000	0.333765
745.000000	0.335754
746.000000	0.337706
747.000000	0.339602
748.000000	0.341499
749.000000	0.343382
750.000000	0.345196
751.000000	0.346932
752.000000	0.348661
753.000000	0.350386
754.000000	0.352024
755.000000	0.353634
756.000000	0.355217
757.000000	0.356712
758.000000	0.358162
759.000000	0.359586
760.000000	0.360913
761.000000	0.362212
762.000000	0.363482
763.000000	0.364695
764.000000	0.365890
765.000000	0.367011
766.000000	0.368076
767.000000	0.369107
768.000000	0.370124
769.000000	0.371086
770.000000	0.371996
771.000000	0.372907
772.000000	0.373791
773.000000	0.374583
774.000000	0.375363
775.000000	0.376039
776.000000	0.376677
777.000000	0.377320
778.000000	0.377991
779.000000	0.378648
780.000000	0.379260
781.000000	0.379779
782.000000	0.380288
783.000000	0.380892
784.000000	0.381450
785.000000	0.381886
786.000000	0.382278
787.000000	0.382658
788.000000	0.382972
789.000000	0.383296
790.000000	0.383612
791.000000	0.383911
792.000000	0.384169
793.000000	0.384379
794.000000	0.384556
795.000000	0.384740
796.000000	0.384916
797.000000	0.385069
798.000000	0.385198
799.000000	0.385352
800.000000	0.385525
801.000000	0.385704
802.000000	0.385904
803.000000	0.386053
804.000000	0.386152
805.000000	0.386186
806.000000	0.386141
807.000000	0.386114
808.000000	0.386065
809.000000	0.386064
810.000000	0.386063
811.000000	0.386005
812.000000	0.385927
813.000000	0.385880
814.000000	0.385854
815.000000	0.385809
816.000000	0.385730
817.000000	0.385644
818.000000	0.385497
819.000000	0.385438
820.000000	0.385389
821.000000	0.385268
822.000000	0.385192
823.000000	0.385123
824.000000	0.384987
825.000000	0.384855
826.000000	0.384734
827.000000	0.384608
828.000000	0.384508
829.000000	0.384378
830.000000	0.384130
831.000000	0.383856
832.000000	0.383538
833.000000	0.383279
834.000000	0.383024
835.000000	0.382767
836.000000	0.382521
837.000000	0.382309
838.000000	0.382151
839.000000	0.382006
840.000000	0.381840
841.000000	0.381661
842.000000	0.381436
843.000000	0.381200
844.000000	0.380942
845.000000	0.380636
846.000000	0.380336
847.000000	0.380107
848.000000	0.379887
849.000000	0.379626
850.000000	0.379303
851.000000	0.378989
852.000000	0.378763
853.000000	0.378583
854.000000	0.378324
855.000000	0.378129
856.000000	0.377959
857.000000	0.377673
858.000000	0.377441
859.000000	0.377222
860.000000	0.376908
861.000000	0.376586
862.000000	0.376282
863.000000	0.375916
864.000000	0.375594
865.000000	0.375319
866.000000	0.375083
867.000000	0.374769
868.000000	0.374464
869.000000	0.374139
870.000000	0.373856
871.000000	0.373522
872.000000	0.373149
873.000000	0.372715
874.000000	0.372379
875.000000	0.372038
876.000000	0.371690
877.000000	0.371292
878.000000	0.370866
879.000000	0.370548
880.000000	0.370241
881.000000	0.370000
882.000000	0.369681
883.000000	0.369344
884.000000	0.369043
885.000000	0.368724
886.000000	0.368354
887.000000	0.367971
888.000000	0.367641
889.000000	0.367257
890.000000	0.366794
891.000000	0.366507
892.000000	0.366208
893.000000	0.365853
894.000000	0.365558
895.000000	0.365201
896.000000	0.364819
897.000000	0.364447
898.000000	0.364107
899.000000	0.363734
900.000000	0.363362
901.000000	0.363001
902.000000	0.362786
903.000000	0.362521
904.000000	0.362266
905.000000	0.362007
906.000000	0.361801
907.000000	0.361553
908.000000	0.361264
909.000000	0.360825
910.000000	0.360413
911.000000	0.360058
912.000000	0.359754
913.000000	0.359403
914.000000	0.359086
915.000000	0.358869
916.000000	0.358600
917.000000	0.358261
918.000000	0.357948
919.000000	0.357692
920.000000	0.357422
921.000000	0.357097
922.000000	0.356743
923.000000	0.356391
924.000000	0.356070
925.000000	0.355791
926.000000	0.355559
927.000000	0.355240
928.000000	0.354959
929.000000	0.354659
930.000000	0.354258
931.000000	0.353844
932.000000	0.353429
933.000000	0.353087
934.000000	0.352825
935.000000	0.352523
936.000000	0.352257
937.000000	0.351986
938.000000	0.351703
939.000000	0.351518
940.000000	0.351330
941.000000	0.351097
942.000000	0.350685
943.000000	0.350394
944.000000	0.350213
945.000000	0.349989
946.000000	0.349791
947.000000	0.349611
948.000000	0.349348
949.000000	0.349052
950.000000	0.348743
951.000000	0.348427
952.000000	0.348230
953.000000	0.347997
954.000000	0.347758
955.000000	0.347457
956.000000	0.347037
957.000000	0.346734
958.000000	0.346532
959.000000	0.346426
960.000000	0.346218
961.000000	0.345976
962.000000	0.345718
963.000000	0.345452
964.000000	0.345264
965.000000	0.345095
966.000000	0.344796
967.000000	0.344690
968.000000	0.344459
969.000000	0.344144
970.000000	0.344058
971.000000	0.343874
972.000000	0.343711
973.000000	0.343534
974.000000	0.343304
975.000000	0.343145
976.000000	0.343101
977.000000	0.343124
978.000000	0.343008
979.000000	0.342971
980.000000	0.342812
981.000000	0.342712
982.000000	0.342554
983.000000	0.342340
984.000000	0.342214
985.000000	0.342255
986.000000	0.342169
987.000000	0.342008
988.000000	0.341771
989.000000	0.341661
990.000000	0.341517
991.000000	0.341468
992.000000	0.341661
993.000000	0.341552
994.000000	0.341406
995.000000	0.341469
996.000000	0.341468
997.000000	0.341318
998.000000	0.341267
999.000000	0.341421
1000.000000	0.341328
1001.000000	0.341356
1002.000000	0.341360
1003.000000	0.341300
1004.000000	0.341145
1005.000000	0.340897
1006.000000	0.340681
1007.000000	0.340336
1008.000000	0.340340
1009.000000	0.340405
1010.000000	0.340489
1011.000000	0.340935
1012.000000	0.341226
1013.000000	0.341072
1014.000000	0.341056
1015.000000	0.340865
1016.000000	0.340629
1017.000000	0.340619
1018.000000	0.340814
1019.000000	0.341019
1020.000000	0.341616
1021.000000	0.341367
1022.000000	0.340843
1023.000000	0.340975
1024.000000	0.340844
1025.000000	0.341019
1026.000000	0.341566
1027.000000	0.341838
1028.000000	0.341851
1029.000000	0.341909
1030.000000	0.341992
1031.000000	0.342016
1032.000000	0.342182
1033.000000	0.342312
1034.000000	0.342436
1035.000000	0.342653
1036.000000	0.342820
1037.000000	0.342968
1038.000000	0.343008
1039.000000	0.343058
1040.000000	0.343252
1041.000000	0.343573
1042.000000	0.343539
1043.000000	0.343601
1044.000000	0.343846
1045.000000	0.343953
1046.000000	0.344099
1047.000000	0.344305
1048.000000	0.344617
1049.000000	0.344769
1050.000000	0.344860
1051.000000	0.344970
1052.000000	0.344884
1053.000000	0.344962
1054.000000	0.345371
1055.000000	0.345694
1056.000000	0.346070
1057.000000	0.346584
1058.000000	0.346813
1059.000000	0.346722
1060.000000	0.346923
1061.000000	0.347286
1062.000000	0.347694
1063.000000	0.348261
1064.000000	0.348592
1065.000000	0.348668
1066.000000	0.348888
1067.000000	0.349035
1068.000000	0.349215
1069.000000	0.349351
1070.000000	0.349640
1071.000000	0.350174
1072.000000	0.350439
1073.000000	0.350723
1074.000000	0.351018
1075.000000	0.351111
1076.000000	0.351274
1077.000000	0.351501
1078.000000	0.351766
1079.000000	0.351966
1080.000000	0.352111
1081.000000	0.352321
1082.000000	0.352695
1083.000000	0.352936
1084.000000	0.353126
1085.000000	0.353438
1086.000000	0.353738
1087.000000	0.354051
1088.000000	0.354327
1089.000000	0.354659
1090.000000	0.355027
1091.000000	0.355255
1092.000000	0.355495
1093.000000	0.355911
1094.000000	0.356134
1095.000000	0.356085
1096.000000	0.356308
1097.000000	0.356599
1098.000000	0.356938
1099.000000	0.357327
1100.000000	0.357744
1101.000000	0.358205
1102.000000	0.358522
1103.000000	0.358731
1104.000000	0.359048
1105.000000	0.359406
1106.000000	0.359630
1107.000000	0.359736
1108.000000	0.359892
1109.000000	0.360016
1110.000000	0.360097
1111.000000	0.360355
1112.000000	0.360797
1113.000000	0.361160
1114.000000	0.361594
1115.000000	0.361923
1116.000000	0.362296
1117.000000	0.362497
1118.000000	0.362469
1119.000000	0.362580
1120.000000	0.362656
1121.000000	0.362775
1122.000000	0.363121
1123.000000	0.363546
1124.000000	0.363708
1125.000000	0.363956
1126.000000	0.364224
1127.000000	0.364376
1128.000000	0.364472
1129.000000	0.364543
1130.000000	0.364689
1131.000000	0.364766
1132.000000	0.364947
1133.000000	0.365328
1134.000000	0.365590
1135.000000	0.365798
1136.000000	0.365963
1137.000000	0.366100
1138.000000	0.366144
1139.000000	0.366153
1140.000000	0.366326
1141.000000	0.366480
1142.000000	0.366620
1143.000000	0.366793
1144.000000	0.367030
1145.000000	0.367044
1146.000000	0.366984
1147.000000	0.367039
1148.000000	0.367020
1149.000000	0.367068
1150.000000	0.367185
1151.000000	0.367325
1152.000000	0.367419
1153.000000	0.367557
1154.000000	0.367687
1155.000000	0.367827
1156.000000	0.367981
1157.000000	0.368154
1158.000000	0.368300
1159.000000	0.368459
1160.000000	0.368623
1161.000000	0.368761
1162.000000	0.368910
1163.000000	0.369275
1164.000000	0.369517
1165.000000	0.369659
1166.000000	0.369814
1167.000000	0.369861
1168.000000	0.369971
1169.000000	0.370098
1170.000000	0.370286
1171.000000	0.370623
1172.000000	0.370857
1173.000000	0.370994
1174.000000	0.371184
1175.000000	0.371348
1176.000000	0.371458
1177.000000	0.371685
1178.000000	0.371857
1179.000000	0.371942
1180.000000	0.371984
1181.000000	0.372114
1182.000000	0.372188
1183.000000	0.372293
1184.000000	0.372525
1185.000000	0.372659
1186.000000	0.372803
1187.000000	0.372907
1188.000000	0.372941
1189.000000	0.372981
1190.000000	0.373072
1191.000000	0.373175
1192.000000	0.373392
1193.000000	0.373653
1194.000000	0.373807
1195.000000	0.373989
1196.000000	0.374120
1197.000000	0.374259
1198.000000	0.374444
1199.000000	0.374616
1200.000000	0.374757
1201.000000	0.374912
1202.000000	0.375059
1203.000000	0.375219
1204.000000	0.375357
1205.000000	0.375526
1206.000000	0.375633
1207.000000	0.375823
1208.000000	0.375944
1209.000000	0.376089
1210.000000	0.376217
1211.000000	0.376329
1212.000000	0.376437
1213.000000	0.376576
1214.000000	0.376743
1215.000000	0.376904
1216.000000	0.377052
1217.000000	0.377171
1218.000000	0.377275
1219.000000	0.377375
1220.000000	0.377550
1221.000000	0.377694
1222.000000	0.377844
1223.000000	0.378014
1224.000000	0.378142
1225.000000	0.378259
1226.000000	0.378471
1227.000000	0.378606
1228.000000	0.378730
1229.000000	0.378828
1230.000000	0.378843
1231.000000	0.378895
1232.000000	0.379124
1233.000000	0.379377
1234.000000	0.379638
1235.000000	0.379846
1236.000000	0.379925
1237.000000	0.380120
1238.000000	0.380282
1239.000000	0.380455
1240.000000	0.380688
1241.000000	0.380877
1242.000000	0.381063
1243.000000	0.381255
1244.000000	0.381390
1245.000000	0.381604
1246.000000	0.381721
1247.000000	0.381868
1248.000000	0.382093
1249.000000	0.382268
1250.000000	0.382413
1251.000000	0.382562
1252.000000	0.382692
1253.000000	0.382807
1254.000000	0.382957
1255.000000	0.383150
1256.000000	0.383285
1257.000000	0.383420
1258.000000	0.383600
1259.000000	0.383658
1260.000000	0.383847
1261.000000	0.384037
1262.000000	0.384237
1263.000000	0.384507
1264.000000	0.384774
1265.000000	0.384988
1266.000000	0.385219
1267.000000	0.385395
1268.000000	0.385480
1269.000000	0.385546
1270.000000	0.385721
1271.000000	0.385846
1272.000000	0.386014
1273.000000	0.386269
1274.000000	0.386401
1275.000000	0.386536
1276.000000	0.386710
1277.000000	0.386919
1278.000000	0.387009
1279.000000	0.387093
1280.000000	0.387096
1281.000000	0.387123
1282.000000	0.387176
1283.000000	0.387354
1284.000000	0.387548
1285.000000	0.387688
1286.000000	0.387801
1287.000000	0.387902
1288.000000	0.388047
1289.000000	0.388175
1290.000000	0.388261
1291.000000	0.388335
1292.000000	0.388432
1293.000000	0.388561
1294.000000	0.388672
1295.000000	0.388835
1296.000000	0.388927
1297.000000	0.388950
1298.000000	0.389056
1299.000000	0.389165
1300.000000	0.389317
1301.000000	0.389443
1302.000000	0.389477
1303.000000	0.389594
1304.000000	0.389642
1305.000000	0.389731
1306.000000	0.389790
1307.000000	0.389920
1308.000000	0.390018
1309.000000	0.390067
1310.000000	0.390101
1311.000000	0.390157
1312.000000	0.390137
1313.000000	0.390124
1314.000000	0.390130
1315.000000	0.390114
1316.000000	0.390166
1317.000000	0.390223
1318.000000	0.390264
1319.000000	0.390250
1320.000000	0.390260
1321.000000	0.390192
1322.000000	0.390062
1323.000000	0.390013
1324.000000	0.389986
1325.000000	0.389950
1326.000000	0.389942
1327.000000	0.389943
1328.000000	0.389977
1329.000000	0.389925
1330.000000	0.389876
1331.000000	0.389837
1332.000000	0.389828
1333.000000	0.389773
1334.000000	0.389762
1335.000000	0.389786
1336.000000	0.389770
1337.000000	0.389763
1338.000000	0.389756
1339.000000	0.389704
1340.000000	0.389578
1341.000000	0.389526
1342.000000	0.389478
1343.000000	0.389459
1344.000000	0.389456
1345.000000	0.389383
1346.000000	0.389372
1347.000000	0.389184
1348.000000	0.389077
1349.000000	0.388986
1350.000000	0.388863
1351.000000	0.388777
1352.000000	0.388635
1353.000000	0.388472
1354.000000	0.388388
1355.000000	0.388249
1356.000000	0.388172
1357.000000	0.388058
1358.000000	0.387913
1359.000000	0.387772
1360.000000	0.387641
1361.000000	0.387554
1362.000000	0.387448
1363.000000	0.387318
1364.000000	0.387240
1365.000000	0.387166
1366.000000	0.387076
1367.000000	0.387007
1368.000000	0.386860
1369.000000	0.386802
1370.000000	0.386606
1371.000000	0.386299
1372.000000	0.386005
1373.000000	0.385667
1374.000000	0.385286
1375.000000	0.384921
1376.000000	0.384666
1377.000000	0.384326
1378.000000	0.383899
1379.000000	0.383340
1380.000000	0.382656
1381.000000	0.381886
1382.000000	0.381038
1383.000000	0.380243
1384.000000	0.379264
1385.000000	0.378147
1386.000000	0.377081
1387.000000	0.375877
1388.000000	0.374563
1389.000000	0.373233
1390.000000	0.371779
1391.000000	0.370152
1392.000000	0.368508
1393.000000	0.366707
1394.000000	0.364770
1395.000000	0.362851
1396.000000	0.360884
1397.000000	0.358786
1398.000000	0.356557
1399.000000	0.354415
1400.000000	0.352138
1401.000000	0.349978
1402.000000	0.347944
1403.000000	0.345912
1404.000000	0.344000
1405.000000	0.342159
1406.000000	0.340450
1407.000000	0.338932
1408.000000	0.337436
1409.000000	0.336164
1410.000000	0.335062
1411.000000	0.334011
1412.000000	0.333112
1413.000000	0.332339
1414.000000	0.331668
1415.000000	0.331101
1416.000000	0.330595
1417.000000	0.330153
1418.000000	0.329702
1419.000000	0.329371
1420.000000	0.329019
1421.000000	0.328742
1422.000000	0.328516
1423.000000	0.328302
1424.000000	0.327993
1425.000000	0.327728
1426.000000	0.327471
1427.000000	0.327242
1428.000000	0.327044
1429.000000	0.326832
1430.000000	0.326678
1431.000000	0.326540
1432.000000	0.326406
1433.000000	0.326373
1434.000000	0.326294
1435.000000	0.326246
1436.000000	0.326245
1437.000000	0.326229
1438.000000	0.326285
1439.000000	0.326400
1440.000000	0.326650
1441.000000	0.326987
1442.000000	0.327477
1443.000000	0.328036
1444.000000	0.328711
1445.000000	0.329481
1446.000000	0.330288
1447.000000	0.331179
1448.000000	0.332077
1449.000000	0.332959
1450.000000	0.333865
1451.000000	0.334713
1452.000000	0.335466
1453.000000	0.336186
1454.000000	0.336777
1455.000000	0.337297
1456.000000	0.337864
1457.000000	0.338396
1458.000000	0.338893
1459.000000	0.339362
1460.000000	0.339766
1461.000000	0.340097
1462.000000	0.340400
1463.000000	0.340665
1464.000000	0.340936
1465.000000	0.341306
1466.000000	0.341698
1467.000000	0.342142
1468.000000	0.342625
1469.000000	0.343120
1470.000000	0.343545
1471.000000	0.344020
1472.000000	0.344496
1473.000000	0.345050
1474.000000	0.345606
1475.000000	0.346175
1476.000000	0.346786
1477.000000	0.347385
1478.000000	0.347981
1479.000000	0.348531
1480.000000	0.349053
1481.000000	0.349576
1482.000000	0.350108
1483.000000	0.350706
1484.000000	0.351379
1485.000000	0.351980
1486.000000	0.352578
1487.000000	0.353147
1488.000000	0.353659
1489.000000	0.354227
1490.000000	0.354691
1491.000000	0.355213
1492.000000	0.355727
1493.000000	0.356236
1494.000000	0.356712
1495.000000	0.357142
1496.000000	0.357522
1497.000000	0.357940
1498.000000	0.358369
1499.000000	0.358769
1500.000000	0.359217
1501.000000	0.359619
1502.000000	0.359964
1503.000000	0.360394
1504.000000	0.360828
1505.000000	0.361220
1506.000000	0.361639
1507.000000	0.361997
1508.000000	0.362366
1509.000000	0.362772
1510.000000	0.363114
1511.000000	0.363498
1512.000000	0.363893
1513.000000	0.364235
1514.000000	0.364626
1515.000000	0.364936
1516.000000	0.365179
1517.000000	0.365390
1518.000000	0.365595
1519.000000	0.365740
1520.000000	0.365938
1521.000000	0.366117
1522.000000	0.366314
1523.000000	0.366583
1524.000000	0.366747
1525.000000	0.366949
1526.000000	0.367121
1527.000000	0.367259
1528.000000	0.367541
1529.000000	0.367791
1530.000000	0.367966
1531.000000	0.368269
1532.000000	0.368510
1533.000000	0.368685
1534.000000	0.368944
1535.000000	0.369196
1536.000000	0.369350
1537.000000	0.369589
1538.000000	0.369829
1539.000000	0.369944
1540.000000	0.370106
1541.000000	0.370348
1542.000000	0.370525
1543.000000	0.370689
1544.000000	0.370842
1545.000000	0.370964
1546.000000	0.371065
1547.000000	0.371150
1548.000000	0.371245
1549.000000	0.371336
1550.000000	0.371417
1551.000000	0.371513
1552.000000	0.371650
1553.000000	0.371758
1554.000000	0.371867
1555.000000	0.372044
1556.000000	0.372198
1557.000000	0.372308
1558.000000	0.372459
1559.000000	0.372564
1560.000000	0.372648
1561.000000	0.372775
1562.000000	0.372858
1563.000000	0.372964
1564.000000	0.373033
1565.000000	0.373060
1566.000000	0.373042
1567.000000	0.373087
1568.000000	0.373139
1569.000000	0.373272
1570.000000	0.373391
1571.000000	0.373484
1572.000000	0.373575
1573.000000	0.373687
1574.000000	0.373795
1575.000000	0.373935
1576.000000	0.374080
1577.000000	0.374225
1578.000000	0.374307
1579.000000	0.374439
1580.000000	0.374518
1581.000000	0.374619
1582.000000	0.374668
1583.000000	0.374659
1584.000000	0.374633
1585.000000	0.374669
1586.000000	0.374721
1587.000000	0.374764
1588.000000	0.374807
1589.000000	0.374862
1590.000000	0.374925
1591.000000	0.375034
1592.000000	0.375145
1593.000000	0.375318
1594.000000	0.375389
1595.000000	0.375460
1596.000000	0.375531
1597.000000	0.375591
1598.000000	0.375644
1599.000000	0.375733
1600.000000	0.375782
1601.000000	0.375883
1602.000000	0.375965
1603.000000	0.376094
1604.000000	0.376181
1605.000000	0.376289
1606.000000	0.376337
1607.000000	0.376415
1608.000000	0.376440
1609.000000	0.376451
1610.000000	0.376449
1611.000000	0.376442
1612.000000	0.376459
1613.000000	0.376618
1614.000000	0.376650
1615.000000	0.376700
1616.000000	0.376799
1617.000000	0.376784
1618.000000	0.376835
1619.000000	0.376941
1620.000000	0.377015
1621.000000	0.377111
1622.000000	0.377277
1623.000000	0.377440
1624.000000	0.377574
1625.000000	0.377556
1626.000000	0.377564
1627.000000	0.377597
1628.000000	0.377663
1629.000000	0.377725
1630.000000	0.377826
1631.000000	0.377858
1632.000000	0.377895
1633.000000	0.377964
1634.000000	0.378063
1635.000000	0.378238
1636.000000	0.378355
1637.000000	0.378514
1638.000000	0.378598
1639.000000	0.378655
1640.000000	0.378756
1641.000000	0.378958
1642.000000	0.379091
1643.000000	0.379247
1644.000000	0.379389
1645.000000	0.379491
1646.000000	0.379561
1647.000000	0.379706
1648.000000	0.379725
1649.000000	0.379730
1650.000000	0.379813
1651.000000	0.379913
1652.000000	0.380071
1653.000000	0.380261
1654.000000	0.380427
1655.000000	0.380539
1656.000000	0.380555
1657.000000	0.380602
1658.000000	0.380651
1659.000000	0.380782
1660.000000	0.380898
1661.000000	0.380930
1662.000000	0.380991
1663.000000	0.380992
1664.000000	0.381036
1665.000000	0.381106
1666.000000	0.381253
1667.000000	0.381326
1668.000000	0.381448
1669.000000	0.381605
1670.000000	0.381683
1671.000000	0.381875
1672.000000	0.382059
1673.000000	0.382194
1674.000000	0.382276
1675.000000	0.382448
1676.000000	0.382572
1677.000000	0.382631
1678.000000	0.382705
1679.000000	0.382749
1680.000000	0.382743
1681.000000	0.382782
1682.000000	0.382813
1683.000000	0.382831
1684.000000	0.382832
1685.000000	0.382863
1686.000000	0.382896
1687.000000	0.382944
1688.000000	0.382967
1689.000000	0.382992
1690.000000	0.382938
1691.000000	0.382954
1692.000000	0.382914
1693.000000	0.382862
1694.000000	0.382881
1695.000000	0.382957
1696.000000	0.382907
1697.000000	0.382840
1698.000000	0.382759
1699.000000	0.382766
1700.000000	0.382855
1701.000000	0.383014
1702.000000	0.383035
1703.000000	0.383018
1704.000000	0.383119
1705.000000	0.383152
1706.000000	0.383174
1707.000000	0.383211
1708.000000	0.383184
1709.000000	0.383111
1710.000000	0.383160
1711.000000	0.383176
1712.000000	0.383180
1713.000000	0.383164
1714.000000	0.383177
1715.000000	0.383184
1716.000000	0.383180
1717.000000	0.383191
1718.000000	0.383169
1719.000000	0.383156
1720.000000	0.383250
1721.000000	0.383244
1722.000000	0.383169
1723.000000	0.383179
1724.000000	0.383205
1725.000000	0.383276
1726.000000	0.383351
1727.000000	0.383379
1728.000000	0.383313
1729.000000	0.383197
1730.000000	0.383177
1731.000000	0.383170
1732.000000	0.383169
1733.000000	0.383221
1734.000000	0.383157
1735.000000	0.383151
1736.000000	0.383112
1737.000000	0.383097
1738.000000	0.383133
1739.000000	0.383182
1740.000000	0.383243
1741.000000	0.383209
1742.000000	0.383172
1743.000000	0.383198
1744.000000	0.383155
1745.000000	0.383102
1746.000000	0.383095
1747.000000	0.383005
1748.000000	0.382898
1749.000000	0.382884
1750.000000	0.382784
1751.000000	0.382743
1752.000000	0.382826
1753.000000	0.382761
1754.000000	0.382752
1755.000000	0.382816
1756.000000	0.382776
1757.000000	0.382652
1758.000000	0.382617
1759.000000	0.382541
1760.000000	0.382498
1761.000000	0.382510
1762.000000	0.382466
1763.000000	0.382404
1764.000000	0.382359
1765.000000	0.382267
1766.000000	0.382213
1767.000000	0.382110
1768.000000	0.381934
1769.000000	0.381804
1770.000000	0.381771
1771.000000	0.381689
1772.000000	0.381627
1773.000000	0.381579
1774.000000	0.381546
1775.000000	0.381571
1776.000000	0.381575
1777.000000	0.381583
1778.000000	0.381550
1779.000000	0.381439
1780.000000	0.381408
1781.000000	0.381362
1782.000000	0.381332
1783.000000	0.381382
1784.000000	0.381434
1785.000000	0.381400
1786.000000	0.381381
1787.000000	0.381478
1788.000000	0.381597
1789.000000	0.381594
1790.000000	0.381557
1791.000000	0.381493
1792.000000	0.381459
1793.000000	0.381445
1794.000000	0.381492
1795.000000	0.381555
1796.000000	0.381625
1797.000000	0.381646
1798.000000	0.381645
1799.000000	0.381634
1800.000000	0.381649
1801.000000	0.381600
1802.000000	0.381681
1803.000000	0.381647
1804.000000	0.381734
1805.000000	0.381999
1806.000000	0.382100
1807.000000	0.382013
1808.000000	0.382106
1809.000000	0.382407
1810.000000	0.382379
1811.000000	0.382308
1812.000000	0.382226
1813.000000	0.382271
1814.000000	0.382250
1815.000000	0.382243
1816.000000	0.382550
1817.000000	0.382378
1818.000000	0.381811
1819.000000	0.381571
1820.000000	0.381534
1821.000000	0.381336
1822.000000	0.381199
1823.000000	0.381107
1824.000000	0.380959
1825.000000	0.380597
1826.000000	0.380495
1827.000000	0.380376
1828.000000	0.380384
1829.000000	0.380398
1830.000000	0.380365
1831.000000	0.380267
1832.000000	0.380128
1833.000000	0.379949
1834.000000	0.379697
1835.000000	0.379486
1836.000000	0.379128
1837.000000	0.378889
1838.000000	0.378567
1839.000000	0.378254
1840.000000	0.377917
1841.000000	0.377699
1842.000000	0.377453
1843.000000	0.377044
1844.000000	0.376875
1845.000000	0.376779
1846.000000	0.376670
1847.000000	0.376522
1848.000000	0.376339
1849.000000	0.376032
1850.000000	0.375658
1851.000000	0.375375
1852.000000	0.375073
1853.000000	0.374843
1854.000000	0.374479
1855.000000	0.374017
1856.000000	0.373491
1857.000000	0.372750
1858.000000	0.372069
1859.000000	0.371160
1860.000000	0.370159
1861.000000	0.369124
1862.000000	0.367886
1863.000000	0.366502
1864.000000	0.365231
1865.000000	0.363966
1866.000000	0.362581
1867.000000	0.361281
1868.000000	0.359513
1869.000000	0.357559
1870.000000	0.355298
1871.000000	0.353006
1872.000000	0.350961
1873.000000	0.348836
1874.000000	0.347019
1875.000000	0.344663
1876.000000	0.341907
1877.000000	0.338644
1878.000000	0.335109
1879.000000	0.331511
1880.000000	0.328059
1881.000000	0.324550
1882.000000	0.320674
1883.000000	0.316480
1884.000000	0.312212
1885.000000	0.307476
1886.000000	0.302426
1887.000000	0.297197
1888.000000	0.291574
1889.000000	0.285377
1890.000000	0.279319
1891.000000	0.273471
1892.000000	0.267602
1893.000000	0.262123
1894.000000	0.256577
1895.000000	0.250937
1896.000000	0.245329
1897.000000	0.239985
1898.000000	0.234640
1899.000000	0.229808
1900.000000	0.225432
1901.000000	0.221534
1902.000000	0.217867
1903.000000	0.214727
1904.000000	0.212210
1905.000000	0.209867
1906.000000	0.208059
1907.000000	0.206826
1908.000000	0.205971
1909.000000	0.205499
1910.000000	0.205727
1911.000000	0.206180
1912.000000	0.206731
1913.000000	0.207548
1914.000000	0.208444
1915.000000	0.209251
1916.000000	0.210278
1917.000000	0.211297
1918.000000	0.212519
1919.000000	0.213502
1920.000000	0.214543
1921.000000	0.215713
1922.000000	0.216652
1923.000000	0.217692
1924.000000	0.218702
1925.000000	0.219532
1926.000000	0.220421
1927.000000	0.221246
1928.000000	0.222018
1929.000000	0.222770
1930.000000	0.223665
1931.000000	0.224580
1932.000000	0.225383
1933.000000	0.226132
1934.000000	0.226740
1935.000000	0.227109
1936.000000	0.227547
1937.000000	0.227932
1938.000000	0.228228
1939.000000	0.228593
1940.000000	0.228929
1941.000000	0.229285
1942.000000	0.229930
1943.000000	0.230430
1944.000000	0.230849
1945.000000	0.231182
1946.000000	0.231268
1947.000000	0.231348
1948.000000	0.231314
1949.000000	0.231362
1950.000000	0.231499
1951.000000	0.231556
1952.000000	0.231706
1953.000000	0.231741
1954.000000	0.231877
1955.000000	0.232070
1956.000000	0.232055
1957.000000	0.232319
1958.000000	0.232541
1959.000000	0.232706
1960.000000	0.232970
1961.000000	0.233139
1962.000000	0.233404
1963.000000	0.233748
1964.000000	0.234158
1965.000000	0.234467
1966.000000	0.234895
1967.000000	0.235345
1968.000000	0.235546
1969.000000	0.235837
1970.000000	0.236174
1971.000000	0.236343
1972.000000	0.236609
1973.000000	0.236858
1974.000000	0.237195
1975.000000	0.237643
1976.000000	0.238171
1977.000000	0.238820
1978.000000	0.239487
1979.000000	0.240154
1980.000000	0.240900
1981.000000	0.241591
1982.000000	0.242255
1983.000000	0.243197
1984.000000	0.243935
1985.000000	0.244675
1986.000000	0.245227
1987.000000	0.245695
1988.000000	0.246185
1989.000000	0.246682
1990.000000	0.247378
1991.000000	0.248214
1992.000000	0.248895
1993.000000	0.249455
1994.000000	0.250292
1995.000000	0.251278
1996.000000	0.252246
1997.000000	0.253265
1998.000000	0.254589
1999.000000	0.255598
2000.000000	0.256531
2001.000000	0.257297
2002.000000	0.257955
2003.000000	0.258825
2004.000000	0.259324
2005.000000	0.260034
2006.000000	0.261024
2007.000000	0.261593
2008.000000	0.262489
2009.000000	0.263671
2010.000000	0.264715
2011.000000	0.265752
2012.000000	0.266732
2013.000000	0.267626
2014.000000	0.268304
2015.000000	0.269278
2016.000000	0.270179
2017.000000	0.271069
2018.000000	0.272085
2019.000000	0.273061
2020.000000	0.273892
2021.000000	0.274744
2022.000000	0.275570
2023.000000	0.276442
2024.000000	0.277348
2025.000000	0.278239
2026.000000	0.279021
2027.000000	0.279843
2028.000000	0.280661
2029.000000	0.281404
2030.000000	0.282174
2031.000000	0.282897
2032.000000	0.283563
2033.000000	0.284289
2034.000000	0.284972
2035.000000	0.285740
2036.000000	0.286426
2037.000000	0.287272
2038.000000	0.287967
2039.000000	0.288667
2040.000000	0.289417
2041.000000	0.289892
2042.000000	0.290393
2043.000000	0.291027
2044.000000	0.291732
2045.000000	0.292432
2046.000000	0.292966
2047.000000	0.293687
2048.000000	0.294311
2049.000000	0.295231
2050.000000	0.296165
2051.000000	0.297004
2052.000000	0.297880
2053.000000	0.298400
2054.000000	0.298964
2055.000000	0.299419
2056.000000	0.299715
2057.000000	0.300226
2058.000000	0.300776
2059.000000	0.301215
2060.000000	0.301693
2061.000000	0.302143
2062.000000	0.302621
2063.000000	0.303299
2064.000000	0.303634
2065.000000	0.304055
2066.000000	0.304394
2067.000000	0.304824
2068.000000	0.305165
2069.000000	0.305721
2070.000000	0.306517
2071.000000	0.306969
2072.000000	0.307614
2073.000000	0.308271
2074.000000	0.308576
2075.000000	0.308951
2076.000000	0.309207
2077.000000	0.309590
2078.000000	0.309883
2079.000000	0.310324
2080.000000	0.311082
2081.000000	0.311707
2082.000000	0.312344
2083.000000	0.312998
2084.000000	0.313552
2085.000000	0.313906
2086.000000	0.314118
2087.000000	0.314504
2088.000000	0.315191
2089.000000	0.315739
2090.000000	0.316226
2091.000000	0.316907
2092.000000	0.317409
2093.000000	0.317672
2094.000000	0.318081
2095.000000	0.318678
2096.000000	0.319119
2097.000000	0.319435
2098.000000	0.319560
2099.000000	0.319819
2100.000000	0.320047
2101.000000	0.320452
2102.000000	0.320941
2103.000000	0.321265
2104.000000	0.321801
2105.000000	0.322137
2106.000000	0.322191
2107.000000	0.322602
2108.000000	0.323150
2109.000000	0.323583
2110.000000	0.323992
2111.000000	0.324384
2112.000000	0.324624
2113.000000	0.324600
2114.000000	0.324744
2115.000000	0.325128
2116.000000	0.325537
2117.000000	0.325809
2118.000000	0.326149
2119.000000	0.326367
2120.000000	0.326735
2121.000000	0.327099
2122.000000	0.327467
2123.000000	0.327942
2124.000000	0.328418
2125.000000	0.328925
2126.000000	0.329198
2127.000000	0.329547
2128.000000	0.329831
2129.000000	0.329716
2130.000000	0.329722
2131.000000	0.329825
2132.000000	0.329789
2133.000000	0.330077
2134.000000	0.330560
2135.000000	0.330931
2136.000000	0.331289
2137.000000	0.331343
2138.000000	0.330939
2139.000000	0.330945
2140.000000	0.330857
2141.000000	0.331022
2142.000000	0.331552
2143.000000	0.331689
2144.000000	0.332097
2145.000000	0.332317
2146.000000	0.332277
2147.000000	0.332817
2148.000000	0.332994
2149.000000	0.333344
2150.000000	0.333685
2151.000000	0.333502
2152.000000	0.333586
2153.000000	0.333488
2154.000000	0.333556
2155.000000	0.333882
2156.000000	0.334027
2157.000000	0.334163
2158.000000	0.334323
2159.000000	0.334558
2160.000000	0.334784
2161.000000	0.334955
2162.000000	0.335191
2163.000000	0.335318
2164.000000	0.335318
2165.000000	0.335243
2166.000000	0.335250
2167.000000	0.335420
2168.000000	0.335447
2169.000000	0.335222
2170.000000	0.335365
2171.000000	0.335228
2172.000000	0.334661
2173.000000	0.334529
2174.000000	0.334562
2175.000000	0.334545
2176.000000	0.334767
2177.000000	0.334837
2178.000000	0.335010
2179.000000	0.335108
2180.000000	0.334872
2181.000000	0.335052
2182.000000	0.334766
2183.000000	0.334589
2184.000000	0.334653
2185.000000	0.334335
2186.000000	0.333429
2187.000000	0.332796
2188.000000	0.332353
2189.000000	0.331847
2190.000000	0.332413
2191.000000	0.333513
2192.000000	0.333577
2193.000000	0.333246
2194.000000	0.332851
2195.000000	0.331317
2196.000000	0.330985
2197.000000	0.331184
2198.000000	0.331558
2199.000000	0.333362
2200.000000	0.333929
2201.000000	0.333913
2202.000000	0.334035
2203.000000	0.333557
2204.000000	0.332293
2205.000000	0.331870
2206.000000	0.331453
2207.000000	0.331131
2208.000000	0.331915
2209.000000	0.331425
2210.000000	0.331448
2211.000000	0.330731
2212.000000	0.329357
2213.000000	0.329037
2214.000000	0.329604
2215.000000	0.329366
2216.000000	0.329348
2217.000000	0.329190
2218.000000	0.328088
2219.000000	0.328085
2220.000000	0.329282
2221.000000	0.329242
2222.000000	0.329107
2223.000000	0.328892
2224.000000	0.327873
2225.000000	0.327235
2226.000000	0.326466
2227.000000	0.325369
2228.000000	0.324937
2229.000000	0.323894
2230.000000	0.324415
2231.000000	0.325316
2232.000000	0.324785
2233.000000	0.323730
2234.000000	0.322232
2235.000000	0.321152
2236.000000	0.320324
2237.000000	0.320365
2238.000000	0.319843
2239.000000	0.318926
2240.000000	0.318325
2241.000000	0.317663
2242.000000	0.317054
2243.000000	0.316549
2244.000000	0.316410
2245.000000	0.316315
2246.000000	0.316480
2247.000000	0.317378
2248.000000	0.317501
2249.000000	0.317223
2250.000000	0.317258
2251.000000	0.317034
2252.000000	0.316875
2253.000000	0.316586
2254.000000	0.316311
2255.000000	0.316236
2256.000000	0.315401
2257.000000	0.314913
2258.000000	0.314745
2259.000000	0.314346
2260.000000	0.314487
2261.000000	0.314370
2262.000000	0.314812
2263.000000	0.314472
2264.000000	0.313516
2265.000000	0.312941
2266.000000	0.312441
2267.000000	0.311208
2268.000000	0.309678
2269.000000	0.308331
2270.000000	0.306318
2271.000000	0.304719
2272.000000	0.304040
2273.000000	0.302541
2274.000000	0.300289
2275.000000	0.298719
2276.000000	0.297448
2277.000000	0.295077
2278.000000	0.294022
2279.000000	0.292368
2280.000000	0.289861
2281.000000	0.287800
2282.000000	0.285034
2283.000000	0.282477
2284.000000	0.279989
2285.000000	0.277347
2286.000000	0.275072
2287.000000	0.272666
2288.000000	0.271197
2289.000000	0.269266
2290.000000	0.267073
2291.000000	0.265636
2292.000000	0.263490
2293.000000	0.261969
2294.000000	0.260809
2295.000000	0.259799
2296.000000	0.259612
2297.000000	0.260152
2298.000000	0.260449
2299.000000	0.261486
2300.000000	0.261907
2301.000000	0.261799
2302.000000	0.262265
2303.000000	0.262701
2304.000000	0.263693
2305.000000	0.265238
2306.000000	0.266713
2307.000000	0.268566
2308.000000	0.270146
2309.000000	0.271546
2310.000000	0.272595
2311.000000	0.274197
2312.000000	0.275667
2313.000000	0.276737
2314.000000	0.278164
2315.000000	0.278626
2316.000000	0.279052
2317.000000	0.279699
2318.000000	0.280479
2319.000000	0.281856
2320.000000	0.282126
2321.000000	0.282909
2322.000000	0.283450
2323.000000	0.283493
2324.000000	0.283925
2325.000000	0.283068
2326.000000	0.283051
2327.000000	0.282780
2328.000000	0.282550
2329.000000	0.284530
2330.000000	0.284988
2331.000000	0.284799
2332.000000	0.285663
2333.000000	0.284633
2334.000000	0.283733
2335.000000	0.283383
2336.000000	0.282643
2337.000000	0.281538
2338.000000	0.280669
2339.000000	0.279412
2340.000000	0.277539
2341.000000	0.276741
2342.000000	0.276391
2343.000000	0.276108
2344.000000	0.276444
2345.000000	0.275981
2346.000000	0.275403
2347.000000	0.274425
2348.000000	0.273074
2349.000000	0.271240
2350.000000	0.269712
2351.000000	0.268504
2352.000000	0.266980
2353.000000	0.267260
2354.000000	0.266876
2355.000000	0.266517
2356.000000	0.266030
2357.000000	0.264687
2358.000000	0.263573
2359.000000	0.261528
2360.000000	0.260938
2361.000000	0.260327
2362.000000	0.258501
2363.000000	0.258760
2364.000000	0.257224
2365.000000	0.255263
2366.000000	0.255448
2367.000000	0.254151
2368.000000	0.253674
2369.000000	0.253481
2370.000000	0.250637
2371.000000	0.249299
2372.000000	0.248381
2373.000000	0.245935
2374.000000	0.244628
2375.000000	0.242409
2376.000000	0.240677
2377.000000	0.240468
2378.000000	0.240921
2379.000000	0.242211
2380.000000	0.240995
2381.000000	0.237995
2382.000000	0.234297
2383.000000	0.230379
2384.000000	0.227630
2385.000000	0.227317
2386.000000	0.226249
2387.000000	0.224091
2388.000000	0.224406
2389.000000	0.224173
2390.000000	0.223351
2391.000000	0.223251
2392.000000	0.222359
2393.000000	0.218951
2394.000000	0.217428
2395.000000	0.217744
2396.000000	0.216081
2397.000000	0.217395
2398.000000	0.217835
2399.000000	0.216827
2400.000000	0.218301
2401.000000	0.217736
2402.000000	0.216210
2403.000000	0.214904
2404.000000	0.213151
2405.000000	0.210477
2406.000000	0.207775
2407.000000	0.207831
2408.000000	0.207384
2409.000000	0.206885
2410.000000	0.206615
2411.000000	0.205320
2412.000000	0.206715
2413.000000	0.209786
2414.000000	0.216124
2415.000000	0.219667
2416.000000	0.220622
2417.000000	0.221343
2418.000000	0.215857
2419.000000	0.216991
2420.000000	0.218544
2421.000000	0.217200
2422.000000	0.219457
2423.000000	0.216746
2424.000000	0.214642
2425.000000	0.210491
2426.000000	0.206183
2427.000000	0.210231
2428.000000	0.213212
2429.000000	0.214933
2430.000000	0.217723
2431.000000	0.216521
2432.000000	0.213216
2433.000000	0.214017
2434.000000	0.215825
2435.000000	0.212667
2436.000000	0.212412
2437.000000	0.212155
2438.000000	0.209567
2439.000000	0.211074
2440.000000	0.208883
2441.000000	0.205737
2442.000000	0.205930
2443.000000	0.203723
2444.000000	0.202845
2445.000000	0.206820
2446.000000	0.208603
2447.000000	0.206895
2448.000000	0.205715
2449.000000	0.200886
2450.000000	0.194641
2451.000000	0.198134
2452.000000	0.207816
2453.000000	0.211940
2454.000000	0.217227
2455.000000	0.216236
2456.000000	0.204968
2457.000000	0.203411
2458.000000	0.201300
2459.000000	0.198083
2460.000000	0.207176
2461.000000	0.209472
2462.000000	0.209398
2463.000000	0.211759
2464.000000	0.204382
2465.000000	0.197560
2466.000000	0.187539
2467.000000	0.178077
2468.000000	0.173715
2469.000000	0.170079
2470.000000	0.172884
2471.000000	0.170885
2472.000000	0.169985
2473.000000	0.165686
2474.000000	0.156856
2475.000000	0.158939
2476.000000	0.159954
2477.000000	0.167786
2478.000000	0.184617
2479.000000	0.186097
2480.000000	0.183694
2481.000000	0.185494
2482.000000	0.178600
2483.000000	0.184233
2484.000000	0.193699
2485.000000	0.191460
2486.000000	0.186748
2487.000000	0.179285
2488.000000	0.175895
2489.000000	0.170241
2490.000000	0.162423
2491.000000	0.151166
2492.000000	0.150795
2493.000000	0.171851
2494.000000	0.181924
2495.000000	0.191380
2496.000000	0.188984
2497.000000	0.162488
2498.000000	0.150653
2499.000000	0.152641
2500.000000	0.154769
