# Wavelength	NAu-1-40_HEX-10_FV7-50_00000.asd.rts.txt
350.000000	0.168952
351.000000	0.170812
352.000000	0.143478
353.000000	0.137949
354.000000	0.167487
355.000000	0.169802
356.000000	0.161677
357.000000	0.156471
358.000000	0.165421
359.000000	0.156898
360.000000	0.145087
361.000000	0.149699
362.000000	0.146536
363.000000	0.146887
364.000000	0.154376
365.000000	0.147783
366.000000	0.142970
367.000000	0.144709
368.000000	0.149589
369.000000	0.151986
370.000000	0.151025
371.000000	0.147889
372.000000	0.144668
373.000000	0.145402
374.000000	0.151122
375.000000	0.154538
376.000000	0.157599
377.000000	0.159419
378.000000	0.156126
379.000000	0.156633
380.000000	0.159822
381.000000	0.161914
382.000000	0.160452
383.000000	0.160184
384.000000	0.163553
385.000000	0.164316
386.000000	0.163616
387.000000	0.162772
388.000000	0.163095
389.000000	0.164471
390.000000	0.165932
391.000000	0.166187
392.000000	0.167585
393.000000	0.169247
394.000000	0.170114
395.000000	0.169668
396.000000	0.170840
397.000000	0.173671
398.000000	0.174604
399.000000	0.174896
400.000000	0.174910
401.000000	0.174774
402.000000	0.176345
403.000000	0.178415
404.000000	0.179754
405.000000	0.180790
406.000000	0.181298
407.000000	0.181547
408.000000	0.182619
409.000000	0.183473
410.000000	0.184250
411.000000	0.185695
412.000000	0.187205
413.000000	0.188145
414.000000	0.188207
415.000000	0.188677
416.000000	0.189249
417.000000	0.189703
418.000000	0.190284
419.000000	0.190877
420.000000	0.191334
421.000000	0.191423
422.000000	0.192152
423.000000	0.192845
424.000000	0.192539
425.000000	0.192329
426.000000	0.192267
427.000000	0.192347
428.000000	0.193047
429.000000	0.193178
430.000000	0.192701
431.000000	0.193143
432.000000	0.193135
433.000000	0.192831
434.000000	0.193095
435.000000	0.193273
436.000000	0.193360
437.000000	0.193388
438.000000	0.193066
439.000000	0.192745
440.000000	0.192683
441.000000	0.192702
442.000000	0.192565
443.000000	0.192393
444.000000	0.192710
445.000000	0.192769
446.000000	0.192661
447.000000	0.192625
448.000000	0.193253
449.000000	0.194023
450.000000	0.194645
451.000000	0.195738
452.000000	0.197165
453.000000	0.198760
454.000000	0.200515
455.000000	0.201912
456.000000	0.203193
457.000000	0.204780
458.000000	0.206627
459.000000	0.208463
460.000000	0.210064
461.000000	0.211317
462.000000	0.212533
463.000000	0.213682
464.000000	0.214524
465.000000	0.215381
466.000000	0.216253
467.000000	0.217059
468.000000	0.217930
469.000000	0.218641
470.000000	0.219090
471.000000	0.219512
472.000000	0.220007
473.000000	0.220592
474.000000	0.221047
475.000000	0.221226
476.000000	0.221427
477.000000	0.222194
478.000000	0.222827
479.000000	0.223253
480.000000	0.223375
481.000000	0.223872
482.000000	0.224454
483.000000	0.224694
484.000000	0.225482
485.000000	0.226009
486.000000	0.226134
487.000000	0.226424
488.000000	0.226866
489.000000	0.227420
490.000000	0.227969
491.000000	0.228314
492.000000	0.228686
493.000000	0.229252
494.000000	0.229743
495.000000	0.230288
496.000000	0.230891
497.000000	0.231233
498.000000	0.231643
499.000000	0.232241
500.000000	0.232728
501.000000	0.233299
502.000000	0.233916
503.000000	0.234377
504.000000	0.234920
505.000000	0.235540
506.000000	0.236172
507.000000	0.236685
508.000000	0.237184
509.000000	0.237712
510.000000	0.238310
511.000000	0.238855
512.000000	0.239386
513.000000	0.240027
514.000000	0.240658
515.000000	0.241276
516.000000	0.241851
517.000000	0.242317
518.000000	0.242990
519.000000	0.243921
520.000000	0.244524
521.000000	0.245060
522.000000	0.245678
523.000000	0.246355
524.000000	0.247021
525.000000	0.247681
526.000000	0.248423
527.000000	0.249137
528.000000	0.249817
529.000000	0.250544
530.000000	0.251410
531.000000	0.252294
532.000000	0.253028
533.000000	0.253666
534.000000	0.254339
535.000000	0.255080
536.000000	0.255874
537.000000	0.256590
538.000000	0.257302
539.000000	0.258136
540.000000	0.258876
541.000000	0.259573
542.000000	0.260322
543.000000	0.261011
544.000000	0.261785
545.000000	0.262604
546.000000	0.263278
547.000000	0.264019
548.000000	0.264857
549.000000	0.265614
550.000000	0.266359
551.000000	0.267059
552.000000	0.267644
553.000000	0.268389
554.000000	0.269179
555.000000	0.269915
556.000000	0.270657
557.000000	0.271315
558.000000	0.272004
559.000000	0.272746
560.000000	0.273414
561.000000	0.274097
562.000000	0.274838
563.000000	0.275508
564.000000	0.276173
565.000000	0.276807
566.000000	0.277361
567.000000	0.277938
568.000000	0.278560
569.000000	0.279154
570.000000	0.279631
571.000000	0.280028
572.000000	0.280531
573.000000	0.280992
574.000000	0.281439
575.000000	0.281994
576.000000	0.282419
577.000000	0.282772
578.000000	0.283193
579.000000	0.283656
580.000000	0.284102
581.000000	0.284492
582.000000	0.284809
583.000000	0.285162
584.000000	0.285551
585.000000	0.285909
586.000000	0.286155
587.000000	0.286380
588.000000	0.286688
589.000000	0.286995
590.000000	0.287274
591.000000	0.287512
592.000000	0.287720
593.000000	0.287922
594.000000	0.288129
595.000000	0.288343
596.000000	0.288570
597.000000	0.288807
598.000000	0.288948
599.000000	0.289026
600.000000	0.289127
601.000000	0.289241
602.000000	0.289347
603.000000	0.289439
604.000000	0.289562
605.000000	0.289858
606.000000	0.290005
607.000000	0.290015
608.000000	0.290113
609.000000	0.290319
610.000000	0.290524
611.000000	0.290606
612.000000	0.290687
613.000000	0.290755
614.000000	0.290821
615.000000	0.290814
616.000000	0.290936
617.000000	0.291136
618.000000	0.291196
619.000000	0.291266
620.000000	0.291334
621.000000	0.291399
622.000000	0.291445
623.000000	0.291469
624.000000	0.291485
625.000000	0.291582
626.000000	0.291721
627.000000	0.291873
628.000000	0.292023
629.000000	0.292205
630.000000	0.292320
631.000000	0.292483
632.000000	0.292613
633.000000	0.292708
634.000000	0.292785
635.000000	0.292951
636.000000	0.293152
637.000000	0.293326
638.000000	0.293482
639.000000	0.293622
640.000000	0.293788
641.000000	0.293896
642.000000	0.294036
643.000000	0.294195
644.000000	0.294331
645.000000	0.294438
646.000000	0.294535
647.000000	0.294628
648.000000	0.294819
649.000000	0.295011
650.000000	0.295173
651.000000	0.295417
652.000000	0.295591
653.000000	0.295738
654.000000	0.295904
655.000000	0.296083
656.000000	0.296305
657.000000	0.296531
658.000000	0.296740
659.000000	0.296898
660.000000	0.297004
661.000000	0.297174
662.000000	0.297334
663.000000	0.297512
664.000000	0.297688
665.000000	0.297869
666.000000	0.298071
667.000000	0.298280
668.000000	0.298515
669.000000	0.298780
670.000000	0.299069
671.000000	0.299328
672.000000	0.299584
673.000000	0.299827
674.000000	0.300039
675.000000	0.300255
676.000000	0.300468
677.000000	0.300684
678.000000	0.300948
679.000000	0.301216
680.000000	0.301461
681.000000	0.301691
682.000000	0.301995
683.000000	0.302307
684.000000	0.302627
685.000000	0.302953
686.000000	0.303301
687.000000	0.303633
688.000000	0.303892
689.000000	0.304146
690.000000	0.304465
691.000000	0.304709
692.000000	0.304972
693.000000	0.305334
694.000000	0.305694
695.000000	0.306019
696.000000	0.306300
697.000000	0.306557
698.000000	0.306878
699.000000	0.307202
700.000000	0.307486
701.000000	0.307786
702.000000	0.308093
703.000000	0.308379
704.000000	0.308644
705.000000	0.309001
706.000000	0.309353
707.000000	0.309619
708.000000	0.309915
709.000000	0.310246
710.000000	0.310599
711.000000	0.310854
712.000000	0.311111
713.000000	0.311426
714.000000	0.311741
715.000000	0.312030
716.000000	0.312317
717.000000	0.312626
718.000000	0.312921
719.000000	0.313212
720.000000	0.313516
721.000000	0.313795
722.000000	0.314043
723.000000	0.314329
724.000000	0.314622
725.000000	0.314928
726.000000	0.315304
727.000000	0.315651
728.000000	0.315964
729.000000	0.316256
730.000000	0.316496
731.000000	0.316773
732.000000	0.317026
733.000000	0.317284
734.000000	0.317571
735.000000	0.317792
736.000000	0.318041
737.000000	0.318219
738.000000	0.318347
739.000000	0.318555
740.000000	0.318741
741.000000	0.318893
742.000000	0.319079
743.000000	0.319300
744.000000	0.319574
745.000000	0.319788
746.000000	0.319981
747.000000	0.320136
748.000000	0.320253
749.000000	0.320370
750.000000	0.320490
751.000000	0.320660
752.000000	0.320807
753.000000	0.320919
754.000000	0.321015
755.000000	0.321147
756.000000	0.321326
757.000000	0.321498
758.000000	0.321703
759.000000	0.321882
760.000000	0.321954
761.000000	0.322090
762.000000	0.322200
763.000000	0.322276
764.000000	0.322430
765.000000	0.322505
766.000000	0.322545
767.000000	0.322601
768.000000	0.322612
769.000000	0.322593
770.000000	0.322576
771.000000	0.322594
772.000000	0.322590
773.000000	0.322557
774.000000	0.322643
775.000000	0.322695
776.000000	0.322714
777.000000	0.322694
778.000000	0.322605
779.000000	0.322561
780.000000	0.322580
781.000000	0.322564
782.000000	0.322545
783.000000	0.322550
784.000000	0.322426
785.000000	0.322316
786.000000	0.322224
787.000000	0.322139
788.000000	0.322061
789.000000	0.322027
790.000000	0.321970
791.000000	0.321832
792.000000	0.321735
793.000000	0.321639
794.000000	0.321513
795.000000	0.321452
796.000000	0.321353
797.000000	0.321183
798.000000	0.320997
799.000000	0.320892
800.000000	0.320835
801.000000	0.320761
802.000000	0.320677
803.000000	0.320579
804.000000	0.320504
805.000000	0.320432
806.000000	0.320319
807.000000	0.320266
808.000000	0.320276
809.000000	0.320225
810.000000	0.320095
811.000000	0.319893
812.000000	0.319689
813.000000	0.319457
814.000000	0.319221
815.000000	0.319072
816.000000	0.318820
817.000000	0.318622
818.000000	0.318551
819.000000	0.318424
820.000000	0.318286
821.000000	0.318132
822.000000	0.318034
823.000000	0.317909
824.000000	0.317750
825.000000	0.317680
826.000000	0.317459
827.000000	0.317171
828.000000	0.316955
829.000000	0.316835
830.000000	0.316729
831.000000	0.316660
832.000000	0.316530
833.000000	0.316325
834.000000	0.316136
835.000000	0.316031
836.000000	0.315804
837.000000	0.315526
838.000000	0.315293
839.000000	0.315166
840.000000	0.314963
841.000000	0.314740
842.000000	0.314532
843.000000	0.314284
844.000000	0.314100
845.000000	0.313952
846.000000	0.313751
847.000000	0.313471
848.000000	0.313204
849.000000	0.313060
850.000000	0.312844
851.000000	0.312617
852.000000	0.312463
853.000000	0.312375
854.000000	0.312168
855.000000	0.312015
856.000000	0.311952
857.000000	0.311672
858.000000	0.311504
859.000000	0.311487
860.000000	0.311386
861.000000	0.311197
862.000000	0.310998
863.000000	0.310810
864.000000	0.310594
865.000000	0.310344
866.000000	0.310102
867.000000	0.309912
868.000000	0.309670
869.000000	0.309437
870.000000	0.309410
871.000000	0.309264
872.000000	0.309042
873.000000	0.308785
874.000000	0.308687
875.000000	0.308470
876.000000	0.308173
877.000000	0.307897
878.000000	0.307632
879.000000	0.307452
880.000000	0.307253
881.000000	0.307089
882.000000	0.306904
883.000000	0.306729
884.000000	0.306549
885.000000	0.306292
886.000000	0.306039
887.000000	0.305864
888.000000	0.305727
889.000000	0.305531
890.000000	0.305237
891.000000	0.305050
892.000000	0.304812
893.000000	0.304593
894.000000	0.304515
895.000000	0.304360
896.000000	0.304070
897.000000	0.303728
898.000000	0.303474
899.000000	0.303361
900.000000	0.303175
901.000000	0.302858
902.000000	0.302721
903.000000	0.302502
904.000000	0.302339
905.000000	0.302284
906.000000	0.302107
907.000000	0.301937
908.000000	0.301814
909.000000	0.301501
910.000000	0.301246
911.000000	0.301052
912.000000	0.300879
913.000000	0.300698
914.000000	0.300409
915.000000	0.300135
916.000000	0.299994
917.000000	0.299777
918.000000	0.299608
919.000000	0.299553
920.000000	0.299465
921.000000	0.299407
922.000000	0.299300
923.000000	0.299007
924.000000	0.298825
925.000000	0.298648
926.000000	0.298440
927.000000	0.298253
928.000000	0.298187
929.000000	0.298104
930.000000	0.297839
931.000000	0.297565
932.000000	0.297281
933.000000	0.297007
934.000000	0.296691
935.000000	0.296559
936.000000	0.296471
937.000000	0.296187
938.000000	0.295855
939.000000	0.295729
940.000000	0.295703
941.000000	0.295597
942.000000	0.295246
943.000000	0.294956
944.000000	0.294841
945.000000	0.295008
946.000000	0.294866
947.000000	0.294692
948.000000	0.294807
949.000000	0.294525
950.000000	0.294409
951.000000	0.294430
952.000000	0.294090
953.000000	0.293804
954.000000	0.293677
955.000000	0.293600
956.000000	0.293334
957.000000	0.293242
958.000000	0.293137
959.000000	0.292835
960.000000	0.292855
961.000000	0.292889
962.000000	0.292696
963.000000	0.292271
964.000000	0.292153
965.000000	0.292053
966.000000	0.291621
967.000000	0.291440
968.000000	0.291182
969.000000	0.290851
970.000000	0.290721
971.000000	0.290736
972.000000	0.290731
973.000000	0.290593
974.000000	0.290475
975.000000	0.290202
976.000000	0.289997
977.000000	0.289992
978.000000	0.289806
979.000000	0.289888
980.000000	0.289933
981.000000	0.289846
982.000000	0.289790
983.000000	0.289774
984.000000	0.289769
985.000000	0.289578
986.000000	0.289438
987.000000	0.289507
988.000000	0.289640
989.000000	0.289466
990.000000	0.289311
991.000000	0.289317
992.000000	0.289524
993.000000	0.289609
994.000000	0.289367
995.000000	0.289068
996.000000	0.288923
997.000000	0.289041
998.000000	0.289144
999.000000	0.289123
1000.000000	0.288953
1001.000000	0.289447
1002.000000	0.288871
1003.000000	0.288901
1004.000000	0.289022
1005.000000	0.289688
1006.000000	0.289955
1007.000000	0.290382
1008.000000	0.290225
1009.000000	0.289963
1010.000000	0.290023
1011.000000	0.289748
1012.000000	0.289677
1013.000000	0.289869
1014.000000	0.289740
1015.000000	0.289748
1016.000000	0.290084
1017.000000	0.290230
1018.000000	0.290436
1019.000000	0.290552
1020.000000	0.290740
1021.000000	0.290476
1022.000000	0.289962
1023.000000	0.290081
1024.000000	0.290212
1025.000000	0.290464
1026.000000	0.290932
1027.000000	0.291224
1028.000000	0.291127
1029.000000	0.291462
1030.000000	0.291593
1031.000000	0.291591
1032.000000	0.291732
1033.000000	0.291400
1034.000000	0.291596
1035.000000	0.292584
1036.000000	0.292602
1037.000000	0.292130
1038.000000	0.292052
1039.000000	0.291822
1040.000000	0.291274
1041.000000	0.292050
1042.000000	0.293177
1043.000000	0.293410
1044.000000	0.294107
1045.000000	0.294569
1046.000000	0.294148
1047.000000	0.294393
1048.000000	0.295167
1049.000000	0.295329
1050.000000	0.295185
1051.000000	0.295318
1052.000000	0.295229
1053.000000	0.295162
1054.000000	0.295432
1055.000000	0.295777
1056.000000	0.296203
1057.000000	0.296470
1058.000000	0.296936
1059.000000	0.297149
1060.000000	0.297394
1061.000000	0.297787
1062.000000	0.297944
1063.000000	0.298110
1064.000000	0.298303
1065.000000	0.298221
1066.000000	0.298591
1067.000000	0.299212
1068.000000	0.299681
1069.000000	0.300295
1070.000000	0.300757
1071.000000	0.301257
1072.000000	0.301634
1073.000000	0.302030
1074.000000	0.302311
1075.000000	0.302565
1076.000000	0.302497
1077.000000	0.302148
1078.000000	0.302211
1079.000000	0.302389
1080.000000	0.302690
1081.000000	0.302821
1082.000000	0.303140
1083.000000	0.303508
1084.000000	0.303781
1085.000000	0.304208
1086.000000	0.304956
1087.000000	0.305538
1088.000000	0.305902
1089.000000	0.306229
1090.000000	0.306522
1091.000000	0.306825
1092.000000	0.307065
1093.000000	0.307571
1094.000000	0.307673
1095.000000	0.307497
1096.000000	0.307772
1097.000000	0.307983
1098.000000	0.308285
1099.000000	0.308933
1100.000000	0.309442
1101.000000	0.309771
1102.000000	0.310089
1103.000000	0.310460
1104.000000	0.310820
1105.000000	0.311014
1106.000000	0.311320
1107.000000	0.311624
1108.000000	0.312022
1109.000000	0.312663
1110.000000	0.313113
1111.000000	0.313455
1112.000000	0.313773
1113.000000	0.314150
1114.000000	0.314406
1115.000000	0.314656
1116.000000	0.315086
1117.000000	0.315293
1118.000000	0.315068
1119.000000	0.315268
1120.000000	0.315714
1121.000000	0.316012
1122.000000	0.316644
1123.000000	0.317154
1124.000000	0.317213
1125.000000	0.317408
1126.000000	0.317485
1127.000000	0.317601
1128.000000	0.317731
1129.000000	0.317863
1130.000000	0.318181
1131.000000	0.318723
1132.000000	0.318912
1133.000000	0.319089
1134.000000	0.319321
1135.000000	0.319272
1136.000000	0.319418
1137.000000	0.319850
1138.000000	0.320003
1139.000000	0.320032
1140.000000	0.320249
1141.000000	0.320425
1142.000000	0.320613
1143.000000	0.320805
1144.000000	0.321131
1145.000000	0.321306
1146.000000	0.321464
1147.000000	0.321670
1148.000000	0.321817
1149.000000	0.322086
1150.000000	0.322444
1151.000000	0.322739
1152.000000	0.323111
1153.000000	0.323294
1154.000000	0.323193
1155.000000	0.323322
1156.000000	0.323587
1157.000000	0.323681
1158.000000	0.323662
1159.000000	0.323778
1160.000000	0.323798
1161.000000	0.323847
1162.000000	0.324005
1163.000000	0.324490
1164.000000	0.324639
1165.000000	0.324706
1166.000000	0.324880
1167.000000	0.325070
1168.000000	0.325109
1169.000000	0.325140
1170.000000	0.325203
1171.000000	0.325159
1172.000000	0.325291
1173.000000	0.325505
1174.000000	0.325711
1175.000000	0.326002
1176.000000	0.326153
1177.000000	0.326354
1178.000000	0.326501
1179.000000	0.326510
1180.000000	0.326528
1181.000000	0.326624
1182.000000	0.326719
1183.000000	0.326844
1184.000000	0.327020
1185.000000	0.327154
1186.000000	0.327290
1187.000000	0.327425
1188.000000	0.327588
1189.000000	0.327641
1190.000000	0.327672
1191.000000	0.327745
1192.000000	0.327835
1193.000000	0.328048
1194.000000	0.328312
1195.000000	0.328466
1196.000000	0.328516
1197.000000	0.328586
1198.000000	0.328646
1199.000000	0.328676
1200.000000	0.328671
1201.000000	0.328665
1202.000000	0.328666
1203.000000	0.328688
1204.000000	0.328862
1205.000000	0.329071
1206.000000	0.329142
1207.000000	0.329299
1208.000000	0.329337
1209.000000	0.329263
1210.000000	0.329329
1211.000000	0.329431
1212.000000	0.329527
1213.000000	0.329788
1214.000000	0.329894
1215.000000	0.329879
1216.000000	0.329935
1217.000000	0.329929
1218.000000	0.329872
1219.000000	0.329850
1220.000000	0.329832
1221.000000	0.329750
1222.000000	0.329814
1223.000000	0.330010
1224.000000	0.330221
1225.000000	0.330337
1226.000000	0.330411
1227.000000	0.330459
1228.000000	0.330521
1229.000000	0.330486
1230.000000	0.330393
1231.000000	0.330306
1232.000000	0.330163
1233.000000	0.330294
1234.000000	0.330679
1235.000000	0.330818
1236.000000	0.330869
1237.000000	0.330993
1238.000000	0.331003
1239.000000	0.330920
1240.000000	0.330796
1241.000000	0.330763
1242.000000	0.330594
1243.000000	0.330548
1244.000000	0.330631
1245.000000	0.330775
1246.000000	0.330972
1247.000000	0.331009
1248.000000	0.330992
1249.000000	0.331026
1250.000000	0.331006
1251.000000	0.331040
1252.000000	0.331088
1253.000000	0.331314
1254.000000	0.331382
1255.000000	0.331342
1256.000000	0.331342
1257.000000	0.331318
1258.000000	0.331368
1259.000000	0.331441
1260.000000	0.331489
1261.000000	0.331406
1262.000000	0.331452
1263.000000	0.331599
1264.000000	0.331635
1265.000000	0.331688
1266.000000	0.331777
1267.000000	0.331746
1268.000000	0.331730
1269.000000	0.331707
1270.000000	0.331822
1271.000000	0.331879
1272.000000	0.331860
1273.000000	0.331928
1274.000000	0.331992
1275.000000	0.332079
1276.000000	0.332264
1277.000000	0.332336
1278.000000	0.332276
1279.000000	0.332287
1280.000000	0.332118
1281.000000	0.332062
1282.000000	0.332231
1283.000000	0.332298
1284.000000	0.332304
1285.000000	0.332272
1286.000000	0.332187
1287.000000	0.331962
1288.000000	0.331870
1289.000000	0.331778
1290.000000	0.331691
1291.000000	0.331736
1292.000000	0.331758
1293.000000	0.331712
1294.000000	0.331732
1295.000000	0.331723
1296.000000	0.331639
1297.000000	0.331636
1298.000000	0.331602
1299.000000	0.331539
1300.000000	0.331642
1301.000000	0.331670
1302.000000	0.331636
1303.000000	0.331762
1304.000000	0.331743
1305.000000	0.331639
1306.000000	0.331617
1307.000000	0.331643
1308.000000	0.331664
1309.000000	0.331825
1310.000000	0.331816
1311.000000	0.331706
1312.000000	0.331583
1313.000000	0.331558
1314.000000	0.331449
1315.000000	0.331312
1316.000000	0.331280
1317.000000	0.331161
1318.000000	0.330917
1319.000000	0.330814
1320.000000	0.330859
1321.000000	0.330888
1322.000000	0.330939
1323.000000	0.330961
1324.000000	0.330924
1325.000000	0.330697
1326.000000	0.330290
1327.000000	0.330229
1328.000000	0.330340
1329.000000	0.330248
1330.000000	0.330286
1331.000000	0.330320
1332.000000	0.330186
1333.000000	0.330090
1334.000000	0.330219
1335.000000	0.330193
1336.000000	0.329909
1337.000000	0.329859
1338.000000	0.329851
1339.000000	0.329902
1340.000000	0.329871
1341.000000	0.329986
1342.000000	0.330069
1343.000000	0.330030
1344.000000	0.330161
1345.000000	0.330331
1346.000000	0.330514
1347.000000	0.330496
1348.000000	0.330492
1349.000000	0.330519
1350.000000	0.330428
1351.000000	0.330380
1352.000000	0.330393
1353.000000	0.330215
1354.000000	0.330010
1355.000000	0.329897
1356.000000	0.329755
1357.000000	0.329517
1358.000000	0.329478
1359.000000	0.329377
1360.000000	0.329208
1361.000000	0.328974
1362.000000	0.328860
1363.000000	0.328724
1364.000000	0.328652
1365.000000	0.328645
1366.000000	0.328658
1367.000000	0.328730
1368.000000	0.328668
1369.000000	0.328611
1370.000000	0.328402
1371.000000	0.328206
1372.000000	0.328047
1373.000000	0.327941
1374.000000	0.327950
1375.000000	0.327697
1376.000000	0.327411
1377.000000	0.327267
1378.000000	0.326856
1379.000000	0.326451
1380.000000	0.326326
1381.000000	0.325986
1382.000000	0.325722
1383.000000	0.325603
1384.000000	0.325156
1385.000000	0.324727
1386.000000	0.324441
1387.000000	0.324175
1388.000000	0.323880
1389.000000	0.323426
1390.000000	0.322994
1391.000000	0.322496
1392.000000	0.321902
1393.000000	0.321387
1394.000000	0.321053
1395.000000	0.320546
1396.000000	0.320017
1397.000000	0.319438
1398.000000	0.318632
1399.000000	0.317982
1400.000000	0.317411
1401.000000	0.316714
1402.000000	0.316003
1403.000000	0.315457
1404.000000	0.314776
1405.000000	0.313947
1406.000000	0.313342
1407.000000	0.312759
1408.000000	0.312083
1409.000000	0.311593
1410.000000	0.311104
1411.000000	0.310549
1412.000000	0.310136
1413.000000	0.309766
1414.000000	0.309475
1415.000000	0.309280
1416.000000	0.309117
1417.000000	0.309135
1418.000000	0.309099
1419.000000	0.309051
1420.000000	0.308833
1421.000000	0.308577
1422.000000	0.308508
1423.000000	0.308485
1424.000000	0.308384
1425.000000	0.308357
1426.000000	0.308088
1427.000000	0.307760
1428.000000	0.307641
1429.000000	0.307508
1430.000000	0.307475
1431.000000	0.307414
1432.000000	0.307291
1433.000000	0.307064
1434.000000	0.307114
1435.000000	0.307319
1436.000000	0.307522
1437.000000	0.307921
1438.000000	0.308191
1439.000000	0.308383
1440.000000	0.308758
1441.000000	0.309234
1442.000000	0.309713
1443.000000	0.310212
1444.000000	0.310714
1445.000000	0.311228
1446.000000	0.311772
1447.000000	0.312235
1448.000000	0.312674
1449.000000	0.313009
1450.000000	0.313242
1451.000000	0.313528
1452.000000	0.313674
1453.000000	0.313762
1454.000000	0.313937
1455.000000	0.314138
1456.000000	0.314353
1457.000000	0.314493
1458.000000	0.314507
1459.000000	0.314471
1460.000000	0.314456
1461.000000	0.314513
1462.000000	0.314607
1463.000000	0.314580
1464.000000	0.314595
1465.000000	0.314646
1466.000000	0.314712
1467.000000	0.314901
1468.000000	0.314934
1469.000000	0.314986
1470.000000	0.315003
1471.000000	0.314936
1472.000000	0.314949
1473.000000	0.315109
1474.000000	0.315212
1475.000000	0.315382
1476.000000	0.315680
1477.000000	0.315857
1478.000000	0.315903
1479.000000	0.315964
1480.000000	0.316095
1481.000000	0.316236
1482.000000	0.316490
1483.000000	0.316730
1484.000000	0.316978
1485.000000	0.317231
1486.000000	0.317472
1487.000000	0.317710
1488.000000	0.318013
1489.000000	0.318253
1490.000000	0.318325
1491.000000	0.318415
1492.000000	0.318440
1493.000000	0.318536
1494.000000	0.318555
1495.000000	0.318664
1496.000000	0.318866
1497.000000	0.319020
1498.000000	0.319169
1499.000000	0.319360
1500.000000	0.319619
1501.000000	0.319682
1502.000000	0.319670
1503.000000	0.319801
1504.000000	0.319885
1505.000000	0.319996
1506.000000	0.320245
1507.000000	0.320355
1508.000000	0.320446
1509.000000	0.320547
1510.000000	0.320585
1511.000000	0.320837
1512.000000	0.321112
1513.000000	0.321251
1514.000000	0.321369
1515.000000	0.321312
1516.000000	0.321261
1517.000000	0.321321
1518.000000	0.321409
1519.000000	0.321473
1520.000000	0.321541
1521.000000	0.321569
1522.000000	0.321678
1523.000000	0.321879
1524.000000	0.321873
1525.000000	0.321823
1526.000000	0.321832
1527.000000	0.321787
1528.000000	0.321818
1529.000000	0.321917
1530.000000	0.321982
1531.000000	0.322068
1532.000000	0.322186
1533.000000	0.322295
1534.000000	0.322221
1535.000000	0.322035
1536.000000	0.321915
1537.000000	0.321956
1538.000000	0.322028
1539.000000	0.322090
1540.000000	0.322183
1541.000000	0.322232
1542.000000	0.322245
1543.000000	0.322304
1544.000000	0.322292
1545.000000	0.322280
1546.000000	0.322418
1547.000000	0.322579
1548.000000	0.322712
1549.000000	0.322758
1550.000000	0.322681
1551.000000	0.322696
1552.000000	0.322875
1553.000000	0.322983
1554.000000	0.323124
1555.000000	0.323300
1556.000000	0.323300
1557.000000	0.323355
1558.000000	0.323431
1559.000000	0.323413
1560.000000	0.323438
1561.000000	0.323572
1562.000000	0.323608
1563.000000	0.323667
1564.000000	0.323736
1565.000000	0.323767
1566.000000	0.323698
1567.000000	0.323640
1568.000000	0.323675
1569.000000	0.323817
1570.000000	0.323886
1571.000000	0.324006
1572.000000	0.324089
1573.000000	0.324100
1574.000000	0.324050
1575.000000	0.324033
1576.000000	0.323984
1577.000000	0.323785
1578.000000	0.323706
1579.000000	0.323785
1580.000000	0.323758
1581.000000	0.323747
1582.000000	0.323738
1583.000000	0.323690
1584.000000	0.323646
1585.000000	0.323704
1586.000000	0.323763
1587.000000	0.323823
1588.000000	0.323853
1589.000000	0.323917
1590.000000	0.323937
1591.000000	0.323900
1592.000000	0.323958
1593.000000	0.324141
1594.000000	0.324155
1595.000000	0.324151
1596.000000	0.324188
1597.000000	0.324147
1598.000000	0.324164
1599.000000	0.324338
1600.000000	0.324335
1601.000000	0.324344
1602.000000	0.324345
1603.000000	0.324301
1604.000000	0.324286
1605.000000	0.324306
1606.000000	0.324250
1607.000000	0.324238
1608.000000	0.324146
1609.000000	0.324010
1610.000000	0.323938
1611.000000	0.323854
1612.000000	0.323791
1613.000000	0.323871
1614.000000	0.323895
1615.000000	0.324012
1616.000000	0.324085
1617.000000	0.324083
1618.000000	0.324102
1619.000000	0.324054
1620.000000	0.324015
1621.000000	0.324055
1622.000000	0.324097
1623.000000	0.324058
1624.000000	0.324067
1625.000000	0.324042
1626.000000	0.323911
1627.000000	0.323715
1628.000000	0.323640
1629.000000	0.323520
1630.000000	0.323467
1631.000000	0.323417
1632.000000	0.323378
1633.000000	0.323342
1634.000000	0.323390
1635.000000	0.323641
1636.000000	0.323734
1637.000000	0.323793
1638.000000	0.323843
1639.000000	0.323861
1640.000000	0.323885
1641.000000	0.324043
1642.000000	0.324086
1643.000000	0.324074
1644.000000	0.324067
1645.000000	0.324015
1646.000000	0.323950
1647.000000	0.323920
1648.000000	0.323831
1649.000000	0.323774
1650.000000	0.323764
1651.000000	0.323795
1652.000000	0.323853
1653.000000	0.323908
1654.000000	0.323986
1655.000000	0.324027
1656.000000	0.323973
1657.000000	0.323955
1658.000000	0.323958
1659.000000	0.324020
1660.000000	0.324094
1661.000000	0.324139
1662.000000	0.324226
1663.000000	0.324288
1664.000000	0.324337
1665.000000	0.324416
1666.000000	0.324499
1667.000000	0.324483
1668.000000	0.324450
1669.000000	0.324416
1670.000000	0.324349
1671.000000	0.324264
1672.000000	0.324371
1673.000000	0.324569
1674.000000	0.324661
1675.000000	0.324836
1676.000000	0.324888
1677.000000	0.324795
1678.000000	0.324682
1679.000000	0.324627
1680.000000	0.324644
1681.000000	0.324671
1682.000000	0.324755
1683.000000	0.324952
1684.000000	0.324947
1685.000000	0.324870
1686.000000	0.324813
1687.000000	0.324683
1688.000000	0.324635
1689.000000	0.324721
1690.000000	0.324779
1691.000000	0.324823
1692.000000	0.324711
1693.000000	0.324639
1694.000000	0.324569
1695.000000	0.324480
1696.000000	0.324438
1697.000000	0.324354
1698.000000	0.324275
1699.000000	0.324275
1700.000000	0.324406
1701.000000	0.324449
1702.000000	0.324226
1703.000000	0.324116
1704.000000	0.324066
1705.000000	0.324006
1706.000000	0.324137
1707.000000	0.324150
1708.000000	0.323995
1709.000000	0.323871
1710.000000	0.323869
1711.000000	0.323792
1712.000000	0.323674
1713.000000	0.323596
1714.000000	0.323478
1715.000000	0.323500
1716.000000	0.323742
1717.000000	0.323791
1718.000000	0.323798
1719.000000	0.323740
1720.000000	0.323497
1721.000000	0.323482
1722.000000	0.323657
1723.000000	0.323663
1724.000000	0.323740
1725.000000	0.323734
1726.000000	0.323382
1727.000000	0.323350
1728.000000	0.323462
1729.000000	0.323402
1730.000000	0.323553
1731.000000	0.323546
1732.000000	0.323369
1733.000000	0.323361
1734.000000	0.323246
1735.000000	0.323228
1736.000000	0.323283
1737.000000	0.323214
1738.000000	0.323132
1739.000000	0.323093
1740.000000	0.322912
1741.000000	0.322985
1742.000000	0.323258
1743.000000	0.323456
1744.000000	0.323752
1745.000000	0.323817
1746.000000	0.323778
1747.000000	0.323550
1748.000000	0.323438
1749.000000	0.323457
1750.000000	0.323359
1751.000000	0.323414
1752.000000	0.323512
1753.000000	0.323391
1754.000000	0.323305
1755.000000	0.323196
1756.000000	0.323125
1757.000000	0.323062
1758.000000	0.323010
1759.000000	0.322986
1760.000000	0.322968
1761.000000	0.322826
1762.000000	0.322830
1763.000000	0.323015
1764.000000	0.323103
1765.000000	0.323249
1766.000000	0.323276
1767.000000	0.323099
1768.000000	0.322935
1769.000000	0.322700
1770.000000	0.322745
1771.000000	0.322921
1772.000000	0.322988
1773.000000	0.323166
1774.000000	0.323196
1775.000000	0.323117
1776.000000	0.323066
1777.000000	0.322985
1778.000000	0.322888
1779.000000	0.322713
1780.000000	0.322618
1781.000000	0.322526
1782.000000	0.322415
1783.000000	0.322335
1784.000000	0.322301
1785.000000	0.322272
1786.000000	0.322273
1787.000000	0.322416
1788.000000	0.322498
1789.000000	0.322601
1790.000000	0.322959
1791.000000	0.322985
1792.000000	0.322852
1793.000000	0.322810
1794.000000	0.322592
1795.000000	0.322524
1796.000000	0.322696
1797.000000	0.322715
1798.000000	0.322511
1799.000000	0.322542
1800.000000	0.322860
1801.000000	0.323044
1802.000000	0.322841
1803.000000	0.322026
1804.000000	0.321753
1805.000000	0.321001
1806.000000	0.321087
1807.000000	0.322081
1808.000000	0.322568
1809.000000	0.323360
1810.000000	0.323986
1811.000000	0.323817
1812.000000	0.322977
1813.000000	0.322536
1814.000000	0.321527
1815.000000	0.320894
1816.000000	0.320481
1817.000000	0.320060
1818.000000	0.319247
1819.000000	0.319700
1820.000000	0.319872
1821.000000	0.320013
1822.000000	0.320039
1823.000000	0.320051
1824.000000	0.319668
1825.000000	0.318572
1826.000000	0.318257
1827.000000	0.317603
1828.000000	0.317736
1829.000000	0.318336
1830.000000	0.319321
1831.000000	0.319810
1832.000000	0.320243
1833.000000	0.320460
1834.000000	0.320646
1835.000000	0.320453
1836.000000	0.319509
1837.000000	0.319265
1838.000000	0.318708
1839.000000	0.318495
1840.000000	0.319473
1841.000000	0.320269
1842.000000	0.320673
1843.000000	0.321361
1844.000000	0.321331
1845.000000	0.320198
1846.000000	0.319865
1847.000000	0.319495
1848.000000	0.318739
1849.000000	0.319079
1850.000000	0.319511
1851.000000	0.319414
1852.000000	0.319121
1853.000000	0.319034
1854.000000	0.318477
1855.000000	0.318114
1856.000000	0.318182
1857.000000	0.317550
1858.000000	0.316788
1859.000000	0.315807
1860.000000	0.314391
1861.000000	0.314034
1862.000000	0.313758
1863.000000	0.313996
1864.000000	0.313983
1865.000000	0.314524
1866.000000	0.314429
1867.000000	0.313948
1868.000000	0.313199
1869.000000	0.312641
1870.000000	0.312055
1871.000000	0.312118
1872.000000	0.312469
1873.000000	0.312377
1874.000000	0.312498
1875.000000	0.311890
1876.000000	0.310632
1877.000000	0.308857
1878.000000	0.306341
1879.000000	0.304470
1880.000000	0.303103
1881.000000	0.301827
1882.000000	0.301545
1883.000000	0.300547
1884.000000	0.299441
1885.000000	0.297890
1886.000000	0.296355
1887.000000	0.294518
1888.000000	0.292856
1889.000000	0.290980
1890.000000	0.289117
1891.000000	0.286914
1892.000000	0.284656
1893.000000	0.282536
1894.000000	0.280265
1895.000000	0.277741
1896.000000	0.275352
1897.000000	0.272490
1898.000000	0.269558
1899.000000	0.267098
1900.000000	0.264714
1901.000000	0.263104
1902.000000	0.261788
1903.000000	0.260565
1904.000000	0.259884
1905.000000	0.259203
1906.000000	0.258091
1907.000000	0.256791
1908.000000	0.255415
1909.000000	0.254447
1910.000000	0.253694
1911.000000	0.253787
1912.000000	0.254171
1913.000000	0.254383
1914.000000	0.254620
1915.000000	0.254331
1916.000000	0.254437
1917.000000	0.254600
1918.000000	0.254930
1919.000000	0.255024
1920.000000	0.255492
1921.000000	0.256463
1922.000000	0.256947
1923.000000	0.257721
1924.000000	0.258466
1925.000000	0.258216
1926.000000	0.258526
1927.000000	0.258646
1928.000000	0.258794
1929.000000	0.259137
1930.000000	0.259679
1931.000000	0.259507
1932.000000	0.259665
1933.000000	0.259767
1934.000000	0.259888
1935.000000	0.260255
1936.000000	0.261162
1937.000000	0.262008
1938.000000	0.262318
1939.000000	0.262765
1940.000000	0.263392
1941.000000	0.263319
1942.000000	0.263132
1943.000000	0.263667
1944.000000	0.264095
1945.000000	0.264529
1946.000000	0.264916
1947.000000	0.264714
1948.000000	0.264303
1949.000000	0.264128
1950.000000	0.264127
1951.000000	0.264094
1952.000000	0.264420
1953.000000	0.264577
1954.000000	0.264550
1955.000000	0.264612
1956.000000	0.264903
1957.000000	0.265035
1958.000000	0.264798
1959.000000	0.264993
1960.000000	0.265144
1961.000000	0.265601
1962.000000	0.265983
1963.000000	0.266924
1964.000000	0.267101
1965.000000	0.266741
1966.000000	0.266325
1967.000000	0.266368
1968.000000	0.266733
1969.000000	0.267173
1970.000000	0.267552
1971.000000	0.267263
1972.000000	0.266929
1973.000000	0.266809
1974.000000	0.266813
1975.000000	0.267040
1976.000000	0.267662
1977.000000	0.268206
1978.000000	0.268159
1979.000000	0.268674
1980.000000	0.269459
1981.000000	0.269794
1982.000000	0.270278
1983.000000	0.270575
1984.000000	0.270731
1985.000000	0.270314
1986.000000	0.270311
1987.000000	0.270353
1988.000000	0.271201
1989.000000	0.271520
1990.000000	0.271746
1991.000000	0.272743
1992.000000	0.273009
1993.000000	0.273174
1994.000000	0.273529
1995.000000	0.273175
1996.000000	0.273030
1997.000000	0.273305
1998.000000	0.274046
1999.000000	0.274703
2000.000000	0.275780
2001.000000	0.276487
2002.000000	0.277397
2003.000000	0.277896
2004.000000	0.277821
2005.000000	0.277744
2006.000000	0.277435
2007.000000	0.277645
2008.000000	0.277957
2009.000000	0.278766
2010.000000	0.279342
2011.000000	0.279712
2012.000000	0.280140
2013.000000	0.280444
2014.000000	0.281012
2015.000000	0.281998
2016.000000	0.282678
2017.000000	0.283110
2018.000000	0.283744
2019.000000	0.284458
2020.000000	0.284724
2021.000000	0.284928
2022.000000	0.285115
2023.000000	0.285381
2024.000000	0.285543
2025.000000	0.285634
2026.000000	0.285781
2027.000000	0.285720
2028.000000	0.285199
2029.000000	0.284811
2030.000000	0.285185
2031.000000	0.285986
2032.000000	0.287069
2033.000000	0.287807
2034.000000	0.288103
2035.000000	0.288031
2036.000000	0.287932
2037.000000	0.287214
2038.000000	0.287365
2039.000000	0.287935
2040.000000	0.288702
2041.000000	0.289437
2042.000000	0.290041
2043.000000	0.290353
2044.000000	0.289916
2045.000000	0.290010
2046.000000	0.290257
2047.000000	0.290345
2048.000000	0.290468
2049.000000	0.290696
2050.000000	0.290454
2051.000000	0.290435
2052.000000	0.290618
2053.000000	0.290496
2054.000000	0.290432
2055.000000	0.290241
2056.000000	0.290322
2057.000000	0.290314
2058.000000	0.291247
2059.000000	0.292544
2060.000000	0.293007
2061.000000	0.293472
2062.000000	0.293867
2063.000000	0.293375
2064.000000	0.293436
2065.000000	0.294455
2066.000000	0.294592
2067.000000	0.294590
2068.000000	0.294738
2069.000000	0.294399
2070.000000	0.294135
2071.000000	0.294241
2072.000000	0.294558
2073.000000	0.295164
2074.000000	0.295590
2075.000000	0.295862
2076.000000	0.295996
2077.000000	0.296069
2078.000000	0.296061
2079.000000	0.295907
2080.000000	0.295398
2081.000000	0.295365
2082.000000	0.295552
2083.000000	0.295555
2084.000000	0.295874
2085.000000	0.296053
2086.000000	0.295470
2087.000000	0.295013
2088.000000	0.294842
2089.000000	0.294772
2090.000000	0.295110
2091.000000	0.296191
2092.000000	0.296796
2093.000000	0.297614
2094.000000	0.298095
2095.000000	0.298415
2096.000000	0.298675
2097.000000	0.298642
2098.000000	0.298486
2099.000000	0.298884
2100.000000	0.299096
2101.000000	0.299249
2102.000000	0.299380
2103.000000	0.299177
2104.000000	0.299144
2105.000000	0.299110
2106.000000	0.299314
2107.000000	0.299309
2108.000000	0.298828
2109.000000	0.298950
2110.000000	0.299400
2111.000000	0.299604
2112.000000	0.299988
2113.000000	0.299948
2114.000000	0.300169
2115.000000	0.299799
2116.000000	0.299678
2117.000000	0.300038
2118.000000	0.300016
2119.000000	0.299920
2120.000000	0.299941
2121.000000	0.299734
2122.000000	0.300289
2123.000000	0.301826
2124.000000	0.302222
2125.000000	0.302937
2126.000000	0.302719
2127.000000	0.300286
2128.000000	0.299686
2129.000000	0.299664
2130.000000	0.299644
2131.000000	0.300918
2132.000000	0.302019
2133.000000	0.301252
2134.000000	0.300922
2135.000000	0.299553
2136.000000	0.298261
2137.000000	0.298157
2138.000000	0.299137
2139.000000	0.299852
2140.000000	0.301440
2141.000000	0.302226
2142.000000	0.302843
2143.000000	0.302900
2144.000000	0.302692
2145.000000	0.302733
2146.000000	0.302885
2147.000000	0.302555
2148.000000	0.302247
2149.000000	0.301791
2150.000000	0.300613
2151.000000	0.300167
2152.000000	0.299968
2153.000000	0.298783
2154.000000	0.298283
2155.000000	0.298020
2156.000000	0.297655
2157.000000	0.297631
2158.000000	0.297564
2159.000000	0.297123
2160.000000	0.297389
2161.000000	0.298095
2162.000000	0.298773
2163.000000	0.300484
2164.000000	0.300850
2165.000000	0.300429
2166.000000	0.300017
2167.000000	0.298590
2168.000000	0.297574
2169.000000	0.297822
2170.000000	0.297940
2171.000000	0.298659
2172.000000	0.300786
2173.000000	0.301198
2174.000000	0.301163
2175.000000	0.301020
2176.000000	0.299597
2177.000000	0.299150
2178.000000	0.299727
2179.000000	0.299504
2180.000000	0.298916
2181.000000	0.298681
2182.000000	0.297538
2183.000000	0.296337
2184.000000	0.296336
2185.000000	0.297065
2186.000000	0.299044
2187.000000	0.299928
2188.000000	0.300629
2189.000000	0.300819
2190.000000	0.300046
2191.000000	0.300869
2192.000000	0.300942
2193.000000	0.301266
2194.000000	0.300957
2195.000000	0.299917
2196.000000	0.299282
2197.000000	0.297932
2198.000000	0.297942
2199.000000	0.299459
2200.000000	0.299967
2201.000000	0.301110
2202.000000	0.301637
2203.000000	0.300654
2204.000000	0.300495
2205.000000	0.299639
2206.000000	0.300223
2207.000000	0.299706
2208.000000	0.298634
2209.000000	0.298195
2210.000000	0.296371
2211.000000	0.296106
2212.000000	0.295506
2213.000000	0.294652
2214.000000	0.293689
2215.000000	0.293298
2216.000000	0.292310
2217.000000	0.293053
2218.000000	0.295729
2219.000000	0.296805
2220.000000	0.298191
2221.000000	0.298884
2222.000000	0.298430
2223.000000	0.298223
2224.000000	0.298296
2225.000000	0.297798
2226.000000	0.296146
2227.000000	0.294940
2228.000000	0.293053
2229.000000	0.291084
2230.000000	0.291998
2231.000000	0.294374
2232.000000	0.295634
2233.000000	0.297045
2234.000000	0.297808
2235.000000	0.295064
2236.000000	0.293633
2237.000000	0.292288
2238.000000	0.291645
2239.000000	0.290161
2240.000000	0.290714
2241.000000	0.294585
2242.000000	0.295135
2243.000000	0.293954
2244.000000	0.294255
2245.000000	0.293173
2246.000000	0.292736
2247.000000	0.294482
2248.000000	0.295402
2249.000000	0.295832
2250.000000	0.296015
2251.000000	0.296376
2252.000000	0.295098
2253.000000	0.291579
2254.000000	0.289545
2255.000000	0.289483
2256.000000	0.289520
2257.000000	0.292693
2258.000000	0.295122
2259.000000	0.295913
2260.000000	0.297700
2261.000000	0.296342
2262.000000	0.292237
2263.000000	0.290072
2264.000000	0.285324
2265.000000	0.284200
2266.000000	0.287018
2267.000000	0.287413
2268.000000	0.288294
2269.000000	0.288499
2270.000000	0.288089
2271.000000	0.285707
2272.000000	0.280829
2273.000000	0.278989
2274.000000	0.276799
2275.000000	0.276157
2276.000000	0.278649
2277.000000	0.279978
2278.000000	0.280771
2279.000000	0.279039
2280.000000	0.276374
2281.000000	0.275852
2282.000000	0.274254
2283.000000	0.272930
2284.000000	0.273271
2285.000000	0.273522
2286.000000	0.274911
2287.000000	0.274642
2288.000000	0.272937
2289.000000	0.270678
2290.000000	0.267447
2291.000000	0.265749
2292.000000	0.263724
2293.000000	0.264216
2294.000000	0.265567
2295.000000	0.267478
2296.000000	0.269656
2297.000000	0.275271
2298.000000	0.276449
2299.000000	0.275019
2300.000000	0.276569
2301.000000	0.276778
2302.000000	0.278090
2303.000000	0.282969
2304.000000	0.284534
2305.000000	0.284301
2306.000000	0.283649
2307.000000	0.281561
2308.000000	0.279886
2309.000000	0.278109
2310.000000	0.278263
2311.000000	0.280269
2312.000000	0.280870
2313.000000	0.280558
2314.000000	0.280620
2315.000000	0.281497
2316.000000	0.281261
2317.000000	0.279499
2318.000000	0.280759
2319.000000	0.280544
2320.000000	0.279286
2321.000000	0.280874
2322.000000	0.280403
2323.000000	0.279587
2324.000000	0.281304
2325.000000	0.282134
2326.000000	0.283041
2327.000000	0.283808
2328.000000	0.283311
2329.000000	0.283588
2330.000000	0.281516
2331.000000	0.279643
2332.000000	0.278521
2333.000000	0.275501
2334.000000	0.277775
2335.000000	0.279841
2336.000000	0.282796
2337.000000	0.283942
2338.000000	0.286269
2339.000000	0.285513
2340.000000	0.281556
2341.000000	0.280614
2342.000000	0.279278
2343.000000	0.278691
2344.000000	0.279643
2345.000000	0.280114
2346.000000	0.281814
2347.000000	0.281470
2348.000000	0.279943
2349.000000	0.279606
2350.000000	0.276343
2351.000000	0.274371
2352.000000	0.273429
2353.000000	0.272709
2354.000000	0.273528
2355.000000	0.271910
2356.000000	0.272392
2357.000000	0.273096
2358.000000	0.271892
2359.000000	0.271340
2360.000000	0.270547
2361.000000	0.269382
2362.000000	0.270283
2363.000000	0.272050
2364.000000	0.268781
2365.000000	0.266851
2366.000000	0.263003
2367.000000	0.258681
2368.000000	0.261463
2369.000000	0.260232
2370.000000	0.257878
2371.000000	0.258420
2372.000000	0.254404
2373.000000	0.250957
2374.000000	0.247221
2375.000000	0.243134
2376.000000	0.244195
2377.000000	0.248088
2378.000000	0.255001
2379.000000	0.260876
2380.000000	0.263641
2381.000000	0.265327
2382.000000	0.264192
2383.000000	0.260745
2384.000000	0.256129
2385.000000	0.248719
2386.000000	0.245811
2387.000000	0.249990
2388.000000	0.253924
2389.000000	0.258113
2390.000000	0.257975
2391.000000	0.252172
2392.000000	0.249124
2393.000000	0.245086
2394.000000	0.240341
2395.000000	0.240303
2396.000000	0.239785
2397.000000	0.243285
2398.000000	0.246813
2399.000000	0.243579
2400.000000	0.240120
2401.000000	0.234270
2402.000000	0.234987
2403.000000	0.244415
2404.000000	0.244311
2405.000000	0.245711
2406.000000	0.249100
2407.000000	0.241697
2408.000000	0.243003
2409.000000	0.242015
2410.000000	0.235120
2411.000000	0.235743
2412.000000	0.226173
2413.000000	0.214751
2414.000000	0.212019
2415.000000	0.206705
2416.000000	0.204450
2417.000000	0.211440
2418.000000	0.215795
2419.000000	0.207659
2420.000000	0.208948
2421.000000	0.216893
2422.000000	0.218560
2423.000000	0.231692
2424.000000	0.237872
2425.000000	0.230368
2426.000000	0.228578
2427.000000	0.228776
2428.000000	0.228302
2429.000000	0.238438
2430.000000	0.245549
2431.000000	0.241291
2432.000000	0.252127
2433.000000	0.261290
2434.000000	0.259034
2435.000000	0.261421
2436.000000	0.256322
2437.000000	0.246226
2438.000000	0.252634
2439.000000	0.259950
2440.000000	0.252742
2441.000000	0.252562
2442.000000	0.245718
2443.000000	0.229293
2444.000000	0.225948
2445.000000	0.228424
2446.000000	0.225622
2447.000000	0.224291
2448.000000	0.230553
2449.000000	0.216085
2450.000000	0.197945
2451.000000	0.193859
2452.000000	0.190331
2453.000000	0.207774
2454.000000	0.230540
2455.000000	0.236580
2456.000000	0.224187
2457.000000	0.202712
2458.000000	0.187976
2459.000000	0.178347
2460.000000	0.185008
2461.000000	0.218432
2462.000000	0.234164
2463.000000	0.243708
2464.000000	0.257918
2465.000000	0.238856
2466.000000	0.231673
2467.000000	0.231989
2468.000000	0.221318
2469.000000	0.220833
2470.000000	0.220516
2471.000000	0.217723
2472.000000	0.224836
2473.000000	0.237001
2474.000000	0.241121
2475.000000	0.241135
2476.000000	0.239937
2477.000000	0.243144
2478.000000	0.249952
2479.000000	0.238064
2480.000000	0.237400
2481.000000	0.237954
2482.000000	0.213698
2483.000000	0.236800
2484.000000	0.257999
2485.000000	0.250207
2486.000000	0.250734
2487.000000	0.237600
2488.000000	0.227698
2489.000000	0.202877
2490.000000	0.159440
2491.000000	0.070842
2492.000000	0.043466
2493.000000	0.059077
2494.000000	0.062234
2495.000000	0.112605
2496.000000	0.122795
2497.000000	0.068066
2498.000000	0.072139
2499.000000	0.118718
2500.000000	0.143035
