# Wavelength	NAu-1-70_HEX-10_FV7-20_00002.asd.rts.txt
350.000000	0.086443
351.000000	0.091945
352.000000	0.089903
353.000000	0.093598
354.000000	0.106112
355.000000	0.100095
356.000000	0.094987
357.000000	0.096243
358.000000	0.098484
359.000000	0.104073
360.000000	0.112505
361.000000	0.120120
362.000000	0.103160
363.000000	0.091496
364.000000	0.100688
365.000000	0.102632
366.000000	0.102009
367.000000	0.100962
368.000000	0.100485
369.000000	0.097618
370.000000	0.095887
371.000000	0.099479
372.000000	0.102019
373.000000	0.104243
374.000000	0.106146
375.000000	0.101872
376.000000	0.100075
377.000000	0.103835
378.000000	0.112111
379.000000	0.110516
380.000000	0.106345
381.000000	0.111839
382.000000	0.109224
383.000000	0.106194
384.000000	0.108789
385.000000	0.110667
386.000000	0.111948
387.000000	0.113220
388.000000	0.115598
389.000000	0.114988
390.000000	0.114285
391.000000	0.118017
392.000000	0.120345
393.000000	0.122120
394.000000	0.124615
395.000000	0.127454
396.000000	0.129827
397.000000	0.131170
398.000000	0.130953
399.000000	0.131821
400.000000	0.133559
401.000000	0.134669
402.000000	0.135908
403.000000	0.137357
404.000000	0.138879
405.000000	0.139311
406.000000	0.140118
407.000000	0.142023
408.000000	0.144620
409.000000	0.146680
410.000000	0.147602
411.000000	0.147184
412.000000	0.148286
413.000000	0.150056
414.000000	0.151112
415.000000	0.152683
416.000000	0.153632
417.000000	0.153660
418.000000	0.154647
419.000000	0.155298
420.000000	0.155346
421.000000	0.155292
422.000000	0.155951
423.000000	0.156484
424.000000	0.155807
425.000000	0.155579
426.000000	0.155629
427.000000	0.155692
428.000000	0.156122
429.000000	0.156247
430.000000	0.155902
431.000000	0.155496
432.000000	0.155501
433.000000	0.155792
434.000000	0.155983
435.000000	0.155794
436.000000	0.155460
437.000000	0.155259
438.000000	0.155285
439.000000	0.154929
440.000000	0.154197
441.000000	0.154201
442.000000	0.153823
443.000000	0.153067
444.000000	0.152798
445.000000	0.152241
446.000000	0.151953
447.000000	0.152589
448.000000	0.153673
449.000000	0.154756
450.000000	0.155761
451.000000	0.157584
452.000000	0.159505
453.000000	0.161449
454.000000	0.164266
455.000000	0.167025
456.000000	0.169711
457.000000	0.172544
458.000000	0.175170
459.000000	0.177703
460.000000	0.180268
461.000000	0.182445
462.000000	0.184600
463.000000	0.186646
464.000000	0.187932
465.000000	0.189464
466.000000	0.191146
467.000000	0.192280
468.000000	0.193261
469.000000	0.194172
470.000000	0.195136
471.000000	0.195988
472.000000	0.196877
473.000000	0.197805
474.000000	0.198143
475.000000	0.198611
476.000000	0.199505
477.000000	0.200450
478.000000	0.201007
479.000000	0.201426
480.000000	0.201972
481.000000	0.202618
482.000000	0.203318
483.000000	0.203875
484.000000	0.204482
485.000000	0.205104
486.000000	0.205801
487.000000	0.206348
488.000000	0.206865
489.000000	0.207441
490.000000	0.208143
491.000000	0.208899
492.000000	0.209630
493.000000	0.210185
494.000000	0.210856
495.000000	0.211477
496.000000	0.211980
497.000000	0.212879
498.000000	0.213685
499.000000	0.214328
500.000000	0.215067
501.000000	0.215849
502.000000	0.216634
503.000000	0.217316
504.000000	0.218169
505.000000	0.219031
506.000000	0.219741
507.000000	0.220564
508.000000	0.221393
509.000000	0.222162
510.000000	0.223045
511.000000	0.223947
512.000000	0.224851
513.000000	0.225746
514.000000	0.226702
515.000000	0.227696
516.000000	0.228632
517.000000	0.229646
518.000000	0.230675
519.000000	0.231617
520.000000	0.232696
521.000000	0.233759
522.000000	0.234747
523.000000	0.235691
524.000000	0.236806
525.000000	0.238027
526.000000	0.239178
527.000000	0.240382
528.000000	0.241538
529.000000	0.242598
530.000000	0.243787
531.000000	0.245083
532.000000	0.246358
533.000000	0.247593
534.000000	0.248859
535.000000	0.250133
536.000000	0.251327
537.000000	0.252614
538.000000	0.253969
539.000000	0.255278
540.000000	0.256554
541.000000	0.257815
542.000000	0.259113
543.000000	0.260446
544.000000	0.261757
545.000000	0.262990
546.000000	0.264341
547.000000	0.265667
548.000000	0.266942
549.000000	0.268115
550.000000	0.269380
551.000000	0.270702
552.000000	0.271944
553.000000	0.273225
554.000000	0.274488
555.000000	0.275711
556.000000	0.277024
557.000000	0.278158
558.000000	0.279210
559.000000	0.280404
560.000000	0.281513
561.000000	0.282628
562.000000	0.283819
563.000000	0.284891
564.000000	0.285918
565.000000	0.286907
566.000000	0.287929
567.000000	0.288887
568.000000	0.289729
569.000000	0.290611
570.000000	0.291434
571.000000	0.292197
572.000000	0.293010
573.000000	0.293777
574.000000	0.294471
575.000000	0.295149
576.000000	0.295779
577.000000	0.296386
578.000000	0.297055
579.000000	0.297737
580.000000	0.298345
581.000000	0.298854
582.000000	0.299348
583.000000	0.299732
584.000000	0.300080
585.000000	0.300553
586.000000	0.300894
587.000000	0.301174
588.000000	0.301519
589.000000	0.301853
590.000000	0.302147
591.000000	0.302393
592.000000	0.302621
593.000000	0.302874
594.000000	0.303142
595.000000	0.303358
596.000000	0.303550
597.000000	0.303724
598.000000	0.303778
599.000000	0.303805
600.000000	0.303921
601.000000	0.304089
602.000000	0.304115
603.000000	0.304112
604.000000	0.304145
605.000000	0.304140
606.000000	0.304163
607.000000	0.304205
608.000000	0.304207
609.000000	0.304211
610.000000	0.304245
611.000000	0.304317
612.000000	0.304318
613.000000	0.304323
614.000000	0.304396
615.000000	0.304395
616.000000	0.304412
617.000000	0.304435
618.000000	0.304452
619.000000	0.304530
620.000000	0.304595
621.000000	0.304591
622.000000	0.304603
623.000000	0.304600
624.000000	0.304569
625.000000	0.304644
626.000000	0.304830
627.000000	0.305039
628.000000	0.305015
629.000000	0.305071
630.000000	0.305138
631.000000	0.305249
632.000000	0.305330
633.000000	0.305419
634.000000	0.305547
635.000000	0.305695
636.000000	0.305806
637.000000	0.305857
638.000000	0.305964
639.000000	0.306091
640.000000	0.306252
641.000000	0.306323
642.000000	0.306408
643.000000	0.306536
644.000000	0.306710
645.000000	0.306874
646.000000	0.307040
647.000000	0.307194
648.000000	0.307321
649.000000	0.307530
650.000000	0.307788
651.000000	0.307941
652.000000	0.308087
653.000000	0.308296
654.000000	0.308538
655.000000	0.308773
656.000000	0.309038
657.000000	0.309305
658.000000	0.309563
659.000000	0.309824
660.000000	0.310069
661.000000	0.310290
662.000000	0.310448
663.000000	0.310660
664.000000	0.311020
665.000000	0.311341
666.000000	0.311610
667.000000	0.311840
668.000000	0.312146
669.000000	0.312496
670.000000	0.312864
671.000000	0.313224
672.000000	0.313588
673.000000	0.313954
674.000000	0.314339
675.000000	0.314687
676.000000	0.315047
677.000000	0.315495
678.000000	0.315921
679.000000	0.316312
680.000000	0.316692
681.000000	0.317088
682.000000	0.317530
683.000000	0.317924
684.000000	0.318273
685.000000	0.318679
686.000000	0.319165
687.000000	0.319661
688.000000	0.320148
689.000000	0.320606
690.000000	0.321070
691.000000	0.321596
692.000000	0.322096
693.000000	0.322614
694.000000	0.323162
695.000000	0.323673
696.000000	0.324161
697.000000	0.324675
698.000000	0.325234
699.000000	0.325813
700.000000	0.326382
701.000000	0.326864
702.000000	0.327367
703.000000	0.327902
704.000000	0.328399
705.000000	0.328989
706.000000	0.329588
707.000000	0.330124
708.000000	0.330644
709.000000	0.331157
710.000000	0.331698
711.000000	0.332311
712.000000	0.332862
713.000000	0.333355
714.000000	0.333937
715.000000	0.334522
716.000000	0.335106
717.000000	0.335685
718.000000	0.336295
719.000000	0.336836
720.000000	0.337271
721.000000	0.337796
722.000000	0.338280
723.000000	0.338768
724.000000	0.339361
725.000000	0.339898
726.000000	0.340443
727.000000	0.340974
728.000000	0.341523
729.000000	0.342092
730.000000	0.342611
731.000000	0.343099
732.000000	0.343552
733.000000	0.344022
734.000000	0.344515
735.000000	0.344916
736.000000	0.345350
737.000000	0.345743
738.000000	0.346082
739.000000	0.346516
740.000000	0.346940
741.000000	0.347285
742.000000	0.347710
743.000000	0.348167
744.000000	0.348464
745.000000	0.348748
746.000000	0.349074
747.000000	0.349361
748.000000	0.349756
749.000000	0.350139
750.000000	0.350395
751.000000	0.350640
752.000000	0.350891
753.000000	0.351131
754.000000	0.351285
755.000000	0.351517
756.000000	0.351800
757.000000	0.352001
758.000000	0.352130
759.000000	0.352247
760.000000	0.352334
761.000000	0.352524
762.000000	0.352676
763.000000	0.352751
764.000000	0.352855
765.000000	0.352914
766.000000	0.352937
767.000000	0.352943
768.000000	0.352984
769.000000	0.353010
770.000000	0.353011
771.000000	0.353015
772.000000	0.353056
773.000000	0.353048
774.000000	0.353013
775.000000	0.352991
776.000000	0.352885
777.000000	0.352659
778.000000	0.352573
779.000000	0.352501
780.000000	0.352402
781.000000	0.352282
782.000000	0.352078
783.000000	0.351921
784.000000	0.351755
785.000000	0.351551
786.000000	0.351341
787.000000	0.351146
788.000000	0.350985
789.000000	0.350803
790.000000	0.350592
791.000000	0.350411
792.000000	0.350129
793.000000	0.349829
794.000000	0.349583
795.000000	0.349255
796.000000	0.348955
797.000000	0.348683
798.000000	0.348337
799.000000	0.348059
800.000000	0.347842
801.000000	0.347632
802.000000	0.347366
803.000000	0.347019
804.000000	0.346643
805.000000	0.346286
806.000000	0.345884
807.000000	0.345528
808.000000	0.345201
809.000000	0.344873
810.000000	0.344547
811.000000	0.344201
812.000000	0.343799
813.000000	0.343347
814.000000	0.342901
815.000000	0.342584
816.000000	0.342311
817.000000	0.342059
818.000000	0.341734
819.000000	0.341445
820.000000	0.341171
821.000000	0.340834
822.000000	0.340451
823.000000	0.340083
824.000000	0.339625
825.000000	0.339082
826.000000	0.338643
827.000000	0.338251
828.000000	0.337899
829.000000	0.337552
830.000000	0.337217
831.000000	0.336908
832.000000	0.336466
833.000000	0.336086
834.000000	0.335731
835.000000	0.335364
836.000000	0.334887
837.000000	0.334458
838.000000	0.334153
839.000000	0.333927
840.000000	0.333726
841.000000	0.333487
842.000000	0.333127
843.000000	0.332694
844.000000	0.332192
845.000000	0.331682
846.000000	0.331365
847.000000	0.330946
848.000000	0.330482
849.000000	0.330140
850.000000	0.329903
851.000000	0.329579
852.000000	0.329165
853.000000	0.328802
854.000000	0.328441
855.000000	0.328138
856.000000	0.327774
857.000000	0.327395
858.000000	0.327016
859.000000	0.326605
860.000000	0.326333
861.000000	0.325988
862.000000	0.325641
863.000000	0.325364
864.000000	0.325062
865.000000	0.324740
866.000000	0.324424
867.000000	0.324085
868.000000	0.323797
869.000000	0.323477
870.000000	0.323110
871.000000	0.322716
872.000000	0.322399
873.000000	0.322124
874.000000	0.321793
875.000000	0.321468
876.000000	0.321190
877.000000	0.320908
878.000000	0.320557
879.000000	0.320229
880.000000	0.319880
881.000000	0.319719
882.000000	0.319550
883.000000	0.319400
884.000000	0.319291
885.000000	0.319052
886.000000	0.318797
887.000000	0.318588
888.000000	0.318234
889.000000	0.318046
890.000000	0.317817
891.000000	0.317420
892.000000	0.316966
893.000000	0.316654
894.000000	0.316618
895.000000	0.316463
896.000000	0.316345
897.000000	0.316162
898.000000	0.315790
899.000000	0.315410
900.000000	0.315158
901.000000	0.315019
902.000000	0.314921
903.000000	0.314790
904.000000	0.314636
905.000000	0.314413
906.000000	0.314350
907.000000	0.314226
908.000000	0.314050
909.000000	0.313904
910.000000	0.313807
911.000000	0.313725
912.000000	0.313606
913.000000	0.313271
914.000000	0.313052
915.000000	0.313020
916.000000	0.312865
917.000000	0.312704
918.000000	0.312564
919.000000	0.312438
920.000000	0.312383
921.000000	0.312244
922.000000	0.312111
923.000000	0.312127
924.000000	0.311953
925.000000	0.311805
926.000000	0.311800
927.000000	0.311663
928.000000	0.311531
929.000000	0.311389
930.000000	0.311216
931.000000	0.311191
932.000000	0.311135
933.000000	0.311050
934.000000	0.311040
935.000000	0.310725
936.000000	0.310504
937.000000	0.310596
938.000000	0.310567
939.000000	0.310590
940.000000	0.310624
941.000000	0.310650
942.000000	0.310411
943.000000	0.310288
944.000000	0.310320
945.000000	0.310251
946.000000	0.310060
947.000000	0.309862
948.000000	0.309734
949.000000	0.309683
950.000000	0.309719
951.000000	0.309712
952.000000	0.309548
953.000000	0.309424
954.000000	0.309331
955.000000	0.309178
956.000000	0.309059
957.000000	0.309144
958.000000	0.309243
959.000000	0.309216
960.000000	0.309453
961.000000	0.309450
962.000000	0.309194
963.000000	0.309357
964.000000	0.309440
965.000000	0.309518
966.000000	0.309575
967.000000	0.309459
968.000000	0.309552
969.000000	0.309731
970.000000	0.309757
971.000000	0.309480
972.000000	0.309465
973.000000	0.309780
974.000000	0.310011
975.000000	0.309936
976.000000	0.309867
977.000000	0.310036
978.000000	0.310085
979.000000	0.310256
980.000000	0.310294
981.000000	0.310302
982.000000	0.310505
983.000000	0.310634
984.000000	0.310655
985.000000	0.310672
986.000000	0.310959
987.000000	0.311354
988.000000	0.311471
989.000000	0.311017
990.000000	0.311172
991.000000	0.311609
992.000000	0.311669
993.000000	0.311730
994.000000	0.311856
995.000000	0.312118
996.000000	0.312193
997.000000	0.312400
998.000000	0.312550
999.000000	0.312771
1000.000000	0.313444
1001.000000	0.312917
1002.000000	0.313024
1003.000000	0.312825
1004.000000	0.312849
1005.000000	0.312918
1006.000000	0.313175
1007.000000	0.313611
1008.000000	0.314241
1009.000000	0.314666
1010.000000	0.314652
1011.000000	0.314629
1012.000000	0.314890
1013.000000	0.315128
1014.000000	0.315315
1015.000000	0.315704
1016.000000	0.315953
1017.000000	0.315907
1018.000000	0.316375
1019.000000	0.316717
1020.000000	0.317035
1021.000000	0.317186
1022.000000	0.317713
1023.000000	0.318133
1024.000000	0.318342
1025.000000	0.318739
1026.000000	0.318792
1027.000000	0.318488
1028.000000	0.318236
1029.000000	0.318566
1030.000000	0.319410
1031.000000	0.319910
1032.000000	0.320280
1033.000000	0.320739
1034.000000	0.321074
1035.000000	0.321129
1036.000000	0.321426
1037.000000	0.321949
1038.000000	0.322023
1039.000000	0.321922
1040.000000	0.321981
1041.000000	0.322209
1042.000000	0.322745
1043.000000	0.323321
1044.000000	0.324410
1045.000000	0.325360
1046.000000	0.325742
1047.000000	0.326155
1048.000000	0.326550
1049.000000	0.326714
1050.000000	0.326275
1051.000000	0.326557
1052.000000	0.327199
1053.000000	0.327546
1054.000000	0.328326
1055.000000	0.328925
1056.000000	0.329409
1057.000000	0.329664
1058.000000	0.330022
1059.000000	0.330410
1060.000000	0.331026
1061.000000	0.331777
1062.000000	0.332188
1063.000000	0.332818
1064.000000	0.333599
1065.000000	0.334287
1066.000000	0.335032
1067.000000	0.336309
1068.000000	0.336951
1069.000000	0.337111
1070.000000	0.337391
1071.000000	0.337369
1072.000000	0.337553
1073.000000	0.337780
1074.000000	0.338358
1075.000000	0.338812
1076.000000	0.339490
1077.000000	0.339756
1078.000000	0.339979
1079.000000	0.340386
1080.000000	0.340879
1081.000000	0.341251
1082.000000	0.341668
1083.000000	0.342296
1084.000000	0.343028
1085.000000	0.343562
1086.000000	0.344333
1087.000000	0.344915
1088.000000	0.344902
1089.000000	0.345254
1090.000000	0.345719
1091.000000	0.346255
1092.000000	0.346956
1093.000000	0.347863
1094.000000	0.348641
1095.000000	0.349526
1096.000000	0.350157
1097.000000	0.350646
1098.000000	0.351137
1099.000000	0.351344
1100.000000	0.351858
1101.000000	0.352386
1102.000000	0.353002
1103.000000	0.353880
1104.000000	0.354530
1105.000000	0.355212
1106.000000	0.355670
1107.000000	0.355638
1108.000000	0.355952
1109.000000	0.356416
1110.000000	0.356797
1111.000000	0.357377
1112.000000	0.358223
1113.000000	0.358939
1114.000000	0.359644
1115.000000	0.360384
1116.000000	0.361321
1117.000000	0.361925
1118.000000	0.362407
1119.000000	0.362748
1120.000000	0.362642
1121.000000	0.362961
1122.000000	0.363562
1123.000000	0.364246
1124.000000	0.365048
1125.000000	0.365617
1126.000000	0.365732
1127.000000	0.366094
1128.000000	0.366504
1129.000000	0.366868
1130.000000	0.367502
1131.000000	0.368572
1132.000000	0.369058
1133.000000	0.369330
1134.000000	0.369914
1135.000000	0.370348
1136.000000	0.370810
1137.000000	0.371720
1138.000000	0.372076
1139.000000	0.371945
1140.000000	0.372252
1141.000000	0.372492
1142.000000	0.372834
1143.000000	0.373284
1144.000000	0.373917
1145.000000	0.374438
1146.000000	0.374909
1147.000000	0.375463
1148.000000	0.376126
1149.000000	0.376520
1150.000000	0.376831
1151.000000	0.377115
1152.000000	0.377062
1153.000000	0.377368
1154.000000	0.377796
1155.000000	0.378161
1156.000000	0.378628
1157.000000	0.379106
1158.000000	0.379537
1159.000000	0.379896
1160.000000	0.380238
1161.000000	0.380620
1162.000000	0.380979
1163.000000	0.381536
1164.000000	0.381985
1165.000000	0.382433
1166.000000	0.382892
1167.000000	0.383197
1168.000000	0.383595
1169.000000	0.384213
1170.000000	0.384564
1171.000000	0.384750
1172.000000	0.385175
1173.000000	0.385545
1174.000000	0.385910
1175.000000	0.386493
1176.000000	0.386841
1177.000000	0.387114
1178.000000	0.387358
1179.000000	0.387400
1180.000000	0.387568
1181.000000	0.387875
1182.000000	0.388157
1183.000000	0.388653
1184.000000	0.389034
1185.000000	0.389396
1186.000000	0.389738
1187.000000	0.390018
1188.000000	0.390267
1189.000000	0.390469
1190.000000	0.390582
1191.000000	0.390814
1192.000000	0.391238
1193.000000	0.391651
1194.000000	0.391989
1195.000000	0.392299
1196.000000	0.392475
1197.000000	0.392691
1198.000000	0.392958
1199.000000	0.393188
1200.000000	0.393380
1201.000000	0.393575
1202.000000	0.393790
1203.000000	0.393971
1204.000000	0.394090
1205.000000	0.394397
1206.000000	0.394626
1207.000000	0.394964
1208.000000	0.395204
1209.000000	0.395558
1210.000000	0.395791
1211.000000	0.395851
1212.000000	0.396096
1213.000000	0.396482
1214.000000	0.396733
1215.000000	0.397025
1216.000000	0.397261
1217.000000	0.397268
1218.000000	0.397435
1219.000000	0.397754
1220.000000	0.398018
1221.000000	0.398289
1222.000000	0.398535
1223.000000	0.398768
1224.000000	0.399020
1225.000000	0.399356
1226.000000	0.399658
1227.000000	0.399732
1228.000000	0.399973
1229.000000	0.400089
1230.000000	0.400000
1231.000000	0.400059
1232.000000	0.400349
1233.000000	0.400639
1234.000000	0.401030
1235.000000	0.401240
1236.000000	0.401182
1237.000000	0.401359
1238.000000	0.401531
1239.000000	0.401626
1240.000000	0.401778
1241.000000	0.401965
1242.000000	0.401893
1243.000000	0.401962
1244.000000	0.402337
1245.000000	0.402654
1246.000000	0.402882
1247.000000	0.403252
1248.000000	0.403474
1249.000000	0.403565
1250.000000	0.403772
1251.000000	0.403868
1252.000000	0.403900
1253.000000	0.403893
1254.000000	0.403893
1255.000000	0.403750
1256.000000	0.403828
1257.000000	0.404027
1258.000000	0.404224
1259.000000	0.404463
1260.000000	0.404704
1261.000000	0.404867
1262.000000	0.405049
1263.000000	0.405317
1264.000000	0.405524
1265.000000	0.405579
1266.000000	0.405501
1267.000000	0.405359
1268.000000	0.405267
1269.000000	0.405160
1270.000000	0.405095
1271.000000	0.405159
1272.000000	0.405186
1273.000000	0.405394
1274.000000	0.405635
1275.000000	0.405668
1276.000000	0.405613
1277.000000	0.405743
1278.000000	0.405673
1279.000000	0.405643
1280.000000	0.405692
1281.000000	0.405643
1282.000000	0.405519
1283.000000	0.405571
1284.000000	0.405616
1285.000000	0.405659
1286.000000	0.405663
1287.000000	0.405758
1288.000000	0.405938
1289.000000	0.406087
1290.000000	0.406125
1291.000000	0.406092
1292.000000	0.406000
1293.000000	0.405833
1294.000000	0.405713
1295.000000	0.405870
1296.000000	0.406066
1297.000000	0.406208
1298.000000	0.406421
1299.000000	0.406405
1300.000000	0.406366
1301.000000	0.406398
1302.000000	0.406342
1303.000000	0.406418
1304.000000	0.406418
1305.000000	0.406498
1306.000000	0.406429
1307.000000	0.406292
1308.000000	0.406319
1309.000000	0.406379
1310.000000	0.406344
1311.000000	0.406450
1312.000000	0.406357
1313.000000	0.406083
1314.000000	0.406070
1315.000000	0.406118
1316.000000	0.406088
1317.000000	0.406071
1318.000000	0.406048
1319.000000	0.405978
1320.000000	0.405914
1321.000000	0.405634
1322.000000	0.405388
1323.000000	0.405284
1324.000000	0.405242
1325.000000	0.405254
1326.000000	0.405130
1327.000000	0.405003
1328.000000	0.404838
1329.000000	0.404650
1330.000000	0.404559
1331.000000	0.404477
1332.000000	0.404433
1333.000000	0.404385
1334.000000	0.404433
1335.000000	0.404437
1336.000000	0.404373
1337.000000	0.404293
1338.000000	0.404126
1339.000000	0.404062
1340.000000	0.404015
1341.000000	0.403954
1342.000000	0.403858
1343.000000	0.403831
1344.000000	0.403797
1345.000000	0.403731
1346.000000	0.403662
1347.000000	0.403430
1348.000000	0.403306
1349.000000	0.403005
1350.000000	0.402801
1351.000000	0.402669
1352.000000	0.402392
1353.000000	0.402291
1354.000000	0.402251
1355.000000	0.402143
1356.000000	0.402104
1357.000000	0.401898
1358.000000	0.401723
1359.000000	0.401568
1360.000000	0.401465
1361.000000	0.401549
1362.000000	0.401435
1363.000000	0.401174
1364.000000	0.401067
1365.000000	0.400875
1366.000000	0.400682
1367.000000	0.400572
1368.000000	0.400493
1369.000000	0.400267
1370.000000	0.399819
1371.000000	0.399329
1372.000000	0.398900
1373.000000	0.398376
1374.000000	0.397976
1375.000000	0.397609
1376.000000	0.397063
1377.000000	0.396530
1378.000000	0.396045
1379.000000	0.395379
1380.000000	0.394669
1381.000000	0.393924
1382.000000	0.393085
1383.000000	0.392255
1384.000000	0.391251
1385.000000	0.390221
1386.000000	0.389142
1387.000000	0.387869
1388.000000	0.386647
1389.000000	0.385353
1390.000000	0.384001
1391.000000	0.382682
1392.000000	0.381345
1393.000000	0.379891
1394.000000	0.378397
1395.000000	0.376913
1396.000000	0.375406
1397.000000	0.373794
1398.000000	0.372077
1399.000000	0.370402
1400.000000	0.368543
1401.000000	0.366831
1402.000000	0.365230
1403.000000	0.363768
1404.000000	0.362353
1405.000000	0.360801
1406.000000	0.359227
1407.000000	0.357709
1408.000000	0.356039
1409.000000	0.354636
1410.000000	0.353515
1411.000000	0.352284
1412.000000	0.351209
1413.000000	0.350401
1414.000000	0.349527
1415.000000	0.348783
1416.000000	0.348247
1417.000000	0.347810
1418.000000	0.347396
1419.000000	0.347194
1420.000000	0.347068
1421.000000	0.346948
1422.000000	0.346990
1423.000000	0.347152
1424.000000	0.346911
1425.000000	0.346499
1426.000000	0.346049
1427.000000	0.345436
1428.000000	0.344894
1429.000000	0.344525
1430.000000	0.344217
1431.000000	0.343910
1432.000000	0.343703
1433.000000	0.343600
1434.000000	0.343668
1435.000000	0.343831
1436.000000	0.344336
1437.000000	0.345081
1438.000000	0.345984
1439.000000	0.347219
1440.000000	0.348502
1441.000000	0.350015
1442.000000	0.351553
1443.000000	0.353126
1444.000000	0.354786
1445.000000	0.356350
1446.000000	0.357717
1447.000000	0.359053
1448.000000	0.360183
1449.000000	0.361186
1450.000000	0.362085
1451.000000	0.362848
1452.000000	0.363482
1453.000000	0.363919
1454.000000	0.364290
1455.000000	0.364631
1456.000000	0.364871
1457.000000	0.365123
1458.000000	0.365359
1459.000000	0.365479
1460.000000	0.365583
1461.000000	0.365738
1462.000000	0.365942
1463.000000	0.366104
1464.000000	0.366204
1465.000000	0.366355
1466.000000	0.366568
1467.000000	0.366839
1468.000000	0.367184
1469.000000	0.367659
1470.000000	0.368007
1471.000000	0.368357
1472.000000	0.368727
1473.000000	0.369102
1474.000000	0.369481
1475.000000	0.369919
1476.000000	0.370510
1477.000000	0.371084
1478.000000	0.371515
1479.000000	0.371947
1480.000000	0.372334
1481.000000	0.372767
1482.000000	0.373295
1483.000000	0.373839
1484.000000	0.374488
1485.000000	0.374996
1486.000000	0.375371
1487.000000	0.375817
1488.000000	0.376263
1489.000000	0.376720
1490.000000	0.377127
1491.000000	0.377491
1492.000000	0.377694
1493.000000	0.377999
1494.000000	0.378215
1495.000000	0.378548
1496.000000	0.379058
1497.000000	0.379461
1498.000000	0.379846
1499.000000	0.380259
1500.000000	0.380711
1501.000000	0.381016
1502.000000	0.381465
1503.000000	0.381970
1504.000000	0.382380
1505.000000	0.382840
1506.000000	0.383209
1507.000000	0.383523
1508.000000	0.383869
1509.000000	0.384095
1510.000000	0.384377
1511.000000	0.384696
1512.000000	0.384934
1513.000000	0.385189
1514.000000	0.385404
1515.000000	0.385543
1516.000000	0.385825
1517.000000	0.386147
1518.000000	0.386336
1519.000000	0.386498
1520.000000	0.386611
1521.000000	0.386586
1522.000000	0.386779
1523.000000	0.387046
1524.000000	0.387177
1525.000000	0.387320
1526.000000	0.387372
1527.000000	0.387468
1528.000000	0.387639
1529.000000	0.387800
1530.000000	0.387985
1531.000000	0.388211
1532.000000	0.388416
1533.000000	0.388614
1534.000000	0.388818
1535.000000	0.389035
1536.000000	0.389107
1537.000000	0.389226
1538.000000	0.389418
1539.000000	0.389412
1540.000000	0.389490
1541.000000	0.389756
1542.000000	0.389928
1543.000000	0.390099
1544.000000	0.390354
1545.000000	0.390576
1546.000000	0.390652
1547.000000	0.390743
1548.000000	0.390947
1549.000000	0.391031
1550.000000	0.390992
1551.000000	0.391082
1552.000000	0.391238
1553.000000	0.391305
1554.000000	0.391463
1555.000000	0.391716
1556.000000	0.391754
1557.000000	0.391677
1558.000000	0.391808
1559.000000	0.391996
1560.000000	0.392115
1561.000000	0.392429
1562.000000	0.392527
1563.000000	0.392453
1564.000000	0.392553
1565.000000	0.392672
1566.000000	0.392691
1567.000000	0.392881
1568.000000	0.392999
1569.000000	0.393082
1570.000000	0.393249
1571.000000	0.393460
1572.000000	0.393584
1573.000000	0.393722
1574.000000	0.393841
1575.000000	0.393945
1576.000000	0.394110
1577.000000	0.394327
1578.000000	0.394381
1579.000000	0.394429
1580.000000	0.394473
1581.000000	0.394516
1582.000000	0.394530
1583.000000	0.394513
1584.000000	0.394512
1585.000000	0.394576
1586.000000	0.394628
1587.000000	0.394756
1588.000000	0.394840
1589.000000	0.394895
1590.000000	0.394894
1591.000000	0.394872
1592.000000	0.394864
1593.000000	0.394853
1594.000000	0.394868
1595.000000	0.395022
1596.000000	0.395055
1597.000000	0.395024
1598.000000	0.395038
1599.000000	0.395093
1600.000000	0.395032
1601.000000	0.395043
1602.000000	0.394982
1603.000000	0.394838
1604.000000	0.394798
1605.000000	0.394815
1606.000000	0.394826
1607.000000	0.394943
1608.000000	0.394955
1609.000000	0.394973
1610.000000	0.395044
1611.000000	0.395185
1612.000000	0.395245
1613.000000	0.395435
1614.000000	0.395513
1615.000000	0.395523
1616.000000	0.395592
1617.000000	0.395634
1618.000000	0.395655
1619.000000	0.395656
1620.000000	0.395660
1621.000000	0.395661
1622.000000	0.395747
1623.000000	0.395772
1624.000000	0.395874
1625.000000	0.395893
1626.000000	0.395939
1627.000000	0.396088
1628.000000	0.396231
1629.000000	0.396371
1630.000000	0.396508
1631.000000	0.396566
1632.000000	0.396578
1633.000000	0.396573
1634.000000	0.396645
1635.000000	0.396821
1636.000000	0.396854
1637.000000	0.396876
1638.000000	0.396820
1639.000000	0.396670
1640.000000	0.396611
1641.000000	0.396714
1642.000000	0.396710
1643.000000	0.396670
1644.000000	0.396683
1645.000000	0.396681
1646.000000	0.396662
1647.000000	0.396795
1648.000000	0.396733
1649.000000	0.396605
1650.000000	0.396590
1651.000000	0.396577
1652.000000	0.396654
1653.000000	0.396858
1654.000000	0.396933
1655.000000	0.396885
1656.000000	0.396717
1657.000000	0.396456
1658.000000	0.396381
1659.000000	0.396477
1660.000000	0.396564
1661.000000	0.396696
1662.000000	0.396711
1663.000000	0.396586
1664.000000	0.396599
1665.000000	0.396623
1666.000000	0.396736
1667.000000	0.396802
1668.000000	0.396936
1669.000000	0.397145
1670.000000	0.397194
1671.000000	0.397360
1672.000000	0.397481
1673.000000	0.397447
1674.000000	0.397536
1675.000000	0.397708
1676.000000	0.397841
1677.000000	0.397872
1678.000000	0.397964
1679.000000	0.398063
1680.000000	0.398100
1681.000000	0.398149
1682.000000	0.398168
1683.000000	0.398196
1684.000000	0.398273
1685.000000	0.398387
1686.000000	0.398439
1687.000000	0.398466
1688.000000	0.398362
1689.000000	0.398311
1690.000000	0.398225
1691.000000	0.398185
1692.000000	0.398159
1693.000000	0.398081
1694.000000	0.398078
1695.000000	0.398254
1696.000000	0.398487
1697.000000	0.398508
1698.000000	0.398448
1699.000000	0.398437
1700.000000	0.398395
1701.000000	0.398355
1702.000000	0.397996
1703.000000	0.397830
1704.000000	0.397878
1705.000000	0.397780
1706.000000	0.397802
1707.000000	0.397808
1708.000000	0.397604
1709.000000	0.397442
1710.000000	0.397547
1711.000000	0.397526
1712.000000	0.397359
1713.000000	0.397349
1714.000000	0.397492
1715.000000	0.397578
1716.000000	0.397762
1717.000000	0.397853
1718.000000	0.397802
1719.000000	0.397797
1720.000000	0.397921
1721.000000	0.397891
1722.000000	0.397723
1723.000000	0.397719
1724.000000	0.397712
1725.000000	0.397822
1726.000000	0.398047
1727.000000	0.398143
1728.000000	0.398137
1729.000000	0.398043
1730.000000	0.397984
1731.000000	0.397998
1732.000000	0.398079
1733.000000	0.398100
1734.000000	0.397982
1735.000000	0.397875
1736.000000	0.397636
1737.000000	0.397442
1738.000000	0.397316
1739.000000	0.397131
1740.000000	0.396848
1741.000000	0.396633
1742.000000	0.396405
1743.000000	0.396423
1744.000000	0.396560
1745.000000	0.396540
1746.000000	0.396624
1747.000000	0.396360
1748.000000	0.396225
1749.000000	0.396291
1750.000000	0.396218
1751.000000	0.396323
1752.000000	0.396458
1753.000000	0.396342
1754.000000	0.396259
1755.000000	0.396029
1756.000000	0.395994
1757.000000	0.396165
1758.000000	0.396178
1759.000000	0.396240
1760.000000	0.396248
1761.000000	0.395995
1762.000000	0.395847
1763.000000	0.395855
1764.000000	0.395759
1765.000000	0.395482
1766.000000	0.395404
1767.000000	0.395332
1768.000000	0.395184
1769.000000	0.395284
1770.000000	0.395216
1771.000000	0.394875
1772.000000	0.394733
1773.000000	0.394560
1774.000000	0.394424
1775.000000	0.394504
1776.000000	0.394401
1777.000000	0.394099
1778.000000	0.394034
1779.000000	0.394023
1780.000000	0.393970
1781.000000	0.393981
1782.000000	0.393959
1783.000000	0.393895
1784.000000	0.393900
1785.000000	0.393995
1786.000000	0.394189
1787.000000	0.394301
1788.000000	0.394461
1789.000000	0.394557
1790.000000	0.394693
1791.000000	0.394703
1792.000000	0.394847
1793.000000	0.394851
1794.000000	0.394633
1795.000000	0.394566
1796.000000	0.394551
1797.000000	0.394461
1798.000000	0.394350
1799.000000	0.394241
1800.000000	0.394127
1801.000000	0.394800
1802.000000	0.394631
1803.000000	0.393287
1804.000000	0.393217
1805.000000	0.393782
1806.000000	0.393894
1807.000000	0.394514
1808.000000	0.394581
1809.000000	0.394176
1810.000000	0.393427
1811.000000	0.393185
1812.000000	0.393168
1813.000000	0.392912
1814.000000	0.392272
1815.000000	0.392497
1816.000000	0.393449
1817.000000	0.393466
1818.000000	0.393300
1819.000000	0.394242
1820.000000	0.393989
1821.000000	0.392698
1822.000000	0.392692
1823.000000	0.393566
1824.000000	0.393418
1825.000000	0.392891
1826.000000	0.393068
1827.000000	0.393107
1828.000000	0.392970
1829.000000	0.393431
1830.000000	0.393373
1831.000000	0.392889
1832.000000	0.391286
1833.000000	0.390626
1834.000000	0.390167
1835.000000	0.389712
1836.000000	0.389113
1837.000000	0.389014
1838.000000	0.389182
1839.000000	0.389232
1840.000000	0.389615
1841.000000	0.389781
1842.000000	0.389441
1843.000000	0.388265
1844.000000	0.387821
1845.000000	0.387001
1846.000000	0.386951
1847.000000	0.387521
1848.000000	0.387558
1849.000000	0.388153
1850.000000	0.388334
1851.000000	0.388670
1852.000000	0.389243
1853.000000	0.389315
1854.000000	0.389035
1855.000000	0.388492
1856.000000	0.387501
1857.000000	0.386018
1858.000000	0.384710
1859.000000	0.384070
1860.000000	0.383012
1861.000000	0.382151
1862.000000	0.381442
1863.000000	0.381040
1864.000000	0.380158
1865.000000	0.379373
1866.000000	0.378440
1867.000000	0.376975
1868.000000	0.375928
1869.000000	0.375243
1870.000000	0.373724
1871.000000	0.371765
1872.000000	0.370055
1873.000000	0.368115
1874.000000	0.365437
1875.000000	0.363658
1876.000000	0.362361
1877.000000	0.359979
1878.000000	0.358006
1879.000000	0.355271
1880.000000	0.351508
1881.000000	0.348814
1882.000000	0.345580
1883.000000	0.342230
1884.000000	0.339095
1885.000000	0.335796
1886.000000	0.332133
1887.000000	0.328530
1888.000000	0.324602
1889.000000	0.319596
1890.000000	0.315366
1891.000000	0.310714
1892.000000	0.305646
1893.000000	0.301059
1894.000000	0.295978
1895.000000	0.290700
1896.000000	0.285123
1897.000000	0.279741
1898.000000	0.274123
1899.000000	0.269284
1900.000000	0.264833
1901.000000	0.260953
1902.000000	0.257870
1903.000000	0.254915
1904.000000	0.252250
1905.000000	0.249531
1906.000000	0.247237
1907.000000	0.245213
1908.000000	0.243618
1909.000000	0.242245
1910.000000	0.241813
1911.000000	0.241882
1912.000000	0.242235
1913.000000	0.242886
1914.000000	0.243333
1915.000000	0.243756
1916.000000	0.244188
1917.000000	0.244520
1918.000000	0.244981
1919.000000	0.245476
1920.000000	0.245859
1921.000000	0.246385
1922.000000	0.247284
1923.000000	0.248618
1924.000000	0.249662
1925.000000	0.250548
1926.000000	0.251265
1927.000000	0.251677
1928.000000	0.252335
1929.000000	0.253112
1930.000000	0.254100
1931.000000	0.255098
1932.000000	0.256551
1933.000000	0.257893
1934.000000	0.258912
1935.000000	0.259963
1936.000000	0.260877
1937.000000	0.261524
1938.000000	0.262151
1939.000000	0.263003
1940.000000	0.264102
1941.000000	0.264708
1942.000000	0.265492
1943.000000	0.266025
1944.000000	0.265671
1945.000000	0.265660
1946.000000	0.265954
1947.000000	0.266709
1948.000000	0.267299
1949.000000	0.267606
1950.000000	0.267927
1951.000000	0.268205
1952.000000	0.268188
1953.000000	0.268676
1954.000000	0.269291
1955.000000	0.269758
1956.000000	0.270504
1957.000000	0.270852
1958.000000	0.271269
1959.000000	0.272247
1960.000000	0.272453
1961.000000	0.272727
1962.000000	0.273196
1963.000000	0.273944
1964.000000	0.274170
1965.000000	0.274777
1966.000000	0.275786
1967.000000	0.276561
1968.000000	0.277247
1969.000000	0.277869
1970.000000	0.278210
1971.000000	0.278522
1972.000000	0.278988
1973.000000	0.279184
1974.000000	0.279159
1975.000000	0.279622
1976.000000	0.280197
1977.000000	0.280783
1978.000000	0.282077
1979.000000	0.283158
1980.000000	0.283653
1981.000000	0.284541
1982.000000	0.285093
1983.000000	0.285691
1984.000000	0.286507
1985.000000	0.287670
1986.000000	0.288646
1987.000000	0.289696
1988.000000	0.290866
1989.000000	0.292090
1990.000000	0.292774
1991.000000	0.293185
1992.000000	0.293588
1993.000000	0.293553
1994.000000	0.293995
1995.000000	0.294632
1996.000000	0.295354
1997.000000	0.296029
1998.000000	0.296897
1999.000000	0.297625
2000.000000	0.298284
2001.000000	0.298848
2002.000000	0.299615
2003.000000	0.300752
2004.000000	0.301445
2005.000000	0.302111
2006.000000	0.302966
2007.000000	0.303277
2008.000000	0.303988
2009.000000	0.304886
2010.000000	0.305806
2011.000000	0.306795
2012.000000	0.307709
2013.000000	0.308568
2014.000000	0.309464
2015.000000	0.309930
2016.000000	0.310501
2017.000000	0.311522
2018.000000	0.312180
2019.000000	0.312950
2020.000000	0.313855
2021.000000	0.314596
2022.000000	0.314922
2023.000000	0.315534
2024.000000	0.316361
2025.000000	0.317226
2026.000000	0.317877
2027.000000	0.318759
2028.000000	0.320006
2029.000000	0.320846
2030.000000	0.321916
2031.000000	0.322500
2032.000000	0.322538
2033.000000	0.323010
2034.000000	0.323286
2035.000000	0.323539
2036.000000	0.323570
2037.000000	0.323431
2038.000000	0.323695
2039.000000	0.324108
2040.000000	0.324398
2041.000000	0.324768
2042.000000	0.325713
2043.000000	0.326491
2044.000000	0.327466
2045.000000	0.328970
2046.000000	0.329903
2047.000000	0.330507
2048.000000	0.330398
2049.000000	0.330846
2050.000000	0.330538
2051.000000	0.330961
2052.000000	0.331935
2053.000000	0.332480
2054.000000	0.333328
2055.000000	0.334418
2056.000000	0.335174
2057.000000	0.335782
2058.000000	0.335835
2059.000000	0.336315
2060.000000	0.336340
2061.000000	0.335466
2062.000000	0.335465
2063.000000	0.335885
2064.000000	0.336021
2065.000000	0.336716
2066.000000	0.337270
2067.000000	0.337939
2068.000000	0.338740
2069.000000	0.339939
2070.000000	0.340754
2071.000000	0.340766
2072.000000	0.340587
2073.000000	0.340287
2074.000000	0.340398
2075.000000	0.340748
2076.000000	0.341956
2077.000000	0.342266
2078.000000	0.342175
2079.000000	0.342286
2080.000000	0.342156
2081.000000	0.342364
2082.000000	0.343024
2083.000000	0.343247
2084.000000	0.343495
2085.000000	0.343788
2086.000000	0.343856
2087.000000	0.343952
2088.000000	0.343832
2089.000000	0.344171
2090.000000	0.344712
2091.000000	0.345730
2092.000000	0.346336
2093.000000	0.347187
2094.000000	0.347547
2095.000000	0.347471
2096.000000	0.347610
2097.000000	0.347383
2098.000000	0.347607
2099.000000	0.348006
2100.000000	0.348398
2101.000000	0.349558
2102.000000	0.350478
2103.000000	0.350813
2104.000000	0.351076
2105.000000	0.351459
2106.000000	0.351358
2107.000000	0.351759
2108.000000	0.352810
2109.000000	0.353350
2110.000000	0.353717
2111.000000	0.353796
2112.000000	0.353505
2113.000000	0.352854
2114.000000	0.352060
2115.000000	0.351237
2116.000000	0.351135
2117.000000	0.351239
2118.000000	0.351828
2119.000000	0.352715
2120.000000	0.353410
2121.000000	0.354334
2122.000000	0.354703
2123.000000	0.354854
2124.000000	0.354815
2125.000000	0.354060
2126.000000	0.353759
2127.000000	0.353497
2128.000000	0.353617
2129.000000	0.353701
2130.000000	0.354746
2131.000000	0.354857
2132.000000	0.354726
2133.000000	0.354562
2134.000000	0.353571
2135.000000	0.353520
2136.000000	0.353289
2137.000000	0.353636
2138.000000	0.354770
2139.000000	0.355300
2140.000000	0.356550
2141.000000	0.356586
2142.000000	0.355293
2143.000000	0.354596
2144.000000	0.353384
2145.000000	0.352736
2146.000000	0.352774
2147.000000	0.353302
2148.000000	0.353092
2149.000000	0.353008
2150.000000	0.352822
2151.000000	0.352151
2152.000000	0.351647
2153.000000	0.351662
2154.000000	0.351149
2155.000000	0.350445
2156.000000	0.349931
2157.000000	0.349209
2158.000000	0.348718
2159.000000	0.348383
2160.000000	0.348376
2161.000000	0.348682
2162.000000	0.348904
2163.000000	0.349490
2164.000000	0.349667
2165.000000	0.349472
2166.000000	0.349073
2167.000000	0.349507
2168.000000	0.349542
2169.000000	0.350610
2170.000000	0.352090
2171.000000	0.352445
2172.000000	0.352497
2173.000000	0.352152
2174.000000	0.350723
2175.000000	0.350092
2176.000000	0.349510
2177.000000	0.349390
2178.000000	0.350011
2179.000000	0.349786
2180.000000	0.349337
2181.000000	0.348951
2182.000000	0.347120
2183.000000	0.345889
2184.000000	0.346171
2185.000000	0.347295
2186.000000	0.348861
2187.000000	0.351017
2188.000000	0.351546
2189.000000	0.350317
2190.000000	0.350201
2191.000000	0.349981
2192.000000	0.349148
2193.000000	0.348648
2194.000000	0.347724
2195.000000	0.345076
2196.000000	0.343856
2197.000000	0.343602
2198.000000	0.342816
2199.000000	0.343047
2200.000000	0.342314
2201.000000	0.340118
2202.000000	0.338872
2203.000000	0.337528
2204.000000	0.335639
2205.000000	0.335357
2206.000000	0.334531
2207.000000	0.333168
2208.000000	0.333680
2209.000000	0.335060
2210.000000	0.336766
2211.000000	0.338908
2212.000000	0.341124
2213.000000	0.341664
2214.000000	0.340437
2215.000000	0.340274
2216.000000	0.338844
2217.000000	0.339295
2218.000000	0.341465
2219.000000	0.342465
2220.000000	0.344098
2221.000000	0.344818
2222.000000	0.344561
2223.000000	0.344267
2224.000000	0.343381
2225.000000	0.343578
2226.000000	0.342242
2227.000000	0.340383
2228.000000	0.341456
2229.000000	0.338498
2230.000000	0.335022
2231.000000	0.335029
2232.000000	0.334559
2233.000000	0.335833
2234.000000	0.338926
2235.000000	0.340669
2236.000000	0.340377
2237.000000	0.337403
2238.000000	0.335500
2239.000000	0.331833
2240.000000	0.330771
2241.000000	0.330823
2242.000000	0.331164
2243.000000	0.333570
2244.000000	0.334620
2245.000000	0.334655
2246.000000	0.335945
2247.000000	0.338345
2248.000000	0.338400
2249.000000	0.337470
2250.000000	0.337407
2251.000000	0.336185
2252.000000	0.336549
2253.000000	0.338557
2254.000000	0.340119
2255.000000	0.340810
2256.000000	0.341050
2257.000000	0.341299
2258.000000	0.339986
2259.000000	0.339242
2260.000000	0.337508
2261.000000	0.334680
2262.000000	0.331239
2263.000000	0.328080
2264.000000	0.322764
2265.000000	0.320847
2266.000000	0.321301
2267.000000	0.320019
2268.000000	0.319947
2269.000000	0.318457
2270.000000	0.314856
2271.000000	0.312220
2272.000000	0.309901
2273.000000	0.307577
2274.000000	0.306003
2275.000000	0.303049
2276.000000	0.299688
2277.000000	0.295425
2278.000000	0.290877
2279.000000	0.286599
2280.000000	0.284203
2281.000000	0.284967
2282.000000	0.283956
2283.000000	0.285204
2284.000000	0.286352
2285.000000	0.283752
2286.000000	0.285890
2287.000000	0.287153
2288.000000	0.284441
2289.000000	0.285226
2290.000000	0.285919
2291.000000	0.285044
2292.000000	0.286962
2293.000000	0.288991
2294.000000	0.290062
2295.000000	0.288932
2296.000000	0.289650
2297.000000	0.291205
2298.000000	0.292530
2299.000000	0.294222
2300.000000	0.296182
2301.000000	0.298678
2302.000000	0.300322
2303.000000	0.300627
2304.000000	0.302442
2305.000000	0.306071
2306.000000	0.307704
2307.000000	0.308985
2308.000000	0.310842
2309.000000	0.310072
2310.000000	0.309046
2311.000000	0.311626
2312.000000	0.311054
2313.000000	0.310014
2314.000000	0.309423
2315.000000	0.307039
2316.000000	0.307845
2317.000000	0.310603
2318.000000	0.312094
2319.000000	0.312752
2320.000000	0.312503
2321.000000	0.311563
2322.000000	0.311060
2323.000000	0.311688
2324.000000	0.313496
2325.000000	0.313458
2326.000000	0.313302
2327.000000	0.311101
2328.000000	0.308120
2329.000000	0.309540
2330.000000	0.308824
2331.000000	0.310059
2332.000000	0.311268
2333.000000	0.309939
2334.000000	0.311721
2335.000000	0.311849
2336.000000	0.309857
2337.000000	0.310266
2338.000000	0.311831
2339.000000	0.311458
2340.000000	0.313042
2341.000000	0.313343
2342.000000	0.310904
2343.000000	0.308427
2344.000000	0.305505
2345.000000	0.300698
2346.000000	0.292474
2347.000000	0.289659
2348.000000	0.287271
2349.000000	0.290193
2350.000000	0.295420
2351.000000	0.295801
2352.000000	0.297003
2353.000000	0.294667
2354.000000	0.291110
2355.000000	0.293813
2356.000000	0.294501
2357.000000	0.296517
2358.000000	0.300334
2359.000000	0.296788
2360.000000	0.288974
2361.000000	0.284037
2362.000000	0.279760
2363.000000	0.279336
2364.000000	0.283984
2365.000000	0.285608
2366.000000	0.285323
2367.000000	0.286077
2368.000000	0.284175
2369.000000	0.280297
2370.000000	0.276597
2371.000000	0.273840
2372.000000	0.273119
2373.000000	0.272744
2374.000000	0.274109
2375.000000	0.274996
2376.000000	0.273531
2377.000000	0.274528
2378.000000	0.275213
2379.000000	0.273779
2380.000000	0.270652
2381.000000	0.269122
2382.000000	0.267519
2383.000000	0.261880
2384.000000	0.261243
2385.000000	0.258927
2386.000000	0.255835
2387.000000	0.258671
2388.000000	0.258442
2389.000000	0.255451
2390.000000	0.253904
2391.000000	0.250009
2392.000000	0.242771
2393.000000	0.244082
2394.000000	0.244381
2395.000000	0.241922
2396.000000	0.245390
2397.000000	0.248453
2398.000000	0.248594
2399.000000	0.246217
2400.000000	0.242786
2401.000000	0.233176
2402.000000	0.231207
2403.000000	0.238266
2404.000000	0.240722
2405.000000	0.244048
2406.000000	0.244046
2407.000000	0.232781
2408.000000	0.226890
2409.000000	0.229584
2410.000000	0.229652
2411.000000	0.234247
2412.000000	0.235005
2413.000000	0.234329
2414.000000	0.234961
2415.000000	0.228786
2416.000000	0.230850
2417.000000	0.229672
2418.000000	0.222618
2419.000000	0.227853
2420.000000	0.229957
2421.000000	0.237157
2422.000000	0.247421
2423.000000	0.244153
2424.000000	0.242248
2425.000000	0.230311
2426.000000	0.216242
2427.000000	0.216501
2428.000000	0.216623
2429.000000	0.224911
2430.000000	0.235199
2431.000000	0.235596
2432.000000	0.237255
2433.000000	0.236034
2434.000000	0.234301
2435.000000	0.231209
2436.000000	0.224477
2437.000000	0.220077
2438.000000	0.212834
2439.000000	0.208201
2440.000000	0.210566
2441.000000	0.211746
2442.000000	0.212810
2443.000000	0.217171
2444.000000	0.209692
2445.000000	0.200236
2446.000000	0.196396
2447.000000	0.194746
2448.000000	0.210024
2449.000000	0.221458
2450.000000	0.236128
2451.000000	0.246159
2452.000000	0.230889
2453.000000	0.216636
2454.000000	0.195703
2455.000000	0.175342
2456.000000	0.176899
2457.000000	0.188306
2458.000000	0.193987
2459.000000	0.192800
2460.000000	0.187870
2461.000000	0.179124
2462.000000	0.177069
2463.000000	0.181115
2464.000000	0.181717
2465.000000	0.177822
2466.000000	0.172628
2467.000000	0.169506
2468.000000	0.153603
2469.000000	0.137325
2470.000000	0.145981
2471.000000	0.149209
2472.000000	0.158059
2473.000000	0.172661
2474.000000	0.154612
2475.000000	0.154344
2476.000000	0.146717
2477.000000	0.120299
2478.000000	0.146331
2479.000000	0.136312
2480.000000	0.128107
2481.000000	0.171493
2482.000000	0.169180
2483.000000	0.183238
2484.000000	0.186251
2485.000000	0.176324
2486.000000	0.189234
2487.000000	0.175286
2488.000000	0.213472
2489.000000	0.221590
2490.000000	0.174667
2491.000000	0.164467
2492.000000	0.146892
2493.000000	0.151347
2494.000000	0.158816
2495.000000	0.143052
2496.000000	0.150974
2497.000000	0.201720
2498.000000	0.219099
2499.000000	0.247287
2500.000000	0.268392
