# Wavelength	NAu-1-30_HEX-40_FV7-30_00000.asd.rts.txt
350.000000	0.179890
351.000000	0.190193
352.000000	0.183735
353.000000	0.182640
354.000000	0.191086
355.000000	0.168097
356.000000	0.165599
357.000000	0.181426
358.000000	0.176096
359.000000	0.162762
360.000000	0.155023
361.000000	0.162601
362.000000	0.170452
363.000000	0.173449
364.000000	0.170324
365.000000	0.165508
366.000000	0.164037
367.000000	0.165688
368.000000	0.166037
369.000000	0.167336
370.000000	0.167253
371.000000	0.163743
372.000000	0.167004
373.000000	0.173124
374.000000	0.177217
375.000000	0.173581
376.000000	0.171058
377.000000	0.171679
378.000000	0.171251
379.000000	0.171600
380.000000	0.172345
381.000000	0.173171
382.000000	0.174366
383.000000	0.174576
384.000000	0.173615
385.000000	0.173954
386.000000	0.174874
387.000000	0.176255
388.000000	0.178323
389.000000	0.181719
390.000000	0.184648
391.000000	0.184671
392.000000	0.184801
393.000000	0.186413
394.000000	0.189137
395.000000	0.187699
396.000000	0.187946
397.000000	0.191027
398.000000	0.192167
399.000000	0.192291
400.000000	0.193119
401.000000	0.196505
402.000000	0.197241
403.000000	0.197405
404.000000	0.199271
405.000000	0.199677
406.000000	0.200640
407.000000	0.202748
408.000000	0.203919
409.000000	0.204670
410.000000	0.205455
411.000000	0.206747
412.000000	0.207581
413.000000	0.207936
414.000000	0.208145
415.000000	0.208990
416.000000	0.210043
417.000000	0.210799
418.000000	0.210605
419.000000	0.210724
420.000000	0.211513
421.000000	0.212637
422.000000	0.213192
423.000000	0.213360
424.000000	0.213678
425.000000	0.213296
426.000000	0.213215
427.000000	0.213965
428.000000	0.214093
429.000000	0.214085
430.000000	0.214170
431.000000	0.214243
432.000000	0.214226
433.000000	0.214144
434.000000	0.214162
435.000000	0.213921
436.000000	0.214033
437.000000	0.214835
438.000000	0.214755
439.000000	0.214249
440.000000	0.213859
441.000000	0.213912
442.000000	0.213809
443.000000	0.213454
444.000000	0.213235
445.000000	0.213403
446.000000	0.213584
447.000000	0.213264
448.000000	0.213688
449.000000	0.214535
450.000000	0.215522
451.000000	0.216930
452.000000	0.218581
453.000000	0.220266
454.000000	0.221927
455.000000	0.223648
456.000000	0.225463
457.000000	0.227264
458.000000	0.229494
459.000000	0.231692
460.000000	0.233441
461.000000	0.234885
462.000000	0.236328
463.000000	0.237719
464.000000	0.238859
465.000000	0.240014
466.000000	0.240991
467.000000	0.241428
468.000000	0.242151
469.000000	0.242814
470.000000	0.243108
471.000000	0.244016
472.000000	0.244866
473.000000	0.245256
474.000000	0.245761
475.000000	0.246165
476.000000	0.246653
477.000000	0.247566
478.000000	0.248017
479.000000	0.248340
480.000000	0.248979
481.000000	0.249393
482.000000	0.249818
483.000000	0.250332
484.000000	0.251034
485.000000	0.251508
486.000000	0.251868
487.000000	0.252691
488.000000	0.253131
489.000000	0.253311
490.000000	0.253977
491.000000	0.254590
492.000000	0.255093
493.000000	0.255443
494.000000	0.255917
495.000000	0.256463
496.000000	0.257018
497.000000	0.257823
498.000000	0.258440
499.000000	0.258897
500.000000	0.259624
501.000000	0.260120
502.000000	0.260501
503.000000	0.261059
504.000000	0.261688
505.000000	0.262311
506.000000	0.262890
507.000000	0.263516
508.000000	0.264217
509.000000	0.264935
510.000000	0.265582
511.000000	0.266269
512.000000	0.266994
513.000000	0.267605
514.000000	0.268266
515.000000	0.268989
516.000000	0.269680
517.000000	0.270452
518.000000	0.271229
519.000000	0.271900
520.000000	0.272768
521.000000	0.273506
522.000000	0.274098
523.000000	0.275021
524.000000	0.275815
525.000000	0.276517
526.000000	0.277457
527.000000	0.278348
528.000000	0.279098
529.000000	0.279776
530.000000	0.280706
531.000000	0.281683
532.000000	0.282476
533.000000	0.283239
534.000000	0.284163
535.000000	0.285168
536.000000	0.285908
537.000000	0.286715
538.000000	0.287619
539.000000	0.288521
540.000000	0.289391
541.000000	0.290209
542.000000	0.291024
543.000000	0.291898
544.000000	0.292861
545.000000	0.293815
546.000000	0.294670
547.000000	0.295531
548.000000	0.296446
549.000000	0.297333
550.000000	0.298169
551.000000	0.299056
552.000000	0.300030
553.000000	0.300861
554.000000	0.301640
555.000000	0.302475
556.000000	0.303404
557.000000	0.304199
558.000000	0.304940
559.000000	0.305699
560.000000	0.306459
561.000000	0.307269
562.000000	0.308035
563.000000	0.308752
564.000000	0.309468
565.000000	0.310128
566.000000	0.310844
567.000000	0.311602
568.000000	0.312328
569.000000	0.312908
570.000000	0.313526
571.000000	0.314170
572.000000	0.314684
573.000000	0.315283
574.000000	0.315852
575.000000	0.316260
576.000000	0.316812
577.000000	0.317345
578.000000	0.317794
579.000000	0.318330
580.000000	0.318848
581.000000	0.319283
582.000000	0.319628
583.000000	0.320001
584.000000	0.320381
585.000000	0.320674
586.000000	0.321025
587.000000	0.321359
588.000000	0.321580
589.000000	0.321829
590.000000	0.322066
591.000000	0.322290
592.000000	0.322646
593.000000	0.322973
594.000000	0.323237
595.000000	0.323538
596.000000	0.323677
597.000000	0.323799
598.000000	0.324047
599.000000	0.324135
600.000000	0.324261
601.000000	0.324513
602.000000	0.324740
603.000000	0.324845
604.000000	0.324867
605.000000	0.325059
606.000000	0.325231
607.000000	0.325373
608.000000	0.325570
609.000000	0.325690
610.000000	0.325789
611.000000	0.325944
612.000000	0.326059
613.000000	0.326186
614.000000	0.326365
615.000000	0.326402
616.000000	0.326410
617.000000	0.326438
618.000000	0.326615
619.000000	0.326729
620.000000	0.326734
621.000000	0.326727
622.000000	0.326780
623.000000	0.326838
624.000000	0.326862
625.000000	0.326977
626.000000	0.327050
627.000000	0.327057
628.000000	0.327151
629.000000	0.327314
630.000000	0.327417
631.000000	0.327572
632.000000	0.327765
633.000000	0.327941
634.000000	0.328044
635.000000	0.328171
636.000000	0.328322
637.000000	0.328469
638.000000	0.328624
639.000000	0.328732
640.000000	0.328853
641.000000	0.328968
642.000000	0.329086
643.000000	0.329242
644.000000	0.329470
645.000000	0.329698
646.000000	0.329881
647.000000	0.329985
648.000000	0.330125
649.000000	0.330305
650.000000	0.330507
651.000000	0.330756
652.000000	0.330898
653.000000	0.331020
654.000000	0.331221
655.000000	0.331423
656.000000	0.331640
657.000000	0.331830
658.000000	0.332003
659.000000	0.332209
660.000000	0.332443
661.000000	0.332666
662.000000	0.332877
663.000000	0.333114
664.000000	0.333323
665.000000	0.333527
666.000000	0.333752
667.000000	0.333981
668.000000	0.334213
669.000000	0.334469
670.000000	0.334760
671.000000	0.335051
672.000000	0.335359
673.000000	0.335669
674.000000	0.335970
675.000000	0.336211
676.000000	0.336431
677.000000	0.336714
678.000000	0.337049
679.000000	0.337337
680.000000	0.337552
681.000000	0.337836
682.000000	0.338160
683.000000	0.338435
684.000000	0.338753
685.000000	0.339000
686.000000	0.339281
687.000000	0.339683
688.000000	0.339972
689.000000	0.340218
690.000000	0.340538
691.000000	0.340890
692.000000	0.341217
693.000000	0.341577
694.000000	0.341969
695.000000	0.342319
696.000000	0.342655
697.000000	0.343047
698.000000	0.343415
699.000000	0.343779
700.000000	0.344169
701.000000	0.344570
702.000000	0.344966
703.000000	0.345330
704.000000	0.345672
705.000000	0.346026
706.000000	0.346348
707.000000	0.346674
708.000000	0.347042
709.000000	0.347453
710.000000	0.347899
711.000000	0.348253
712.000000	0.348593
713.000000	0.348975
714.000000	0.349362
715.000000	0.349744
716.000000	0.350106
717.000000	0.350407
718.000000	0.350739
719.000000	0.351087
720.000000	0.351436
721.000000	0.351766
722.000000	0.352068
723.000000	0.352396
724.000000	0.352658
725.000000	0.352928
726.000000	0.353293
727.000000	0.353651
728.000000	0.353952
729.000000	0.354278
730.000000	0.354626
731.000000	0.354926
732.000000	0.355247
733.000000	0.355640
734.000000	0.356005
735.000000	0.356289
736.000000	0.356617
737.000000	0.356887
738.000000	0.357072
739.000000	0.357310
740.000000	0.357516
741.000000	0.357795
742.000000	0.358078
743.000000	0.358311
744.000000	0.358556
745.000000	0.358771
746.000000	0.358979
747.000000	0.359114
748.000000	0.359227
749.000000	0.359359
750.000000	0.359490
751.000000	0.359615
752.000000	0.359752
753.000000	0.359911
754.000000	0.360068
755.000000	0.360221
756.000000	0.360340
757.000000	0.360360
758.000000	0.360471
759.000000	0.360633
760.000000	0.360734
761.000000	0.360873
762.000000	0.360951
763.000000	0.360969
764.000000	0.361079
765.000000	0.361158
766.000000	0.361233
767.000000	0.361330
768.000000	0.361388
769.000000	0.361481
770.000000	0.361609
771.000000	0.361636
772.000000	0.361690
773.000000	0.361700
774.000000	0.361680
775.000000	0.361645
776.000000	0.361624
777.000000	0.361608
778.000000	0.361587
779.000000	0.361556
780.000000	0.361506
781.000000	0.361387
782.000000	0.361330
783.000000	0.361373
784.000000	0.361320
785.000000	0.361256
786.000000	0.361189
787.000000	0.361125
788.000000	0.361080
789.000000	0.361070
790.000000	0.361030
791.000000	0.360917
792.000000	0.360825
793.000000	0.360688
794.000000	0.360479
795.000000	0.360369
796.000000	0.360309
797.000000	0.360237
798.000000	0.360086
799.000000	0.359921
800.000000	0.359760
801.000000	0.359622
802.000000	0.359543
803.000000	0.359403
804.000000	0.359211
805.000000	0.359076
806.000000	0.358923
807.000000	0.358819
808.000000	0.358706
809.000000	0.358534
810.000000	0.358389
811.000000	0.358300
812.000000	0.358123
813.000000	0.357983
814.000000	0.357871
815.000000	0.357694
816.000000	0.357471
817.000000	0.357224
818.000000	0.356888
819.000000	0.356590
820.000000	0.356390
821.000000	0.356212
822.000000	0.355962
823.000000	0.355823
824.000000	0.355680
825.000000	0.355480
826.000000	0.355348
827.000000	0.355159
828.000000	0.354916
829.000000	0.354755
830.000000	0.354598
831.000000	0.354446
832.000000	0.354156
833.000000	0.353894
834.000000	0.353685
835.000000	0.353541
836.000000	0.353359
837.000000	0.353139
838.000000	0.352930
839.000000	0.352769
840.000000	0.352681
841.000000	0.352560
842.000000	0.352282
843.000000	0.352005
844.000000	0.351789
845.000000	0.351617
846.000000	0.351488
847.000000	0.351309
848.000000	0.351095
849.000000	0.350916
850.000000	0.350684
851.000000	0.350486
852.000000	0.350379
853.000000	0.350246
854.000000	0.350003
855.000000	0.349769
856.000000	0.349499
857.000000	0.349125
858.000000	0.348929
859.000000	0.348873
860.000000	0.348638
861.000000	0.348494
862.000000	0.348370
863.000000	0.348025
864.000000	0.347757
865.000000	0.347531
866.000000	0.347329
867.000000	0.347138
868.000000	0.346928
869.000000	0.346687
870.000000	0.346527
871.000000	0.346288
872.000000	0.346106
873.000000	0.345975
874.000000	0.345805
875.000000	0.345637
876.000000	0.345438
877.000000	0.345092
878.000000	0.344817
879.000000	0.344704
880.000000	0.344567
881.000000	0.344258
882.000000	0.344070
883.000000	0.343945
884.000000	0.343651
885.000000	0.343573
886.000000	0.343451
887.000000	0.343185
888.000000	0.342985
889.000000	0.342781
890.000000	0.342480
891.000000	0.342229
892.000000	0.341917
893.000000	0.341695
894.000000	0.341687
895.000000	0.341506
896.000000	0.341337
897.000000	0.341181
898.000000	0.340981
899.000000	0.340691
900.000000	0.340487
901.000000	0.340381
902.000000	0.340296
903.000000	0.340294
904.000000	0.340259
905.000000	0.339985
906.000000	0.339825
907.000000	0.339596
908.000000	0.339330
909.000000	0.339115
910.000000	0.338966
911.000000	0.338838
912.000000	0.338687
913.000000	0.338444
914.000000	0.338163
915.000000	0.337997
916.000000	0.337963
917.000000	0.337831
918.000000	0.337652
919.000000	0.337482
920.000000	0.337375
921.000000	0.337210
922.000000	0.336966
923.000000	0.336668
924.000000	0.336518
925.000000	0.336307
926.000000	0.336010
927.000000	0.335884
928.000000	0.335723
929.000000	0.335553
930.000000	0.335450
931.000000	0.335293
932.000000	0.335087
933.000000	0.334908
934.000000	0.334779
935.000000	0.334625
936.000000	0.334454
937.000000	0.334212
938.000000	0.334093
939.000000	0.334073
940.000000	0.333983
941.000000	0.333779
942.000000	0.333564
943.000000	0.333410
944.000000	0.333248
945.000000	0.333252
946.000000	0.333126
947.000000	0.332957
948.000000	0.332840
949.000000	0.332655
950.000000	0.332510
951.000000	0.332365
952.000000	0.332172
953.000000	0.332004
954.000000	0.331981
955.000000	0.331984
956.000000	0.331548
957.000000	0.331394
958.000000	0.331389
959.000000	0.331237
960.000000	0.331173
961.000000	0.331219
962.000000	0.331227
963.000000	0.330950
964.000000	0.330609
965.000000	0.330488
966.000000	0.330530
967.000000	0.330247
968.000000	0.329979
969.000000	0.329781
970.000000	0.329716
971.000000	0.329843
972.000000	0.329864
973.000000	0.329681
974.000000	0.329683
975.000000	0.329642
976.000000	0.329588
977.000000	0.329546
978.000000	0.329423
979.000000	0.329313
980.000000	0.329115
981.000000	0.329146
982.000000	0.329144
983.000000	0.329100
984.000000	0.329047
985.000000	0.328891
986.000000	0.328950
987.000000	0.329096
988.000000	0.329017
989.000000	0.328626
990.000000	0.328516
991.000000	0.328690
992.000000	0.328959
993.000000	0.329173
994.000000	0.329188
995.000000	0.329019
996.000000	0.328476
997.000000	0.328795
998.000000	0.328724
999.000000	0.328097
1000.000000	0.328479
1001.000000	0.328606
1002.000000	0.328258
1003.000000	0.328436
1004.000000	0.328212
1005.000000	0.327728
1006.000000	0.327454
1007.000000	0.327262
1008.000000	0.326671
1009.000000	0.326744
1010.000000	0.327673
1011.000000	0.328155
1012.000000	0.327968
1013.000000	0.327679
1014.000000	0.327245
1015.000000	0.326744
1016.000000	0.327248
1017.000000	0.327492
1018.000000	0.327612
1019.000000	0.328184
1020.000000	0.329582
1021.000000	0.329535
1022.000000	0.329191
1023.000000	0.329331
1024.000000	0.328633
1025.000000	0.328621
1026.000000	0.329212
1027.000000	0.329537
1028.000000	0.330120
1029.000000	0.330010
1030.000000	0.329532
1031.000000	0.329629
1032.000000	0.329323
1033.000000	0.329185
1034.000000	0.329380
1035.000000	0.330016
1036.000000	0.330573
1037.000000	0.331644
1038.000000	0.331821
1039.000000	0.331701
1040.000000	0.331797
1041.000000	0.331328
1042.000000	0.331508
1043.000000	0.332162
1044.000000	0.332638
1045.000000	0.333045
1046.000000	0.332809
1047.000000	0.333063
1048.000000	0.333339
1049.000000	0.333694
1050.000000	0.334395
1051.000000	0.334665
1052.000000	0.334595
1053.000000	0.334718
1054.000000	0.334845
1055.000000	0.335167
1056.000000	0.335864
1057.000000	0.336281
1058.000000	0.336277
1059.000000	0.336895
1060.000000	0.337563
1061.000000	0.337752
1062.000000	0.338165
1063.000000	0.338347
1064.000000	0.338482
1065.000000	0.338231
1066.000000	0.338515
1067.000000	0.338821
1068.000000	0.339304
1069.000000	0.340155
1070.000000	0.340726
1071.000000	0.341505
1072.000000	0.342038
1073.000000	0.342518
1074.000000	0.342785
1075.000000	0.342948
1076.000000	0.342775
1077.000000	0.342584
1078.000000	0.342948
1079.000000	0.343276
1080.000000	0.343930
1081.000000	0.344293
1082.000000	0.344749
1083.000000	0.345054
1084.000000	0.345174
1085.000000	0.345512
1086.000000	0.345978
1087.000000	0.346325
1088.000000	0.346511
1089.000000	0.346795
1090.000000	0.347040
1091.000000	0.347255
1092.000000	0.347513
1093.000000	0.347868
1094.000000	0.348195
1095.000000	0.348315
1096.000000	0.348799
1097.000000	0.349729
1098.000000	0.350032
1099.000000	0.349924
1100.000000	0.350316
1101.000000	0.350609
1102.000000	0.350844
1103.000000	0.351373
1104.000000	0.351857
1105.000000	0.351966
1106.000000	0.352363
1107.000000	0.353293
1108.000000	0.353751
1109.000000	0.353993
1110.000000	0.354169
1111.000000	0.354530
1112.000000	0.354810
1113.000000	0.355135
1114.000000	0.355685
1115.000000	0.356047
1116.000000	0.356188
1117.000000	0.356515
1118.000000	0.356925
1119.000000	0.357256
1120.000000	0.357596
1121.000000	0.357923
1122.000000	0.358421
1123.000000	0.358914
1124.000000	0.359037
1125.000000	0.359351
1126.000000	0.359665
1127.000000	0.359850
1128.000000	0.360007
1129.000000	0.360236
1130.000000	0.360490
1131.000000	0.360704
1132.000000	0.360827
1133.000000	0.360984
1134.000000	0.361280
1135.000000	0.361528
1136.000000	0.361693
1137.000000	0.362018
1138.000000	0.362147
1139.000000	0.361948
1140.000000	0.362185
1141.000000	0.362768
1142.000000	0.363042
1143.000000	0.363220
1144.000000	0.363530
1145.000000	0.363567
1146.000000	0.363393
1147.000000	0.363472
1148.000000	0.363584
1149.000000	0.363763
1150.000000	0.364017
1151.000000	0.364273
1152.000000	0.364491
1153.000000	0.364819
1154.000000	0.365204
1155.000000	0.365468
1156.000000	0.365822
1157.000000	0.366061
1158.000000	0.366091
1159.000000	0.366170
1160.000000	0.366186
1161.000000	0.366235
1162.000000	0.366324
1163.000000	0.366566
1164.000000	0.366751
1165.000000	0.367010
1166.000000	0.367230
1167.000000	0.367424
1168.000000	0.367529
1169.000000	0.367568
1170.000000	0.367759
1171.000000	0.368089
1172.000000	0.368278
1173.000000	0.368423
1174.000000	0.368591
1175.000000	0.368586
1176.000000	0.368659
1177.000000	0.368987
1178.000000	0.369151
1179.000000	0.369164
1180.000000	0.369224
1181.000000	0.369365
1182.000000	0.369517
1183.000000	0.369664
1184.000000	0.369816
1185.000000	0.369898
1186.000000	0.369888
1187.000000	0.369897
1188.000000	0.369845
1189.000000	0.369862
1190.000000	0.369964
1191.000000	0.370032
1192.000000	0.370255
1193.000000	0.370538
1194.000000	0.370694
1195.000000	0.370826
1196.000000	0.370921
1197.000000	0.371022
1198.000000	0.371079
1199.000000	0.371202
1200.000000	0.371333
1201.000000	0.371533
1202.000000	0.371778
1203.000000	0.371826
1204.000000	0.371909
1205.000000	0.371992
1206.000000	0.371917
1207.000000	0.371740
1208.000000	0.371770
1209.000000	0.371884
1210.000000	0.371989
1211.000000	0.372285
1212.000000	0.372437
1213.000000	0.372525
1214.000000	0.372641
1215.000000	0.372804
1216.000000	0.372840
1217.000000	0.372632
1218.000000	0.372642
1219.000000	0.372812
1220.000000	0.372841
1221.000000	0.372961
1222.000000	0.373080
1223.000000	0.372991
1224.000000	0.372981
1225.000000	0.372976
1226.000000	0.373077
1227.000000	0.373104
1228.000000	0.373111
1229.000000	0.373204
1230.000000	0.373345
1231.000000	0.373396
1232.000000	0.373634
1233.000000	0.373903
1234.000000	0.374175
1235.000000	0.374305
1236.000000	0.374291
1237.000000	0.374355
1238.000000	0.374221
1239.000000	0.374201
1240.000000	0.374308
1241.000000	0.374388
1242.000000	0.374341
1243.000000	0.374211
1244.000000	0.374129
1245.000000	0.374235
1246.000000	0.374394
1247.000000	0.374774
1248.000000	0.375060
1249.000000	0.375084
1250.000000	0.375198
1251.000000	0.375299
1252.000000	0.375328
1253.000000	0.375412
1254.000000	0.375416
1255.000000	0.375305
1256.000000	0.375245
1257.000000	0.375153
1258.000000	0.375238
1259.000000	0.375299
1260.000000	0.375387
1261.000000	0.375677
1262.000000	0.375701
1263.000000	0.375526
1264.000000	0.375450
1265.000000	0.375493
1266.000000	0.375419
1267.000000	0.375473
1268.000000	0.375555
1269.000000	0.375378
1270.000000	0.375285
1271.000000	0.375266
1272.000000	0.375398
1273.000000	0.375551
1274.000000	0.375522
1275.000000	0.375573
1276.000000	0.375688
1277.000000	0.375693
1278.000000	0.375589
1279.000000	0.375526
1280.000000	0.375246
1281.000000	0.375048
1282.000000	0.374975
1283.000000	0.374982
1284.000000	0.374945
1285.000000	0.374962
1286.000000	0.375081
1287.000000	0.375060
1288.000000	0.375054
1289.000000	0.375016
1290.000000	0.374870
1291.000000	0.374946
1292.000000	0.375079
1293.000000	0.374968
1294.000000	0.374946
1295.000000	0.374906
1296.000000	0.374813
1297.000000	0.374911
1298.000000	0.374986
1299.000000	0.374982
1300.000000	0.375015
1301.000000	0.374971
1302.000000	0.374909
1303.000000	0.375009
1304.000000	0.374962
1305.000000	0.374955
1306.000000	0.374928
1307.000000	0.374898
1308.000000	0.374922
1309.000000	0.374923
1310.000000	0.374947
1311.000000	0.375081
1312.000000	0.375085
1313.000000	0.374984
1314.000000	0.374931
1315.000000	0.374800
1316.000000	0.374725
1317.000000	0.374600
1318.000000	0.374417
1319.000000	0.374280
1320.000000	0.374168
1321.000000	0.374059
1322.000000	0.373965
1323.000000	0.373932
1324.000000	0.373793
1325.000000	0.373680
1326.000000	0.373821
1327.000000	0.373827
1328.000000	0.373866
1329.000000	0.373783
1330.000000	0.373674
1331.000000	0.373525
1332.000000	0.373246
1333.000000	0.373089
1334.000000	0.373169
1335.000000	0.373145
1336.000000	0.373099
1337.000000	0.373044
1338.000000	0.372929
1339.000000	0.372605
1340.000000	0.372510
1341.000000	0.372615
1342.000000	0.372687
1343.000000	0.372670
1344.000000	0.372477
1345.000000	0.372101
1346.000000	0.371880
1347.000000	0.371781
1348.000000	0.371716
1349.000000	0.371567
1350.000000	0.371439
1351.000000	0.371150
1352.000000	0.370825
1353.000000	0.370744
1354.000000	0.370706
1355.000000	0.370544
1356.000000	0.370507
1357.000000	0.370350
1358.000000	0.370087
1359.000000	0.369900
1360.000000	0.369669
1361.000000	0.369435
1362.000000	0.369174
1363.000000	0.368847
1364.000000	0.368626
1365.000000	0.368407
1366.000000	0.368203
1367.000000	0.368064
1368.000000	0.367835
1369.000000	0.367726
1370.000000	0.367680
1371.000000	0.367471
1372.000000	0.367230
1373.000000	0.366966
1374.000000	0.366547
1375.000000	0.366288
1376.000000	0.366212
1377.000000	0.366056
1378.000000	0.365845
1379.000000	0.365437
1380.000000	0.364988
1381.000000	0.364545
1382.000000	0.364140
1383.000000	0.363827
1384.000000	0.363174
1385.000000	0.362347
1386.000000	0.361666
1387.000000	0.360949
1388.000000	0.360292
1389.000000	0.359761
1390.000000	0.359119
1391.000000	0.358235
1392.000000	0.357393
1393.000000	0.356540
1394.000000	0.355679
1395.000000	0.354747
1396.000000	0.353803
1397.000000	0.352843
1398.000000	0.351795
1399.000000	0.350812
1400.000000	0.349857
1401.000000	0.348791
1402.000000	0.347763
1403.000000	0.346572
1404.000000	0.345402
1405.000000	0.344282
1406.000000	0.343197
1407.000000	0.342086
1408.000000	0.340880
1409.000000	0.339839
1410.000000	0.338629
1411.000000	0.337312
1412.000000	0.336212
1413.000000	0.335166
1414.000000	0.334266
1415.000000	0.333583
1416.000000	0.332861
1417.000000	0.332177
1418.000000	0.331474
1419.000000	0.330855
1420.000000	0.330314
1421.000000	0.329808
1422.000000	0.329352
1423.000000	0.328955
1424.000000	0.328389
1425.000000	0.327800
1426.000000	0.327137
1427.000000	0.326382
1428.000000	0.325563
1429.000000	0.324722
1430.000000	0.323970
1431.000000	0.323327
1432.000000	0.322760
1433.000000	0.322332
1434.000000	0.321985
1435.000000	0.321819
1436.000000	0.321668
1437.000000	0.321589
1438.000000	0.321526
1439.000000	0.321555
1440.000000	0.321643
1441.000000	0.321801
1442.000000	0.322015
1443.000000	0.322239
1444.000000	0.322502
1445.000000	0.322694
1446.000000	0.322955
1447.000000	0.323286
1448.000000	0.323434
1449.000000	0.323536
1450.000000	0.323724
1451.000000	0.323869
1452.000000	0.323836
1453.000000	0.323855
1454.000000	0.323852
1455.000000	0.323734
1456.000000	0.323773
1457.000000	0.323786
1458.000000	0.323724
1459.000000	0.323736
1460.000000	0.323729
1461.000000	0.323699
1462.000000	0.323698
1463.000000	0.323634
1464.000000	0.323499
1465.000000	0.323425
1466.000000	0.323372
1467.000000	0.323469
1468.000000	0.323567
1469.000000	0.323617
1470.000000	0.323705
1471.000000	0.323670
1472.000000	0.323633
1473.000000	0.323822
1474.000000	0.323966
1475.000000	0.324130
1476.000000	0.324339
1477.000000	0.324590
1478.000000	0.324839
1479.000000	0.325101
1480.000000	0.325463
1481.000000	0.325747
1482.000000	0.325975
1483.000000	0.326332
1484.000000	0.326777
1485.000000	0.327137
1486.000000	0.327524
1487.000000	0.327923
1488.000000	0.328255
1489.000000	0.328670
1490.000000	0.329027
1491.000000	0.329423
1492.000000	0.329837
1493.000000	0.330189
1494.000000	0.330454
1495.000000	0.330782
1496.000000	0.331109
1497.000000	0.331457
1498.000000	0.331894
1499.000000	0.332232
1500.000000	0.332520
1501.000000	0.332806
1502.000000	0.333122
1503.000000	0.333526
1504.000000	0.333884
1505.000000	0.334116
1506.000000	0.334334
1507.000000	0.334539
1508.000000	0.334890
1509.000000	0.335265
1510.000000	0.335472
1511.000000	0.335668
1512.000000	0.335810
1513.000000	0.335970
1514.000000	0.336215
1515.000000	0.336406
1516.000000	0.336593
1517.000000	0.336688
1518.000000	0.336714
1519.000000	0.336713
1520.000000	0.336879
1521.000000	0.337045
1522.000000	0.337248
1523.000000	0.337624
1524.000000	0.337805
1525.000000	0.337859
1526.000000	0.337940
1527.000000	0.338034
1528.000000	0.338098
1529.000000	0.338193
1530.000000	0.338298
1531.000000	0.338366
1532.000000	0.338454
1533.000000	0.338530
1534.000000	0.338631
1535.000000	0.338779
1536.000000	0.338894
1537.000000	0.339108
1538.000000	0.339237
1539.000000	0.339316
1540.000000	0.339403
1541.000000	0.339460
1542.000000	0.339539
1543.000000	0.339611
1544.000000	0.339766
1545.000000	0.339911
1546.000000	0.340037
1547.000000	0.340111
1548.000000	0.340130
1549.000000	0.340299
1550.000000	0.340384
1551.000000	0.340379
1552.000000	0.340410
1553.000000	0.340264
1554.000000	0.340214
1555.000000	0.340365
1556.000000	0.340413
1557.000000	0.340416
1558.000000	0.340470
1559.000000	0.340441
1560.000000	0.340412
1561.000000	0.340470
1562.000000	0.340463
1563.000000	0.340433
1564.000000	0.340437
1565.000000	0.340391
1566.000000	0.340381
1567.000000	0.340554
1568.000000	0.340616
1569.000000	0.340784
1570.000000	0.340868
1571.000000	0.340845
1572.000000	0.340751
1573.000000	0.340589
1574.000000	0.340476
1575.000000	0.340346
1576.000000	0.340267
1577.000000	0.340197
1578.000000	0.340156
1579.000000	0.340165
1580.000000	0.340175
1581.000000	0.340322
1582.000000	0.340413
1583.000000	0.340532
1584.000000	0.340502
1585.000000	0.340469
1586.000000	0.340504
1587.000000	0.340506
1588.000000	0.340440
1589.000000	0.340346
1590.000000	0.340337
1591.000000	0.340293
1592.000000	0.340328
1593.000000	0.340591
1594.000000	0.340689
1595.000000	0.340773
1596.000000	0.340821
1597.000000	0.340837
1598.000000	0.340830
1599.000000	0.340794
1600.000000	0.340724
1601.000000	0.340682
1602.000000	0.340747
1603.000000	0.340953
1604.000000	0.340957
1605.000000	0.340955
1606.000000	0.340938
1607.000000	0.340801
1608.000000	0.340784
1609.000000	0.340967
1610.000000	0.340969
1611.000000	0.340832
1612.000000	0.340904
1613.000000	0.341201
1614.000000	0.341300
1615.000000	0.341533
1616.000000	0.341685
1617.000000	0.341556
1618.000000	0.341598
1619.000000	0.341739
1620.000000	0.341807
1621.000000	0.341883
1622.000000	0.342023
1623.000000	0.342143
1624.000000	0.342289
1625.000000	0.342330
1626.000000	0.342390
1627.000000	0.342506
1628.000000	0.342587
1629.000000	0.342592
1630.000000	0.342747
1631.000000	0.342939
1632.000000	0.343002
1633.000000	0.343093
1634.000000	0.343162
1635.000000	0.343122
1636.000000	0.343196
1637.000000	0.343498
1638.000000	0.343508
1639.000000	0.343367
1640.000000	0.343376
1641.000000	0.343372
1642.000000	0.343437
1643.000000	0.343730
1644.000000	0.343852
1645.000000	0.343857
1646.000000	0.343904
1647.000000	0.343991
1648.000000	0.344062
1649.000000	0.344228
1650.000000	0.344397
1651.000000	0.344591
1652.000000	0.344798
1653.000000	0.345018
1654.000000	0.345165
1655.000000	0.345240
1656.000000	0.345214
1657.000000	0.345095
1658.000000	0.345123
1659.000000	0.345306
1660.000000	0.345466
1661.000000	0.345658
1662.000000	0.345755
1663.000000	0.345719
1664.000000	0.345738
1665.000000	0.345666
1666.000000	0.345868
1667.000000	0.346185
1668.000000	0.346345
1669.000000	0.346536
1670.000000	0.346682
1671.000000	0.346822
1672.000000	0.346959
1673.000000	0.347094
1674.000000	0.347250
1675.000000	0.347445
1676.000000	0.347745
1677.000000	0.348076
1678.000000	0.348193
1679.000000	0.348254
1680.000000	0.348155
1681.000000	0.348119
1682.000000	0.348414
1683.000000	0.348566
1684.000000	0.348635
1685.000000	0.348657
1686.000000	0.348438
1687.000000	0.348313
1688.000000	0.348253
1689.000000	0.348314
1690.000000	0.348238
1691.000000	0.348191
1692.000000	0.348279
1693.000000	0.348358
1694.000000	0.348554
1695.000000	0.348767
1696.000000	0.348882
1697.000000	0.348909
1698.000000	0.348880
1699.000000	0.348931
1700.000000	0.348976
1701.000000	0.349086
1702.000000	0.349019
1703.000000	0.349048
1704.000000	0.349226
1705.000000	0.349367
1706.000000	0.349684
1707.000000	0.349890
1708.000000	0.349979
1709.000000	0.349991
1710.000000	0.350088
1711.000000	0.350063
1712.000000	0.349858
1713.000000	0.349808
1714.000000	0.349810
1715.000000	0.349827
1716.000000	0.349918
1717.000000	0.350062
1718.000000	0.350230
1719.000000	0.350338
1720.000000	0.350572
1721.000000	0.350734
1722.000000	0.350796
1723.000000	0.350857
1724.000000	0.350975
1725.000000	0.351067
1726.000000	0.351026
1727.000000	0.350987
1728.000000	0.350856
1729.000000	0.350732
1730.000000	0.350678
1731.000000	0.350667
1732.000000	0.350772
1733.000000	0.350822
1734.000000	0.350709
1735.000000	0.350675
1736.000000	0.350558
1737.000000	0.350590
1738.000000	0.350726
1739.000000	0.350845
1740.000000	0.351049
1741.000000	0.351112
1742.000000	0.351118
1743.000000	0.351236
1744.000000	0.351328
1745.000000	0.351367
1746.000000	0.351423
1747.000000	0.351602
1748.000000	0.351553
1749.000000	0.351361
1750.000000	0.351275
1751.000000	0.351209
1752.000000	0.351254
1753.000000	0.351405
1754.000000	0.351454
1755.000000	0.351244
1756.000000	0.351227
1757.000000	0.351297
1758.000000	0.351412
1759.000000	0.351703
1760.000000	0.351868
1761.000000	0.351991
1762.000000	0.352008
1763.000000	0.351907
1764.000000	0.351861
1765.000000	0.351678
1766.000000	0.351639
1767.000000	0.351629
1768.000000	0.351570
1769.000000	0.351633
1770.000000	0.351718
1771.000000	0.351816
1772.000000	0.351776
1773.000000	0.351548
1774.000000	0.351565
1775.000000	0.351661
1776.000000	0.351750
1777.000000	0.352053
1778.000000	0.352076
1779.000000	0.351857
1780.000000	0.351797
1781.000000	0.351603
1782.000000	0.351739
1783.000000	0.352157
1784.000000	0.352414
1785.000000	0.352565
1786.000000	0.352612
1787.000000	0.352640
1788.000000	0.352724
1789.000000	0.352793
1790.000000	0.352716
1791.000000	0.352611
1792.000000	0.352532
1793.000000	0.352493
1794.000000	0.352449
1795.000000	0.352507
1796.000000	0.352692
1797.000000	0.352805
1798.000000	0.352856
1799.000000	0.353002
1800.000000	0.353321
1801.000000	0.353715
1802.000000	0.353508
1803.000000	0.351955
1804.000000	0.351600
1805.000000	0.351414
1806.000000	0.351306
1807.000000	0.351531
1808.000000	0.351739
1809.000000	0.351790
1810.000000	0.352066
1811.000000	0.352764
1812.000000	0.354308
1813.000000	0.354550
1814.000000	0.354635
1815.000000	0.354617
1816.000000	0.353277
1817.000000	0.352901
1818.000000	0.353391
1819.000000	0.353835
1820.000000	0.353424
1821.000000	0.353287
1822.000000	0.352678
1823.000000	0.350717
1824.000000	0.350268
1825.000000	0.350258
1826.000000	0.350398
1827.000000	0.351199
1828.000000	0.352001
1829.000000	0.351924
1830.000000	0.351747
1831.000000	0.351643
1832.000000	0.351008
1833.000000	0.350802
1834.000000	0.351309
1835.000000	0.351043
1836.000000	0.350124
1837.000000	0.349753
1838.000000	0.348863
1839.000000	0.348250
1840.000000	0.349556
1841.000000	0.349957
1842.000000	0.350020
1843.000000	0.350291
1844.000000	0.350216
1845.000000	0.349079
1846.000000	0.348592
1847.000000	0.348419
1848.000000	0.347559
1849.000000	0.347350
1850.000000	0.347251
1851.000000	0.347345
1852.000000	0.348088
1853.000000	0.348268
1854.000000	0.347957
1855.000000	0.347863
1856.000000	0.347704
1857.000000	0.347414
1858.000000	0.347066
1859.000000	0.346442
1860.000000	0.345540
1861.000000	0.344579
1862.000000	0.343549
1863.000000	0.342562
1864.000000	0.341596
1865.000000	0.340108
1866.000000	0.339327
1867.000000	0.338955
1868.000000	0.338713
1869.000000	0.338332
1870.000000	0.337659
1871.000000	0.336085
1872.000000	0.333989
1873.000000	0.332346
1874.000000	0.330633
1875.000000	0.329023
1876.000000	0.327560
1877.000000	0.325562
1878.000000	0.322987
1879.000000	0.320645
1880.000000	0.318218
1881.000000	0.315749
1882.000000	0.313861
1883.000000	0.311074
1884.000000	0.308384
1885.000000	0.305580
1886.000000	0.302436
1887.000000	0.298824
1888.000000	0.295305
1889.000000	0.291421
1890.000000	0.287489
1891.000000	0.284204
1892.000000	0.280875
1893.000000	0.277355
1894.000000	0.273664
1895.000000	0.269686
1896.000000	0.265343
1897.000000	0.261010
1898.000000	0.256557
1899.000000	0.252766
1900.000000	0.249589
1901.000000	0.246257
1902.000000	0.243323
1903.000000	0.240597
1904.000000	0.237651
1905.000000	0.234671
1906.000000	0.231955
1907.000000	0.229476
1908.000000	0.227391
1909.000000	0.225531
1910.000000	0.223735
1911.000000	0.222054
1912.000000	0.220160
1913.000000	0.218138
1914.000000	0.216048
1915.000000	0.214528
1916.000000	0.213570
1917.000000	0.212332
1918.000000	0.211027
1919.000000	0.210680
1920.000000	0.209926
1921.000000	0.209144
1922.000000	0.209664
1923.000000	0.209548
1924.000000	0.209412
1925.000000	0.209285
1926.000000	0.208694
1927.000000	0.208616
1928.000000	0.208559
1929.000000	0.208856
1930.000000	0.208821
1931.000000	0.208915
1932.000000	0.209469
1933.000000	0.209634
1934.000000	0.210250
1935.000000	0.211071
1936.000000	0.211021
1937.000000	0.211226
1938.000000	0.211235
1939.000000	0.211229
1940.000000	0.211162
1941.000000	0.211241
1942.000000	0.210613
1943.000000	0.210252
1944.000000	0.209986
1945.000000	0.209380
1946.000000	0.209793
1947.000000	0.210406
1948.000000	0.210366
1949.000000	0.210790
1950.000000	0.211175
1951.000000	0.211183
1952.000000	0.210929
1953.000000	0.210905
1954.000000	0.210635
1955.000000	0.210156
1956.000000	0.209925
1957.000000	0.209798
1958.000000	0.209946
1959.000000	0.210167
1960.000000	0.209987
1961.000000	0.210042
1962.000000	0.209751
1963.000000	0.209157
1964.000000	0.208291
1965.000000	0.208161
1966.000000	0.208008
1967.000000	0.208021
1968.000000	0.208745
1969.000000	0.209323
1970.000000	0.209466
1971.000000	0.209468
1972.000000	0.209020
1973.000000	0.208722
1974.000000	0.207927
1975.000000	0.208045
1976.000000	0.208681
1977.000000	0.209635
1978.000000	0.210407
1979.000000	0.211219
1980.000000	0.211435
1981.000000	0.211823
1982.000000	0.212935
1983.000000	0.214150
1984.000000	0.214810
1985.000000	0.215390
1986.000000	0.215767
1987.000000	0.215787
1988.000000	0.215582
1989.000000	0.215777
1990.000000	0.216510
1991.000000	0.217160
1992.000000	0.217741
1993.000000	0.217811
1994.000000	0.218440
1995.000000	0.219557
1996.000000	0.220759
1997.000000	0.221760
1998.000000	0.223345
1999.000000	0.224352
2000.000000	0.224944
2001.000000	0.225111
2002.000000	0.225706
2003.000000	0.226485
2004.000000	0.226925
2005.000000	0.227465
2006.000000	0.228498
2007.000000	0.229513
2008.000000	0.230410
2009.000000	0.231624
2010.000000	0.232508
2011.000000	0.232640
2012.000000	0.233351
2013.000000	0.234257
2014.000000	0.234751
2015.000000	0.236221
2016.000000	0.238166
2017.000000	0.239882
2018.000000	0.241801
2019.000000	0.242088
2020.000000	0.242270
2021.000000	0.242924
2022.000000	0.242959
2023.000000	0.243827
2024.000000	0.245931
2025.000000	0.247037
2026.000000	0.247681
2027.000000	0.248699
2028.000000	0.249178
2029.000000	0.249811
2030.000000	0.250924
2031.000000	0.251236
2032.000000	0.251834
2033.000000	0.252964
2034.000000	0.253312
2035.000000	0.253306
2036.000000	0.253501
2037.000000	0.253104
2038.000000	0.253432
2039.000000	0.254243
2040.000000	0.255439
2041.000000	0.256491
2042.000000	0.257248
2043.000000	0.257814
2044.000000	0.258618
2045.000000	0.259068
2046.000000	0.259617
2047.000000	0.260483
2048.000000	0.261361
2049.000000	0.262343
2050.000000	0.263842
2051.000000	0.264523
2052.000000	0.264501
2053.000000	0.264619
2054.000000	0.264543
2055.000000	0.264466
2056.000000	0.265029
2057.000000	0.266226
2058.000000	0.267399
2059.000000	0.268147
2060.000000	0.268931
2061.000000	0.269420
2062.000000	0.270066
2063.000000	0.271057
2064.000000	0.271678
2065.000000	0.272408
2066.000000	0.272811
2067.000000	0.273204
2068.000000	0.273206
2069.000000	0.273852
2070.000000	0.274881
2071.000000	0.275399
2072.000000	0.276187
2073.000000	0.276671
2074.000000	0.276425
2075.000000	0.276964
2076.000000	0.278162
2077.000000	0.278758
2078.000000	0.279464
2079.000000	0.279990
2080.000000	0.280153
2081.000000	0.280611
2082.000000	0.281426
2083.000000	0.281552
2084.000000	0.281783
2085.000000	0.281884
2086.000000	0.281985
2087.000000	0.282462
2088.000000	0.283626
2089.000000	0.285221
2090.000000	0.286501
2091.000000	0.288281
2092.000000	0.289306
2093.000000	0.290031
2094.000000	0.290402
2095.000000	0.290177
2096.000000	0.290204
2097.000000	0.289900
2098.000000	0.289588
2099.000000	0.289884
2100.000000	0.290552
2101.000000	0.291139
2102.000000	0.291410
2103.000000	0.290806
2104.000000	0.290934
2105.000000	0.291360
2106.000000	0.292054
2107.000000	0.292754
2108.000000	0.294091
2109.000000	0.294784
2110.000000	0.294844
2111.000000	0.295388
2112.000000	0.296015
2113.000000	0.296301
2114.000000	0.296598
2115.000000	0.297417
2116.000000	0.297748
2117.000000	0.297630
2118.000000	0.298501
2119.000000	0.298519
2120.000000	0.298830
2121.000000	0.299629
2122.000000	0.299721
2123.000000	0.299352
2124.000000	0.299216
2125.000000	0.298152
2126.000000	0.298290
2127.000000	0.299517
2128.000000	0.300010
2129.000000	0.300746
2130.000000	0.301663
2131.000000	0.300620
2132.000000	0.299892
2133.000000	0.299904
2134.000000	0.299411
2135.000000	0.300061
2136.000000	0.301685
2137.000000	0.302377
2138.000000	0.303069
2139.000000	0.303718
2140.000000	0.303820
2141.000000	0.304007
2142.000000	0.304442
2143.000000	0.304138
2144.000000	0.303463
2145.000000	0.303109
2146.000000	0.302397
2147.000000	0.302554
2148.000000	0.302770
2149.000000	0.302734
2150.000000	0.303091
2151.000000	0.302960
2152.000000	0.303132
2153.000000	0.303552
2154.000000	0.303236
2155.000000	0.302675
2156.000000	0.302128
2157.000000	0.300835
2158.000000	0.300412
2159.000000	0.300323
2160.000000	0.300266
2161.000000	0.300617
2162.000000	0.300617
2163.000000	0.300734
2164.000000	0.300647
2165.000000	0.300163
2166.000000	0.299936
2167.000000	0.299904
2168.000000	0.299625
2169.000000	0.299320
2170.000000	0.300254
2171.000000	0.300682
2172.000000	0.301067
2173.000000	0.301399
2174.000000	0.301960
2175.000000	0.301880
2176.000000	0.301486
2177.000000	0.301162
2178.000000	0.300024
2179.000000	0.300119
2180.000000	0.301012
2181.000000	0.301805
2182.000000	0.302853
2183.000000	0.303663
2184.000000	0.303689
2185.000000	0.302045
2186.000000	0.300133
2187.000000	0.298740
2188.000000	0.297681
2189.000000	0.298349
2190.000000	0.299694
2191.000000	0.300705
2192.000000	0.300706
2193.000000	0.299390
2194.000000	0.298900
2195.000000	0.297920
2196.000000	0.297331
2197.000000	0.297954
2198.000000	0.297688
2199.000000	0.296788
2200.000000	0.296101
2201.000000	0.295073
2202.000000	0.293915
2203.000000	0.292261
2204.000000	0.290820
2205.000000	0.289484
2206.000000	0.289309
2207.000000	0.290787
2208.000000	0.293437
2209.000000	0.295800
2210.000000	0.298463
2211.000000	0.299889
2212.000000	0.301457
2213.000000	0.302234
2214.000000	0.302183
2215.000000	0.302074
2216.000000	0.301663
2217.000000	0.300571
2218.000000	0.299336
2219.000000	0.298630
2220.000000	0.296180
2221.000000	0.295531
2222.000000	0.295903
2223.000000	0.296672
2224.000000	0.297391
2225.000000	0.301485
2226.000000	0.304361
2227.000000	0.303637
2228.000000	0.303485
2229.000000	0.301510
2230.000000	0.300173
2231.000000	0.301826
2232.000000	0.301640
2233.000000	0.301965
2234.000000	0.301302
2235.000000	0.298002
2236.000000	0.296542
2237.000000	0.294516
2238.000000	0.294833
2239.000000	0.297300
2240.000000	0.299163
2241.000000	0.302434
2242.000000	0.304023
2243.000000	0.304696
2244.000000	0.304838
2245.000000	0.304047
2246.000000	0.303813
2247.000000	0.303577
2248.000000	0.303155
2249.000000	0.302380
2250.000000	0.302478
2251.000000	0.302203
2252.000000	0.301683
2253.000000	0.302453
2254.000000	0.302060
2255.000000	0.302571
2256.000000	0.303876
2257.000000	0.305043
2258.000000	0.304548
2259.000000	0.302113
2260.000000	0.300556
2261.000000	0.298142
2262.000000	0.294027
2263.000000	0.292945
2264.000000	0.292393
2265.000000	0.292060
2266.000000	0.294223
2267.000000	0.294907
2268.000000	0.295065
2269.000000	0.295579
2270.000000	0.296761
2271.000000	0.295965
2272.000000	0.294261
2273.000000	0.291954
2274.000000	0.286686
2275.000000	0.284344
2276.000000	0.282815
2277.000000	0.282519
2278.000000	0.282817
2279.000000	0.281708
2280.000000	0.281091
2281.000000	0.280007
2282.000000	0.278271
2283.000000	0.278538
2284.000000	0.279103
2285.000000	0.279279
2286.000000	0.278166
2287.000000	0.277053
2288.000000	0.276556
2289.000000	0.276746
2290.000000	0.279757
2291.000000	0.281431
2292.000000	0.282446
2293.000000	0.282367
2294.000000	0.281538
2295.000000	0.280023
2296.000000	0.279036
2297.000000	0.277426
2298.000000	0.276099
2299.000000	0.274635
2300.000000	0.273768
2301.000000	0.272089
2302.000000	0.271248
2303.000000	0.271960
2304.000000	0.272283
2305.000000	0.273866
2306.000000	0.274241
2307.000000	0.274056
2308.000000	0.272393
2309.000000	0.272520
2310.000000	0.272578
2311.000000	0.273892
2312.000000	0.275867
2313.000000	0.275344
2314.000000	0.272955
2315.000000	0.271694
2316.000000	0.271706
2317.000000	0.271445
2318.000000	0.271013
2319.000000	0.270487
2320.000000	0.270350
2321.000000	0.270321
2322.000000	0.272318
2323.000000	0.274124
2324.000000	0.272121
2325.000000	0.271386
2326.000000	0.270965
2327.000000	0.268515
2328.000000	0.267311
2329.000000	0.266175
2330.000000	0.264920
2331.000000	0.263463
2332.000000	0.262629
2333.000000	0.264583
2334.000000	0.263780
2335.000000	0.263403
2336.000000	0.264808
2337.000000	0.263590
2338.000000	0.258667
2339.000000	0.257583
2340.000000	0.257344
2341.000000	0.256321
2342.000000	0.256656
2343.000000	0.256651
2344.000000	0.255434
2345.000000	0.255545
2346.000000	0.257638
2347.000000	0.257744
2348.000000	0.257599
2349.000000	0.256374
2350.000000	0.253385
2351.000000	0.252015
2352.000000	0.249835
2353.000000	0.248546
2354.000000	0.247961
2355.000000	0.246303
2356.000000	0.246153
2357.000000	0.246008
2358.000000	0.247217
2359.000000	0.247218
2360.000000	0.245489
2361.000000	0.245039
2362.000000	0.239843
2363.000000	0.237015
2364.000000	0.236853
2365.000000	0.234183
2366.000000	0.235993
2367.000000	0.237275
2368.000000	0.235876
2369.000000	0.237772
2370.000000	0.237892
2371.000000	0.237317
2372.000000	0.241230
2373.000000	0.242497
2374.000000	0.239638
2375.000000	0.239060
2376.000000	0.237468
2377.000000	0.234281
2378.000000	0.233892
2379.000000	0.235377
2380.000000	0.236325
2381.000000	0.235712
2382.000000	0.232768
2383.000000	0.227589
2384.000000	0.224766
2385.000000	0.221922
2386.000000	0.220029
2387.000000	0.220676
2388.000000	0.218172
2389.000000	0.218058
2390.000000	0.217032
2391.000000	0.212058
2392.000000	0.208995
2393.000000	0.203170
2394.000000	0.200591
2395.000000	0.203979
2396.000000	0.205389
2397.000000	0.204220
2398.000000	0.207005
2399.000000	0.215019
2400.000000	0.218112
2401.000000	0.222419
2402.000000	0.224960
2403.000000	0.218979
2404.000000	0.215644
2405.000000	0.217805
2406.000000	0.220644
2407.000000	0.222297
2408.000000	0.223697
2409.000000	0.216563
2410.000000	0.208206
2411.000000	0.199601
2412.000000	0.191508
2413.000000	0.189289
2414.000000	0.184726
2415.000000	0.187718
2416.000000	0.190824
2417.000000	0.193690
2418.000000	0.199700
2419.000000	0.193243
2420.000000	0.185319
2421.000000	0.189574
2422.000000	0.196210
2423.000000	0.202369
2424.000000	0.212001
2425.000000	0.208296
2426.000000	0.198311
2427.000000	0.201788
2428.000000	0.205976
2429.000000	0.208621
2430.000000	0.211916
2431.000000	0.208797
2432.000000	0.202166
2433.000000	0.197372
2434.000000	0.187327
2435.000000	0.178218
2436.000000	0.181117
2437.000000	0.182154
2438.000000	0.194193
2439.000000	0.202766
2440.000000	0.201268
2441.000000	0.207777
2442.000000	0.200240
2443.000000	0.201283
2444.000000	0.199643
2445.000000	0.191844
2446.000000	0.199917
2447.000000	0.188241
2448.000000	0.168169
2449.000000	0.157396
2450.000000	0.135695
2451.000000	0.131615
2452.000000	0.153429
2453.000000	0.164383
2454.000000	0.181793
2455.000000	0.196076
2456.000000	0.188644
2457.000000	0.198879
2458.000000	0.196835
2459.000000	0.186503
2460.000000	0.206954
2461.000000	0.197336
2462.000000	0.197305
2463.000000	0.203395
2464.000000	0.164116
2465.000000	0.148484
2466.000000	0.134904
2467.000000	0.124579
2468.000000	0.140142
2469.000000	0.152922
2470.000000	0.151786
2471.000000	0.139301
2472.000000	0.142426
2473.000000	0.146156
2474.000000	0.157468
2475.000000	0.192965
2476.000000	0.222333
2477.000000	0.229235
2478.000000	0.230387
2479.000000	0.214827
2480.000000	0.180299
2481.000000	0.150769
2482.000000	0.126325
2483.000000	0.118038
2484.000000	0.120659
2485.000000	0.156919
2486.000000	0.207721
2487.000000	0.226340
2488.000000	0.250532
2489.000000	0.219708
2490.000000	0.209551
2491.000000	0.219394
2492.000000	0.219957
2493.000000	0.264317
2494.000000	0.283201
2495.000000	0.290273
2496.000000	0.293298
2497.000000	0.247199
2498.000000	0.250769
2499.000000	0.280213
2500.000000	0.279466
