# Wavelength	NAu-1-40_HEX-50_FV7-10_00002.asd.rts.txt
350.000000	0.182016
351.000000	0.157392
352.000000	0.151874
353.000000	0.150574
354.000000	0.144741
355.000000	0.138886
356.000000	0.140499
357.000000	0.149264
358.000000	0.157777
359.000000	0.160555
360.000000	0.156126
361.000000	0.146525
362.000000	0.148222
363.000000	0.151460
364.000000	0.149808
365.000000	0.151093
366.000000	0.152511
367.000000	0.152571
368.000000	0.150978
369.000000	0.151941
370.000000	0.152246
371.000000	0.147982
372.000000	0.148989
373.000000	0.151168
374.000000	0.152063
375.000000	0.156789
376.000000	0.157971
377.000000	0.155352
378.000000	0.155583
379.000000	0.154478
380.000000	0.153980
381.000000	0.157410
382.000000	0.158264
383.000000	0.158795
384.000000	0.160745
385.000000	0.160608
386.000000	0.162448
387.000000	0.166128
388.000000	0.166564
389.000000	0.170586
390.000000	0.174257
391.000000	0.171053
392.000000	0.172964
393.000000	0.176644
394.000000	0.178230
395.000000	0.179297
396.000000	0.180107
397.000000	0.180717
398.000000	0.180899
399.000000	0.182080
400.000000	0.183929
401.000000	0.185301
402.000000	0.187904
403.000000	0.190086
404.000000	0.190813
405.000000	0.193163
406.000000	0.195790
407.000000	0.198109
408.000000	0.201150
409.000000	0.202562
410.000000	0.202848
411.000000	0.204107
412.000000	0.204352
413.000000	0.204994
414.000000	0.207366
415.000000	0.207850
416.000000	0.208134
417.000000	0.209165
418.000000	0.209368
419.000000	0.209915
420.000000	0.210724
421.000000	0.210620
422.000000	0.211490
423.000000	0.212338
424.000000	0.211691
425.000000	0.211920
426.000000	0.212684
427.000000	0.213214
428.000000	0.212450
429.000000	0.212249
430.000000	0.212917
431.000000	0.212750
432.000000	0.212221
433.000000	0.211651
434.000000	0.211475
435.000000	0.211748
436.000000	0.211923
437.000000	0.211560
438.000000	0.211377
439.000000	0.211104
440.000000	0.210655
441.000000	0.210060
442.000000	0.209505
443.000000	0.209078
444.000000	0.208939
445.000000	0.209166
446.000000	0.209386
447.000000	0.209174
448.000000	0.209919
449.000000	0.211328
450.000000	0.213003
451.000000	0.214711
452.000000	0.216846
453.000000	0.219397
454.000000	0.222133
455.000000	0.224729
456.000000	0.227663
457.000000	0.231476
458.000000	0.234421
459.000000	0.237040
460.000000	0.240012
461.000000	0.242542
462.000000	0.244823
463.000000	0.246868
464.000000	0.248825
465.000000	0.250406
466.000000	0.251654
467.000000	0.252960
468.000000	0.254254
469.000000	0.255374
470.000000	0.256370
471.000000	0.257592
472.000000	0.258595
473.000000	0.259199
474.000000	0.259961
475.000000	0.260632
476.000000	0.261330
477.000000	0.262240
478.000000	0.262829
479.000000	0.263424
480.000000	0.264304
481.000000	0.265025
482.000000	0.265628
483.000000	0.266080
484.000000	0.266974
485.000000	0.267714
486.000000	0.268283
487.000000	0.269194
488.000000	0.269910
489.000000	0.270475
490.000000	0.271279
491.000000	0.272027
492.000000	0.272759
493.000000	0.273448
494.000000	0.274130
495.000000	0.274954
496.000000	0.275886
497.000000	0.276532
498.000000	0.277317
499.000000	0.278347
500.000000	0.279127
501.000000	0.279964
502.000000	0.280856
503.000000	0.281606
504.000000	0.282575
505.000000	0.283575
506.000000	0.284412
507.000000	0.285340
508.000000	0.286300
509.000000	0.287213
510.000000	0.288130
511.000000	0.289185
512.000000	0.290277
513.000000	0.291025
514.000000	0.292028
515.000000	0.293215
516.000000	0.294245
517.000000	0.295220
518.000000	0.296307
519.000000	0.297504
520.000000	0.298699
521.000000	0.299821
522.000000	0.300902
523.000000	0.302101
524.000000	0.303355
525.000000	0.304632
526.000000	0.305955
527.000000	0.307304
528.000000	0.308610
529.000000	0.309883
530.000000	0.311200
531.000000	0.312606
532.000000	0.314002
533.000000	0.315344
534.000000	0.316721
535.000000	0.318128
536.000000	0.319520
537.000000	0.320955
538.000000	0.322399
539.000000	0.323778
540.000000	0.325234
541.000000	0.326732
542.000000	0.328242
543.000000	0.329657
544.000000	0.331101
545.000000	0.332559
546.000000	0.334053
547.000000	0.335554
548.000000	0.337031
549.000000	0.338334
550.000000	0.339828
551.000000	0.341394
552.000000	0.342744
553.000000	0.344119
554.000000	0.345533
555.000000	0.346962
556.000000	0.348319
557.000000	0.349673
558.000000	0.351149
559.000000	0.352483
560.000000	0.353732
561.000000	0.354971
562.000000	0.356114
563.000000	0.357311
564.000000	0.358534
565.000000	0.359597
566.000000	0.360587
567.000000	0.361628
568.000000	0.362721
569.000000	0.363703
570.000000	0.364623
571.000000	0.365508
572.000000	0.366414
573.000000	0.367248
574.000000	0.368000
575.000000	0.368763
576.000000	0.369543
577.000000	0.370239
578.000000	0.370873
579.000000	0.371571
580.000000	0.372195
581.000000	0.372708
582.000000	0.373254
583.000000	0.373734
584.000000	0.374173
585.000000	0.374671
586.000000	0.375079
587.000000	0.375427
588.000000	0.375779
589.000000	0.376118
590.000000	0.376409
591.000000	0.376655
592.000000	0.376958
593.000000	0.377223
594.000000	0.377434
595.000000	0.377665
596.000000	0.377860
597.000000	0.378074
598.000000	0.378260
599.000000	0.378296
600.000000	0.378360
601.000000	0.378494
602.000000	0.378561
603.000000	0.378625
604.000000	0.378721
605.000000	0.378788
606.000000	0.378881
607.000000	0.379008
608.000000	0.379139
609.000000	0.379154
610.000000	0.379130
611.000000	0.379179
612.000000	0.379258
613.000000	0.379312
614.000000	0.379359
615.000000	0.379422
616.000000	0.379452
617.000000	0.379429
618.000000	0.379489
619.000000	0.379592
620.000000	0.379668
621.000000	0.379702
622.000000	0.379586
623.000000	0.379512
624.000000	0.379631
625.000000	0.379807
626.000000	0.379904
627.000000	0.379896
628.000000	0.379910
629.000000	0.380036
630.000000	0.380106
631.000000	0.380166
632.000000	0.380193
633.000000	0.380224
634.000000	0.380282
635.000000	0.380421
636.000000	0.380613
637.000000	0.380803
638.000000	0.380980
639.000000	0.381154
640.000000	0.381349
641.000000	0.381394
642.000000	0.381512
643.000000	0.381671
644.000000	0.381779
645.000000	0.381968
646.000000	0.382181
647.000000	0.382345
648.000000	0.382564
649.000000	0.382798
650.000000	0.382987
651.000000	0.383109
652.000000	0.383260
653.000000	0.383499
654.000000	0.383754
655.000000	0.384024
656.000000	0.384319
657.000000	0.384582
658.000000	0.384855
659.000000	0.385190
660.000000	0.385557
661.000000	0.385853
662.000000	0.386124
663.000000	0.386443
664.000000	0.386769
665.000000	0.387155
666.000000	0.387571
667.000000	0.387928
668.000000	0.388233
669.000000	0.388555
670.000000	0.388936
671.000000	0.389336
672.000000	0.389703
673.000000	0.390041
674.000000	0.390425
675.000000	0.390850
676.000000	0.391253
677.000000	0.391607
678.000000	0.392061
679.000000	0.392529
680.000000	0.392959
681.000000	0.393396
682.000000	0.393878
683.000000	0.394318
684.000000	0.394786
685.000000	0.395297
686.000000	0.395839
687.000000	0.396323
688.000000	0.396831
689.000000	0.397348
690.000000	0.397899
691.000000	0.398497
692.000000	0.399061
693.000000	0.399636
694.000000	0.400173
695.000000	0.400719
696.000000	0.401299
697.000000	0.401926
698.000000	0.402540
699.000000	0.403168
700.000000	0.403826
701.000000	0.404407
702.000000	0.405009
703.000000	0.405622
704.000000	0.406144
705.000000	0.406782
706.000000	0.407452
707.000000	0.408073
708.000000	0.408744
709.000000	0.409357
710.000000	0.409876
711.000000	0.410526
712.000000	0.411212
713.000000	0.411901
714.000000	0.412568
715.000000	0.413232
716.000000	0.413896
717.000000	0.414524
718.000000	0.415119
719.000000	0.415707
720.000000	0.416325
721.000000	0.416953
722.000000	0.417502
723.000000	0.418040
724.000000	0.418613
725.000000	0.419125
726.000000	0.419715
727.000000	0.420379
728.000000	0.420994
729.000000	0.421538
730.000000	0.421966
731.000000	0.422442
732.000000	0.422911
733.000000	0.423431
734.000000	0.424057
735.000000	0.424549
736.000000	0.425086
737.000000	0.425649
738.000000	0.426168
739.000000	0.426743
740.000000	0.427201
741.000000	0.427586
742.000000	0.427960
743.000000	0.428313
744.000000	0.428670
745.000000	0.428977
746.000000	0.429302
747.000000	0.429616
748.000000	0.430009
749.000000	0.430437
750.000000	0.430801
751.000000	0.431103
752.000000	0.431314
753.000000	0.431492
754.000000	0.431741
755.000000	0.432014
756.000000	0.432337
757.000000	0.432658
758.000000	0.432864
759.000000	0.433079
760.000000	0.433264
761.000000	0.433387
762.000000	0.433494
763.000000	0.433572
764.000000	0.433682
765.000000	0.433675
766.000000	0.433653
767.000000	0.433717
768.000000	0.433799
769.000000	0.433844
770.000000	0.433857
771.000000	0.433922
772.000000	0.433969
773.000000	0.433886
774.000000	0.433748
775.000000	0.433640
776.000000	0.433583
777.000000	0.433528
778.000000	0.433366
779.000000	0.433215
780.000000	0.433094
781.000000	0.432896
782.000000	0.432716
783.000000	0.432673
784.000000	0.432602
785.000000	0.432441
786.000000	0.432253
787.000000	0.432070
788.000000	0.431878
789.000000	0.431672
790.000000	0.431399
791.000000	0.431054
792.000000	0.430750
793.000000	0.430478
794.000000	0.430206
795.000000	0.429853
796.000000	0.429526
797.000000	0.429241
798.000000	0.428935
799.000000	0.428609
800.000000	0.428271
801.000000	0.427938
802.000000	0.427592
803.000000	0.427221
804.000000	0.426863
805.000000	0.426463
806.000000	0.426065
807.000000	0.425752
808.000000	0.425415
809.000000	0.425168
810.000000	0.424846
811.000000	0.424358
812.000000	0.424068
813.000000	0.423680
814.000000	0.423175
815.000000	0.422804
816.000000	0.422410
817.000000	0.421992
818.000000	0.421486
819.000000	0.421073
820.000000	0.420706
821.000000	0.420298
822.000000	0.419930
823.000000	0.419550
824.000000	0.419096
825.000000	0.418680
826.000000	0.418322
827.000000	0.417894
828.000000	0.417396
829.000000	0.416916
830.000000	0.416439
831.000000	0.416013
832.000000	0.415498
833.000000	0.415083
834.000000	0.414713
835.000000	0.414359
836.000000	0.414004
837.000000	0.413689
838.000000	0.413385
839.000000	0.412954
840.000000	0.412530
841.000000	0.412125
842.000000	0.411683
843.000000	0.411258
844.000000	0.410902
845.000000	0.410568
846.000000	0.410200
847.000000	0.409832
848.000000	0.409457
849.000000	0.409089
850.000000	0.408601
851.000000	0.408171
852.000000	0.407892
853.000000	0.407582
854.000000	0.407275
855.000000	0.407054
856.000000	0.406737
857.000000	0.406155
858.000000	0.405723
859.000000	0.405494
860.000000	0.405198
861.000000	0.404920
862.000000	0.404635
863.000000	0.404209
864.000000	0.403833
865.000000	0.403488
866.000000	0.403178
867.000000	0.402891
868.000000	0.402473
869.000000	0.402005
870.000000	0.401773
871.000000	0.401426
872.000000	0.401077
873.000000	0.400750
874.000000	0.400483
875.000000	0.400143
876.000000	0.399803
877.000000	0.399535
878.000000	0.399349
879.000000	0.399210
880.000000	0.398918
881.000000	0.398627
882.000000	0.398304
883.000000	0.397924
884.000000	0.397422
885.000000	0.397235
886.000000	0.397043
887.000000	0.396696
888.000000	0.396371
889.000000	0.396129
890.000000	0.395861
891.000000	0.395689
892.000000	0.395594
893.000000	0.395370
894.000000	0.395125
895.000000	0.394984
896.000000	0.394702
897.000000	0.394374
898.000000	0.394182
899.000000	0.394063
900.000000	0.393888
901.000000	0.393613
902.000000	0.393476
903.000000	0.393383
904.000000	0.393334
905.000000	0.393200
906.000000	0.392970
907.000000	0.392862
908.000000	0.392851
909.000000	0.392438
910.000000	0.392216
911.000000	0.392195
912.000000	0.392238
913.000000	0.392120
914.000000	0.391974
915.000000	0.391884
916.000000	0.391681
917.000000	0.391459
918.000000	0.391308
919.000000	0.391219
920.000000	0.391044
921.000000	0.390846
922.000000	0.390753
923.000000	0.390850
924.000000	0.390879
925.000000	0.390682
926.000000	0.390389
927.000000	0.390444
928.000000	0.390409
929.000000	0.390311
930.000000	0.390292
931.000000	0.390174
932.000000	0.389995
933.000000	0.389858
934.000000	0.389794
935.000000	0.389759
936.000000	0.389822
937.000000	0.389838
938.000000	0.389490
939.000000	0.389445
940.000000	0.389581
941.000000	0.389523
942.000000	0.389467
943.000000	0.389463
944.000000	0.389433
945.000000	0.389667
946.000000	0.389599
947.000000	0.389448
948.000000	0.389501
949.000000	0.389501
950.000000	0.389366
951.000000	0.389138
952.000000	0.389117
953.000000	0.389092
954.000000	0.388985
955.000000	0.388771
956.000000	0.388866
957.000000	0.388842
958.000000	0.388838
959.000000	0.389238
960.000000	0.389119
961.000000	0.389013
962.000000	0.389116
963.000000	0.389178
964.000000	0.389394
965.000000	0.389497
966.000000	0.389259
967.000000	0.389538
968.000000	0.389654
969.000000	0.389418
970.000000	0.389130
971.000000	0.389267
972.000000	0.389420
973.000000	0.389396
974.000000	0.389600
975.000000	0.389633
976.000000	0.389590
977.000000	0.389652
978.000000	0.389991
979.000000	0.390217
980.000000	0.390052
981.000000	0.389984
982.000000	0.390264
983.000000	0.390600
984.000000	0.390854
985.000000	0.390909
986.000000	0.390940
987.000000	0.391073
988.000000	0.391227
989.000000	0.391445
990.000000	0.391476
991.000000	0.391503
992.000000	0.391839
993.000000	0.392266
994.000000	0.392476
995.000000	0.392612
996.000000	0.392660
997.000000	0.393052
998.000000	0.393446
999.000000	0.393705
1000.000000	0.393805
1001.000000	0.394477
1002.000000	0.393475
1003.000000	0.393004
1004.000000	0.392911
1005.000000	0.392581
1006.000000	0.392833
1007.000000	0.393911
1008.000000	0.394776
1009.000000	0.395432
1010.000000	0.396113
1011.000000	0.396231
1012.000000	0.396413
1013.000000	0.396292
1014.000000	0.396048
1015.000000	0.396547
1016.000000	0.397457
1017.000000	0.397638
1018.000000	0.397827
1019.000000	0.398238
1020.000000	0.398262
1021.000000	0.398229
1022.000000	0.399221
1023.000000	0.399644
1024.000000	0.399127
1025.000000	0.399548
1026.000000	0.399737
1027.000000	0.399864
1028.000000	0.400887
1029.000000	0.401276
1030.000000	0.401179
1031.000000	0.401919
1032.000000	0.402552
1033.000000	0.402771
1034.000000	0.403206
1035.000000	0.403974
1036.000000	0.404434
1037.000000	0.404801
1038.000000	0.405044
1039.000000	0.405338
1040.000000	0.405724
1041.000000	0.405867
1042.000000	0.405922
1043.000000	0.406799
1044.000000	0.407789
1045.000000	0.408095
1046.000000	0.408420
1047.000000	0.408740
1048.000000	0.408324
1049.000000	0.408689
1050.000000	0.409650
1051.000000	0.410190
1052.000000	0.410636
1053.000000	0.411222
1054.000000	0.412150
1055.000000	0.412943
1056.000000	0.413996
1057.000000	0.414661
1058.000000	0.414956
1059.000000	0.414992
1060.000000	0.415590
1061.000000	0.416353
1062.000000	0.416871
1063.000000	0.417600
1064.000000	0.418103
1065.000000	0.418024
1066.000000	0.418471
1067.000000	0.419245
1068.000000	0.419753
1069.000000	0.420090
1070.000000	0.420739
1071.000000	0.421689
1072.000000	0.422276
1073.000000	0.423122
1074.000000	0.423719
1075.000000	0.423505
1076.000000	0.423259
1077.000000	0.423646
1078.000000	0.424107
1079.000000	0.424500
1080.000000	0.425338
1081.000000	0.425931
1082.000000	0.426293
1083.000000	0.426878
1084.000000	0.427886
1085.000000	0.428511
1086.000000	0.428624
1087.000000	0.429315
1088.000000	0.430073
1089.000000	0.430866
1090.000000	0.432085
1091.000000	0.433138
1092.000000	0.433738
1093.000000	0.434031
1094.000000	0.434286
1095.000000	0.433957
1096.000000	0.434316
1097.000000	0.434883
1098.000000	0.435474
1099.000000	0.436264
1100.000000	0.437096
1101.000000	0.437938
1102.000000	0.438656
1103.000000	0.439332
1104.000000	0.440126
1105.000000	0.441119
1106.000000	0.441686
1107.000000	0.441845
1108.000000	0.442330
1109.000000	0.442706
1110.000000	0.443085
1111.000000	0.443752
1112.000000	0.444996
1113.000000	0.445721
1114.000000	0.446269
1115.000000	0.446869
1116.000000	0.447443
1117.000000	0.447927
1118.000000	0.448184
1119.000000	0.448689
1120.000000	0.449391
1121.000000	0.449842
1122.000000	0.450397
1123.000000	0.451206
1124.000000	0.451587
1125.000000	0.452097
1126.000000	0.452853
1127.000000	0.453344
1128.000000	0.453695
1129.000000	0.453812
1130.000000	0.454268
1131.000000	0.454754
1132.000000	0.455237
1133.000000	0.455991
1134.000000	0.456594
1135.000000	0.457019
1136.000000	0.457482
1137.000000	0.458079
1138.000000	0.458374
1139.000000	0.458471
1140.000000	0.458883
1141.000000	0.459072
1142.000000	0.459555
1143.000000	0.460520
1144.000000	0.461247
1145.000000	0.461642
1146.000000	0.462063
1147.000000	0.462287
1148.000000	0.461992
1149.000000	0.462165
1150.000000	0.462480
1151.000000	0.462808
1152.000000	0.463230
1153.000000	0.463591
1154.000000	0.463923
1155.000000	0.464159
1156.000000	0.464326
1157.000000	0.464541
1158.000000	0.464516
1159.000000	0.464749
1160.000000	0.465195
1161.000000	0.465529
1162.000000	0.465999
1163.000000	0.466636
1164.000000	0.467038
1165.000000	0.467244
1166.000000	0.467629
1167.000000	0.468011
1168.000000	0.468265
1169.000000	0.468488
1170.000000	0.468871
1171.000000	0.469288
1172.000000	0.469757
1173.000000	0.470455
1174.000000	0.470854
1175.000000	0.470918
1176.000000	0.471189
1177.000000	0.471608
1178.000000	0.471948
1179.000000	0.472446
1180.000000	0.472707
1181.000000	0.472946
1182.000000	0.472941
1183.000000	0.473299
1184.000000	0.473762
1185.000000	0.474086
1186.000000	0.474547
1187.000000	0.474837
1188.000000	0.474856
1189.000000	0.475059
1190.000000	0.475439
1191.000000	0.475697
1192.000000	0.476150
1193.000000	0.476551
1194.000000	0.476620
1195.000000	0.476882
1196.000000	0.477099
1197.000000	0.477346
1198.000000	0.477768
1199.000000	0.478090
1200.000000	0.478298
1201.000000	0.478588
1202.000000	0.478799
1203.000000	0.479054
1204.000000	0.479326
1205.000000	0.479527
1206.000000	0.479764
1207.000000	0.480154
1208.000000	0.480419
1209.000000	0.480821
1210.000000	0.481065
1211.000000	0.481179
1212.000000	0.481339
1213.000000	0.481512
1214.000000	0.481718
1215.000000	0.481876
1216.000000	0.482106
1217.000000	0.482360
1218.000000	0.482525
1219.000000	0.482669
1220.000000	0.483024
1221.000000	0.483279
1222.000000	0.483408
1223.000000	0.483466
1224.000000	0.483596
1225.000000	0.483735
1226.000000	0.483815
1227.000000	0.483962
1228.000000	0.484241
1229.000000	0.484392
1230.000000	0.484449
1231.000000	0.484489
1232.000000	0.484653
1233.000000	0.484905
1234.000000	0.485202
1235.000000	0.485366
1236.000000	0.485344
1237.000000	0.485504
1238.000000	0.485504
1239.000000	0.485622
1240.000000	0.485874
1241.000000	0.486225
1242.000000	0.486436
1243.000000	0.486656
1244.000000	0.486828
1245.000000	0.487012
1246.000000	0.487134
1247.000000	0.487332
1248.000000	0.487649
1249.000000	0.487824
1250.000000	0.487982
1251.000000	0.488340
1252.000000	0.488565
1253.000000	0.488825
1254.000000	0.488941
1255.000000	0.488889
1256.000000	0.488942
1257.000000	0.488957
1258.000000	0.489139
1259.000000	0.489414
1260.000000	0.489729
1261.000000	0.490010
1262.000000	0.490194
1263.000000	0.490438
1264.000000	0.490547
1265.000000	0.490573
1266.000000	0.490692
1267.000000	0.490848
1268.000000	0.490919
1269.000000	0.490869
1270.000000	0.491012
1271.000000	0.491163
1272.000000	0.491413
1273.000000	0.491765
1274.000000	0.491945
1275.000000	0.492011
1276.000000	0.491913
1277.000000	0.492010
1278.000000	0.491945
1279.000000	0.491960
1280.000000	0.491999
1281.000000	0.492013
1282.000000	0.492066
1283.000000	0.492264
1284.000000	0.492466
1285.000000	0.492620
1286.000000	0.492813
1287.000000	0.492863
1288.000000	0.492901
1289.000000	0.492803
1290.000000	0.492508
1291.000000	0.492428
1292.000000	0.492378
1293.000000	0.492258
1294.000000	0.492390
1295.000000	0.492458
1296.000000	0.492339
1297.000000	0.492358
1298.000000	0.492293
1299.000000	0.492207
1300.000000	0.492415
1301.000000	0.492482
1302.000000	0.492404
1303.000000	0.492475
1304.000000	0.492373
1305.000000	0.492156
1306.000000	0.492051
1307.000000	0.492134
1308.000000	0.492070
1309.000000	0.491926
1310.000000	0.491785
1311.000000	0.491655
1312.000000	0.491324
1313.000000	0.491119
1314.000000	0.490912
1315.000000	0.490730
1316.000000	0.490709
1317.000000	0.490507
1318.000000	0.490376
1319.000000	0.490057
1320.000000	0.489609
1321.000000	0.489533
1322.000000	0.489426
1323.000000	0.489326
1324.000000	0.489327
1325.000000	0.488955
1326.000000	0.488620
1327.000000	0.488351
1328.000000	0.488176
1329.000000	0.487877
1330.000000	0.487557
1331.000000	0.487195
1332.000000	0.486871
1333.000000	0.486583
1334.000000	0.486397
1335.000000	0.486269
1336.000000	0.486151
1337.000000	0.485890
1338.000000	0.485492
1339.000000	0.485234
1340.000000	0.484823
1341.000000	0.484507
1342.000000	0.484277
1343.000000	0.483940
1344.000000	0.483607
1345.000000	0.483180
1346.000000	0.482650
1347.000000	0.482005
1348.000000	0.481513
1349.000000	0.481082
1350.000000	0.480819
1351.000000	0.480476
1352.000000	0.479992
1353.000000	0.479551
1354.000000	0.479133
1355.000000	0.478735
1356.000000	0.478495
1357.000000	0.478036
1358.000000	0.477526
1359.000000	0.477262
1360.000000	0.476955
1361.000000	0.476776
1362.000000	0.476430
1363.000000	0.476004
1364.000000	0.475575
1365.000000	0.475070
1366.000000	0.474624
1367.000000	0.474267
1368.000000	0.473609
1369.000000	0.473109
1370.000000	0.472342
1371.000000	0.471324
1372.000000	0.470620
1373.000000	0.469909
1374.000000	0.469005
1375.000000	0.468336
1376.000000	0.467684
1377.000000	0.466844
1378.000000	0.465999
1379.000000	0.464978
1380.000000	0.463989
1381.000000	0.462784
1382.000000	0.461246
1383.000000	0.459804
1384.000000	0.458150
1385.000000	0.456271
1386.000000	0.454518
1387.000000	0.452647
1388.000000	0.450610
1389.000000	0.448721
1390.000000	0.446905
1391.000000	0.445074
1392.000000	0.443176
1393.000000	0.441014
1394.000000	0.438672
1395.000000	0.436486
1396.000000	0.434135
1397.000000	0.431740
1398.000000	0.429466
1399.000000	0.427027
1400.000000	0.424372
1401.000000	0.421819
1402.000000	0.419376
1403.000000	0.416713
1404.000000	0.414236
1405.000000	0.411723
1406.000000	0.409079
1407.000000	0.406565
1408.000000	0.403967
1409.000000	0.401382
1410.000000	0.399035
1411.000000	0.396727
1412.000000	0.394316
1413.000000	0.392079
1414.000000	0.390019
1415.000000	0.388104
1416.000000	0.386458
1417.000000	0.385049
1418.000000	0.383578
1419.000000	0.382182
1420.000000	0.380808
1421.000000	0.379497
1422.000000	0.378234
1423.000000	0.376929
1424.000000	0.375551
1425.000000	0.374188
1426.000000	0.372627
1427.000000	0.371066
1428.000000	0.369566
1429.000000	0.368033
1430.000000	0.366658
1431.000000	0.365492
1432.000000	0.364396
1433.000000	0.363417
1434.000000	0.362573
1435.000000	0.361862
1436.000000	0.361438
1437.000000	0.361146
1438.000000	0.361112
1439.000000	0.361558
1440.000000	0.361898
1441.000000	0.362386
1442.000000	0.362903
1443.000000	0.363398
1444.000000	0.363898
1445.000000	0.364351
1446.000000	0.364889
1447.000000	0.365460
1448.000000	0.365846
1449.000000	0.366230
1450.000000	0.366566
1451.000000	0.366667
1452.000000	0.366631
1453.000000	0.366433
1454.000000	0.366116
1455.000000	0.365939
1456.000000	0.365841
1457.000000	0.365763
1458.000000	0.365723
1459.000000	0.365627
1460.000000	0.365441
1461.000000	0.365340
1462.000000	0.365250
1463.000000	0.365008
1464.000000	0.364827
1465.000000	0.364714
1466.000000	0.364649
1467.000000	0.364705
1468.000000	0.364812
1469.000000	0.364972
1470.000000	0.365049
1471.000000	0.365329
1472.000000	0.365658
1473.000000	0.366018
1474.000000	0.366573
1475.000000	0.367061
1476.000000	0.367513
1477.000000	0.368114
1478.000000	0.368706
1479.000000	0.369399
1480.000000	0.370087
1481.000000	0.370790
1482.000000	0.371601
1483.000000	0.372433
1484.000000	0.373325
1485.000000	0.374155
1486.000000	0.374923
1487.000000	0.375682
1488.000000	0.376407
1489.000000	0.377223
1490.000000	0.377945
1491.000000	0.378780
1492.000000	0.379657
1493.000000	0.380455
1494.000000	0.381236
1495.000000	0.381958
1496.000000	0.382569
1497.000000	0.383297
1498.000000	0.384114
1499.000000	0.384785
1500.000000	0.385533
1501.000000	0.386313
1502.000000	0.386957
1503.000000	0.387643
1504.000000	0.388288
1505.000000	0.388776
1506.000000	0.389337
1507.000000	0.389948
1508.000000	0.390615
1509.000000	0.391241
1510.000000	0.391662
1511.000000	0.392065
1512.000000	0.392478
1513.000000	0.392964
1514.000000	0.393530
1515.000000	0.393924
1516.000000	0.394345
1517.000000	0.394743
1518.000000	0.394997
1519.000000	0.395360
1520.000000	0.395749
1521.000000	0.395925
1522.000000	0.396345
1523.000000	0.396773
1524.000000	0.396923
1525.000000	0.397264
1526.000000	0.397582
1527.000000	0.397762
1528.000000	0.398060
1529.000000	0.398312
1530.000000	0.398438
1531.000000	0.398729
1532.000000	0.399049
1533.000000	0.399383
1534.000000	0.399651
1535.000000	0.399795
1536.000000	0.400024
1537.000000	0.400289
1538.000000	0.400553
1539.000000	0.400836
1540.000000	0.401042
1541.000000	0.401321
1542.000000	0.401548
1543.000000	0.401602
1544.000000	0.401685
1545.000000	0.401832
1546.000000	0.401981
1547.000000	0.402209
1548.000000	0.402464
1549.000000	0.402572
1550.000000	0.402606
1551.000000	0.402626
1552.000000	0.402615
1553.000000	0.402654
1554.000000	0.402710
1555.000000	0.402687
1556.000000	0.402720
1557.000000	0.402798
1558.000000	0.402847
1559.000000	0.402801
1560.000000	0.402822
1561.000000	0.402835
1562.000000	0.402965
1563.000000	0.403288
1564.000000	0.403522
1565.000000	0.403879
1566.000000	0.403891
1567.000000	0.403765
1568.000000	0.403776
1569.000000	0.403741
1570.000000	0.403832
1571.000000	0.404105
1572.000000	0.404169
1573.000000	0.404228
1574.000000	0.404205
1575.000000	0.403980
1576.000000	0.404013
1577.000000	0.404156
1578.000000	0.404140
1579.000000	0.404231
1580.000000	0.404291
1581.000000	0.404296
1582.000000	0.404350
1583.000000	0.404485
1584.000000	0.404565
1585.000000	0.404761
1586.000000	0.404804
1587.000000	0.404760
1588.000000	0.404790
1589.000000	0.404712
1590.000000	0.404776
1591.000000	0.405007
1592.000000	0.405188
1593.000000	0.405468
1594.000000	0.405597
1595.000000	0.405738
1596.000000	0.405907
1597.000000	0.406086
1598.000000	0.406116
1599.000000	0.406108
1600.000000	0.406106
1601.000000	0.406034
1602.000000	0.406101
1603.000000	0.406416
1604.000000	0.406494
1605.000000	0.406482
1606.000000	0.406526
1607.000000	0.406605
1608.000000	0.406626
1609.000000	0.406736
1610.000000	0.406770
1611.000000	0.406632
1612.000000	0.406708
1613.000000	0.407086
1614.000000	0.407276
1615.000000	0.407563
1616.000000	0.407828
1617.000000	0.407954
1618.000000	0.408066
1619.000000	0.408148
1620.000000	0.408300
1621.000000	0.408379
1622.000000	0.408667
1623.000000	0.409180
1624.000000	0.409466
1625.000000	0.409563
1626.000000	0.409671
1627.000000	0.409604
1628.000000	0.409809
1629.000000	0.410186
1630.000000	0.410440
1631.000000	0.410670
1632.000000	0.410841
1633.000000	0.410866
1634.000000	0.411135
1635.000000	0.411588
1636.000000	0.411957
1637.000000	0.412488
1638.000000	0.412796
1639.000000	0.413004
1640.000000	0.413254
1641.000000	0.413568
1642.000000	0.413759
1643.000000	0.413919
1644.000000	0.414208
1645.000000	0.414474
1646.000000	0.414654
1647.000000	0.414980
1648.000000	0.415140
1649.000000	0.415209
1650.000000	0.415414
1651.000000	0.415706
1652.000000	0.416075
1653.000000	0.416463
1654.000000	0.416776
1655.000000	0.417037
1656.000000	0.417217
1657.000000	0.417368
1658.000000	0.417632
1659.000000	0.418077
1660.000000	0.418528
1661.000000	0.418909
1662.000000	0.419315
1663.000000	0.419767
1664.000000	0.420121
1665.000000	0.420399
1666.000000	0.420841
1667.000000	0.421234
1668.000000	0.421541
1669.000000	0.421858
1670.000000	0.422066
1671.000000	0.422217
1672.000000	0.422581
1673.000000	0.423008
1674.000000	0.423359
1675.000000	0.423795
1676.000000	0.424039
1677.000000	0.424232
1678.000000	0.424320
1679.000000	0.424378
1680.000000	0.424446
1681.000000	0.424525
1682.000000	0.424801
1683.000000	0.425145
1684.000000	0.425360
1685.000000	0.425725
1686.000000	0.426012
1687.000000	0.426117
1688.000000	0.426241
1689.000000	0.426355
1690.000000	0.426365
1691.000000	0.426527
1692.000000	0.426615
1693.000000	0.426743
1694.000000	0.426952
1695.000000	0.427166
1696.000000	0.427187
1697.000000	0.427274
1698.000000	0.427428
1699.000000	0.427598
1700.000000	0.427898
1701.000000	0.428235
1702.000000	0.428302
1703.000000	0.428359
1704.000000	0.428561
1705.000000	0.428688
1706.000000	0.428806
1707.000000	0.428932
1708.000000	0.428995
1709.000000	0.428994
1710.000000	0.429065
1711.000000	0.429171
1712.000000	0.429300
1713.000000	0.429425
1714.000000	0.429642
1715.000000	0.429836
1716.000000	0.430044
1717.000000	0.430236
1718.000000	0.430444
1719.000000	0.430527
1720.000000	0.430536
1721.000000	0.430638
1722.000000	0.430741
1723.000000	0.430833
1724.000000	0.431041
1725.000000	0.431194
1726.000000	0.431136
1727.000000	0.431188
1728.000000	0.431216
1729.000000	0.431189
1730.000000	0.431297
1731.000000	0.431429
1732.000000	0.431642
1733.000000	0.431819
1734.000000	0.431846
1735.000000	0.431893
1736.000000	0.431767
1737.000000	0.431884
1738.000000	0.432146
1739.000000	0.432380
1740.000000	0.432728
1741.000000	0.432917
1742.000000	0.433004
1743.000000	0.433326
1744.000000	0.433733
1745.000000	0.433867
1746.000000	0.434006
1747.000000	0.433932
1748.000000	0.433855
1749.000000	0.433915
1750.000000	0.433890
1751.000000	0.433920
1752.000000	0.434074
1753.000000	0.434136
1754.000000	0.434161
1755.000000	0.433942
1756.000000	0.434026
1757.000000	0.434454
1758.000000	0.434572
1759.000000	0.434676
1760.000000	0.434780
1761.000000	0.434490
1762.000000	0.434421
1763.000000	0.434640
1764.000000	0.434757
1765.000000	0.434778
1766.000000	0.434856
1767.000000	0.434888
1768.000000	0.434863
1769.000000	0.434923
1770.000000	0.435043
1771.000000	0.435135
1772.000000	0.435178
1773.000000	0.435128
1774.000000	0.435187
1775.000000	0.435337
1776.000000	0.435417
1777.000000	0.435467
1778.000000	0.435605
1779.000000	0.435693
1780.000000	0.435872
1781.000000	0.436166
1782.000000	0.436342
1783.000000	0.436511
1784.000000	0.436708
1785.000000	0.436848
1786.000000	0.437057
1787.000000	0.437269
1788.000000	0.437400
1789.000000	0.437518
1790.000000	0.437575
1791.000000	0.437513
1792.000000	0.437413
1793.000000	0.437444
1794.000000	0.437471
1795.000000	0.437610
1796.000000	0.437996
1797.000000	0.438187
1798.000000	0.438186
1799.000000	0.438418
1800.000000	0.438791
1801.000000	0.437757
1802.000000	0.438275
1803.000000	0.439363
1804.000000	0.439812
1805.000000	0.440355
1806.000000	0.440777
1807.000000	0.440561
1808.000000	0.440671
1809.000000	0.440881
1810.000000	0.441625
1811.000000	0.441768
1812.000000	0.441749
1813.000000	0.441788
1814.000000	0.441686
1815.000000	0.441623
1816.000000	0.441482
1817.000000	0.441324
1818.000000	0.441036
1819.000000	0.441424
1820.000000	0.441288
1821.000000	0.441139
1822.000000	0.440963
1823.000000	0.440341
1824.000000	0.439894
1825.000000	0.439300
1826.000000	0.439284
1827.000000	0.439585
1828.000000	0.439661
1829.000000	0.439162
1830.000000	0.438718
1831.000000	0.438355
1832.000000	0.436933
1833.000000	0.436836
1834.000000	0.437848
1835.000000	0.438280
1836.000000	0.439148
1837.000000	0.439475
1838.000000	0.439337
1839.000000	0.439182
1840.000000	0.438626
1841.000000	0.437399
1842.000000	0.436914
1843.000000	0.436822
1844.000000	0.436198
1845.000000	0.435497
1846.000000	0.435099
1847.000000	0.434344
1848.000000	0.433125
1849.000000	0.433796
1850.000000	0.433044
1851.000000	0.432446
1852.000000	0.432008
1853.000000	0.431324
1854.000000	0.429986
1855.000000	0.428850
1856.000000	0.427809
1857.000000	0.425960
1858.000000	0.424323
1859.000000	0.423131
1860.000000	0.421558
1861.000000	0.420393
1862.000000	0.418516
1863.000000	0.416089
1864.000000	0.413847
1865.000000	0.411390
1866.000000	0.408734
1867.000000	0.405717
1868.000000	0.403374
1869.000000	0.400989
1870.000000	0.398395
1871.000000	0.396023
1872.000000	0.393266
1873.000000	0.389926
1874.000000	0.385700
1875.000000	0.381875
1876.000000	0.377498
1877.000000	0.373137
1878.000000	0.369178
1879.000000	0.364659
1880.000000	0.360076
1881.000000	0.355182
1882.000000	0.350407
1883.000000	0.345266
1884.000000	0.340205
1885.000000	0.335632
1886.000000	0.329841
1887.000000	0.323119
1888.000000	0.316428
1889.000000	0.309643
1890.000000	0.302859
1891.000000	0.296825
1892.000000	0.291094
1893.000000	0.284380
1894.000000	0.277334
1895.000000	0.270672
1896.000000	0.263979
1897.000000	0.257344
1898.000000	0.251626
1899.000000	0.246541
1900.000000	0.241624
1901.000000	0.236785
1902.000000	0.231833
1903.000000	0.227218
1904.000000	0.222427
1905.000000	0.217764
1906.000000	0.213837
1907.000000	0.210464
1908.000000	0.207231
1909.000000	0.205034
1910.000000	0.203135
1911.000000	0.200656
1912.000000	0.198750
1913.000000	0.196397
1914.000000	0.194058
1915.000000	0.192666
1916.000000	0.191370
1917.000000	0.189889
1918.000000	0.188641
1919.000000	0.187461
1920.000000	0.186126
1921.000000	0.184865
1922.000000	0.184338
1923.000000	0.184238
1924.000000	0.184151
1925.000000	0.184206
1926.000000	0.183943
1927.000000	0.183690
1928.000000	0.183427
1929.000000	0.183044
1930.000000	0.182652
1931.000000	0.183262
1932.000000	0.183801
1933.000000	0.183978
1934.000000	0.184727
1935.000000	0.184774
1936.000000	0.185184
1937.000000	0.186419
1938.000000	0.186749
1939.000000	0.187034
1940.000000	0.187288
1941.000000	0.187106
1942.000000	0.186699
1943.000000	0.186784
1944.000000	0.186374
1945.000000	0.186259
1946.000000	0.186500
1947.000000	0.186007
1948.000000	0.185784
1949.000000	0.186201
1950.000000	0.185493
1951.000000	0.184804
1952.000000	0.183996
1953.000000	0.184044
1954.000000	0.183552
1955.000000	0.183384
1956.000000	0.183616
1957.000000	0.183283
1958.000000	0.182760
1959.000000	0.182534
1960.000000	0.182595
1961.000000	0.182683
1962.000000	0.182858
1963.000000	0.183170
1964.000000	0.183456
1965.000000	0.183480
1966.000000	0.183751
1967.000000	0.183990
1968.000000	0.183819
1969.000000	0.184039
1970.000000	0.184090
1971.000000	0.183895
1972.000000	0.183996
1973.000000	0.184074
1974.000000	0.184243
1975.000000	0.184662
1976.000000	0.185279
1977.000000	0.185903
1978.000000	0.186762
1979.000000	0.186994
1980.000000	0.187189
1981.000000	0.187810
1982.000000	0.188508
1983.000000	0.189670
1984.000000	0.190530
1985.000000	0.191608
1986.000000	0.192244
1987.000000	0.192517
1988.000000	0.192820
1989.000000	0.193785
1990.000000	0.194936
1991.000000	0.196075
1992.000000	0.197383
1993.000000	0.198507
1994.000000	0.199245
1995.000000	0.199643
1996.000000	0.200658
1997.000000	0.201596
1998.000000	0.202332
1999.000000	0.203434
2000.000000	0.205095
2001.000000	0.206211
2002.000000	0.207250
2003.000000	0.208465
2004.000000	0.209715
2005.000000	0.210929
2006.000000	0.211963
2007.000000	0.213099
2008.000000	0.214272
2009.000000	0.215103
2010.000000	0.216346
2011.000000	0.217927
2012.000000	0.219241
2013.000000	0.220533
2014.000000	0.221890
2015.000000	0.222684
2016.000000	0.223928
2017.000000	0.225151
2018.000000	0.226449
2019.000000	0.228207
2020.000000	0.229717
2021.000000	0.231298
2022.000000	0.232919
2023.000000	0.234368
2024.000000	0.235770
2025.000000	0.237243
2026.000000	0.238445
2027.000000	0.239914
2028.000000	0.241298
2029.000000	0.242546
2030.000000	0.243829
2031.000000	0.244491
2032.000000	0.245196
2033.000000	0.246479
2034.000000	0.247715
2035.000000	0.249219
2036.000000	0.250412
2037.000000	0.251741
2038.000000	0.253057
2039.000000	0.254099
2040.000000	0.255592
2041.000000	0.257462
2042.000000	0.258835
2043.000000	0.260214
2044.000000	0.261417
2045.000000	0.261726
2046.000000	0.261744
2047.000000	0.262367
2048.000000	0.262902
2049.000000	0.263723
2050.000000	0.264951
2051.000000	0.265851
2052.000000	0.266266
2053.000000	0.266825
2054.000000	0.267411
2055.000000	0.268535
2056.000000	0.270137
2057.000000	0.271897
2058.000000	0.273598
2059.000000	0.275761
2060.000000	0.277089
2061.000000	0.277644
2062.000000	0.278500
2063.000000	0.279282
2064.000000	0.279741
2065.000000	0.280155
2066.000000	0.280840
2067.000000	0.281776
2068.000000	0.282461
2069.000000	0.283771
2070.000000	0.284670
2071.000000	0.285465
2072.000000	0.286323
2073.000000	0.286837
2074.000000	0.287857
2075.000000	0.289029
2076.000000	0.290572
2077.000000	0.291878
2078.000000	0.293312
2079.000000	0.294580
2080.000000	0.295582
2081.000000	0.296554
2082.000000	0.297769
2083.000000	0.298766
2084.000000	0.298739
2085.000000	0.299273
2086.000000	0.299552
2087.000000	0.300236
2088.000000	0.302081
2089.000000	0.303977
2090.000000	0.305455
2091.000000	0.306994
2092.000000	0.308387
2093.000000	0.309544
2094.000000	0.310507
2095.000000	0.311280
2096.000000	0.312379
2097.000000	0.313221
2098.000000	0.314356
2099.000000	0.315406
2100.000000	0.316366
2101.000000	0.317100
2102.000000	0.316903
2103.000000	0.317647
2104.000000	0.318157
2105.000000	0.318819
2106.000000	0.319858
2107.000000	0.320745
2108.000000	0.321612
2109.000000	0.322415
2110.000000	0.322800
2111.000000	0.323338
2112.000000	0.323833
2113.000000	0.323991
2114.000000	0.324411
2115.000000	0.325423
2116.000000	0.326608
2117.000000	0.327523
2118.000000	0.328190
2119.000000	0.328737
2120.000000	0.329310
2121.000000	0.329422
2122.000000	0.329968
2123.000000	0.330950
2124.000000	0.331467
2125.000000	0.332189
2126.000000	0.332227
2127.000000	0.331195
2128.000000	0.331278
2129.000000	0.331637
2130.000000	0.331532
2131.000000	0.331759
2132.000000	0.332638
2133.000000	0.332847
2134.000000	0.332957
2135.000000	0.333393
2136.000000	0.333858
2137.000000	0.334244
2138.000000	0.334560
2139.000000	0.334691
2140.000000	0.334509
2141.000000	0.334837
2142.000000	0.335380
2143.000000	0.335607
2144.000000	0.336690
2145.000000	0.336914
2146.000000	0.336598
2147.000000	0.336024
2148.000000	0.335792
2149.000000	0.335862
2150.000000	0.336319
2151.000000	0.336692
2152.000000	0.336386
2153.000000	0.336376
2154.000000	0.336241
2155.000000	0.335909
2156.000000	0.335944
2157.000000	0.336221
2158.000000	0.336204
2159.000000	0.336398
2160.000000	0.336498
2161.000000	0.336539
2162.000000	0.336528
2163.000000	0.335974
2164.000000	0.335655
2165.000000	0.335299
2166.000000	0.334961
2167.000000	0.335240
2168.000000	0.336565
2169.000000	0.336663
2170.000000	0.336355
2171.000000	0.336502
2172.000000	0.336253
2173.000000	0.336209
2174.000000	0.336864
2175.000000	0.336969
2176.000000	0.336518
2177.000000	0.336161
2178.000000	0.336020
2179.000000	0.335873
2180.000000	0.335319
2181.000000	0.335444
2182.000000	0.335477
2183.000000	0.334846
2184.000000	0.335821
2185.000000	0.336793
2186.000000	0.337702
2187.000000	0.337589
2188.000000	0.336986
2189.000000	0.335470
2190.000000	0.332810
2191.000000	0.332299
2192.000000	0.331890
2193.000000	0.331685
2194.000000	0.331621
2195.000000	0.333028
2196.000000	0.333947
2197.000000	0.334528
2198.000000	0.334796
2199.000000	0.335802
2200.000000	0.335735
2201.000000	0.334495
2202.000000	0.333595
2203.000000	0.332417
2204.000000	0.330018
2205.000000	0.327696
2206.000000	0.326858
2207.000000	0.327061
2208.000000	0.328770
2209.000000	0.331025
2210.000000	0.331652
2211.000000	0.331565
2212.000000	0.330924
2213.000000	0.330889
2214.000000	0.330905
2215.000000	0.331185
2216.000000	0.330940
2217.000000	0.332596
2218.000000	0.336019
2219.000000	0.337386
2220.000000	0.339545
2221.000000	0.341016
2222.000000	0.340998
2223.000000	0.340637
2224.000000	0.339563
2225.000000	0.340303
2226.000000	0.338297
2227.000000	0.334604
2228.000000	0.336651
2229.000000	0.335332
2230.000000	0.333701
2231.000000	0.336786
2232.000000	0.335534
2233.000000	0.333913
2234.000000	0.335051
2235.000000	0.334274
2236.000000	0.334286
2237.000000	0.335600
2238.000000	0.335498
2239.000000	0.333849
2240.000000	0.334386
2241.000000	0.335043
2242.000000	0.335791
2243.000000	0.338744
2244.000000	0.339376
2245.000000	0.339561
2246.000000	0.338851
2247.000000	0.335882
2248.000000	0.334273
2249.000000	0.332688
2250.000000	0.330311
2251.000000	0.329128
2252.000000	0.329049
2253.000000	0.330279
2254.000000	0.331124
2255.000000	0.334119
2256.000000	0.335007
2257.000000	0.333149
2258.000000	0.332831
2259.000000	0.329774
2260.000000	0.329305
2261.000000	0.328589
2262.000000	0.327517
2263.000000	0.327333
2264.000000	0.329252
2265.000000	0.327876
2266.000000	0.326062
2267.000000	0.324740
2268.000000	0.321665
2269.000000	0.318650
2270.000000	0.317129
2271.000000	0.313462
2272.000000	0.306220
2273.000000	0.302548
2274.000000	0.299869
2275.000000	0.297068
2276.000000	0.296003
2277.000000	0.294943
2278.000000	0.290683
2279.000000	0.285682
2280.000000	0.284395
2281.000000	0.281404
2282.000000	0.280582
2283.000000	0.285519
2284.000000	0.287700
2285.000000	0.289294
2286.000000	0.290870
2287.000000	0.288928
2288.000000	0.286988
2289.000000	0.284983
2290.000000	0.281612
2291.000000	0.280416
2292.000000	0.280158
2293.000000	0.280579
2294.000000	0.282178
2295.000000	0.286807
2296.000000	0.288712
2297.000000	0.290599
2298.000000	0.290849
2299.000000	0.287898
2300.000000	0.287922
2301.000000	0.288796
2302.000000	0.289559
2303.000000	0.293261
2304.000000	0.295014
2305.000000	0.295021
2306.000000	0.294086
2307.000000	0.292729
2308.000000	0.289237
2309.000000	0.286127
2310.000000	0.285083
2311.000000	0.287182
2312.000000	0.289846
2313.000000	0.291246
2314.000000	0.292543
2315.000000	0.290932
2316.000000	0.289024
2317.000000	0.286464
2318.000000	0.283519
2319.000000	0.282523
2320.000000	0.280791
2321.000000	0.279415
2322.000000	0.279846
2323.000000	0.281351
2324.000000	0.280528
2325.000000	0.278759
2326.000000	0.277494
2327.000000	0.276224
2328.000000	0.276953
2329.000000	0.276952
2330.000000	0.277906
2331.000000	0.276229
2332.000000	0.274314
2333.000000	0.275220
2334.000000	0.272677
2335.000000	0.271172
2336.000000	0.268754
2337.000000	0.266723
2338.000000	0.265418
2339.000000	0.263632
2340.000000	0.262444
2341.000000	0.260526
2342.000000	0.256347
2343.000000	0.254789
2344.000000	0.253516
2345.000000	0.253065
2346.000000	0.256019
2347.000000	0.255234
2348.000000	0.252558
2349.000000	0.252751
2350.000000	0.248351
2351.000000	0.245699
2352.000000	0.247007
2353.000000	0.243382
2354.000000	0.241234
2355.000000	0.239877
2356.000000	0.235489
2357.000000	0.235663
2358.000000	0.235389
2359.000000	0.232305
2360.000000	0.232200
2361.000000	0.228940
2362.000000	0.223689
2363.000000	0.222216
2364.000000	0.219441
2365.000000	0.219144
2366.000000	0.220242
2367.000000	0.220510
2368.000000	0.221631
2369.000000	0.219493
2370.000000	0.218371
2371.000000	0.220207
2372.000000	0.221112
2373.000000	0.218668
2374.000000	0.215922
2375.000000	0.214739
2376.000000	0.212643
2377.000000	0.214397
2378.000000	0.217352
2379.000000	0.212766
2380.000000	0.207776
2381.000000	0.207215
2382.000000	0.205871
2383.000000	0.211041
2384.000000	0.217751
2385.000000	0.213775
2386.000000	0.204847
2387.000000	0.195340
2388.000000	0.190131
2389.000000	0.190093
2390.000000	0.194679
2391.000000	0.198141
2392.000000	0.195896
2393.000000	0.192537
2394.000000	0.190108
2395.000000	0.192272
2396.000000	0.191114
2397.000000	0.190919
2398.000000	0.191346
2399.000000	0.184384
2400.000000	0.182033
2401.000000	0.176937
2402.000000	0.167803
2403.000000	0.164878
2404.000000	0.163992
2405.000000	0.163243
2406.000000	0.164371
2407.000000	0.169236
2408.000000	0.173580
2409.000000	0.178673
2410.000000	0.182635
2411.000000	0.183715
2412.000000	0.183977
2413.000000	0.178753
2414.000000	0.172534
2415.000000	0.169807
2416.000000	0.173462
2417.000000	0.179347
2418.000000	0.184177
2419.000000	0.182409
2420.000000	0.176748
2421.000000	0.173195
2422.000000	0.170734
2423.000000	0.176663
2424.000000	0.181033
2425.000000	0.179887
2426.000000	0.178389
2427.000000	0.176773
2428.000000	0.174536
2429.000000	0.173644
2430.000000	0.177776
2431.000000	0.187644
2432.000000	0.184289
2433.000000	0.175904
2434.000000	0.173443
2435.000000	0.161924
2436.000000	0.159534
2437.000000	0.154338
2438.000000	0.147271
2439.000000	0.144523
2440.000000	0.139307
2441.000000	0.144004
2442.000000	0.148858
2443.000000	0.162970
2444.000000	0.173561
2445.000000	0.175327
2446.000000	0.183898
2447.000000	0.167426
2448.000000	0.148593
2449.000000	0.156097
2450.000000	0.157749
2451.000000	0.157403
2452.000000	0.161709
2453.000000	0.148543
2454.000000	0.132668
2455.000000	0.139666
2456.000000	0.150196
2457.000000	0.153195
2458.000000	0.155417
2459.000000	0.145920
2460.000000	0.139870
2461.000000	0.140418
2462.000000	0.139174
2463.000000	0.149639
2464.000000	0.147319
2465.000000	0.134199
2466.000000	0.136733
2467.000000	0.132375
2468.000000	0.121243
2469.000000	0.120617
2470.000000	0.124856
2471.000000	0.133298
2472.000000	0.134028
2473.000000	0.134677
2474.000000	0.134366
2475.000000	0.116743
2476.000000	0.126697
2477.000000	0.150028
2478.000000	0.156957
2479.000000	0.180286
2480.000000	0.198624
2481.000000	0.176127
2482.000000	0.151719
2483.000000	0.135456
2484.000000	0.086271
2485.000000	0.080032
2486.000000	0.103344
2487.000000	0.100349
2488.000000	0.128969
2489.000000	0.152428
2490.000000	0.150676
2491.000000	0.134437
2492.000000	0.128912
2493.000000	0.114016
2494.000000	0.122793
2495.000000	0.174705
2496.000000	0.182027
2497.000000	0.170854
2498.000000	0.161434
2499.000000	0.132518
2500.000000	0.105634
