# Wavelength	Nau-1_50_FV7_50_00001.asd.rts.txt
350.000000	0.098030
351.000000	0.137422
352.000000	0.138553
353.000000	0.128163
354.000000	0.127100
355.000000	0.132272
356.000000	0.132612
357.000000	0.130276
358.000000	0.134776
359.000000	0.138028
360.000000	0.138702
361.000000	0.137300
362.000000	0.138659
363.000000	0.136271
364.000000	0.128071
365.000000	0.125268
366.000000	0.129144
367.000000	0.135042
368.000000	0.133380
369.000000	0.134363
370.000000	0.136701
371.000000	0.136612
372.000000	0.139083
373.000000	0.137081
374.000000	0.130265
375.000000	0.139254
376.000000	0.143287
377.000000	0.139342
378.000000	0.140711
379.000000	0.142281
380.000000	0.142949
381.000000	0.143224
382.000000	0.143882
383.000000	0.143586
384.000000	0.142713
385.000000	0.146751
386.000000	0.150171
387.000000	0.151429
388.000000	0.152439
389.000000	0.153762
390.000000	0.155226
391.000000	0.156144
392.000000	0.156267
393.000000	0.156363
394.000000	0.157121
395.000000	0.158688
396.000000	0.160313
397.000000	0.161674
398.000000	0.163043
399.000000	0.164426
400.000000	0.165210
401.000000	0.164644
402.000000	0.167274
403.000000	0.170026
404.000000	0.170175
405.000000	0.171264
406.000000	0.172742
407.000000	0.174113
408.000000	0.175128
409.000000	0.176234
410.000000	0.177265
411.000000	0.177697
412.000000	0.178771
413.000000	0.180030
414.000000	0.180799
415.000000	0.181338
416.000000	0.182353
417.000000	0.183807
418.000000	0.184001
419.000000	0.183813
420.000000	0.183756
421.000000	0.184128
422.000000	0.184403
423.000000	0.184652
424.000000	0.185093
425.000000	0.184803
426.000000	0.184735
427.000000	0.185393
428.000000	0.185232
429.000000	0.185222
430.000000	0.185677
431.000000	0.186116
432.000000	0.186150
433.000000	0.185900
434.000000	0.185832
435.000000	0.185705
436.000000	0.185518
437.000000	0.185364
438.000000	0.185781
439.000000	0.185651
440.000000	0.184772
441.000000	0.184535
442.000000	0.184399
443.000000	0.184247
444.000000	0.184317
445.000000	0.183864
446.000000	0.183597
447.000000	0.184273
448.000000	0.184785
449.000000	0.185666
450.000000	0.187165
451.000000	0.188238
452.000000	0.189556
453.000000	0.191223
454.000000	0.192893
455.000000	0.194893
456.000000	0.197100
457.000000	0.199091
458.000000	0.201049
459.000000	0.203146
460.000000	0.205360
461.000000	0.206578
462.000000	0.207971
463.000000	0.209755
464.000000	0.210768
465.000000	0.211678
466.000000	0.212612
467.000000	0.213523
468.000000	0.214199
469.000000	0.214708
470.000000	0.215333
471.000000	0.216081
472.000000	0.216700
473.000000	0.217142
474.000000	0.217887
475.000000	0.218361
476.000000	0.218669
477.000000	0.219379
478.000000	0.219813
479.000000	0.220152
480.000000	0.220591
481.000000	0.220939
482.000000	0.221525
483.000000	0.222327
484.000000	0.222610
485.000000	0.222869
486.000000	0.223442
487.000000	0.223790
488.000000	0.224395
489.000000	0.225169
490.000000	0.225623
491.000000	0.225993
492.000000	0.226484
493.000000	0.227122
494.000000	0.227610
495.000000	0.228134
496.000000	0.228788
497.000000	0.229458
498.000000	0.229977
499.000000	0.230439
500.000000	0.231114
501.000000	0.231677
502.000000	0.232189
503.000000	0.232789
504.000000	0.233369
505.000000	0.233928
506.000000	0.234495
507.000000	0.235107
508.000000	0.235775
509.000000	0.236445
510.000000	0.237036
511.000000	0.237844
512.000000	0.238729
513.000000	0.239124
514.000000	0.239797
515.000000	0.240696
516.000000	0.241461
517.000000	0.242086
518.000000	0.242738
519.000000	0.243486
520.000000	0.244413
521.000000	0.245256
522.000000	0.245925
523.000000	0.246526
524.000000	0.247288
525.000000	0.248153
526.000000	0.248940
527.000000	0.249748
528.000000	0.250556
529.000000	0.251370
530.000000	0.252159
531.000000	0.253015
532.000000	0.253897
533.000000	0.254730
534.000000	0.255660
535.000000	0.256641
536.000000	0.257457
537.000000	0.258310
538.000000	0.259239
539.000000	0.260198
540.000000	0.261051
541.000000	0.261920
542.000000	0.262916
543.000000	0.263718
544.000000	0.264521
545.000000	0.265378
546.000000	0.266303
547.000000	0.267136
548.000000	0.267951
549.000000	0.268898
550.000000	0.269836
551.000000	0.270746
552.000000	0.271588
553.000000	0.272350
554.000000	0.273131
555.000000	0.274012
556.000000	0.274999
557.000000	0.275856
558.000000	0.276630
559.000000	0.277352
560.000000	0.278132
561.000000	0.278961
562.000000	0.279625
563.000000	0.280354
564.000000	0.281176
565.000000	0.281950
566.000000	0.282615
567.000000	0.283257
568.000000	0.283894
569.000000	0.284442
570.000000	0.284990
571.000000	0.285572
572.000000	0.286219
573.000000	0.286806
574.000000	0.287327
575.000000	0.287869
576.000000	0.288293
577.000000	0.288712
578.000000	0.289261
579.000000	0.289705
580.000000	0.290128
581.000000	0.290543
582.000000	0.290839
583.000000	0.291158
584.000000	0.291547
585.000000	0.291998
586.000000	0.292254
587.000000	0.292477
588.000000	0.292867
589.000000	0.293152
590.000000	0.293406
591.000000	0.293671
592.000000	0.293827
593.000000	0.294076
594.000000	0.294415
595.000000	0.294644
596.000000	0.294802
597.000000	0.294954
598.000000	0.295076
599.000000	0.295145
600.000000	0.295281
601.000000	0.295476
602.000000	0.295562
603.000000	0.295660
604.000000	0.295824
605.000000	0.295964
606.000000	0.296068
607.000000	0.296149
608.000000	0.296235
609.000000	0.296337
610.000000	0.296461
611.000000	0.296591
612.000000	0.296597
613.000000	0.296662
614.000000	0.296888
615.000000	0.296947
616.000000	0.296912
617.000000	0.296845
618.000000	0.296916
619.000000	0.296944
620.000000	0.296938
621.000000	0.297030
622.000000	0.297158
623.000000	0.297267
624.000000	0.297330
625.000000	0.297445
626.000000	0.297529
627.000000	0.297560
628.000000	0.297600
629.000000	0.297749
630.000000	0.297871
631.000000	0.297986
632.000000	0.298058
633.000000	0.298182
634.000000	0.298401
635.000000	0.298434
636.000000	0.298480
637.000000	0.298627
638.000000	0.298724
639.000000	0.298836
640.000000	0.299008
641.000000	0.299114
642.000000	0.299248
643.000000	0.299406
644.000000	0.299559
645.000000	0.299688
646.000000	0.299793
647.000000	0.299866
648.000000	0.299986
649.000000	0.300195
650.000000	0.300433
651.000000	0.300559
652.000000	0.300674
653.000000	0.300803
654.000000	0.300871
655.000000	0.301014
656.000000	0.301237
657.000000	0.301463
658.000000	0.301727
659.000000	0.301980
660.000000	0.302188
661.000000	0.302399
662.000000	0.302609
663.000000	0.302847
664.000000	0.303057
665.000000	0.303309
666.000000	0.303591
667.000000	0.303836
668.000000	0.304005
669.000000	0.304191
670.000000	0.304434
671.000000	0.304619
672.000000	0.304885
673.000000	0.305198
674.000000	0.305406
675.000000	0.305610
676.000000	0.305860
677.000000	0.306197
678.000000	0.306599
679.000000	0.306886
680.000000	0.307023
681.000000	0.307328
682.000000	0.307693
683.000000	0.308006
684.000000	0.308370
685.000000	0.308684
686.000000	0.309026
687.000000	0.309451
688.000000	0.309755
689.000000	0.310038
690.000000	0.310406
691.000000	0.310707
692.000000	0.311008
693.000000	0.311378
694.000000	0.311700
695.000000	0.312020
696.000000	0.312374
697.000000	0.312797
698.000000	0.313199
699.000000	0.313574
700.000000	0.313937
701.000000	0.314257
702.000000	0.314671
703.000000	0.315131
704.000000	0.315379
705.000000	0.315701
706.000000	0.316072
707.000000	0.316438
708.000000	0.316797
709.000000	0.317135
710.000000	0.317474
711.000000	0.317877
712.000000	0.318296
713.000000	0.318721
714.000000	0.319129
715.000000	0.319532
716.000000	0.319927
717.000000	0.320276
718.000000	0.320633
719.000000	0.321006
720.000000	0.321400
721.000000	0.321777
722.000000	0.322097
723.000000	0.322418
724.000000	0.322745
725.000000	0.323022
726.000000	0.323313
727.000000	0.323566
728.000000	0.323860
729.000000	0.324203
730.000000	0.324532
731.000000	0.324879
732.000000	0.325216
733.000000	0.325557
734.000000	0.325832
735.000000	0.326054
736.000000	0.326346
737.000000	0.326597
738.000000	0.326757
739.000000	0.326970
740.000000	0.327171
741.000000	0.327429
742.000000	0.327731
743.000000	0.328016
744.000000	0.328254
745.000000	0.328448
746.000000	0.328653
747.000000	0.328831
748.000000	0.329040
749.000000	0.329258
750.000000	0.329437
751.000000	0.329624
752.000000	0.329859
753.000000	0.330108
754.000000	0.330241
755.000000	0.330356
756.000000	0.330492
757.000000	0.330613
758.000000	0.330734
759.000000	0.330835
760.000000	0.330871
761.000000	0.331050
762.000000	0.331212
763.000000	0.331273
764.000000	0.331279
765.000000	0.331310
766.000000	0.331374
767.000000	0.331451
768.000000	0.331523
769.000000	0.331618
770.000000	0.331696
771.000000	0.331585
772.000000	0.331525
773.000000	0.331450
774.000000	0.331328
775.000000	0.331253
776.000000	0.331263
777.000000	0.331312
778.000000	0.331217
779.000000	0.331130
780.000000	0.331098
781.000000	0.331055
782.000000	0.330953
783.000000	0.330923
784.000000	0.330906
785.000000	0.330781
786.000000	0.330662
787.000000	0.330600
788.000000	0.330518
789.000000	0.330446
790.000000	0.330311
791.000000	0.330059
792.000000	0.329964
793.000000	0.329939
794.000000	0.329865
795.000000	0.329708
796.000000	0.329496
797.000000	0.329289
798.000000	0.329187
799.000000	0.329142
800.000000	0.329067
801.000000	0.328896
802.000000	0.328748
803.000000	0.328607
804.000000	0.328496
805.000000	0.328408
806.000000	0.328197
807.000000	0.328007
808.000000	0.327945
809.000000	0.327822
810.000000	0.327630
811.000000	0.327392
812.000000	0.327178
813.000000	0.326963
814.000000	0.326748
815.000000	0.326572
816.000000	0.326342
817.000000	0.326110
818.000000	0.325865
819.000000	0.325710
820.000000	0.325493
821.000000	0.325183
822.000000	0.325114
823.000000	0.324942
824.000000	0.324659
825.000000	0.324490
826.000000	0.324251
827.000000	0.323981
828.000000	0.323754
829.000000	0.323506
830.000000	0.323172
831.000000	0.322823
832.000000	0.322443
833.000000	0.322188
834.000000	0.322068
835.000000	0.322041
836.000000	0.321851
837.000000	0.321579
838.000000	0.321344
839.000000	0.321240
840.000000	0.321108
841.000000	0.320945
842.000000	0.320738
843.000000	0.320507
844.000000	0.320307
845.000000	0.320090
846.000000	0.319786
847.000000	0.319550
848.000000	0.319296
849.000000	0.318944
850.000000	0.318588
851.000000	0.318333
852.000000	0.318231
853.000000	0.318148
854.000000	0.317937
855.000000	0.317710
856.000000	0.317453
857.000000	0.317127
858.000000	0.316822
859.000000	0.316537
860.000000	0.316367
861.000000	0.316154
862.000000	0.315855
863.000000	0.315445
864.000000	0.315292
865.000000	0.315189
866.000000	0.315026
867.000000	0.314891
868.000000	0.314648
869.000000	0.314317
870.000000	0.314094
871.000000	0.313905
872.000000	0.313754
873.000000	0.313575
874.000000	0.313375
875.000000	0.313104
876.000000	0.312781
877.000000	0.312399
878.000000	0.312142
879.000000	0.311925
880.000000	0.311584
881.000000	0.311376
882.000000	0.311088
883.000000	0.310808
884.000000	0.310651
885.000000	0.310511
886.000000	0.310332
887.000000	0.310125
888.000000	0.309924
889.000000	0.309783
890.000000	0.309563
891.000000	0.309306
892.000000	0.309054
893.000000	0.308805
894.000000	0.308641
895.000000	0.308380
896.000000	0.308159
897.000000	0.307975
898.000000	0.307798
899.000000	0.307737
900.000000	0.307581
901.000000	0.307300
902.000000	0.307270
903.000000	0.307199
904.000000	0.307073
905.000000	0.306864
906.000000	0.306748
907.000000	0.306585
908.000000	0.306345
909.000000	0.305955
910.000000	0.305654
911.000000	0.305476
912.000000	0.305387
913.000000	0.305255
914.000000	0.304970
915.000000	0.304634
916.000000	0.304347
917.000000	0.304170
918.000000	0.304048
919.000000	0.303908
920.000000	0.303755
921.000000	0.303729
922.000000	0.303719
923.000000	0.303488
924.000000	0.303258
925.000000	0.303013
926.000000	0.302770
927.000000	0.302527
928.000000	0.302393
929.000000	0.302265
930.000000	0.302031
931.000000	0.301958
932.000000	0.301669
933.000000	0.301310
934.000000	0.301483
935.000000	0.301266
936.000000	0.300948
937.000000	0.300794
938.000000	0.300544
939.000000	0.300330
940.000000	0.300197
941.000000	0.300256
942.000000	0.300018
943.000000	0.299763
944.000000	0.299597
945.000000	0.299575
946.000000	0.299423
947.000000	0.299289
948.000000	0.299284
949.000000	0.298983
950.000000	0.298596
951.000000	0.298308
952.000000	0.298344
953.000000	0.298305
954.000000	0.298189
955.000000	0.298045
956.000000	0.298145
957.000000	0.298121
958.000000	0.297924
959.000000	0.297771
960.000000	0.297634
961.000000	0.297552
962.000000	0.297463
963.000000	0.297249
964.000000	0.297089
965.000000	0.297022
966.000000	0.296972
967.000000	0.297197
968.000000	0.297216
969.000000	0.297022
970.000000	0.296960
971.000000	0.296878
972.000000	0.296652
973.000000	0.296360
974.000000	0.296495
975.000000	0.296351
976.000000	0.296091
977.000000	0.295925
978.000000	0.295633
979.000000	0.295583
980.000000	0.295583
981.000000	0.295654
982.000000	0.295567
983.000000	0.295369
984.000000	0.295217
985.000000	0.295189
986.000000	0.295179
987.000000	0.295173
988.000000	0.295079
989.000000	0.295038
990.000000	0.294892
991.000000	0.294837
992.000000	0.295119
993.000000	0.295325
994.000000	0.295493
995.000000	0.295664
996.000000	0.295531
997.000000	0.295611
998.000000	0.295584
999.000000	0.295543
1000.000000	0.296051
1001.000000	0.295214
1002.000000	0.295886
1003.000000	0.296078
1004.000000	0.295778
1005.000000	0.294890
1006.000000	0.294799
1007.000000	0.294879
1008.000000	0.294155
1009.000000	0.294144
1010.000000	0.294717
1011.000000	0.294969
1012.000000	0.295465
1013.000000	0.295708
1014.000000	0.294914
1015.000000	0.294447
1016.000000	0.294676
1017.000000	0.294798
1018.000000	0.295844
1019.000000	0.296391
1020.000000	0.296552
1021.000000	0.296544
1022.000000	0.296592
1023.000000	0.296947
1024.000000	0.297362
1025.000000	0.297514
1026.000000	0.297563
1027.000000	0.297408
1028.000000	0.296933
1029.000000	0.296879
1030.000000	0.297021
1031.000000	0.297184
1032.000000	0.297126
1033.000000	0.297009
1034.000000	0.297021
1035.000000	0.297037
1036.000000	0.297056
1037.000000	0.297142
1038.000000	0.297196
1039.000000	0.297162
1040.000000	0.297558
1041.000000	0.297853
1042.000000	0.298368
1043.000000	0.299130
1044.000000	0.299234
1045.000000	0.299312
1046.000000	0.299777
1047.000000	0.300313
1048.000000	0.300950
1049.000000	0.301293
1050.000000	0.301883
1051.000000	0.301968
1052.000000	0.301195
1053.000000	0.301159
1054.000000	0.301463
1055.000000	0.301851
1056.000000	0.302736
1057.000000	0.303299
1058.000000	0.303581
1059.000000	0.303860
1060.000000	0.303685
1061.000000	0.303714
1062.000000	0.304119
1063.000000	0.304501
1064.000000	0.304939
1065.000000	0.305591
1066.000000	0.306060
1067.000000	0.306345
1068.000000	0.306742
1069.000000	0.307371
1070.000000	0.307634
1071.000000	0.307586
1072.000000	0.307701
1073.000000	0.307650
1074.000000	0.307882
1075.000000	0.307828
1076.000000	0.308428
1077.000000	0.308853
1078.000000	0.308603
1079.000000	0.309101
1080.000000	0.310091
1081.000000	0.310701
1082.000000	0.311840
1083.000000	0.312268
1084.000000	0.311947
1085.000000	0.312171
1086.000000	0.312239
1087.000000	0.312496
1088.000000	0.313045
1089.000000	0.313528
1090.000000	0.313865
1091.000000	0.314481
1092.000000	0.314997
1093.000000	0.315533
1094.000000	0.315709
1095.000000	0.315368
1096.000000	0.315700
1097.000000	0.316072
1098.000000	0.316550
1099.000000	0.317496
1100.000000	0.318122
1101.000000	0.318567
1102.000000	0.318945
1103.000000	0.319267
1104.000000	0.319586
1105.000000	0.319590
1106.000000	0.319855
1107.000000	0.320325
1108.000000	0.320641
1109.000000	0.320958
1110.000000	0.321466
1111.000000	0.321745
1112.000000	0.321766
1113.000000	0.322222
1114.000000	0.322945
1115.000000	0.323305
1116.000000	0.323727
1117.000000	0.324072
1118.000000	0.324104
1119.000000	0.324240
1120.000000	0.324378
1121.000000	0.324715
1122.000000	0.325256
1123.000000	0.325804
1124.000000	0.326312
1125.000000	0.326834
1126.000000	0.327199
1127.000000	0.327474
1128.000000	0.327719
1129.000000	0.328037
1130.000000	0.328359
1131.000000	0.328630
1132.000000	0.328813
1133.000000	0.329008
1134.000000	0.329357
1135.000000	0.329606
1136.000000	0.329900
1137.000000	0.330472
1138.000000	0.330743
1139.000000	0.330845
1140.000000	0.331117
1141.000000	0.331373
1142.000000	0.331590
1143.000000	0.331790
1144.000000	0.332045
1145.000000	0.331990
1146.000000	0.331982
1147.000000	0.332237
1148.000000	0.332573
1149.000000	0.332799
1150.000000	0.333178
1151.000000	0.333490
1152.000000	0.333575
1153.000000	0.333850
1154.000000	0.334316
1155.000000	0.334552
1156.000000	0.334667
1157.000000	0.334850
1158.000000	0.334910
1159.000000	0.335038
1160.000000	0.335256
1161.000000	0.335403
1162.000000	0.335557
1163.000000	0.335834
1164.000000	0.336016
1165.000000	0.336062
1166.000000	0.336295
1167.000000	0.336541
1168.000000	0.336715
1169.000000	0.337003
1170.000000	0.337247
1171.000000	0.337484
1172.000000	0.337657
1173.000000	0.337723
1174.000000	0.337897
1175.000000	0.338042
1176.000000	0.338141
1177.000000	0.338449
1178.000000	0.338604
1179.000000	0.338466
1180.000000	0.338520
1181.000000	0.338795
1182.000000	0.339006
1183.000000	0.339174
1184.000000	0.339433
1185.000000	0.339612
1186.000000	0.339624
1187.000000	0.339804
1188.000000	0.340163
1189.000000	0.340257
1190.000000	0.340310
1191.000000	0.340382
1192.000000	0.340418
1193.000000	0.340594
1194.000000	0.340724
1195.000000	0.340867
1196.000000	0.340881
1197.000000	0.341068
1198.000000	0.341550
1199.000000	0.341762
1200.000000	0.341930
1201.000000	0.342023
1202.000000	0.341938
1203.000000	0.341981
1204.000000	0.342114
1205.000000	0.342290
1206.000000	0.342358
1207.000000	0.342491
1208.000000	0.342453
1209.000000	0.342327
1210.000000	0.342379
1211.000000	0.342443
1212.000000	0.342471
1213.000000	0.342697
1214.000000	0.342773
1215.000000	0.342585
1216.000000	0.342618
1217.000000	0.342726
1218.000000	0.342779
1219.000000	0.342829
1220.000000	0.343167
1221.000000	0.343288
1222.000000	0.343276
1223.000000	0.343386
1224.000000	0.343400
1225.000000	0.343463
1226.000000	0.343674
1227.000000	0.343706
1228.000000	0.343845
1229.000000	0.343978
1230.000000	0.344146
1231.000000	0.344083
1232.000000	0.344065
1233.000000	0.344152
1234.000000	0.344039
1235.000000	0.344060
1236.000000	0.344133
1237.000000	0.344293
1238.000000	0.344537
1239.000000	0.344610
1240.000000	0.344609
1241.000000	0.344807
1242.000000	0.344813
1243.000000	0.344702
1244.000000	0.344900
1245.000000	0.345096
1246.000000	0.345118
1247.000000	0.345244
1248.000000	0.345483
1249.000000	0.345546
1250.000000	0.345436
1251.000000	0.345571
1252.000000	0.345588
1253.000000	0.345473
1254.000000	0.345435
1255.000000	0.345490
1256.000000	0.345462
1257.000000	0.345382
1258.000000	0.345430
1259.000000	0.345448
1260.000000	0.345515
1261.000000	0.345590
1262.000000	0.345624
1263.000000	0.345681
1264.000000	0.345731
1265.000000	0.345659
1266.000000	0.345753
1267.000000	0.345910
1268.000000	0.345890
1269.000000	0.345904
1270.000000	0.345942
1271.000000	0.345918
1272.000000	0.346151
1273.000000	0.346437
1274.000000	0.346466
1275.000000	0.346484
1276.000000	0.346475
1277.000000	0.346419
1278.000000	0.346170
1279.000000	0.346072
1280.000000	0.345816
1281.000000	0.345722
1282.000000	0.345912
1283.000000	0.345913
1284.000000	0.345816
1285.000000	0.345787
1286.000000	0.345667
1287.000000	0.345499
1288.000000	0.345573
1289.000000	0.345582
1290.000000	0.345311
1291.000000	0.345208
1292.000000	0.345204
1293.000000	0.345141
1294.000000	0.345213
1295.000000	0.345324
1296.000000	0.345292
1297.000000	0.345331
1298.000000	0.345474
1299.000000	0.345527
1300.000000	0.345721
1301.000000	0.345817
1302.000000	0.345830
1303.000000	0.345980
1304.000000	0.345964
1305.000000	0.345866
1306.000000	0.345822
1307.000000	0.345670
1308.000000	0.345695
1309.000000	0.345957
1310.000000	0.346041
1311.000000	0.346165
1312.000000	0.346192
1313.000000	0.346097
1314.000000	0.345977
1315.000000	0.345880
1316.000000	0.345892
1317.000000	0.345843
1318.000000	0.345718
1319.000000	0.345491
1320.000000	0.345354
1321.000000	0.345296
1322.000000	0.345223
1323.000000	0.345267
1324.000000	0.345278
1325.000000	0.345187
1326.000000	0.345029
1327.000000	0.345021
1328.000000	0.345301
1329.000000	0.345281
1330.000000	0.345234
1331.000000	0.345224
1332.000000	0.345027
1333.000000	0.344981
1334.000000	0.345252
1335.000000	0.345372
1336.000000	0.345446
1337.000000	0.345445
1338.000000	0.345326
1339.000000	0.345147
1340.000000	0.345036
1341.000000	0.345098
1342.000000	0.345223
1343.000000	0.345338
1344.000000	0.345394
1345.000000	0.345253
1346.000000	0.345151
1347.000000	0.345088
1348.000000	0.344971
1349.000000	0.344817
1350.000000	0.344803
1351.000000	0.344612
1352.000000	0.344421
1353.000000	0.344352
1354.000000	0.344193
1355.000000	0.344026
1356.000000	0.343948
1357.000000	0.343802
1358.000000	0.343645
1359.000000	0.343558
1360.000000	0.343452
1361.000000	0.343356
1362.000000	0.343277
1363.000000	0.343226
1364.000000	0.343228
1365.000000	0.343286
1366.000000	0.343278
1367.000000	0.343333
1368.000000	0.343076
1369.000000	0.342932
1370.000000	0.342832
1371.000000	0.342658
1372.000000	0.342501
1373.000000	0.342369
1374.000000	0.342168
1375.000000	0.341846
1376.000000	0.341742
1377.000000	0.341554
1378.000000	0.341155
1379.000000	0.340872
1380.000000	0.340518
1381.000000	0.339994
1382.000000	0.339566
1383.000000	0.339257
1384.000000	0.338761
1385.000000	0.338275
1386.000000	0.338006
1387.000000	0.337624
1388.000000	0.337165
1389.000000	0.336723
1390.000000	0.336184
1391.000000	0.335592
1392.000000	0.335044
1393.000000	0.334367
1394.000000	0.333592
1395.000000	0.332946
1396.000000	0.332267
1397.000000	0.331558
1398.000000	0.330927
1399.000000	0.330280
1400.000000	0.329537
1401.000000	0.328784
1402.000000	0.328157
1403.000000	0.327277
1404.000000	0.326539
1405.000000	0.325994
1406.000000	0.325292
1407.000000	0.324702
1408.000000	0.323967
1409.000000	0.323186
1410.000000	0.322656
1411.000000	0.322115
1412.000000	0.321590
1413.000000	0.321206
1414.000000	0.320844
1415.000000	0.320643
1416.000000	0.320567
1417.000000	0.320447
1418.000000	0.320346
1419.000000	0.320328
1420.000000	0.320236
1421.000000	0.320340
1422.000000	0.320511
1423.000000	0.320630
1424.000000	0.320599
1425.000000	0.320526
1426.000000	0.320365
1427.000000	0.320038
1428.000000	0.319712
1429.000000	0.319538
1430.000000	0.319355
1431.000000	0.319249
1432.000000	0.319231
1433.000000	0.319350
1434.000000	0.319473
1435.000000	0.319699
1436.000000	0.320067
1437.000000	0.320551
1438.000000	0.321055
1439.000000	0.321684
1440.000000	0.322403
1441.000000	0.323194
1442.000000	0.324053
1443.000000	0.324984
1444.000000	0.325968
1445.000000	0.326717
1446.000000	0.327523
1447.000000	0.328297
1448.000000	0.328794
1449.000000	0.329341
1450.000000	0.329769
1451.000000	0.330156
1452.000000	0.330579
1453.000000	0.330797
1454.000000	0.331018
1455.000000	0.331188
1456.000000	0.331180
1457.000000	0.331329
1458.000000	0.331535
1459.000000	0.331630
1460.000000	0.331820
1461.000000	0.331953
1462.000000	0.332020
1463.000000	0.332089
1464.000000	0.332221
1465.000000	0.332404
1466.000000	0.332484
1467.000000	0.332708
1468.000000	0.332891
1469.000000	0.332951
1470.000000	0.333020
1471.000000	0.333047
1472.000000	0.332976
1473.000000	0.333084
1474.000000	0.333337
1475.000000	0.333576
1476.000000	0.333788
1477.000000	0.334005
1478.000000	0.334138
1479.000000	0.334297
1480.000000	0.334646
1481.000000	0.334848
1482.000000	0.335037
1483.000000	0.335286
1484.000000	0.335466
1485.000000	0.335672
1486.000000	0.335970
1487.000000	0.336200
1488.000000	0.336444
1489.000000	0.336679
1490.000000	0.336735
1491.000000	0.336898
1492.000000	0.337094
1493.000000	0.337141
1494.000000	0.337055
1495.000000	0.337093
1496.000000	0.336996
1497.000000	0.337084
1498.000000	0.337401
1499.000000	0.337623
1500.000000	0.337778
1501.000000	0.337994
1502.000000	0.338035
1503.000000	0.338115
1504.000000	0.338396
1505.000000	0.338679
1506.000000	0.338932
1507.000000	0.339182
1508.000000	0.339285
1509.000000	0.339190
1510.000000	0.339174
1511.000000	0.339272
1512.000000	0.339344
1513.000000	0.339338
1514.000000	0.339240
1515.000000	0.339164
1516.000000	0.339212
1517.000000	0.339289
1518.000000	0.339438
1519.000000	0.339567
1520.000000	0.339568
1521.000000	0.339512
1522.000000	0.339682
1523.000000	0.339869
1524.000000	0.339907
1525.000000	0.339982
1526.000000	0.339956
1527.000000	0.339929
1528.000000	0.340079
1529.000000	0.340289
1530.000000	0.340317
1531.000000	0.340374
1532.000000	0.340467
1533.000000	0.340397
1534.000000	0.340480
1535.000000	0.340604
1536.000000	0.340501
1537.000000	0.340595
1538.000000	0.340715
1539.000000	0.340773
1540.000000	0.341002
1541.000000	0.341246
1542.000000	0.341512
1543.000000	0.341678
1544.000000	0.341690
1545.000000	0.341712
1546.000000	0.341717
1547.000000	0.341880
1548.000000	0.342152
1549.000000	0.342312
1550.000000	0.342389
1551.000000	0.342408
1552.000000	0.342435
1553.000000	0.342498
1554.000000	0.342561
1555.000000	0.342586
1556.000000	0.342609
1557.000000	0.342650
1558.000000	0.342688
1559.000000	0.342703
1560.000000	0.342695
1561.000000	0.342657
1562.000000	0.342667
1563.000000	0.342801
1564.000000	0.342838
1565.000000	0.342829
1566.000000	0.342757
1567.000000	0.342694
1568.000000	0.342608
1569.000000	0.342592
1570.000000	0.342594
1571.000000	0.342596
1572.000000	0.342563
1573.000000	0.342512
1574.000000	0.342529
1575.000000	0.342559
1576.000000	0.342569
1577.000000	0.342660
1578.000000	0.342650
1579.000000	0.342607
1580.000000	0.342572
1581.000000	0.342600
1582.000000	0.342579
1583.000000	0.342483
1584.000000	0.342431
1585.000000	0.342520
1586.000000	0.342522
1587.000000	0.342469
1588.000000	0.342494
1589.000000	0.342522
1590.000000	0.342594
1591.000000	0.342787
1592.000000	0.342886
1593.000000	0.343005
1594.000000	0.342989
1595.000000	0.342949
1596.000000	0.342948
1597.000000	0.342898
1598.000000	0.342874
1599.000000	0.342902
1600.000000	0.342878
1601.000000	0.342949
1602.000000	0.342924
1603.000000	0.342893
1604.000000	0.342825
1605.000000	0.342676
1606.000000	0.342584
1607.000000	0.342591
1608.000000	0.342557
1609.000000	0.342530
1610.000000	0.342522
1611.000000	0.342618
1612.000000	0.342531
1613.000000	0.342495
1614.000000	0.342433
1615.000000	0.342259
1616.000000	0.342211
1617.000000	0.342160
1618.000000	0.342166
1619.000000	0.342265
1620.000000	0.342235
1621.000000	0.342205
1622.000000	0.342277
1623.000000	0.342288
1624.000000	0.342297
1625.000000	0.342216
1626.000000	0.342163
1627.000000	0.342001
1628.000000	0.342096
1629.000000	0.342443
1630.000000	0.342650
1631.000000	0.342870
1632.000000	0.342938
1633.000000	0.342884
1634.000000	0.342866
1635.000000	0.342810
1636.000000	0.342807
1637.000000	0.342819
1638.000000	0.342826
1639.000000	0.342966
1640.000000	0.343013
1641.000000	0.343126
1642.000000	0.343102
1643.000000	0.343009
1644.000000	0.342899
1645.000000	0.342636
1646.000000	0.342565
1647.000000	0.342726
1648.000000	0.342568
1649.000000	0.342381
1650.000000	0.342301
1651.000000	0.342065
1652.000000	0.342082
1653.000000	0.342394
1654.000000	0.342452
1655.000000	0.342254
1656.000000	0.342266
1657.000000	0.342450
1658.000000	0.342488
1659.000000	0.342804
1660.000000	0.342844
1661.000000	0.342436
1662.000000	0.342383
1663.000000	0.342376
1664.000000	0.342354
1665.000000	0.342487
1666.000000	0.342554
1667.000000	0.342471
1668.000000	0.342446
1669.000000	0.342400
1670.000000	0.342346
1671.000000	0.342417
1672.000000	0.342421
1673.000000	0.342349
1674.000000	0.342423
1675.000000	0.342444
1676.000000	0.342381
1677.000000	0.342633
1678.000000	0.342673
1679.000000	0.342448
1680.000000	0.342372
1681.000000	0.342192
1682.000000	0.342088
1683.000000	0.342240
1684.000000	0.342388
1685.000000	0.342501
1686.000000	0.342422
1687.000000	0.342373
1688.000000	0.342260
1689.000000	0.342075
1690.000000	0.342063
1691.000000	0.341989
1692.000000	0.341837
1693.000000	0.341902
1694.000000	0.341865
1695.000000	0.341933
1696.000000	0.341904
1697.000000	0.341899
1698.000000	0.342018
1699.000000	0.342086
1700.000000	0.342197
1701.000000	0.342336
1702.000000	0.342241
1703.000000	0.342161
1704.000000	0.342161
1705.000000	0.342151
1706.000000	0.342200
1707.000000	0.342176
1708.000000	0.342147
1709.000000	0.341981
1710.000000	0.341748
1711.000000	0.341581
1712.000000	0.341335
1713.000000	0.341230
1714.000000	0.341324
1715.000000	0.341335
1716.000000	0.341430
1717.000000	0.341424
1718.000000	0.341272
1719.000000	0.341184
1720.000000	0.341181
1721.000000	0.341090
1722.000000	0.340962
1723.000000	0.340852
1724.000000	0.340690
1725.000000	0.340640
1726.000000	0.340564
1727.000000	0.340553
1728.000000	0.340640
1729.000000	0.340432
1730.000000	0.340190
1731.000000	0.340095
1732.000000	0.339936
1733.000000	0.339848
1734.000000	0.339738
1735.000000	0.339773
1736.000000	0.339769
1737.000000	0.339786
1738.000000	0.340083
1739.000000	0.340063
1740.000000	0.339715
1741.000000	0.339726
1742.000000	0.339863
1743.000000	0.339934
1744.000000	0.340126
1745.000000	0.340135
1746.000000	0.339962
1747.000000	0.339987
1748.000000	0.339952
1749.000000	0.339996
1750.000000	0.339910
1751.000000	0.339842
1752.000000	0.339872
1753.000000	0.339706
1754.000000	0.339604
1755.000000	0.339529
1756.000000	0.339438
1757.000000	0.339340
1758.000000	0.339275
1759.000000	0.339290
1760.000000	0.339162
1761.000000	0.338815
1762.000000	0.338675
1763.000000	0.338532
1764.000000	0.338494
1765.000000	0.338710
1766.000000	0.338750
1767.000000	0.338588
1768.000000	0.338528
1769.000000	0.338548
1770.000000	0.338633
1771.000000	0.338858
1772.000000	0.338829
1773.000000	0.338572
1774.000000	0.338527
1775.000000	0.338510
1776.000000	0.338464
1777.000000	0.338534
1778.000000	0.338457
1779.000000	0.338158
1780.000000	0.338138
1781.000000	0.338253
1782.000000	0.338175
1783.000000	0.338157
1784.000000	0.338032
1785.000000	0.337801
1786.000000	0.337642
1787.000000	0.337688
1788.000000	0.337714
1789.000000	0.337789
1790.000000	0.337799
1791.000000	0.337803
1792.000000	0.337794
1793.000000	0.337866
1794.000000	0.338152
1795.000000	0.338309
1796.000000	0.338506
1797.000000	0.338502
1798.000000	0.338233
1799.000000	0.338073
1800.000000	0.337819
1801.000000	0.337933
1802.000000	0.338064
1803.000000	0.338129
1804.000000	0.337885
1805.000000	0.337400
1806.000000	0.337382
1807.000000	0.337355
1808.000000	0.337167
1809.000000	0.337008
1810.000000	0.337672
1811.000000	0.337251
1812.000000	0.335881
1813.000000	0.335343
1814.000000	0.334650
1815.000000	0.334410
1816.000000	0.334849
1817.000000	0.334868
1818.000000	0.334864
1819.000000	0.335196
1820.000000	0.335732
1821.000000	0.335522
1822.000000	0.335398
1823.000000	0.335097
1824.000000	0.335000
1825.000000	0.334389
1826.000000	0.334552
1827.000000	0.335506
1828.000000	0.335862
1829.000000	0.335945
1830.000000	0.335774
1831.000000	0.335665
1832.000000	0.335008
1833.000000	0.334647
1834.000000	0.334734
1835.000000	0.334525
1836.000000	0.333639
1837.000000	0.333563
1838.000000	0.334147
1839.000000	0.333831
1840.000000	0.333623
1841.000000	0.333757
1842.000000	0.333571
1843.000000	0.332596
1844.000000	0.332370
1845.000000	0.332487
1846.000000	0.332431
1847.000000	0.331956
1848.000000	0.332483
1849.000000	0.332609
1850.000000	0.332879
1851.000000	0.333218
1852.000000	0.333795
1853.000000	0.333900
1854.000000	0.333477
1855.000000	0.333349
1856.000000	0.332983
1857.000000	0.332782
1858.000000	0.332895
1859.000000	0.333340
1860.000000	0.333247
1861.000000	0.332532
1862.000000	0.331927
1863.000000	0.330954
1864.000000	0.330302
1865.000000	0.329781
1866.000000	0.329573
1867.000000	0.329701
1868.000000	0.329172
1869.000000	0.329307
1870.000000	0.329175
1871.000000	0.329125
1872.000000	0.329245
1873.000000	0.328759
1874.000000	0.328013
1875.000000	0.326856
1876.000000	0.324700
1877.000000	0.322826
1878.000000	0.320944
1879.000000	0.318992
1880.000000	0.318223
1881.000000	0.317607
1882.000000	0.316862
1883.000000	0.316519
1884.000000	0.315566
1885.000000	0.313892
1886.000000	0.312026
1887.000000	0.309999
1888.000000	0.307224
1889.000000	0.304240
1890.000000	0.302096
1891.000000	0.299521
1892.000000	0.296955
1893.000000	0.295071
1894.000000	0.292874
1895.000000	0.290248
1896.000000	0.287526
1897.000000	0.285047
1898.000000	0.282138
1899.000000	0.279405
1900.000000	0.277377
1901.000000	0.275633
1902.000000	0.273902
1903.000000	0.272317
1904.000000	0.271130
1905.000000	0.270226
1906.000000	0.269244
1907.000000	0.268462
1908.000000	0.267826
1909.000000	0.267373
1910.000000	0.266957
1911.000000	0.267257
1912.000000	0.267976
1913.000000	0.268596
1914.000000	0.269347
1915.000000	0.269811
1916.000000	0.270025
1917.000000	0.270262
1918.000000	0.270429
1919.000000	0.270823
1920.000000	0.271268
1921.000000	0.271670
1922.000000	0.272553
1923.000000	0.273929
1924.000000	0.274718
1925.000000	0.275584
1926.000000	0.276617
1927.000000	0.277279
1928.000000	0.278018
1929.000000	0.279060
1930.000000	0.280084
1931.000000	0.280695
1932.000000	0.281015
1933.000000	0.281085
1934.000000	0.281144
1935.000000	0.281377
1936.000000	0.281446
1937.000000	0.281608
1938.000000	0.282500
1939.000000	0.283274
1940.000000	0.284182
1941.000000	0.284999
1942.000000	0.286018
1943.000000	0.286257
1944.000000	0.285838
1945.000000	0.286110
1946.000000	0.286410
1947.000000	0.286451
1948.000000	0.286860
1949.000000	0.286898
1950.000000	0.286421
1951.000000	0.286234
1952.000000	0.286068
1953.000000	0.286242
1954.000000	0.286927
1955.000000	0.287724
1956.000000	0.288368
1957.000000	0.288943
1958.000000	0.288929
1959.000000	0.289401
1960.000000	0.290065
1961.000000	0.289974
1962.000000	0.290253
1963.000000	0.290789
1964.000000	0.291127
1965.000000	0.291264
1966.000000	0.292087
1967.000000	0.292493
1968.000000	0.292535
1969.000000	0.292786
1970.000000	0.293160
1971.000000	0.293705
1972.000000	0.293928
1973.000000	0.294157
1974.000000	0.294630
1975.000000	0.294741
1976.000000	0.294387
1977.000000	0.294855
1978.000000	0.295101
1979.000000	0.295178
1980.000000	0.296079
1981.000000	0.296844
1982.000000	0.297610
1983.000000	0.298487
1984.000000	0.299056
1985.000000	0.299448
1986.000000	0.299819
1987.000000	0.299982
1988.000000	0.300607
1989.000000	0.300952
1990.000000	0.301010
1991.000000	0.301215
1992.000000	0.301103
1993.000000	0.301477
1994.000000	0.302497
1995.000000	0.303255
1996.000000	0.303261
1997.000000	0.303447
1998.000000	0.303289
1999.000000	0.303461
2000.000000	0.303666
2001.000000	0.304374
2002.000000	0.304708
2003.000000	0.304796
2004.000000	0.304563
2005.000000	0.304499
2006.000000	0.304591
2007.000000	0.304611
2008.000000	0.305459
2009.000000	0.307268
2010.000000	0.308165
2011.000000	0.309513
2012.000000	0.309942
2013.000000	0.309287
2014.000000	0.308579
2015.000000	0.308516
2016.000000	0.308564
2017.000000	0.309322
2018.000000	0.310373
2019.000000	0.310849
2020.000000	0.311400
2021.000000	0.311734
2022.000000	0.311447
2023.000000	0.311406
2024.000000	0.311500
2025.000000	0.311593
2026.000000	0.311032
2027.000000	0.311998
2028.000000	0.312675
2029.000000	0.313150
2030.000000	0.313792
2031.000000	0.313629
2032.000000	0.313621
2033.000000	0.313499
2034.000000	0.313546
2035.000000	0.314095
2036.000000	0.314031
2037.000000	0.313783
2038.000000	0.313812
2039.000000	0.313794
2040.000000	0.313781
2041.000000	0.314256
2042.000000	0.314772
2043.000000	0.314746
2044.000000	0.314589
2045.000000	0.314496
2046.000000	0.313877
2047.000000	0.313856
2048.000000	0.314251
2049.000000	0.314725
2050.000000	0.315139
2051.000000	0.315458
2052.000000	0.315719
2053.000000	0.315808
2054.000000	0.316169
2055.000000	0.316078
2056.000000	0.316042
2057.000000	0.316379
2058.000000	0.316429
2059.000000	0.316613
2060.000000	0.316591
2061.000000	0.316366
2062.000000	0.316193
2063.000000	0.316152
2064.000000	0.315782
2065.000000	0.315634
2066.000000	0.315272
2067.000000	0.314728
2068.000000	0.314220
2069.000000	0.314542
2070.000000	0.315381
2071.000000	0.315940
2072.000000	0.316688
2073.000000	0.317962
2074.000000	0.318157
2075.000000	0.318466
2076.000000	0.319199
2077.000000	0.319208
2078.000000	0.318016
2079.000000	0.317990
2080.000000	0.318394
2081.000000	0.318632
2082.000000	0.319531
2083.000000	0.319841
2084.000000	0.319534
2085.000000	0.319448
2086.000000	0.318866
2087.000000	0.318500
2088.000000	0.318905
2089.000000	0.318760
2090.000000	0.318896
2091.000000	0.319922
2092.000000	0.319889
2093.000000	0.319131
2094.000000	0.318769
2095.000000	0.317985
2096.000000	0.317443
2097.000000	0.317132
2098.000000	0.316773
2099.000000	0.315832
2100.000000	0.316061
2101.000000	0.316826
2102.000000	0.317555
2103.000000	0.318965
2104.000000	0.319756
2105.000000	0.319893
2106.000000	0.318802
2107.000000	0.319052
2108.000000	0.319473
2109.000000	0.319688
2110.000000	0.320801
2111.000000	0.320803
2112.000000	0.319544
2113.000000	0.318389
2114.000000	0.318488
2115.000000	0.318558
2116.000000	0.319295
2117.000000	0.320459
2118.000000	0.320453
2119.000000	0.320394
2120.000000	0.320461
2121.000000	0.320218
2122.000000	0.320258
2123.000000	0.320590
2124.000000	0.320668
2125.000000	0.320901
2126.000000	0.320932
2127.000000	0.320448
2128.000000	0.320599
2129.000000	0.320945
2130.000000	0.321218
2131.000000	0.321920
2132.000000	0.322333
2133.000000	0.321708
2134.000000	0.321045
2135.000000	0.319174
2136.000000	0.317666
2137.000000	0.317278
2138.000000	0.317376
2139.000000	0.317962
2140.000000	0.320440
2141.000000	0.321106
2142.000000	0.321215
2143.000000	0.321072
2144.000000	0.320086
2145.000000	0.319772
2146.000000	0.319389
2147.000000	0.320209
2148.000000	0.321044
2149.000000	0.320702
2150.000000	0.320531
2151.000000	0.319356
2152.000000	0.317532
2153.000000	0.317009
2154.000000	0.316341
2155.000000	0.315770
2156.000000	0.315787
2157.000000	0.316484
2158.000000	0.316635
2159.000000	0.317430
2160.000000	0.317630
2161.000000	0.316928
2162.000000	0.316773
2163.000000	0.316685
2164.000000	0.316449
2165.000000	0.316219
2166.000000	0.316399
2167.000000	0.315525
2168.000000	0.314017
2169.000000	0.313917
2170.000000	0.313687
2171.000000	0.313978
2172.000000	0.315890
2173.000000	0.316489
2174.000000	0.316219
2175.000000	0.316748
2176.000000	0.317511
2177.000000	0.317723
2178.000000	0.318458
2179.000000	0.318508
2180.000000	0.317346
2181.000000	0.317228
2182.000000	0.316727
2183.000000	0.316211
2184.000000	0.316732
2185.000000	0.316711
2186.000000	0.316381
2187.000000	0.315610
2188.000000	0.314766
2189.000000	0.313614
2190.000000	0.310871
2191.000000	0.310465
2192.000000	0.310032
2193.000000	0.309588
2194.000000	0.309082
2195.000000	0.310241
2196.000000	0.309442
2197.000000	0.306208
2198.000000	0.305247
2199.000000	0.305187
2200.000000	0.305330
2201.000000	0.306823
2202.000000	0.308027
2203.000000	0.309410
2204.000000	0.310283
2205.000000	0.308990
2206.000000	0.309380
2207.000000	0.309752
2208.000000	0.307254
2209.000000	0.307254
2210.000000	0.307576
2211.000000	0.306245
2212.000000	0.306924
2213.000000	0.306782
2214.000000	0.306301
2215.000000	0.306388
2216.000000	0.305844
2217.000000	0.307138
2218.000000	0.310292
2219.000000	0.312810
2220.000000	0.318845
2221.000000	0.319218
2222.000000	0.314188
2223.000000	0.313256
2224.000000	0.312020
2225.000000	0.309292
2226.000000	0.310425
2227.000000	0.312849
2228.000000	0.311775
2229.000000	0.311200
2230.000000	0.310687
2231.000000	0.309845
2232.000000	0.310007
2233.000000	0.308662
2234.000000	0.309545
2235.000000	0.311445
2236.000000	0.311766
2237.000000	0.312091
2238.000000	0.311852
2239.000000	0.308747
2240.000000	0.309553
2241.000000	0.313474
2242.000000	0.314372
2243.000000	0.316633
2244.000000	0.316751
2245.000000	0.312228
2246.000000	0.310792
2247.000000	0.311051
2248.000000	0.310377
2249.000000	0.309832
2250.000000	0.310131
2251.000000	0.308865
2252.000000	0.307392
2253.000000	0.305330
2254.000000	0.303289
2255.000000	0.303993
2256.000000	0.304156
2257.000000	0.306487
2258.000000	0.308054
2259.000000	0.305630
2260.000000	0.303603
2261.000000	0.301657
2262.000000	0.298472
2263.000000	0.297591
2264.000000	0.297782
2265.000000	0.298101
2266.000000	0.299158
2267.000000	0.299178
2268.000000	0.299678
2269.000000	0.299543
2270.000000	0.299889
2271.000000	0.298561
2272.000000	0.295933
2273.000000	0.293194
2274.000000	0.288303
2275.000000	0.284738
2276.000000	0.281131
2277.000000	0.278725
2278.000000	0.277210
2279.000000	0.277010
2280.000000	0.276993
2281.000000	0.276698
2282.000000	0.278061
2283.000000	0.277842
2284.000000	0.278411
2285.000000	0.278375
2286.000000	0.277450
2287.000000	0.280323
2288.000000	0.281093
2289.000000	0.283519
2290.000000	0.286867
2291.000000	0.285923
2292.000000	0.287016
2293.000000	0.287916
2294.000000	0.288153
2295.000000	0.287416
2296.000000	0.288707
2297.000000	0.290858
2298.000000	0.292314
2299.000000	0.294691
2300.000000	0.295274
2301.000000	0.293894
2302.000000	0.294060
2303.000000	0.294924
2304.000000	0.295359
2305.000000	0.296306
2306.000000	0.295994
2307.000000	0.293892
2308.000000	0.293741
2309.000000	0.293945
2310.000000	0.294010
2311.000000	0.295530
2312.000000	0.296285
2313.000000	0.296326
2314.000000	0.297446
2315.000000	0.296511
2316.000000	0.296534
2317.000000	0.297356
2318.000000	0.295662
2319.000000	0.296523
2320.000000	0.298115
2321.000000	0.300471
2322.000000	0.303716
2323.000000	0.304951
2324.000000	0.306849
2325.000000	0.304431
2326.000000	0.301290
2327.000000	0.301447
2328.000000	0.297772
2329.000000	0.297039
2330.000000	0.298272
2331.000000	0.295053
2332.000000	0.293750
2333.000000	0.293189
2334.000000	0.291378
2335.000000	0.291042
2336.000000	0.292588
2337.000000	0.292385
2338.000000	0.290856
2339.000000	0.291004
2340.000000	0.292164
2341.000000	0.292632
2342.000000	0.293143
2343.000000	0.293843
2344.000000	0.294378
2345.000000	0.294356
2346.000000	0.295753
2347.000000	0.294768
2348.000000	0.291797
2349.000000	0.289239
2350.000000	0.284971
2351.000000	0.282450
2352.000000	0.283711
2353.000000	0.282502
2354.000000	0.283903
2355.000000	0.286633
2356.000000	0.286665
2357.000000	0.288098
2358.000000	0.288229
2359.000000	0.287648
2360.000000	0.287402
2361.000000	0.283918
2362.000000	0.280597
2363.000000	0.278861
2364.000000	0.276049
2365.000000	0.275663
2366.000000	0.272515
2367.000000	0.267820
2368.000000	0.267334
2369.000000	0.269624
2370.000000	0.274179
2371.000000	0.279583
2372.000000	0.281001
2373.000000	0.280241
2374.000000	0.281587
2375.000000	0.281532
2376.000000	0.284469
2377.000000	0.286616
2378.000000	0.282859
2379.000000	0.279543
2380.000000	0.279421
2381.000000	0.278761
2382.000000	0.276622
2383.000000	0.280119
2384.000000	0.277348
2385.000000	0.271802
2386.000000	0.274526
2387.000000	0.269843
2388.000000	0.266712
2389.000000	0.263866
2390.000000	0.255144
2391.000000	0.255356
2392.000000	0.253094
2393.000000	0.254666
2394.000000	0.263047
2395.000000	0.262970
2396.000000	0.262936
2397.000000	0.260070
2398.000000	0.254717
2399.000000	0.254286
2400.000000	0.261238
2401.000000	0.269475
2402.000000	0.278646
2403.000000	0.285390
2404.000000	0.277085
2405.000000	0.270244
2406.000000	0.261553
2407.000000	0.250897
2408.000000	0.250364
2409.000000	0.246303
2410.000000	0.243674
2411.000000	0.240733
2412.000000	0.237524
2413.000000	0.240464
2414.000000	0.244498
2415.000000	0.249977
2416.000000	0.248357
2417.000000	0.250276
2418.000000	0.255840
2419.000000	0.255556
2420.000000	0.260728
2421.000000	0.256273
2422.000000	0.245744
2423.000000	0.240256
2424.000000	0.227706
2425.000000	0.211146
2426.000000	0.209793
2427.000000	0.216514
2428.000000	0.226667
2429.000000	0.251295
2430.000000	0.260404
2431.000000	0.260677
2432.000000	0.263771
2433.000000	0.261135
2434.000000	0.262073
2435.000000	0.258023
2436.000000	0.244069
2437.000000	0.237997
2438.000000	0.238742
2439.000000	0.233917
2440.000000	0.242079
2441.000000	0.241274
2442.000000	0.230393
2443.000000	0.225915
2444.000000	0.216053
2445.000000	0.218141
2446.000000	0.219379
2447.000000	0.225447
2448.000000	0.237168
2449.000000	0.227795
2450.000000	0.226584
2451.000000	0.228593
2452.000000	0.204511
2453.000000	0.198747
2454.000000	0.200564
2455.000000	0.194699
2456.000000	0.207972
2457.000000	0.214139
2458.000000	0.214488
2459.000000	0.209323
2460.000000	0.209501
2461.000000	0.216531
2462.000000	0.213884
2463.000000	0.212470
2464.000000	0.197853
2465.000000	0.179804
2466.000000	0.170701
2467.000000	0.156844
2468.000000	0.152205
2469.000000	0.157697
2470.000000	0.154074
2471.000000	0.160733
2472.000000	0.158693
2473.000000	0.130913
2474.000000	0.125474
2475.000000	0.112495
2476.000000	0.107774
2477.000000	0.145711
2478.000000	0.163092
2479.000000	0.165392
2480.000000	0.173740
2481.000000	0.174891
2482.000000	0.172026
2483.000000	0.179152
2484.000000	0.179154
2485.000000	0.127747
2486.000000	0.084574
2487.000000	0.089619
2488.000000	0.129511
2489.000000	0.225980
2490.000000	0.282285
2491.000000	0.266929
2492.000000	0.242317
2493.000000	0.157566
2494.000000	0.135809
2495.000000	0.147904
2496.000000	0.143209
2497.000000	0.161370
2498.000000	0.163691
2499.000000	0.145779
2500.000000	0.153389
