# Wavelength	NAu-2-20_HEX-40_FV7-40_00000.asd.rts.txt
350.000000	0.171470
351.000000	0.169870
352.000000	0.161778
353.000000	0.157722
354.000000	0.163273
355.000000	0.174096
356.000000	0.172117
357.000000	0.159841
358.000000	0.151410
359.000000	0.154144
360.000000	0.162392
361.000000	0.167101
362.000000	0.163083
363.000000	0.158680
364.000000	0.159609
365.000000	0.166218
366.000000	0.164756
367.000000	0.158057
368.000000	0.163891
369.000000	0.167638
370.000000	0.167548
371.000000	0.165725
372.000000	0.163455
373.000000	0.162342
374.000000	0.163918
375.000000	0.170065
376.000000	0.170954
377.000000	0.166227
378.000000	0.164289
379.000000	0.166795
380.000000	0.170480
381.000000	0.171445
382.000000	0.172205
383.000000	0.173165
384.000000	0.174170
385.000000	0.173321
386.000000	0.173101
387.000000	0.174000
388.000000	0.174236
389.000000	0.174102
390.000000	0.174192
391.000000	0.174851
392.000000	0.173794
393.000000	0.173394
394.000000	0.174783
395.000000	0.172840
396.000000	0.172178
397.000000	0.174016
398.000000	0.175429
399.000000	0.176151
400.000000	0.175936
401.000000	0.174743
402.000000	0.175642
403.000000	0.177353
404.000000	0.178378
405.000000	0.179311
406.000000	0.179216
407.000000	0.178303
408.000000	0.178692
409.000000	0.178953
410.000000	0.179099
411.000000	0.179844
412.000000	0.179783
413.000000	0.179548
414.000000	0.179959
415.000000	0.179785
416.000000	0.180361
417.000000	0.181885
418.000000	0.181593
419.000000	0.181675
420.000000	0.182441
421.000000	0.182696
422.000000	0.182993
423.000000	0.183234
424.000000	0.183306
425.000000	0.184062
426.000000	0.184533
427.000000	0.184234
428.000000	0.184934
429.000000	0.185416
430.000000	0.185385
431.000000	0.185693
432.000000	0.186360
433.000000	0.186879
434.000000	0.186601
435.000000	0.186819
436.000000	0.187275
437.000000	0.187440
438.000000	0.187085
439.000000	0.186926
440.000000	0.187345
441.000000	0.187861
442.000000	0.188221
443.000000	0.188370
444.000000	0.188541
445.000000	0.188700
446.000000	0.188972
447.000000	0.189332
448.000000	0.189505
449.000000	0.189669
450.000000	0.190037
451.000000	0.190853
452.000000	0.191372
453.000000	0.191427
454.000000	0.191645
455.000000	0.191869
456.000000	0.192215
457.000000	0.192727
458.000000	0.193183
459.000000	0.193590
460.000000	0.193991
461.000000	0.194156
462.000000	0.194428
463.000000	0.194804
464.000000	0.195041
465.000000	0.195308
466.000000	0.195586
467.000000	0.195852
468.000000	0.196198
469.000000	0.196498
470.000000	0.196743
471.000000	0.197075
472.000000	0.197355
473.000000	0.197562
474.000000	0.197976
475.000000	0.198297
476.000000	0.198525
477.000000	0.198693
478.000000	0.198922
479.000000	0.199252
480.000000	0.199426
481.000000	0.199701
482.000000	0.200060
483.000000	0.200272
484.000000	0.200356
485.000000	0.200633
486.000000	0.201214
487.000000	0.201375
488.000000	0.201416
489.000000	0.201571
490.000000	0.202058
491.000000	0.202243
492.000000	0.202376
493.000000	0.202742
494.000000	0.202823
495.000000	0.202977
496.000000	0.203367
497.000000	0.203521
498.000000	0.203632
499.000000	0.203822
500.000000	0.203989
501.000000	0.204261
502.000000	0.204587
503.000000	0.204770
504.000000	0.204880
505.000000	0.205009
506.000000	0.205244
507.000000	0.205627
508.000000	0.205985
509.000000	0.206245
510.000000	0.206670
511.000000	0.207031
512.000000	0.207298
513.000000	0.207532
514.000000	0.207810
515.000000	0.208167
516.000000	0.208560
517.000000	0.208947
518.000000	0.209306
519.000000	0.209590
520.000000	0.209957
521.000000	0.210341
522.000000	0.210721
523.000000	0.211123
524.000000	0.211592
525.000000	0.212103
526.000000	0.212633
527.000000	0.213119
528.000000	0.213667
529.000000	0.214410
530.000000	0.215130
531.000000	0.215881
532.000000	0.216621
533.000000	0.217286
534.000000	0.218042
535.000000	0.218873
536.000000	0.219615
537.000000	0.220356
538.000000	0.221097
539.000000	0.221800
540.000000	0.222481
541.000000	0.223114
542.000000	0.223714
543.000000	0.224323
544.000000	0.224983
545.000000	0.225658
546.000000	0.226373
547.000000	0.227039
548.000000	0.227687
549.000000	0.228355
550.000000	0.229071
551.000000	0.229831
552.000000	0.230590
553.000000	0.231468
554.000000	0.232378
555.000000	0.233271
556.000000	0.234268
557.000000	0.235229
558.000000	0.236237
559.000000	0.237376
560.000000	0.238349
561.000000	0.239262
562.000000	0.240286
563.000000	0.241223
564.000000	0.242141
565.000000	0.243034
566.000000	0.243830
567.000000	0.244593
568.000000	0.245354
569.000000	0.246135
570.000000	0.246848
571.000000	0.247486
572.000000	0.248140
573.000000	0.248696
574.000000	0.249170
575.000000	0.249664
576.000000	0.250108
577.000000	0.250461
578.000000	0.250759
579.000000	0.251023
580.000000	0.251275
581.000000	0.251533
582.000000	0.251835
583.000000	0.252047
584.000000	0.252202
585.000000	0.252438
586.000000	0.252603
587.000000	0.252673
588.000000	0.252677
589.000000	0.252743
590.000000	0.252787
591.000000	0.252760
592.000000	0.252742
593.000000	0.252757
594.000000	0.252787
595.000000	0.252777
596.000000	0.252681
597.000000	0.252592
598.000000	0.252549
599.000000	0.252291
600.000000	0.252000
601.000000	0.251793
602.000000	0.251614
603.000000	0.251459
604.000000	0.251322
605.000000	0.251164
606.000000	0.250974
607.000000	0.250801
608.000000	0.250726
609.000000	0.250643
610.000000	0.250534
611.000000	0.250402
612.000000	0.250257
613.000000	0.250134
614.000000	0.250056
615.000000	0.249879
616.000000	0.249722
617.000000	0.249583
618.000000	0.249423
619.000000	0.249249
620.000000	0.249037
621.000000	0.248815
622.000000	0.248626
623.000000	0.248512
624.000000	0.248466
625.000000	0.248317
626.000000	0.248139
627.000000	0.247985
628.000000	0.247859
629.000000	0.247874
630.000000	0.247902
631.000000	0.247916
632.000000	0.247842
633.000000	0.247807
634.000000	0.247912
635.000000	0.247963
636.000000	0.247960
637.000000	0.247928
638.000000	0.247968
639.000000	0.248049
640.000000	0.248161
641.000000	0.248176
642.000000	0.248192
643.000000	0.248249
644.000000	0.248359
645.000000	0.248452
646.000000	0.248575
647.000000	0.248736
648.000000	0.248880
649.000000	0.249019
650.000000	0.249157
651.000000	0.249342
652.000000	0.249530
653.000000	0.249745
654.000000	0.249966
655.000000	0.250218
656.000000	0.250477
657.000000	0.250687
658.000000	0.250980
659.000000	0.251308
660.000000	0.251614
661.000000	0.251871
662.000000	0.252154
663.000000	0.252515
664.000000	0.252899
665.000000	0.253293
666.000000	0.253692
667.000000	0.254072
668.000000	0.254419
669.000000	0.254811
670.000000	0.255297
671.000000	0.255850
672.000000	0.256391
673.000000	0.256902
674.000000	0.257436
675.000000	0.257929
676.000000	0.258418
677.000000	0.258980
678.000000	0.259566
679.000000	0.260139
680.000000	0.260694
681.000000	0.261260
682.000000	0.261864
683.000000	0.262455
684.000000	0.263100
685.000000	0.263765
686.000000	0.264450
687.000000	0.265124
688.000000	0.265844
689.000000	0.266579
690.000000	0.267329
691.000000	0.268083
692.000000	0.268824
693.000000	0.269600
694.000000	0.270383
695.000000	0.271159
696.000000	0.271943
697.000000	0.272760
698.000000	0.273627
699.000000	0.274528
700.000000	0.275436
701.000000	0.276250
702.000000	0.277061
703.000000	0.277888
704.000000	0.278713
705.000000	0.279542
706.000000	0.280373
707.000000	0.281280
708.000000	0.282199
709.000000	0.283102
710.000000	0.284006
711.000000	0.284966
712.000000	0.285963
713.000000	0.286967
714.000000	0.287873
715.000000	0.288754
716.000000	0.289646
717.000000	0.290539
718.000000	0.291401
719.000000	0.292258
720.000000	0.293156
721.000000	0.294104
722.000000	0.295036
723.000000	0.295981
724.000000	0.296929
725.000000	0.297786
726.000000	0.298634
727.000000	0.299466
728.000000	0.300282
729.000000	0.301100
730.000000	0.301897
731.000000	0.302796
732.000000	0.303698
733.000000	0.304580
734.000000	0.305388
735.000000	0.306151
736.000000	0.306968
737.000000	0.307712
738.000000	0.308402
739.000000	0.309133
740.000000	0.309803
741.000000	0.310499
742.000000	0.311199
743.000000	0.311857
744.000000	0.312477
745.000000	0.313064
746.000000	0.313677
747.000000	0.314289
748.000000	0.314937
749.000000	0.315601
750.000000	0.316202
751.000000	0.316667
752.000000	0.317130
753.000000	0.317633
754.000000	0.318112
755.000000	0.318598
756.000000	0.319093
757.000000	0.319547
758.000000	0.319979
759.000000	0.320422
760.000000	0.320823
761.000000	0.321239
762.000000	0.321604
763.000000	0.321942
764.000000	0.322408
765.000000	0.322850
766.000000	0.323249
767.000000	0.323595
768.000000	0.323855
769.000000	0.324090
770.000000	0.324329
771.000000	0.324541
772.000000	0.324806
773.000000	0.325064
774.000000	0.325343
775.000000	0.325631
776.000000	0.325883
777.000000	0.326054
778.000000	0.326198
779.000000	0.326323
780.000000	0.326430
781.000000	0.326492
782.000000	0.326620
783.000000	0.326845
784.000000	0.326989
785.000000	0.327181
786.000000	0.327351
787.000000	0.327464
788.000000	0.327600
789.000000	0.327671
790.000000	0.327678
791.000000	0.327723
792.000000	0.327824
793.000000	0.327924
794.000000	0.327987
795.000000	0.328083
796.000000	0.328156
797.000000	0.328197
798.000000	0.328253
799.000000	0.328363
800.000000	0.328461
801.000000	0.328484
802.000000	0.328565
803.000000	0.328625
804.000000	0.328665
805.000000	0.328741
806.000000	0.328737
807.000000	0.328735
808.000000	0.328743
809.000000	0.328750
810.000000	0.328803
811.000000	0.328879
812.000000	0.328773
813.000000	0.328718
814.000000	0.328754
815.000000	0.328778
816.000000	0.328758
817.000000	0.328736
818.000000	0.328679
819.000000	0.328661
820.000000	0.328635
821.000000	0.328556
822.000000	0.328556
823.000000	0.328553
824.000000	0.328511
825.000000	0.328539
826.000000	0.328584
827.000000	0.328533
828.000000	0.328403
829.000000	0.328322
830.000000	0.328207
831.000000	0.328129
832.000000	0.328059
833.000000	0.328045
834.000000	0.328009
835.000000	0.327926
836.000000	0.327813
837.000000	0.327684
838.000000	0.327629
839.000000	0.327741
840.000000	0.327791
841.000000	0.327741
842.000000	0.327578
843.000000	0.327397
844.000000	0.327238
845.000000	0.327064
846.000000	0.326830
847.000000	0.326681
848.000000	0.326621
849.000000	0.326623
850.000000	0.326542
851.000000	0.326348
852.000000	0.326151
853.000000	0.326130
854.000000	0.325961
855.000000	0.325842
856.000000	0.325877
857.000000	0.325852
858.000000	0.325816
859.000000	0.325718
860.000000	0.325579
861.000000	0.325374
862.000000	0.325190
863.000000	0.325053
864.000000	0.324854
865.000000	0.324674
866.000000	0.324555
867.000000	0.324346
868.000000	0.324269
869.000000	0.324160
870.000000	0.323868
871.000000	0.323702
872.000000	0.323582
873.000000	0.323392
874.000000	0.323258
875.000000	0.323054
876.000000	0.322798
877.000000	0.322504
878.000000	0.322296
879.000000	0.322119
880.000000	0.321819
881.000000	0.321636
882.000000	0.321481
883.000000	0.321323
884.000000	0.321090
885.000000	0.320935
886.000000	0.320769
887.000000	0.320560
888.000000	0.320321
889.000000	0.320177
890.000000	0.319973
891.000000	0.319699
892.000000	0.319398
893.000000	0.319105
894.000000	0.318929
895.000000	0.318692
896.000000	0.318541
897.000000	0.318437
898.000000	0.318295
899.000000	0.318185
900.000000	0.317983
901.000000	0.317673
902.000000	0.317538
903.000000	0.317360
904.000000	0.317186
905.000000	0.317015
906.000000	0.316959
907.000000	0.316701
908.000000	0.316339
909.000000	0.316228
910.000000	0.316079
911.000000	0.315922
912.000000	0.315830
913.000000	0.315681
914.000000	0.315423
915.000000	0.315132
916.000000	0.314810
917.000000	0.314447
918.000000	0.314202
919.000000	0.314117
920.000000	0.313963
921.000000	0.313690
922.000000	0.313398
923.000000	0.313221
924.000000	0.313054
925.000000	0.312845
926.000000	0.312577
927.000000	0.312153
928.000000	0.311761
929.000000	0.311421
930.000000	0.311128
931.000000	0.311066
932.000000	0.310864
933.000000	0.310499
934.000000	0.310238
935.000000	0.310010
936.000000	0.309885
937.000000	0.309762
938.000000	0.309354
939.000000	0.309227
940.000000	0.309238
941.000000	0.309000
942.000000	0.308579
943.000000	0.308236
944.000000	0.307949
945.000000	0.307568
946.000000	0.307372
947.000000	0.307306
948.000000	0.307147
949.000000	0.306945
950.000000	0.306631
951.000000	0.306280
952.000000	0.306204
953.000000	0.306042
954.000000	0.305766
955.000000	0.305389
956.000000	0.305137
957.000000	0.304982
958.000000	0.304740
959.000000	0.304356
960.000000	0.304145
961.000000	0.303933
962.000000	0.303612
963.000000	0.303264
964.000000	0.303100
965.000000	0.303081
966.000000	0.302981
967.000000	0.302764
968.000000	0.302478
969.000000	0.302122
970.000000	0.301815
971.000000	0.301576
972.000000	0.301476
973.000000	0.301358
974.000000	0.301000
975.000000	0.300675
976.000000	0.300507
977.000000	0.300456
978.000000	0.300137
979.000000	0.300107
980.000000	0.299921
981.000000	0.299355
982.000000	0.299117
983.000000	0.299042
984.000000	0.298983
985.000000	0.298734
986.000000	0.298551
987.000000	0.298456
988.000000	0.298264
989.000000	0.297832
990.000000	0.297613
991.000000	0.297560
992.000000	0.297486
993.000000	0.297228
994.000000	0.297167
995.000000	0.297362
996.000000	0.297254
997.000000	0.297290
998.000000	0.297336
999.000000	0.297235
1000.000000	0.296667
1001.000000	0.296743
1002.000000	0.296942
1003.000000	0.297552
1004.000000	0.297336
1005.000000	0.295757
1006.000000	0.295405
1007.000000	0.295599
1008.000000	0.295211
1009.000000	0.295323
1010.000000	0.295396
1011.000000	0.294950
1012.000000	0.294816
1013.000000	0.294376
1014.000000	0.294588
1015.000000	0.295172
1016.000000	0.295302
1017.000000	0.295310
1018.000000	0.295142
1019.000000	0.295049
1020.000000	0.294703
1021.000000	0.294476
1022.000000	0.294719
1023.000000	0.294798
1024.000000	0.294565
1025.000000	0.294828
1026.000000	0.294553
1027.000000	0.294719
1028.000000	0.295126
1029.000000	0.294989
1030.000000	0.294760
1031.000000	0.294701
1032.000000	0.295169
1033.000000	0.295322
1034.000000	0.295528
1035.000000	0.296213
1036.000000	0.296448
1037.000000	0.296329
1038.000000	0.296234
1039.000000	0.296268
1040.000000	0.295991
1041.000000	0.295744
1042.000000	0.295529
1043.000000	0.295811
1044.000000	0.296268
1045.000000	0.296462
1046.000000	0.296754
1047.000000	0.296973
1048.000000	0.296987
1049.000000	0.297008
1050.000000	0.297115
1051.000000	0.297088
1052.000000	0.296690
1053.000000	0.296616
1054.000000	0.296702
1055.000000	0.297061
1056.000000	0.297778
1057.000000	0.298572
1058.000000	0.298803
1059.000000	0.298950
1060.000000	0.299298
1061.000000	0.299395
1062.000000	0.299231
1063.000000	0.299373
1064.000000	0.299503
1065.000000	0.299158
1066.000000	0.299275
1067.000000	0.300004
1068.000000	0.300214
1069.000000	0.300018
1070.000000	0.300093
1071.000000	0.300231
1072.000000	0.300404
1073.000000	0.300607
1074.000000	0.301190
1075.000000	0.301662
1076.000000	0.301947
1077.000000	0.302283
1078.000000	0.302605
1079.000000	0.302595
1080.000000	0.302187
1081.000000	0.302290
1082.000000	0.302494
1083.000000	0.302569
1084.000000	0.302943
1085.000000	0.303294
1086.000000	0.303392
1087.000000	0.303633
1088.000000	0.304016
1089.000000	0.304331
1090.000000	0.304312
1091.000000	0.304882
1092.000000	0.305097
1093.000000	0.305189
1094.000000	0.305421
1095.000000	0.305333
1096.000000	0.305647
1097.000000	0.306525
1098.000000	0.306788
1099.000000	0.306692
1100.000000	0.306930
1101.000000	0.307039
1102.000000	0.307087
1103.000000	0.307070
1104.000000	0.307441
1105.000000	0.308103
1106.000000	0.308395
1107.000000	0.308699
1108.000000	0.309059
1109.000000	0.309416
1110.000000	0.309283
1111.000000	0.309374
1112.000000	0.309682
1113.000000	0.309962
1114.000000	0.310059
1115.000000	0.310292
1116.000000	0.310913
1117.000000	0.311082
1118.000000	0.310837
1119.000000	0.310851
1120.000000	0.310922
1121.000000	0.310901
1122.000000	0.310954
1123.000000	0.311226
1124.000000	0.311252
1125.000000	0.311393
1126.000000	0.311679
1127.000000	0.311881
1128.000000	0.312047
1129.000000	0.312225
1130.000000	0.312318
1131.000000	0.312391
1132.000000	0.312397
1133.000000	0.312248
1134.000000	0.312381
1135.000000	0.312627
1136.000000	0.312744
1137.000000	0.312965
1138.000000	0.313049
1139.000000	0.312976
1140.000000	0.313145
1141.000000	0.313452
1142.000000	0.313609
1143.000000	0.313617
1144.000000	0.313857
1145.000000	0.313915
1146.000000	0.314052
1147.000000	0.314132
1148.000000	0.314240
1149.000000	0.314290
1150.000000	0.314167
1151.000000	0.314319
1152.000000	0.314690
1153.000000	0.314761
1154.000000	0.314737
1155.000000	0.314725
1156.000000	0.314453
1157.000000	0.314421
1158.000000	0.314595
1159.000000	0.314610
1160.000000	0.314561
1161.000000	0.314552
1162.000000	0.314468
1163.000000	0.314675
1164.000000	0.314840
1165.000000	0.314782
1166.000000	0.314839
1167.000000	0.314807
1168.000000	0.314812
1169.000000	0.314915
1170.000000	0.314968
1171.000000	0.315007
1172.000000	0.315095
1173.000000	0.315188
1174.000000	0.315224
1175.000000	0.315210
1176.000000	0.315229
1177.000000	0.315326
1178.000000	0.315342
1179.000000	0.315327
1180.000000	0.315288
1181.000000	0.315228
1182.000000	0.315245
1183.000000	0.315337
1184.000000	0.315447
1185.000000	0.315466
1186.000000	0.315399
1187.000000	0.315399
1188.000000	0.315424
1189.000000	0.315393
1190.000000	0.315362
1191.000000	0.315407
1192.000000	0.315582
1193.000000	0.315732
1194.000000	0.315813
1195.000000	0.315933
1196.000000	0.315956
1197.000000	0.315961
1198.000000	0.316045
1199.000000	0.316105
1200.000000	0.316108
1201.000000	0.316098
1202.000000	0.316056
1203.000000	0.315980
1204.000000	0.315945
1205.000000	0.315991
1206.000000	0.315951
1207.000000	0.316027
1208.000000	0.316042
1209.000000	0.316038
1210.000000	0.316063
1211.000000	0.316154
1212.000000	0.316225
1213.000000	0.316290
1214.000000	0.316378
1215.000000	0.316480
1216.000000	0.316559
1217.000000	0.316657
1218.000000	0.316673
1219.000000	0.316668
1220.000000	0.316691
1221.000000	0.316638
1222.000000	0.316446
1223.000000	0.316410
1224.000000	0.316570
1225.000000	0.316650
1226.000000	0.316841
1227.000000	0.317017
1228.000000	0.317006
1229.000000	0.316954
1230.000000	0.316811
1231.000000	0.316698
1232.000000	0.316553
1233.000000	0.316643
1234.000000	0.316906
1235.000000	0.317014
1236.000000	0.317101
1237.000000	0.317176
1238.000000	0.317096
1239.000000	0.317069
1240.000000	0.317045
1241.000000	0.317075
1242.000000	0.317073
1243.000000	0.316954
1244.000000	0.316924
1245.000000	0.316928
1246.000000	0.316956
1247.000000	0.317185
1248.000000	0.317345
1249.000000	0.317455
1250.000000	0.317449
1251.000000	0.317367
1252.000000	0.317339
1253.000000	0.317324
1254.000000	0.317302
1255.000000	0.317280
1256.000000	0.317319
1257.000000	0.317419
1258.000000	0.317452
1259.000000	0.317461
1260.000000	0.317502
1261.000000	0.317385
1262.000000	0.317389
1263.000000	0.317542
1264.000000	0.317558
1265.000000	0.317574
1266.000000	0.317583
1267.000000	0.317635
1268.000000	0.317643
1269.000000	0.317568
1270.000000	0.317630
1271.000000	0.317606
1272.000000	0.317678
1273.000000	0.317913
1274.000000	0.317996
1275.000000	0.318063
1276.000000	0.318124
1277.000000	0.318253
1278.000000	0.318278
1279.000000	0.318332
1280.000000	0.318422
1281.000000	0.318350
1282.000000	0.318176
1283.000000	0.318186
1284.000000	0.318093
1285.000000	0.318106
1286.000000	0.318230
1287.000000	0.318323
1288.000000	0.318483
1289.000000	0.318609
1290.000000	0.318512
1291.000000	0.318467
1292.000000	0.318379
1293.000000	0.318272
1294.000000	0.318344
1295.000000	0.318476
1296.000000	0.318510
1297.000000	0.318443
1298.000000	0.318419
1299.000000	0.318433
1300.000000	0.318529
1301.000000	0.318567
1302.000000	0.318477
1303.000000	0.318347
1304.000000	0.318296
1305.000000	0.318315
1306.000000	0.318319
1307.000000	0.318502
1308.000000	0.318507
1309.000000	0.318351
1310.000000	0.318261
1311.000000	0.318131
1312.000000	0.318044
1313.000000	0.318152
1314.000000	0.318278
1315.000000	0.318393
1316.000000	0.318495
1317.000000	0.318388
1318.000000	0.318190
1319.000000	0.317969
1320.000000	0.317927
1321.000000	0.317983
1322.000000	0.317923
1323.000000	0.317961
1324.000000	0.317985
1325.000000	0.317906
1326.000000	0.317917
1327.000000	0.317966
1328.000000	0.318035
1329.000000	0.317977
1330.000000	0.317961
1331.000000	0.317812
1332.000000	0.317445
1333.000000	0.317309
1334.000000	0.317280
1335.000000	0.317216
1336.000000	0.317343
1337.000000	0.317325
1338.000000	0.317157
1339.000000	0.316928
1340.000000	0.316799
1341.000000	0.316499
1342.000000	0.316243
1343.000000	0.316233
1344.000000	0.316102
1345.000000	0.316019
1346.000000	0.316082
1347.000000	0.315958
1348.000000	0.315980
1349.000000	0.315895
1350.000000	0.315754
1351.000000	0.315609
1352.000000	0.315433
1353.000000	0.315350
1354.000000	0.315427
1355.000000	0.315408
1356.000000	0.315230
1357.000000	0.315084
1358.000000	0.314902
1359.000000	0.314688
1360.000000	0.314601
1361.000000	0.314762
1362.000000	0.314773
1363.000000	0.314812
1364.000000	0.314736
1365.000000	0.314496
1366.000000	0.314384
1367.000000	0.314262
1368.000000	0.314046
1369.000000	0.314111
1370.000000	0.314080
1371.000000	0.313868
1372.000000	0.313724
1373.000000	0.313572
1374.000000	0.313431
1375.000000	0.313344
1376.000000	0.313330
1377.000000	0.313223
1378.000000	0.312978
1379.000000	0.312612
1380.000000	0.312219
1381.000000	0.311719
1382.000000	0.311327
1383.000000	0.311049
1384.000000	0.310523
1385.000000	0.310111
1386.000000	0.309842
1387.000000	0.309445
1388.000000	0.309055
1389.000000	0.308683
1390.000000	0.308185
1391.000000	0.307578
1392.000000	0.307125
1393.000000	0.306559
1394.000000	0.305996
1395.000000	0.305258
1396.000000	0.304352
1397.000000	0.303596
1398.000000	0.302793
1399.000000	0.302026
1400.000000	0.301416
1401.000000	0.300587
1402.000000	0.299639
1403.000000	0.298654
1404.000000	0.297924
1405.000000	0.297099
1406.000000	0.296229
1407.000000	0.295509
1408.000000	0.294729
1409.000000	0.294079
1410.000000	0.293503
1411.000000	0.292960
1412.000000	0.292364
1413.000000	0.291614
1414.000000	0.290958
1415.000000	0.290336
1416.000000	0.289764
1417.000000	0.289287
1418.000000	0.288764
1419.000000	0.288368
1420.000000	0.287764
1421.000000	0.287240
1422.000000	0.286839
1423.000000	0.286297
1424.000000	0.285769
1425.000000	0.285326
1426.000000	0.284807
1427.000000	0.284292
1428.000000	0.283801
1429.000000	0.283254
1430.000000	0.282713
1431.000000	0.282327
1432.000000	0.281902
1433.000000	0.281516
1434.000000	0.281140
1435.000000	0.280858
1436.000000	0.280531
1437.000000	0.280197
1438.000000	0.279901
1439.000000	0.279630
1440.000000	0.279411
1441.000000	0.279251
1442.000000	0.279121
1443.000000	0.278968
1444.000000	0.278866
1445.000000	0.278765
1446.000000	0.278726
1447.000000	0.278732
1448.000000	0.278697
1449.000000	0.278663
1450.000000	0.278662
1451.000000	0.278638
1452.000000	0.278576
1453.000000	0.278541
1454.000000	0.278523
1455.000000	0.278511
1456.000000	0.278509
1457.000000	0.278546
1458.000000	0.278583
1459.000000	0.278597
1460.000000	0.278564
1461.000000	0.278527
1462.000000	0.278529
1463.000000	0.278481
1464.000000	0.278496
1465.000000	0.278505
1466.000000	0.278405
1467.000000	0.278396
1468.000000	0.278439
1469.000000	0.278443
1470.000000	0.278395
1471.000000	0.278372
1472.000000	0.278334
1473.000000	0.278453
1474.000000	0.278671
1475.000000	0.278989
1476.000000	0.279370
1477.000000	0.279690
1478.000000	0.279876
1479.000000	0.280075
1480.000000	0.280320
1481.000000	0.280476
1482.000000	0.280652
1483.000000	0.280899
1484.000000	0.281059
1485.000000	0.281325
1486.000000	0.281727
1487.000000	0.282082
1488.000000	0.282531
1489.000000	0.282845
1490.000000	0.282945
1491.000000	0.283168
1492.000000	0.283277
1493.000000	0.283480
1494.000000	0.283773
1495.000000	0.284019
1496.000000	0.284267
1497.000000	0.284528
1498.000000	0.284794
1499.000000	0.285078
1500.000000	0.285375
1501.000000	0.285507
1502.000000	0.285685
1503.000000	0.285893
1504.000000	0.286001
1505.000000	0.286140
1506.000000	0.286343
1507.000000	0.286441
1508.000000	0.286548
1509.000000	0.286898
1510.000000	0.287103
1511.000000	0.287163
1512.000000	0.287389
1513.000000	0.287532
1514.000000	0.287617
1515.000000	0.287841
1516.000000	0.288118
1517.000000	0.288254
1518.000000	0.288369
1519.000000	0.288415
1520.000000	0.288439
1521.000000	0.288476
1522.000000	0.288540
1523.000000	0.288749
1524.000000	0.288875
1525.000000	0.288901
1526.000000	0.288983
1527.000000	0.289079
1528.000000	0.289151
1529.000000	0.289272
1530.000000	0.289349
1531.000000	0.289416
1532.000000	0.289563
1533.000000	0.289559
1534.000000	0.289519
1535.000000	0.289615
1536.000000	0.289617
1537.000000	0.289760
1538.000000	0.289934
1539.000000	0.290013
1540.000000	0.290055
1541.000000	0.290114
1542.000000	0.290311
1543.000000	0.290319
1544.000000	0.290279
1545.000000	0.290468
1546.000000	0.290546
1547.000000	0.290630
1548.000000	0.290848
1549.000000	0.290831
1550.000000	0.290713
1551.000000	0.290717
1552.000000	0.290716
1553.000000	0.290751
1554.000000	0.290728
1555.000000	0.290687
1556.000000	0.290722
1557.000000	0.290707
1558.000000	0.290708
1559.000000	0.290711
1560.000000	0.290687
1561.000000	0.290650
1562.000000	0.290627
1563.000000	0.290684
1564.000000	0.290735
1565.000000	0.290756
1566.000000	0.290694
1567.000000	0.290728
1568.000000	0.290681
1569.000000	0.290598
1570.000000	0.290539
1571.000000	0.290489
1572.000000	0.290414
1573.000000	0.290286
1574.000000	0.290238
1575.000000	0.290209
1576.000000	0.290222
1577.000000	0.290318
1578.000000	0.290393
1579.000000	0.290571
1580.000000	0.290623
1581.000000	0.290663
1582.000000	0.290645
1583.000000	0.290492
1584.000000	0.290445
1585.000000	0.290491
1586.000000	0.290591
1587.000000	0.290847
1588.000000	0.290901
1589.000000	0.290906
1590.000000	0.290909
1591.000000	0.290792
1592.000000	0.290738
1593.000000	0.290746
1594.000000	0.290755
1595.000000	0.290774
1596.000000	0.290859
1597.000000	0.291070
1598.000000	0.291138
1599.000000	0.291224
1600.000000	0.291215
1601.000000	0.291139
1602.000000	0.291156
1603.000000	0.291192
1604.000000	0.291255
1605.000000	0.291438
1606.000000	0.291512
1607.000000	0.291562
1608.000000	0.291635
1609.000000	0.291784
1610.000000	0.291785
1611.000000	0.291758
1612.000000	0.291707
1613.000000	0.291538
1614.000000	0.291582
1615.000000	0.291854
1616.000000	0.291998
1617.000000	0.292144
1618.000000	0.292250
1619.000000	0.292241
1620.000000	0.292318
1621.000000	0.292539
1622.000000	0.292658
1623.000000	0.292646
1624.000000	0.292711
1625.000000	0.292624
1626.000000	0.292618
1627.000000	0.292706
1628.000000	0.292815
1629.000000	0.292959
1630.000000	0.293060
1631.000000	0.293118
1632.000000	0.293178
1633.000000	0.293198
1634.000000	0.293277
1635.000000	0.293469
1636.000000	0.293508
1637.000000	0.293495
1638.000000	0.293501
1639.000000	0.293465
1640.000000	0.293491
1641.000000	0.293657
1642.000000	0.293717
1643.000000	0.293758
1644.000000	0.293853
1645.000000	0.293919
1646.000000	0.293998
1647.000000	0.294184
1648.000000	0.294290
1649.000000	0.294442
1650.000000	0.294577
1651.000000	0.294734
1652.000000	0.294896
1653.000000	0.294986
1654.000000	0.295137
1655.000000	0.295283
1656.000000	0.295306
1657.000000	0.295330
1658.000000	0.295400
1659.000000	0.295561
1660.000000	0.295677
1661.000000	0.295722
1662.000000	0.295840
1663.000000	0.295893
1664.000000	0.296001
1665.000000	0.296223
1666.000000	0.296382
1667.000000	0.296418
1668.000000	0.296506
1669.000000	0.296598
1670.000000	0.296600
1671.000000	0.296642
1672.000000	0.296725
1673.000000	0.296698
1674.000000	0.296973
1675.000000	0.297326
1676.000000	0.297612
1677.000000	0.297712
1678.000000	0.297675
1679.000000	0.297713
1680.000000	0.297697
1681.000000	0.297781
1682.000000	0.297857
1683.000000	0.297769
1684.000000	0.297778
1685.000000	0.297844
1686.000000	0.297868
1687.000000	0.297964
1688.000000	0.297948
1689.000000	0.298039
1690.000000	0.298204
1691.000000	0.298241
1692.000000	0.298299
1693.000000	0.298346
1694.000000	0.298354
1695.000000	0.298521
1696.000000	0.298578
1697.000000	0.298621
1698.000000	0.298654
1699.000000	0.298730
1700.000000	0.298897
1701.000000	0.299051
1702.000000	0.299002
1703.000000	0.298978
1704.000000	0.299012
1705.000000	0.299065
1706.000000	0.299235
1707.000000	0.299288
1708.000000	0.299236
1709.000000	0.299199
1710.000000	0.299258
1711.000000	0.299197
1712.000000	0.299072
1713.000000	0.299009
1714.000000	0.298868
1715.000000	0.298856
1716.000000	0.299080
1717.000000	0.299119
1718.000000	0.299052
1719.000000	0.299000
1720.000000	0.298925
1721.000000	0.298881
1722.000000	0.298852
1723.000000	0.298848
1724.000000	0.298887
1725.000000	0.298937
1726.000000	0.298919
1727.000000	0.298973
1728.000000	0.299009
1729.000000	0.298992
1730.000000	0.299092
1731.000000	0.299211
1732.000000	0.299342
1733.000000	0.299504
1734.000000	0.299612
1735.000000	0.299726
1736.000000	0.299816
1737.000000	0.299825
1738.000000	0.299764
1739.000000	0.299902
1740.000000	0.300048
1741.000000	0.300146
1742.000000	0.300421
1743.000000	0.300548
1744.000000	0.300504
1745.000000	0.300464
1746.000000	0.300404
1747.000000	0.300397
1748.000000	0.300380
1749.000000	0.300599
1750.000000	0.300628
1751.000000	0.300639
1752.000000	0.300683
1753.000000	0.300397
1754.000000	0.300348
1755.000000	0.300448
1756.000000	0.300433
1757.000000	0.300438
1758.000000	0.300533
1759.000000	0.300590
1760.000000	0.300640
1761.000000	0.300745
1762.000000	0.300863
1763.000000	0.301036
1764.000000	0.301043
1765.000000	0.300909
1766.000000	0.300959
1767.000000	0.300876
1768.000000	0.300816
1769.000000	0.301057
1770.000000	0.301179
1771.000000	0.301080
1772.000000	0.301121
1773.000000	0.301219
1774.000000	0.301291
1775.000000	0.301477
1776.000000	0.301484
1777.000000	0.301334
1778.000000	0.301308
1779.000000	0.301220
1780.000000	0.301185
1781.000000	0.301249
1782.000000	0.301199
1783.000000	0.301049
1784.000000	0.301088
1785.000000	0.301266
1786.000000	0.301489
1787.000000	0.301562
1788.000000	0.301665
1789.000000	0.301658
1790.000000	0.301583
1791.000000	0.301559
1792.000000	0.301551
1793.000000	0.301573
1794.000000	0.301762
1795.000000	0.301868
1796.000000	0.301874
1797.000000	0.301939
1798.000000	0.302014
1799.000000	0.302051
1800.000000	0.302136
1801.000000	0.302154
1802.000000	0.302254
1803.000000	0.301793
1804.000000	0.301964
1805.000000	0.302122
1806.000000	0.302424
1807.000000	0.303314
1808.000000	0.303670
1809.000000	0.303544
1810.000000	0.303814
1811.000000	0.304177
1812.000000	0.304530
1813.000000	0.304882
1814.000000	0.305637
1815.000000	0.306067
1816.000000	0.306472
1817.000000	0.306326
1818.000000	0.305826
1819.000000	0.305808
1820.000000	0.304505
1821.000000	0.303127
1822.000000	0.302505
1823.000000	0.301773
1824.000000	0.301409
1825.000000	0.301854
1826.000000	0.302205
1827.000000	0.302749
1828.000000	0.302798
1829.000000	0.303525
1830.000000	0.303036
1831.000000	0.302633
1832.000000	0.301315
1833.000000	0.301399
1834.000000	0.302047
1835.000000	0.302342
1836.000000	0.303650
1837.000000	0.303929
1838.000000	0.303179
1839.000000	0.302620
1840.000000	0.302138
1841.000000	0.301005
1842.000000	0.300346
1843.000000	0.299511
1844.000000	0.299369
1845.000000	0.299959
1846.000000	0.299803
1847.000000	0.299639
1848.000000	0.299291
1849.000000	0.297879
1850.000000	0.297036
1851.000000	0.297262
1852.000000	0.298674
1853.000000	0.298906
1854.000000	0.299477
1855.000000	0.299468
1856.000000	0.298339
1857.000000	0.297497
1858.000000	0.297842
1859.000000	0.297870
1860.000000	0.297794
1861.000000	0.297189
1862.000000	0.296340
1863.000000	0.294664
1864.000000	0.293732
1865.000000	0.293059
1866.000000	0.292460
1867.000000	0.292268
1868.000000	0.291451
1869.000000	0.290656
1870.000000	0.289472
1871.000000	0.288335
1872.000000	0.286909
1873.000000	0.285419
1874.000000	0.283872
1875.000000	0.282562
1876.000000	0.280854
1877.000000	0.279063
1878.000000	0.278275
1879.000000	0.276171
1880.000000	0.273768
1881.000000	0.272297
1882.000000	0.270442
1883.000000	0.268225
1884.000000	0.266137
1885.000000	0.264011
1886.000000	0.261370
1887.000000	0.258196
1888.000000	0.255609
1889.000000	0.252498
1890.000000	0.249496
1891.000000	0.247264
1892.000000	0.244555
1893.000000	0.241721
1894.000000	0.239278
1895.000000	0.236462
1896.000000	0.233619
1897.000000	0.230432
1898.000000	0.227220
1899.000000	0.224158
1900.000000	0.221021
1901.000000	0.217988
1902.000000	0.215271
1903.000000	0.212854
1904.000000	0.210820
1905.000000	0.209799
1906.000000	0.208422
1907.000000	0.207369
1908.000000	0.206014
1909.000000	0.205100
1910.000000	0.203535
1911.000000	0.202118
1912.000000	0.201128
1913.000000	0.200033
1914.000000	0.199065
1915.000000	0.198189
1916.000000	0.197657
1917.000000	0.196786
1918.000000	0.195783
1919.000000	0.194775
1920.000000	0.193907
1921.000000	0.193369
1922.000000	0.193513
1923.000000	0.193482
1924.000000	0.193547
1925.000000	0.193577
1926.000000	0.192947
1927.000000	0.192817
1928.000000	0.192708
1929.000000	0.192855
1930.000000	0.192427
1931.000000	0.192114
1932.000000	0.191923
1933.000000	0.191704
1934.000000	0.191804
1935.000000	0.192705
1936.000000	0.193464
1937.000000	0.193564
1938.000000	0.193634
1939.000000	0.193676
1940.000000	0.193350
1941.000000	0.193225
1942.000000	0.193432
1943.000000	0.193056
1944.000000	0.192681
1945.000000	0.192260
1946.000000	0.191532
1947.000000	0.191714
1948.000000	0.191730
1949.000000	0.191355
1950.000000	0.191488
1951.000000	0.191346
1952.000000	0.191078
1953.000000	0.190648
1954.000000	0.190435
1955.000000	0.190445
1956.000000	0.190218
1957.000000	0.190109
1958.000000	0.190129
1959.000000	0.190219
1960.000000	0.190217
1961.000000	0.190215
1962.000000	0.190176
1963.000000	0.190374
1964.000000	0.189735
1965.000000	0.189266
1966.000000	0.189015
1967.000000	0.188736
1968.000000	0.189077
1969.000000	0.189196
1970.000000	0.189238
1971.000000	0.189519
1972.000000	0.189707
1973.000000	0.189951
1974.000000	0.190742
1975.000000	0.191046
1976.000000	0.191159
1977.000000	0.191294
1978.000000	0.190821
1979.000000	0.190144
1980.000000	0.190236
1981.000000	0.190512
1982.000000	0.191280
1983.000000	0.192404
1984.000000	0.192782
1985.000000	0.192453
1986.000000	0.192590
1987.000000	0.192582
1988.000000	0.192836
1989.000000	0.193366
1990.000000	0.193860
1991.000000	0.193909
1992.000000	0.193950
1993.000000	0.193816
1994.000000	0.194551
1995.000000	0.195665
1996.000000	0.196474
1997.000000	0.197317
1998.000000	0.198391
1999.000000	0.199258
2000.000000	0.199951
2001.000000	0.200612
2002.000000	0.201549
2003.000000	0.202571
2004.000000	0.202974
2005.000000	0.203073
2006.000000	0.203098
2007.000000	0.202994
2008.000000	0.203376
2009.000000	0.204163
2010.000000	0.204985
2011.000000	0.206082
2012.000000	0.206976
2013.000000	0.207870
2014.000000	0.208452
2015.000000	0.209302
2016.000000	0.209814
2017.000000	0.209927
2018.000000	0.210159
2019.000000	0.210621
2020.000000	0.211506
2021.000000	0.212274
2022.000000	0.213494
2023.000000	0.214204
2024.000000	0.214327
2025.000000	0.215004
2026.000000	0.215575
2027.000000	0.216751
2028.000000	0.217967
2029.000000	0.219013
2030.000000	0.219452
2031.000000	0.220070
2032.000000	0.220707
2033.000000	0.221248
2034.000000	0.221704
2035.000000	0.222156
2036.000000	0.222424
2037.000000	0.222487
2038.000000	0.222943
2039.000000	0.223581
2040.000000	0.224350
2041.000000	0.225558
2042.000000	0.226726
2043.000000	0.227078
2044.000000	0.228011
2045.000000	0.228169
2046.000000	0.227549
2047.000000	0.227770
2048.000000	0.228129
2049.000000	0.228675
2050.000000	0.229487
2051.000000	0.230207
2052.000000	0.231088
2053.000000	0.231533
2054.000000	0.231975
2055.000000	0.232348
2056.000000	0.232754
2057.000000	0.233048
2058.000000	0.233390
2059.000000	0.234111
2060.000000	0.234581
2061.000000	0.234943
2062.000000	0.235114
2063.000000	0.235057
2064.000000	0.235331
2065.000000	0.235649
2066.000000	0.236035
2067.000000	0.237099
2068.000000	0.237995
2069.000000	0.237981
2070.000000	0.238449
2071.000000	0.238755
2072.000000	0.238864
2073.000000	0.239870
2074.000000	0.241036
2075.000000	0.241776
2076.000000	0.242629
2077.000000	0.243145
2078.000000	0.243274
2079.000000	0.243169
2080.000000	0.242693
2081.000000	0.242531
2082.000000	0.241942
2083.000000	0.241935
2084.000000	0.242833
2085.000000	0.243926
2086.000000	0.245010
2087.000000	0.246276
2088.000000	0.246924
2089.000000	0.247383
2090.000000	0.248023
2091.000000	0.248602
2092.000000	0.249193
2093.000000	0.250058
2094.000000	0.250759
2095.000000	0.251667
2096.000000	0.252118
2097.000000	0.252501
2098.000000	0.252072
2099.000000	0.250987
2100.000000	0.250455
2101.000000	0.250617
2102.000000	0.250739
2103.000000	0.251480
2104.000000	0.252006
2105.000000	0.252513
2106.000000	0.252969
2107.000000	0.253325
2108.000000	0.253668
2109.000000	0.253929
2110.000000	0.253456
2111.000000	0.253536
2112.000000	0.253471
2113.000000	0.254208
2114.000000	0.255056
2115.000000	0.256322
2116.000000	0.257397
2117.000000	0.257799
2118.000000	0.258091
2119.000000	0.258335
2120.000000	0.259146
2121.000000	0.260612
2122.000000	0.261270
2123.000000	0.262201
2124.000000	0.262391
2125.000000	0.261371
2126.000000	0.261159
2127.000000	0.261146
2128.000000	0.261085
2129.000000	0.261224
2130.000000	0.261269
2131.000000	0.260748
2132.000000	0.259836
2133.000000	0.259263
2134.000000	0.258491
2135.000000	0.258034
2136.000000	0.258886
2137.000000	0.259465
2138.000000	0.260673
2139.000000	0.261406
2140.000000	0.261914
2141.000000	0.262585
2142.000000	0.263525
2143.000000	0.263561
2144.000000	0.263293
2145.000000	0.263388
2146.000000	0.263110
2147.000000	0.263295
2148.000000	0.263228
2149.000000	0.262972
2150.000000	0.262257
2151.000000	0.261755
2152.000000	0.261890
2153.000000	0.261866
2154.000000	0.261709
2155.000000	0.261267
2156.000000	0.261000
2157.000000	0.260772
2158.000000	0.260863
2159.000000	0.261189
2160.000000	0.261785
2161.000000	0.262680
2162.000000	0.263348
2163.000000	0.264403
2164.000000	0.264786
2165.000000	0.264511
2166.000000	0.264702
2167.000000	0.264497
2168.000000	0.263599
2169.000000	0.263139
2170.000000	0.262945
2171.000000	0.262861
2172.000000	0.262833
2173.000000	0.263350
2174.000000	0.264580
2175.000000	0.264803
2176.000000	0.265251
2177.000000	0.265143
2178.000000	0.264054
2179.000000	0.263516
2180.000000	0.262515
2181.000000	0.262508
2182.000000	0.262801
2183.000000	0.262562
2184.000000	0.263355
2185.000000	0.264142
2186.000000	0.262682
2187.000000	0.262049
2188.000000	0.262727
2189.000000	0.262461
2190.000000	0.263835
2191.000000	0.266933
2192.000000	0.267908
2193.000000	0.267863
2194.000000	0.267525
2195.000000	0.265331
2196.000000	0.264606
2197.000000	0.264051
2198.000000	0.263717
2199.000000	0.264886
2200.000000	0.265132
2201.000000	0.265281
2202.000000	0.264270
2203.000000	0.261335
2204.000000	0.259595
2205.000000	0.257808
2206.000000	0.257484
2207.000000	0.261134
2208.000000	0.263484
2209.000000	0.264606
2210.000000	0.266403
2211.000000	0.264944
2212.000000	0.263987
2213.000000	0.263949
2214.000000	0.264278
2215.000000	0.264308
2216.000000	0.265369
2217.000000	0.265197
2218.000000	0.263412
2219.000000	0.263247
2220.000000	0.263845
2221.000000	0.264102
2222.000000	0.264353
2223.000000	0.264999
2224.000000	0.265905
2225.000000	0.266851
2226.000000	0.266464
2227.000000	0.266315
2228.000000	0.265469
2229.000000	0.264706
2230.000000	0.263430
2231.000000	0.262577
2232.000000	0.263003
2233.000000	0.262985
2234.000000	0.263332
2235.000000	0.264905
2236.000000	0.264777
2237.000000	0.261638
2238.000000	0.261658
2239.000000	0.263377
2240.000000	0.264222
2241.000000	0.266892
2242.000000	0.267207
2243.000000	0.265651
2244.000000	0.264536
2245.000000	0.261550
2246.000000	0.260935
2247.000000	0.260742
2248.000000	0.261107
2249.000000	0.263568
2250.000000	0.265881
2251.000000	0.265166
2252.000000	0.266633
2253.000000	0.265209
2254.000000	0.262232
2255.000000	0.261185
2256.000000	0.260060
2257.000000	0.258988
2258.000000	0.259109
2259.000000	0.259414
2260.000000	0.258308
2261.000000	0.258133
2262.000000	0.258578
2263.000000	0.258848
2264.000000	0.259544
2265.000000	0.260042
2266.000000	0.259890
2267.000000	0.260266
2268.000000	0.262049
2269.000000	0.261386
2270.000000	0.259417
2271.000000	0.258438
2272.000000	0.255350
2273.000000	0.254376
2274.000000	0.255756
2275.000000	0.256282
2276.000000	0.258073
2277.000000	0.257332
2278.000000	0.255738
2279.000000	0.254717
2280.000000	0.251010
2281.000000	0.249443
2282.000000	0.247285
2283.000000	0.243379
2284.000000	0.241729
2285.000000	0.238779
2286.000000	0.237404
2287.000000	0.238960
2288.000000	0.241484
2289.000000	0.245440
2290.000000	0.248866
2291.000000	0.250685
2292.000000	0.250602
2293.000000	0.247492
2294.000000	0.245408
2295.000000	0.241887
2296.000000	0.240570
2297.000000	0.240457
2298.000000	0.240704
2299.000000	0.242078
2300.000000	0.242481
2301.000000	0.243193
2302.000000	0.242814
2303.000000	0.240673
2304.000000	0.240908
2305.000000	0.242216
2306.000000	0.242196
2307.000000	0.242800
2308.000000	0.243820
2309.000000	0.241315
2310.000000	0.239462
2311.000000	0.237563
2312.000000	0.235772
2313.000000	0.237653
2314.000000	0.239022
2315.000000	0.241461
2316.000000	0.242979
2317.000000	0.240658
2318.000000	0.239973
2319.000000	0.240028
2320.000000	0.240543
2321.000000	0.242373
2322.000000	0.241844
2323.000000	0.239755
2324.000000	0.238548
2325.000000	0.236989
2326.000000	0.236342
2327.000000	0.236629
2328.000000	0.236638
2329.000000	0.237038
2330.000000	0.236019
2331.000000	0.235448
2332.000000	0.236225
2333.000000	0.236349
2334.000000	0.237093
2335.000000	0.237392
2336.000000	0.236053
2337.000000	0.235781
2338.000000	0.235787
2339.000000	0.236126
2340.000000	0.238146
2341.000000	0.237729
2342.000000	0.235589
2343.000000	0.234266
2344.000000	0.232082
2345.000000	0.230625
2346.000000	0.230345
2347.000000	0.229320
2348.000000	0.227992
2349.000000	0.226028
2350.000000	0.224969
2351.000000	0.225325
2352.000000	0.224977
2353.000000	0.222586
2354.000000	0.218369
2355.000000	0.215847
2356.000000	0.213032
2357.000000	0.212687
2358.000000	0.214899
2359.000000	0.214562
2360.000000	0.216874
2361.000000	0.217301
2362.000000	0.212513
2363.000000	0.207568
2364.000000	0.202294
2365.000000	0.200004
2366.000000	0.204364
2367.000000	0.208730
2368.000000	0.210714
2369.000000	0.211277
2370.000000	0.206463
2371.000000	0.204650
2372.000000	0.205598
2373.000000	0.206050
2374.000000	0.207844
2375.000000	0.209552
2376.000000	0.210421
2377.000000	0.207951
2378.000000	0.208279
2379.000000	0.204418
2380.000000	0.197171
2381.000000	0.196477
2382.000000	0.194635
2383.000000	0.193559
2384.000000	0.195198
2385.000000	0.195420
2386.000000	0.193847
2387.000000	0.189470
2388.000000	0.187827
2389.000000	0.185946
2390.000000	0.181866
2391.000000	0.177006
2392.000000	0.172430
2393.000000	0.176187
2394.000000	0.178796
2395.000000	0.183366
2396.000000	0.189693
2397.000000	0.184791
2398.000000	0.179438
2399.000000	0.172720
2400.000000	0.163602
2401.000000	0.162111
2402.000000	0.166268
2403.000000	0.175650
2404.000000	0.185822
2405.000000	0.194569
2406.000000	0.196327
2407.000000	0.187777
2408.000000	0.184200
2409.000000	0.175515
2410.000000	0.165291
2411.000000	0.162323
2412.000000	0.159886
2413.000000	0.165530
2414.000000	0.167225
2415.000000	0.166332
2416.000000	0.172283
2417.000000	0.169658
2418.000000	0.172244
2419.000000	0.187269
2420.000000	0.189292
2421.000000	0.183064
2422.000000	0.188736
2423.000000	0.194377
2424.000000	0.191841
2425.000000	0.191857
2426.000000	0.184429
2427.000000	0.167551
2428.000000	0.150866
2429.000000	0.146612
2430.000000	0.158641
2431.000000	0.168139
2432.000000	0.181253
2433.000000	0.193303
2434.000000	0.183124
2435.000000	0.172934
2436.000000	0.171389
2437.000000	0.162708
2438.000000	0.165168
2439.000000	0.164073
2440.000000	0.162777
2441.000000	0.179203
2442.000000	0.177999
2443.000000	0.183155
2444.000000	0.189155
2445.000000	0.171751
2446.000000	0.164332
2447.000000	0.167420
2448.000000	0.160595
2449.000000	0.151801
2450.000000	0.152646
2451.000000	0.142827
2452.000000	0.138182
2453.000000	0.142632
2454.000000	0.141620
2455.000000	0.153818
2456.000000	0.157766
2457.000000	0.166903
2458.000000	0.187021
2459.000000	0.189740
2460.000000	0.187358
2461.000000	0.182167
2462.000000	0.177726
2463.000000	0.173397
2464.000000	0.179024
2465.000000	0.186058
2466.000000	0.176089
2467.000000	0.162950
2468.000000	0.129825
2469.000000	0.118257
2470.000000	0.131800
2471.000000	0.129712
2472.000000	0.158632
2473.000000	0.148060
2474.000000	0.113439
2475.000000	0.127885
2476.000000	0.113582
2477.000000	0.128676
2478.000000	0.165201
2479.000000	0.160305
2480.000000	0.177184
2481.000000	0.194100
2482.000000	0.168819
2483.000000	0.143876
2484.000000	0.156602
2485.000000	0.149232
2486.000000	0.149105
2487.000000	0.192887
2488.000000	0.184969
2489.000000	0.169874
2490.000000	0.180914
2491.000000	0.153661
2492.000000	0.146221
2493.000000	0.185595
2494.000000	0.188785
2495.000000	0.165004
2496.000000	0.156597
2497.000000	0.099480
2498.000000	0.090207
2499.000000	0.160546
2500.000000	0.163847
