# Wavelength	Nau-1_90_FV7_10_00002.asd.rts.txt
350.000000	0.062541
351.000000	0.074151
352.000000	0.090670
353.000000	0.095473
354.000000	0.087225
355.000000	0.079611
356.000000	0.083961
357.000000	0.093931
358.000000	0.089500
359.000000	0.087548
360.000000	0.088452
361.000000	0.088636
362.000000	0.088947
363.000000	0.085445
364.000000	0.079582
365.000000	0.089359
366.000000	0.089294
367.000000	0.079007
368.000000	0.079653
369.000000	0.081126
370.000000	0.082495
371.000000	0.084665
372.000000	0.084008
373.000000	0.083322
374.000000	0.084929
375.000000	0.087960
376.000000	0.089418
377.000000	0.089133
378.000000	0.089647
379.000000	0.089082
380.000000	0.088789
381.000000	0.090725
382.000000	0.089692
383.000000	0.089874
384.000000	0.093373
385.000000	0.093555
386.000000	0.093620
387.000000	0.095465
388.000000	0.100157
389.000000	0.099905
390.000000	0.098085
391.000000	0.101082
392.000000	0.102074
393.000000	0.103848
394.000000	0.108148
395.000000	0.109259
396.000000	0.109857
397.000000	0.111128
398.000000	0.112276
399.000000	0.113955
400.000000	0.115943
401.000000	0.117613
402.000000	0.119276
403.000000	0.121350
404.000000	0.123891
405.000000	0.124976
406.000000	0.126129
407.000000	0.127925
408.000000	0.129023
409.000000	0.131046
410.000000	0.133529
411.000000	0.134832
412.000000	0.135948
413.000000	0.137077
414.000000	0.138232
415.000000	0.139289
416.000000	0.139754
417.000000	0.139747
418.000000	0.140795
419.000000	0.141887
420.000000	0.142532
421.000000	0.142571
422.000000	0.142699
423.000000	0.142802
424.000000	0.142617
425.000000	0.142556
426.000000	0.142831
427.000000	0.143236
428.000000	0.142242
429.000000	0.142100
430.000000	0.142972
431.000000	0.142138
432.000000	0.141942
433.000000	0.142307
434.000000	0.142221
435.000000	0.142389
436.000000	0.142196
437.000000	0.141204
438.000000	0.140953
439.000000	0.140548
440.000000	0.139636
441.000000	0.138873
442.000000	0.138239
443.000000	0.137737
444.000000	0.137451
445.000000	0.137172
446.000000	0.137059
447.000000	0.137309
448.000000	0.138447
449.000000	0.139721
450.000000	0.140821
451.000000	0.142944
452.000000	0.145498
453.000000	0.148128
454.000000	0.150775
455.000000	0.154178
456.000000	0.157947
457.000000	0.161172
458.000000	0.164763
459.000000	0.168161
460.000000	0.170904
461.000000	0.173730
462.000000	0.176383
463.000000	0.178685
464.000000	0.181038
465.000000	0.183134
466.000000	0.184762
467.000000	0.185863
468.000000	0.187326
469.000000	0.188913
470.000000	0.190233
471.000000	0.191230
472.000000	0.192052
473.000000	0.192885
474.000000	0.193936
475.000000	0.194665
476.000000	0.195145
477.000000	0.195870
478.000000	0.196485
479.000000	0.197175
480.000000	0.198029
481.000000	0.198760
482.000000	0.199454
483.000000	0.200102
484.000000	0.201022
485.000000	0.201804
486.000000	0.202431
487.000000	0.203140
488.000000	0.203902
489.000000	0.204690
490.000000	0.205439
491.000000	0.206186
492.000000	0.206972
493.000000	0.207745
494.000000	0.208731
495.000000	0.209644
496.000000	0.210326
497.000000	0.211242
498.000000	0.212228
499.000000	0.213234
500.000000	0.214175
501.000000	0.215091
502.000000	0.215978
503.000000	0.216760
504.000000	0.217781
505.000000	0.218810
506.000000	0.219654
507.000000	0.220844
508.000000	0.221962
509.000000	0.222831
510.000000	0.223966
511.000000	0.225064
512.000000	0.226102
513.000000	0.227209
514.000000	0.228343
515.000000	0.229592
516.000000	0.230966
517.000000	0.232037
518.000000	0.233171
519.000000	0.234553
520.000000	0.235795
521.000000	0.237070
522.000000	0.238445
523.000000	0.239811
524.000000	0.241207
525.000000	0.242602
526.000000	0.243973
527.000000	0.245511
528.000000	0.247105
529.000000	0.248651
530.000000	0.250214
531.000000	0.251822
532.000000	0.253422
533.000000	0.255112
534.000000	0.256779
535.000000	0.258411
536.000000	0.260138
537.000000	0.261849
538.000000	0.263503
539.000000	0.265088
540.000000	0.266832
541.000000	0.268588
542.000000	0.270253
543.000000	0.272030
544.000000	0.273827
545.000000	0.275543
546.000000	0.277315
547.000000	0.279078
548.000000	0.280827
549.000000	0.282497
550.000000	0.284260
551.000000	0.286089
552.000000	0.287843
553.000000	0.289569
554.000000	0.291274
555.000000	0.292977
556.000000	0.294730
557.000000	0.296416
558.000000	0.298103
559.000000	0.299700
560.000000	0.301235
561.000000	0.302767
562.000000	0.304204
563.000000	0.305590
564.000000	0.306985
565.000000	0.308315
566.000000	0.309616
567.000000	0.310913
568.000000	0.312168
569.000000	0.313266
570.000000	0.314426
571.000000	0.315624
572.000000	0.316651
573.000000	0.317631
574.000000	0.318568
575.000000	0.319491
576.000000	0.320404
577.000000	0.321214
578.000000	0.321926
579.000000	0.322588
580.000000	0.323170
581.000000	0.323693
582.000000	0.324276
583.000000	0.324814
584.000000	0.325327
585.000000	0.325902
586.000000	0.326314
587.000000	0.326609
588.000000	0.326907
589.000000	0.327287
590.000000	0.327633
591.000000	0.327885
592.000000	0.328147
593.000000	0.328463
594.000000	0.328761
595.000000	0.328837
596.000000	0.328835
597.000000	0.328904
598.000000	0.329068
599.000000	0.329098
600.000000	0.329123
601.000000	0.329193
602.000000	0.329304
603.000000	0.329368
604.000000	0.329352
605.000000	0.329259
606.000000	0.329242
607.000000	0.329288
608.000000	0.329266
609.000000	0.329246
610.000000	0.329222
611.000000	0.329172
612.000000	0.329110
613.000000	0.329020
614.000000	0.328947
615.000000	0.328962
616.000000	0.328895
617.000000	0.328733
618.000000	0.328735
619.000000	0.328741
620.000000	0.328697
621.000000	0.328650
622.000000	0.328595
623.000000	0.328558
624.000000	0.328566
625.000000	0.328663
626.000000	0.328698
627.000000	0.328636
628.000000	0.328620
629.000000	0.328668
630.000000	0.328625
631.000000	0.328553
632.000000	0.328550
633.000000	0.328642
634.000000	0.328791
635.000000	0.328855
636.000000	0.328935
637.000000	0.329082
638.000000	0.329305
639.000000	0.329386
640.000000	0.329410
641.000000	0.329547
642.000000	0.329643
643.000000	0.329730
644.000000	0.329883
645.000000	0.329996
646.000000	0.330153
647.000000	0.330360
648.000000	0.330424
649.000000	0.330591
650.000000	0.330881
651.000000	0.331094
652.000000	0.331289
653.000000	0.331517
654.000000	0.331740
655.000000	0.331952
656.000000	0.332217
657.000000	0.332516
658.000000	0.332806
659.000000	0.333049
660.000000	0.333264
661.000000	0.333637
662.000000	0.333991
663.000000	0.334333
664.000000	0.334655
665.000000	0.335079
666.000000	0.335545
667.000000	0.335927
668.000000	0.336276
669.000000	0.336629
670.000000	0.337014
671.000000	0.337420
672.000000	0.337910
673.000000	0.338434
674.000000	0.338869
675.000000	0.339265
676.000000	0.339704
677.000000	0.340270
678.000000	0.340755
679.000000	0.341235
680.000000	0.341770
681.000000	0.342267
682.000000	0.342815
683.000000	0.343367
684.000000	0.343990
685.000000	0.344643
686.000000	0.345290
687.000000	0.345847
688.000000	0.346397
689.000000	0.346946
690.000000	0.347549
691.000000	0.348310
692.000000	0.348999
693.000000	0.349636
694.000000	0.350332
695.000000	0.351052
696.000000	0.351790
697.000000	0.352546
698.000000	0.353258
699.000000	0.353990
700.000000	0.354786
701.000000	0.355507
702.000000	0.356284
703.000000	0.357107
704.000000	0.357830
705.000000	0.358640
706.000000	0.359496
707.000000	0.360366
708.000000	0.361117
709.000000	0.361862
710.000000	0.362706
711.000000	0.363439
712.000000	0.364190
713.000000	0.365003
714.000000	0.365714
715.000000	0.366432
716.000000	0.367212
717.000000	0.368049
718.000000	0.368836
719.000000	0.369592
720.000000	0.370381
721.000000	0.371249
722.000000	0.372005
723.000000	0.372704
724.000000	0.373523
725.000000	0.374319
726.000000	0.375149
727.000000	0.375938
728.000000	0.376645
729.000000	0.377340
730.000000	0.378033
731.000000	0.378787
732.000000	0.379555
733.000000	0.380318
734.000000	0.380944
735.000000	0.381459
736.000000	0.382038
737.000000	0.382604
738.000000	0.383242
739.000000	0.383954
740.000000	0.384527
741.000000	0.385148
742.000000	0.385734
743.000000	0.386221
744.000000	0.386680
745.000000	0.387096
746.000000	0.387577
747.000000	0.388112
748.000000	0.388545
749.000000	0.388957
750.000000	0.389373
751.000000	0.389770
752.000000	0.390098
753.000000	0.390403
754.000000	0.390781
755.000000	0.391144
756.000000	0.391444
757.000000	0.391605
758.000000	0.391758
759.000000	0.391953
760.000000	0.392115
761.000000	0.392296
762.000000	0.392443
763.000000	0.392547
764.000000	0.392718
765.000000	0.392827
766.000000	0.392807
767.000000	0.392667
768.000000	0.392729
769.000000	0.392730
770.000000	0.392585
771.000000	0.392459
772.000000	0.392410
773.000000	0.392366
774.000000	0.392354
775.000000	0.392233
776.000000	0.392063
777.000000	0.391874
778.000000	0.391603
779.000000	0.391337
780.000000	0.391092
781.000000	0.390794
782.000000	0.390537
783.000000	0.390344
784.000000	0.390002
785.000000	0.389661
786.000000	0.389305
787.000000	0.388929
788.000000	0.388597
789.000000	0.388204
790.000000	0.387754
791.000000	0.387368
792.000000	0.387071
793.000000	0.386699
794.000000	0.386170
795.000000	0.385753
796.000000	0.385321
797.000000	0.384837
798.000000	0.384372
799.000000	0.383970
800.000000	0.383547
801.000000	0.383015
802.000000	0.382509
803.000000	0.381977
804.000000	0.381425
805.000000	0.380812
806.000000	0.380066
807.000000	0.379402
808.000000	0.378965
809.000000	0.378472
810.000000	0.377933
811.000000	0.377381
812.000000	0.376826
813.000000	0.376317
814.000000	0.375838
815.000000	0.375341
816.000000	0.374665
817.000000	0.373980
818.000000	0.373395
819.000000	0.372924
820.000000	0.372466
821.000000	0.371917
822.000000	0.371364
823.000000	0.370735
824.000000	0.370027
825.000000	0.369411
826.000000	0.368848
827.000000	0.368272
828.000000	0.367698
829.000000	0.367147
830.000000	0.366574
831.000000	0.366006
832.000000	0.365313
833.000000	0.364597
834.000000	0.363949
835.000000	0.363423
836.000000	0.362819
837.000000	0.362227
838.000000	0.361679
839.000000	0.361105
840.000000	0.360536
841.000000	0.359981
842.000000	0.359395
843.000000	0.358783
844.000000	0.358221
845.000000	0.357669
846.000000	0.357052
847.000000	0.356585
848.000000	0.356127
849.000000	0.355544
850.000000	0.354991
851.000000	0.354457
852.000000	0.353971
853.000000	0.353496
854.000000	0.352941
855.000000	0.352502
856.000000	0.352177
857.000000	0.351667
858.000000	0.351224
859.000000	0.350861
860.000000	0.350425
861.000000	0.349959
862.000000	0.349546
863.000000	0.349162
864.000000	0.348597
865.000000	0.347997
866.000000	0.347476
867.000000	0.346952
868.000000	0.346538
869.000000	0.346115
870.000000	0.345634
871.000000	0.345265
872.000000	0.344875
873.000000	0.344349
874.000000	0.343890
875.000000	0.343542
876.000000	0.343216
877.000000	0.342711
878.000000	0.342254
879.000000	0.341925
880.000000	0.341587
881.000000	0.341289
882.000000	0.341007
883.000000	0.340714
884.000000	0.340321
885.000000	0.339909
886.000000	0.339566
887.000000	0.339365
888.000000	0.339286
889.000000	0.339075
890.000000	0.338687
891.000000	0.338409
892.000000	0.338095
893.000000	0.337806
894.000000	0.337644
895.000000	0.337312
896.000000	0.337001
897.000000	0.336774
898.000000	0.336635
899.000000	0.336520
900.000000	0.336257
901.000000	0.335894
902.000000	0.335927
903.000000	0.335897
904.000000	0.335796
905.000000	0.335608
906.000000	0.335353
907.000000	0.335182
908.000000	0.335118
909.000000	0.334849
910.000000	0.334626
911.000000	0.334424
912.000000	0.334221
913.000000	0.334146
914.000000	0.333986
915.000000	0.333845
916.000000	0.333874
917.000000	0.333788
918.000000	0.333699
919.000000	0.333659
920.000000	0.333471
921.000000	0.333395
922.000000	0.333353
923.000000	0.333106
924.000000	0.333023
925.000000	0.332962
926.000000	0.332878
927.000000	0.332860
928.000000	0.332709
929.000000	0.332575
930.000000	0.332667
931.000000	0.332813
932.000000	0.332874
933.000000	0.332843
934.000000	0.332744
935.000000	0.332780
936.000000	0.332856
937.000000	0.332777
938.000000	0.332791
939.000000	0.332804
940.000000	0.332829
941.000000	0.333063
942.000000	0.332963
943.000000	0.332867
944.000000	0.332868
945.000000	0.332891
946.000000	0.332836
947.000000	0.332796
948.000000	0.332828
949.000000	0.332913
950.000000	0.332927
951.000000	0.332865
952.000000	0.332964
953.000000	0.333088
954.000000	0.333194
955.000000	0.333191
956.000000	0.333120
957.000000	0.333196
958.000000	0.333379
959.000000	0.333636
960.000000	0.333832
961.000000	0.333939
962.000000	0.334061
963.000000	0.334488
964.000000	0.334594
965.000000	0.334653
966.000000	0.334799
967.000000	0.334668
968.000000	0.334766
969.000000	0.334915
970.000000	0.334844
971.000000	0.335134
972.000000	0.335448
973.000000	0.335537
974.000000	0.335573
975.000000	0.335884
976.000000	0.336105
977.000000	0.336004
978.000000	0.336211
979.000000	0.336705
980.000000	0.336863
981.000000	0.336578
982.000000	0.336958
983.000000	0.337397
984.000000	0.337628
985.000000	0.337729
986.000000	0.338033
987.000000	0.338412
988.000000	0.338619
989.000000	0.338837
990.000000	0.339110
991.000000	0.339355
992.000000	0.339604
993.000000	0.340401
994.000000	0.340821
995.000000	0.341015
996.000000	0.341464
997.000000	0.341984
998.000000	0.342509
999.000000	0.343032
1000.000000	0.343321
1001.000000	0.343331
1002.000000	0.342687
1003.000000	0.342843
1004.000000	0.343170
1005.000000	0.343893
1006.000000	0.344472
1007.000000	0.345239
1008.000000	0.346456
1009.000000	0.346670
1010.000000	0.346554
1011.000000	0.346803
1012.000000	0.347076
1013.000000	0.347481
1014.000000	0.348485
1015.000000	0.349041
1016.000000	0.348531
1017.000000	0.348174
1018.000000	0.347966
1019.000000	0.348302
1020.000000	0.349541
1021.000000	0.350041
1022.000000	0.350831
1023.000000	0.351730
1024.000000	0.352505
1025.000000	0.352708
1026.000000	0.353112
1027.000000	0.352771
1028.000000	0.352698
1029.000000	0.353472
1030.000000	0.354268
1031.000000	0.355460
1032.000000	0.356347
1033.000000	0.356508
1034.000000	0.356790
1035.000000	0.356717
1036.000000	0.357104
1037.000000	0.357608
1038.000000	0.358023
1039.000000	0.358591
1040.000000	0.359452
1041.000000	0.359964
1042.000000	0.360453
1043.000000	0.361984
1044.000000	0.363007
1045.000000	0.362960
1046.000000	0.363681
1047.000000	0.364312
1048.000000	0.364117
1049.000000	0.364540
1050.000000	0.366012
1051.000000	0.366444
1052.000000	0.365945
1053.000000	0.366314
1054.000000	0.366915
1055.000000	0.367710
1056.000000	0.369129
1057.000000	0.370366
1058.000000	0.371136
1059.000000	0.371955
1060.000000	0.372612
1061.000000	0.373143
1062.000000	0.373511
1063.000000	0.374048
1064.000000	0.374726
1065.000000	0.375299
1066.000000	0.376213
1067.000000	0.377714
1068.000000	0.378395
1069.000000	0.378682
1070.000000	0.379170
1071.000000	0.379292
1072.000000	0.379778
1073.000000	0.380636
1074.000000	0.381574
1075.000000	0.382461
1076.000000	0.383137
1077.000000	0.384124
1078.000000	0.385067
1079.000000	0.385803
1080.000000	0.386470
1081.000000	0.387272
1082.000000	0.388096
1083.000000	0.388824
1084.000000	0.389817
1085.000000	0.390506
1086.000000	0.390674
1087.000000	0.391259
1088.000000	0.391922
1089.000000	0.392478
1090.000000	0.392906
1091.000000	0.393661
1092.000000	0.394431
1093.000000	0.395317
1094.000000	0.396336
1095.000000	0.397669
1096.000000	0.398711
1097.000000	0.399682
1098.000000	0.400657
1099.000000	0.401625
1100.000000	0.402369
1101.000000	0.402787
1102.000000	0.403443
1103.000000	0.403863
1104.000000	0.404604
1105.000000	0.405674
1106.000000	0.406701
1107.000000	0.407893
1108.000000	0.408809
1109.000000	0.409743
1110.000000	0.410480
1111.000000	0.411333
1112.000000	0.412106
1113.000000	0.412830
1114.000000	0.413575
1115.000000	0.414355
1116.000000	0.415048
1117.000000	0.415733
1118.000000	0.416418
1119.000000	0.417171
1120.000000	0.417958
1121.000000	0.418616
1122.000000	0.419270
1123.000000	0.420375
1124.000000	0.421274
1125.000000	0.422233
1126.000000	0.423728
1127.000000	0.424638
1128.000000	0.425251
1129.000000	0.425381
1130.000000	0.426101
1131.000000	0.426693
1132.000000	0.427530
1133.000000	0.428983
1134.000000	0.429949
1135.000000	0.430816
1136.000000	0.431356
1137.000000	0.431411
1138.000000	0.431843
1139.000000	0.432264
1140.000000	0.432903
1141.000000	0.433815
1142.000000	0.434670
1143.000000	0.435502
1144.000000	0.436369
1145.000000	0.436905
1146.000000	0.437652
1147.000000	0.438338
1148.000000	0.438874
1149.000000	0.439363
1150.000000	0.439866
1151.000000	0.440440
1152.000000	0.440782
1153.000000	0.441380
1154.000000	0.442186
1155.000000	0.442853
1156.000000	0.443490
1157.000000	0.444156
1158.000000	0.444794
1159.000000	0.445415
1160.000000	0.445928
1161.000000	0.446582
1162.000000	0.447499
1163.000000	0.448341
1164.000000	0.448885
1165.000000	0.449605
1166.000000	0.450262
1167.000000	0.450610
1168.000000	0.451214
1169.000000	0.452023
1170.000000	0.452836
1171.000000	0.453885
1172.000000	0.454649
1173.000000	0.455305
1174.000000	0.455956
1175.000000	0.456263
1176.000000	0.456763
1177.000000	0.457616
1178.000000	0.458253
1179.000000	0.458865
1180.000000	0.459330
1181.000000	0.459734
1182.000000	0.460068
1183.000000	0.460667
1184.000000	0.461439
1185.000000	0.462055
1186.000000	0.462798
1187.000000	0.463354
1188.000000	0.463637
1189.000000	0.464158
1190.000000	0.464893
1191.000000	0.465513
1192.000000	0.466353
1193.000000	0.467123
1194.000000	0.467626
1195.000000	0.468198
1196.000000	0.468647
1197.000000	0.469136
1198.000000	0.469695
1199.000000	0.470209
1200.000000	0.470656
1201.000000	0.471209
1202.000000	0.471704
1203.000000	0.472098
1204.000000	0.472501
1205.000000	0.472995
1206.000000	0.473375
1207.000000	0.473903
1208.000000	0.474234
1209.000000	0.474491
1210.000000	0.474853
1211.000000	0.475141
1212.000000	0.475518
1213.000000	0.476118
1214.000000	0.476622
1215.000000	0.477088
1216.000000	0.477543
1217.000000	0.477918
1218.000000	0.478258
1219.000000	0.478539
1220.000000	0.479024
1221.000000	0.479480
1222.000000	0.479887
1223.000000	0.480403
1224.000000	0.480821
1225.000000	0.481119
1226.000000	0.481482
1227.000000	0.481712
1228.000000	0.481921
1229.000000	0.482158
1230.000000	0.482366
1231.000000	0.482561
1232.000000	0.482943
1233.000000	0.483430
1234.000000	0.483997
1235.000000	0.484322
1236.000000	0.484420
1237.000000	0.484752
1238.000000	0.484977
1239.000000	0.485191
1240.000000	0.485616
1241.000000	0.485824
1242.000000	0.485802
1243.000000	0.486075
1244.000000	0.486378
1245.000000	0.486768
1246.000000	0.487235
1247.000000	0.487530
1248.000000	0.487876
1249.000000	0.488459
1250.000000	0.488881
1251.000000	0.489207
1252.000000	0.489537
1253.000000	0.489810
1254.000000	0.490118
1255.000000	0.490543
1256.000000	0.490746
1257.000000	0.490799
1258.000000	0.491009
1259.000000	0.491018
1260.000000	0.491247
1261.000000	0.491616
1262.000000	0.491897
1263.000000	0.492242
1264.000000	0.492475
1265.000000	0.492654
1266.000000	0.492774
1267.000000	0.492891
1268.000000	0.492933
1269.000000	0.492928
1270.000000	0.493190
1271.000000	0.493272
1272.000000	0.493293
1273.000000	0.493553
1274.000000	0.493725
1275.000000	0.493863
1276.000000	0.494153
1277.000000	0.494340
1278.000000	0.494232
1279.000000	0.494221
1280.000000	0.494077
1281.000000	0.494048
1282.000000	0.494150
1283.000000	0.494326
1284.000000	0.494512
1285.000000	0.494622
1286.000000	0.494630
1287.000000	0.494802
1288.000000	0.494903
1289.000000	0.494965
1290.000000	0.495170
1291.000000	0.495243
1292.000000	0.495293
1293.000000	0.495418
1294.000000	0.495325
1295.000000	0.495325
1296.000000	0.495466
1297.000000	0.495573
1298.000000	0.495877
1299.000000	0.496131
1300.000000	0.496169
1301.000000	0.496205
1302.000000	0.496122
1303.000000	0.495979
1304.000000	0.495892
1305.000000	0.495991
1306.000000	0.495978
1307.000000	0.496046
1308.000000	0.496110
1309.000000	0.496183
1310.000000	0.496147
1311.000000	0.496121
1312.000000	0.495942
1313.000000	0.495689
1314.000000	0.495413
1315.000000	0.495154
1316.000000	0.495077
1317.000000	0.495239
1318.000000	0.495315
1319.000000	0.495227
1320.000000	0.495220
1321.000000	0.494987
1322.000000	0.494693
1323.000000	0.494694
1324.000000	0.494732
1325.000000	0.494614
1326.000000	0.494482
1327.000000	0.494394
1328.000000	0.494314
1329.000000	0.494094
1330.000000	0.493902
1331.000000	0.493795
1332.000000	0.493644
1333.000000	0.493476
1334.000000	0.493496
1335.000000	0.493466
1336.000000	0.493357
1337.000000	0.493294
1338.000000	0.493224
1339.000000	0.493121
1340.000000	0.492964
1341.000000	0.492786
1342.000000	0.492718
1343.000000	0.492602
1344.000000	0.492373
1345.000000	0.492118
1346.000000	0.491968
1347.000000	0.491803
1348.000000	0.491584
1349.000000	0.491142
1350.000000	0.490972
1351.000000	0.490684
1352.000000	0.490266
1353.000000	0.490144
1354.000000	0.489786
1355.000000	0.489266
1356.000000	0.489222
1357.000000	0.489190
1358.000000	0.489051
1359.000000	0.488903
1360.000000	0.488803
1361.000000	0.488715
1362.000000	0.488578
1363.000000	0.488562
1364.000000	0.488388
1365.000000	0.487951
1366.000000	0.487638
1367.000000	0.487343
1368.000000	0.486919
1369.000000	0.486739
1370.000000	0.486320
1371.000000	0.485585
1372.000000	0.484873
1373.000000	0.483987
1374.000000	0.482991
1375.000000	0.482198
1376.000000	0.481481
1377.000000	0.480644
1378.000000	0.479623
1379.000000	0.478265
1380.000000	0.476966
1381.000000	0.475479
1382.000000	0.473781
1383.000000	0.472217
1384.000000	0.470171
1385.000000	0.467878
1386.000000	0.465917
1387.000000	0.463874
1388.000000	0.461530
1389.000000	0.459141
1390.000000	0.456764
1391.000000	0.454152
1392.000000	0.451514
1393.000000	0.448869
1394.000000	0.446281
1395.000000	0.443648
1396.000000	0.440944
1397.000000	0.438231
1398.000000	0.435490
1399.000000	0.432765
1400.000000	0.430029
1401.000000	0.427302
1402.000000	0.424713
1403.000000	0.421844
1404.000000	0.419076
1405.000000	0.416308
1406.000000	0.413538
1407.000000	0.411125
1408.000000	0.408811
1409.000000	0.406496
1410.000000	0.404387
1411.000000	0.402341
1412.000000	0.400390
1413.000000	0.398855
1414.000000	0.397663
1415.000000	0.396819
1416.000000	0.396287
1417.000000	0.396068
1418.000000	0.396040
1419.000000	0.396055
1420.000000	0.396140
1421.000000	0.396291
1422.000000	0.396281
1423.000000	0.396382
1424.000000	0.396208
1425.000000	0.395895
1426.000000	0.395452
1427.000000	0.394801
1428.000000	0.394218
1429.000000	0.393574
1430.000000	0.393056
1431.000000	0.392667
1432.000000	0.392456
1433.000000	0.392303
1434.000000	0.392682
1435.000000	0.393402
1436.000000	0.394562
1437.000000	0.396129
1438.000000	0.398005
1439.000000	0.400339
1440.000000	0.402899
1441.000000	0.406018
1442.000000	0.409106
1443.000000	0.412289
1444.000000	0.415600
1445.000000	0.418839
1446.000000	0.421693
1447.000000	0.424445
1448.000000	0.426840
1449.000000	0.428866
1450.000000	0.430712
1451.000000	0.432266
1452.000000	0.433560
1453.000000	0.434638
1454.000000	0.435465
1455.000000	0.436125
1456.000000	0.436684
1457.000000	0.437195
1458.000000	0.437631
1459.000000	0.437984
1460.000000	0.438333
1461.000000	0.438634
1462.000000	0.438941
1463.000000	0.439231
1464.000000	0.439616
1465.000000	0.440233
1466.000000	0.440843
1467.000000	0.441589
1468.000000	0.442506
1469.000000	0.443291
1470.000000	0.443993
1471.000000	0.444789
1472.000000	0.445422
1473.000000	0.446220
1474.000000	0.446981
1475.000000	0.447743
1476.000000	0.448645
1477.000000	0.449426
1478.000000	0.450197
1479.000000	0.451002
1480.000000	0.451819
1481.000000	0.452578
1482.000000	0.453338
1483.000000	0.454233
1484.000000	0.455207
1485.000000	0.456055
1486.000000	0.456944
1487.000000	0.457810
1488.000000	0.458568
1489.000000	0.459401
1490.000000	0.460163
1491.000000	0.460933
1492.000000	0.461589
1493.000000	0.462306
1494.000000	0.463014
1495.000000	0.463685
1496.000000	0.464369
1497.000000	0.464974
1498.000000	0.465542
1499.000000	0.466060
1500.000000	0.466676
1501.000000	0.467332
1502.000000	0.467920
1503.000000	0.468617
1504.000000	0.469176
1505.000000	0.469549
1506.000000	0.470137
1507.000000	0.470646
1508.000000	0.471104
1509.000000	0.471726
1510.000000	0.472251
1511.000000	0.472791
1512.000000	0.473250
1513.000000	0.473635
1514.000000	0.474206
1515.000000	0.474626
1516.000000	0.475091
1517.000000	0.475660
1518.000000	0.476071
1519.000000	0.476398
1520.000000	0.476749
1521.000000	0.477094
1522.000000	0.477515
1523.000000	0.477894
1524.000000	0.478217
1525.000000	0.478609
1526.000000	0.478992
1527.000000	0.479482
1528.000000	0.480051
1529.000000	0.480370
1530.000000	0.480467
1531.000000	0.480808
1532.000000	0.481173
1533.000000	0.481503
1534.000000	0.482019
1535.000000	0.482460
1536.000000	0.482688
1537.000000	0.483046
1538.000000	0.483389
1539.000000	0.483493
1540.000000	0.483698
1541.000000	0.484035
1542.000000	0.484227
1543.000000	0.484477
1544.000000	0.484723
1545.000000	0.484883
1546.000000	0.485203
1547.000000	0.485508
1548.000000	0.485661
1549.000000	0.485849
1550.000000	0.486033
1551.000000	0.486259
1552.000000	0.486696
1553.000000	0.487165
1554.000000	0.487527
1555.000000	0.487787
1556.000000	0.487965
1557.000000	0.488066
1558.000000	0.488286
1559.000000	0.488507
1560.000000	0.488697
1561.000000	0.488961
1562.000000	0.489227
1563.000000	0.489516
1564.000000	0.489763
1565.000000	0.490090
1566.000000	0.490148
1567.000000	0.490147
1568.000000	0.490303
1569.000000	0.490567
1570.000000	0.490733
1571.000000	0.490880
1572.000000	0.491029
1573.000000	0.491159
1574.000000	0.491276
1575.000000	0.491432
1576.000000	0.491689
1577.000000	0.491898
1578.000000	0.492044
1579.000000	0.492396
1580.000000	0.492624
1581.000000	0.492813
1582.000000	0.493049
1583.000000	0.493370
1584.000000	0.493454
1585.000000	0.493454
1586.000000	0.493550
1587.000000	0.493565
1588.000000	0.493689
1589.000000	0.494065
1590.000000	0.494260
1591.000000	0.494392
1592.000000	0.494476
1593.000000	0.494474
1594.000000	0.494477
1595.000000	0.494586
1596.000000	0.494640
1597.000000	0.494677
1598.000000	0.494738
1599.000000	0.494777
1600.000000	0.494843
1601.000000	0.495098
1602.000000	0.495235
1603.000000	0.495495
1604.000000	0.495558
1605.000000	0.495510
1606.000000	0.495458
1607.000000	0.495281
1608.000000	0.495250
1609.000000	0.495456
1610.000000	0.495449
1611.000000	0.495440
1612.000000	0.495401
1613.000000	0.495344
1614.000000	0.495295
1615.000000	0.495403
1616.000000	0.495525
1617.000000	0.495525
1618.000000	0.495563
1619.000000	0.495606
1620.000000	0.495689
1621.000000	0.495912
1622.000000	0.496095
1623.000000	0.496200
1624.000000	0.496342
1625.000000	0.496186
1626.000000	0.496181
1627.000000	0.496403
1628.000000	0.496503
1629.000000	0.496493
1630.000000	0.496646
1631.000000	0.496750
1632.000000	0.496794
1633.000000	0.496976
1634.000000	0.496999
1635.000000	0.496913
1636.000000	0.496883
1637.000000	0.496870
1638.000000	0.496808
1639.000000	0.496795
1640.000000	0.496727
1641.000000	0.496798
1642.000000	0.496727
1643.000000	0.496575
1644.000000	0.496473
1645.000000	0.496260
1646.000000	0.496123
1647.000000	0.496174
1648.000000	0.496069
1649.000000	0.496025
1650.000000	0.496036
1651.000000	0.496033
1652.000000	0.496195
1653.000000	0.496434
1654.000000	0.496652
1655.000000	0.496907
1656.000000	0.496889
1657.000000	0.496840
1658.000000	0.496805
1659.000000	0.496778
1660.000000	0.496892
1661.000000	0.497017
1662.000000	0.497037
1663.000000	0.496936
1664.000000	0.496972
1665.000000	0.497015
1666.000000	0.497161
1667.000000	0.497341
1668.000000	0.497397
1669.000000	0.497351
1670.000000	0.497292
1671.000000	0.497372
1672.000000	0.497413
1673.000000	0.497340
1674.000000	0.497302
1675.000000	0.497441
1676.000000	0.497636
1677.000000	0.497739
1678.000000	0.497745
1679.000000	0.497760
1680.000000	0.497575
1681.000000	0.497544
1682.000000	0.497485
1683.000000	0.497250
1684.000000	0.497210
1685.000000	0.497090
1686.000000	0.496962
1687.000000	0.497068
1688.000000	0.496984
1689.000000	0.496936
1690.000000	0.496928
1691.000000	0.496861
1692.000000	0.496632
1693.000000	0.496507
1694.000000	0.496578
1695.000000	0.496658
1696.000000	0.496753
1697.000000	0.496748
1698.000000	0.496614
1699.000000	0.496555
1700.000000	0.496565
1701.000000	0.496674
1702.000000	0.496503
1703.000000	0.496379
1704.000000	0.496546
1705.000000	0.496529
1706.000000	0.496449
1707.000000	0.496413
1708.000000	0.496334
1709.000000	0.496076
1710.000000	0.495821
1711.000000	0.495715
1712.000000	0.495592
1713.000000	0.495482
1714.000000	0.495656
1715.000000	0.495640
1716.000000	0.495568
1717.000000	0.495361
1718.000000	0.494904
1719.000000	0.494625
1720.000000	0.494383
1721.000000	0.494171
1722.000000	0.494199
1723.000000	0.493970
1724.000000	0.493499
1725.000000	0.493362
1726.000000	0.493148
1727.000000	0.493048
1728.000000	0.493175
1729.000000	0.492969
1730.000000	0.492765
1731.000000	0.492647
1732.000000	0.492511
1733.000000	0.492471
1734.000000	0.492279
1735.000000	0.492251
1736.000000	0.492272
1737.000000	0.492175
1738.000000	0.492179
1739.000000	0.492077
1740.000000	0.491788
1741.000000	0.491561
1742.000000	0.491356
1743.000000	0.491319
1744.000000	0.491274
1745.000000	0.491213
1746.000000	0.491312
1747.000000	0.491004
1748.000000	0.490772
1749.000000	0.490653
1750.000000	0.490372
1751.000000	0.490258
1752.000000	0.490220
1753.000000	0.489883
1754.000000	0.489580
1755.000000	0.489207
1756.000000	0.488903
1757.000000	0.488526
1758.000000	0.488328
1759.000000	0.488267
1760.000000	0.488235
1761.000000	0.488364
1762.000000	0.488272
1763.000000	0.488219
1764.000000	0.487975
1765.000000	0.487254
1766.000000	0.486975
1767.000000	0.486714
1768.000000	0.486440
1769.000000	0.486635
1770.000000	0.486550
1771.000000	0.486140
1772.000000	0.485930
1773.000000	0.485659
1774.000000	0.485454
1775.000000	0.485448
1776.000000	0.485349
1777.000000	0.485158
1778.000000	0.485016
1779.000000	0.484891
1780.000000	0.484722
1781.000000	0.484507
1782.000000	0.484245
1783.000000	0.483955
1784.000000	0.483825
1785.000000	0.483590
1786.000000	0.483665
1787.000000	0.483945
1788.000000	0.483945
1789.000000	0.483884
1790.000000	0.483748
1791.000000	0.483554
1792.000000	0.483547
1793.000000	0.483535
1794.000000	0.483454
1795.000000	0.483488
1796.000000	0.483679
1797.000000	0.483741
1798.000000	0.483701
1799.000000	0.483702
1800.000000	0.483760
1801.000000	0.483264
1802.000000	0.483962
1803.000000	0.483937
1804.000000	0.484550
1805.000000	0.485735
1806.000000	0.485806
1807.000000	0.485272
1808.000000	0.485129
1809.000000	0.484607
1810.000000	0.483624
1811.000000	0.483325
1812.000000	0.483859
1813.000000	0.484012
1814.000000	0.483802
1815.000000	0.484119
1816.000000	0.485174
1817.000000	0.485223
1818.000000	0.484900
1819.000000	0.485443
1820.000000	0.484585
1821.000000	0.483352
1822.000000	0.482761
1823.000000	0.481833
1824.000000	0.481497
1825.000000	0.481906
1826.000000	0.481835
1827.000000	0.481138
1828.000000	0.481634
1829.000000	0.480977
1830.000000	0.481450
1831.000000	0.481704
1832.000000	0.481973
1833.000000	0.482310
1834.000000	0.483440
1835.000000	0.483319
1836.000000	0.482250
1837.000000	0.481969
1838.000000	0.481245
1839.000000	0.480383
1840.000000	0.480099
1841.000000	0.480280
1842.000000	0.480035
1843.000000	0.479231
1844.000000	0.478628
1845.000000	0.477948
1846.000000	0.477619
1847.000000	0.476908
1848.000000	0.476717
1849.000000	0.477325
1850.000000	0.477278
1851.000000	0.476723
1852.000000	0.475253
1853.000000	0.475043
1854.000000	0.474603
1855.000000	0.474339
1856.000000	0.474984
1857.000000	0.475161
1858.000000	0.474168
1859.000000	0.472286
1860.000000	0.469722
1861.000000	0.468304
1862.000000	0.466950
1863.000000	0.466025
1864.000000	0.465013
1865.000000	0.464716
1866.000000	0.463329
1867.000000	0.461544
1868.000000	0.459488
1869.000000	0.456423
1870.000000	0.453353
1871.000000	0.450615
1872.000000	0.447611
1873.000000	0.444955
1874.000000	0.443196
1875.000000	0.440204
1876.000000	0.436301
1877.000000	0.432485
1878.000000	0.428332
1879.000000	0.423720
1880.000000	0.419318
1881.000000	0.414200
1882.000000	0.408233
1883.000000	0.402383
1884.000000	0.396703
1885.000000	0.390859
1886.000000	0.384738
1887.000000	0.378847
1888.000000	0.372011
1889.000000	0.364375
1890.000000	0.357029
1891.000000	0.349656
1892.000000	0.342118
1893.000000	0.335143
1894.000000	0.328588
1895.000000	0.321472
1896.000000	0.314287
1897.000000	0.307267
1898.000000	0.299845
1899.000000	0.292670
1900.000000	0.286912
1901.000000	0.281697
1902.000000	0.276860
1903.000000	0.273415
1904.000000	0.270447
1905.000000	0.267002
1906.000000	0.264299
1907.000000	0.262398
1908.000000	0.260602
1909.000000	0.259040
1910.000000	0.258827
1911.000000	0.259234
1912.000000	0.260089
1913.000000	0.261234
1914.000000	0.262755
1915.000000	0.264272
1916.000000	0.265653
1917.000000	0.267065
1918.000000	0.268533
1919.000000	0.270133
1920.000000	0.271955
1921.000000	0.273855
1922.000000	0.276172
1923.000000	0.278518
1924.000000	0.280126
1925.000000	0.281742
1926.000000	0.283546
1927.000000	0.284885
1928.000000	0.286332
1929.000000	0.287923
1930.000000	0.289995
1931.000000	0.291640
1932.000000	0.293228
1933.000000	0.294918
1934.000000	0.296219
1935.000000	0.297201
1936.000000	0.298284
1937.000000	0.299579
1938.000000	0.300466
1939.000000	0.301524
1940.000000	0.302720
1941.000000	0.303776
1942.000000	0.304578
1943.000000	0.305818
1944.000000	0.306582
1945.000000	0.307586
1946.000000	0.308938
1947.000000	0.310128
1948.000000	0.311364
1949.000000	0.312209
1950.000000	0.312967
1951.000000	0.313434
1952.000000	0.313480
1953.000000	0.313734
1954.000000	0.314667
1955.000000	0.314859
1956.000000	0.315601
1957.000000	0.316915
1958.000000	0.317640
1959.000000	0.319195
1960.000000	0.320883
1961.000000	0.321793
1962.000000	0.322605
1963.000000	0.323224
1964.000000	0.323746
1965.000000	0.324298
1966.000000	0.325183
1967.000000	0.326485
1968.000000	0.327774
1969.000000	0.328956
1970.000000	0.329996
1971.000000	0.330497
1972.000000	0.331464
1973.000000	0.332440
1974.000000	0.333497
1975.000000	0.334709
1976.000000	0.336445
1977.000000	0.337609
1978.000000	0.338688
1979.000000	0.340444
1980.000000	0.341757
1981.000000	0.343193
1982.000000	0.344590
1983.000000	0.345768
1984.000000	0.346726
1985.000000	0.347448
1986.000000	0.348419
1987.000000	0.349495
1988.000000	0.350086
1989.000000	0.351694
1990.000000	0.353407
1991.000000	0.354446
1992.000000	0.355582
1993.000000	0.356773
1994.000000	0.357900
1995.000000	0.358659
1996.000000	0.360329
1997.000000	0.361581
1998.000000	0.362238
1999.000000	0.363581
2000.000000	0.365589
2001.000000	0.366745
2002.000000	0.368501
2003.000000	0.370234
2004.000000	0.371346
2005.000000	0.372412
2006.000000	0.373220
2007.000000	0.374103
2008.000000	0.374900
2009.000000	0.375354
2010.000000	0.376336
2011.000000	0.377104
2012.000000	0.378356
2013.000000	0.380005
2014.000000	0.381859
2015.000000	0.383644
2016.000000	0.384581
2017.000000	0.384651
2018.000000	0.385364
2019.000000	0.385920
2020.000000	0.386485
2021.000000	0.387326
2022.000000	0.388243
2023.000000	0.389266
2024.000000	0.390890
2025.000000	0.391967
2026.000000	0.392725
2027.000000	0.393569
2028.000000	0.394302
2029.000000	0.394912
2030.000000	0.395896
2031.000000	0.397157
2032.000000	0.398006
2033.000000	0.398851
2034.000000	0.399204
2035.000000	0.399060
2036.000000	0.399150
2037.000000	0.399184
2038.000000	0.399492
2039.000000	0.399877
2040.000000	0.401008
2041.000000	0.402338
2042.000000	0.403298
2043.000000	0.405147
2044.000000	0.406764
2045.000000	0.408050
2046.000000	0.409288
2047.000000	0.410047
2048.000000	0.410124
2049.000000	0.410854
2050.000000	0.410895
2051.000000	0.411195
2052.000000	0.411715
2053.000000	0.412024
2054.000000	0.412398
2055.000000	0.413307
2056.000000	0.414126
2057.000000	0.414565
2058.000000	0.414545
2059.000000	0.414167
2060.000000	0.414351
2061.000000	0.414444
2062.000000	0.414936
2063.000000	0.416473
2064.000000	0.416943
2065.000000	0.417266
2066.000000	0.417463
2067.000000	0.417498
2068.000000	0.417833
2069.000000	0.418609
2070.000000	0.418857
2071.000000	0.419108
2072.000000	0.419205
2073.000000	0.418580
2074.000000	0.419037
2075.000000	0.419580
2076.000000	0.420433
2077.000000	0.421211
2078.000000	0.422634
2079.000000	0.423067
2080.000000	0.422802
2081.000000	0.423097
2082.000000	0.423262
2083.000000	0.423717
2084.000000	0.423806
2085.000000	0.424154
2086.000000	0.423667
2087.000000	0.423097
2088.000000	0.423851
2089.000000	0.424508
2090.000000	0.425308
2091.000000	0.426956
2092.000000	0.427677
2093.000000	0.428037
2094.000000	0.428402
2095.000000	0.428624
2096.000000	0.428765
2097.000000	0.428712
2098.000000	0.428306
2099.000000	0.427890
2100.000000	0.428062
2101.000000	0.428275
2102.000000	0.428445
2103.000000	0.429167
2104.000000	0.429025
2105.000000	0.429196
2106.000000	0.429497
2107.000000	0.429768
2108.000000	0.429750
2109.000000	0.430280
2110.000000	0.430942
2111.000000	0.431420
2112.000000	0.432052
2113.000000	0.432336
2114.000000	0.432105
2115.000000	0.432342
2116.000000	0.432561
2117.000000	0.431767
2118.000000	0.431580
2119.000000	0.431526
2120.000000	0.431450
2121.000000	0.431609
2122.000000	0.431722
2123.000000	0.431660
2124.000000	0.431932
2125.000000	0.432603
2126.000000	0.432720
2127.000000	0.432720
2128.000000	0.432745
2129.000000	0.432078
2130.000000	0.432254
2131.000000	0.431729
2132.000000	0.431985
2133.000000	0.432025
2134.000000	0.431794
2135.000000	0.432387
2136.000000	0.431678
2137.000000	0.431524
2138.000000	0.431438
2139.000000	0.431286
2140.000000	0.431183
2141.000000	0.431198
2142.000000	0.431226
2143.000000	0.430825
2144.000000	0.430363
2145.000000	0.430422
2146.000000	0.430726
2147.000000	0.431247
2148.000000	0.431993
2149.000000	0.432261
2150.000000	0.431545
2151.000000	0.430254
2152.000000	0.429661
2153.000000	0.429122
2154.000000	0.428350
2155.000000	0.428018
2156.000000	0.427330
2157.000000	0.426089
2158.000000	0.425123
2159.000000	0.424050
2160.000000	0.423699
2161.000000	0.423808
2162.000000	0.423730
2163.000000	0.424407
2164.000000	0.424399
2165.000000	0.423617
2166.000000	0.422771
2167.000000	0.422907
2168.000000	0.422677
2169.000000	0.423491
2170.000000	0.424028
2171.000000	0.423852
2172.000000	0.423179
2173.000000	0.422584
2174.000000	0.421029
2175.000000	0.420830
2176.000000	0.421503
2177.000000	0.421679
2178.000000	0.422571
2179.000000	0.422758
2180.000000	0.422028
2181.000000	0.422219
2182.000000	0.421826
2183.000000	0.421635
2184.000000	0.422157
2185.000000	0.421328
2186.000000	0.419568
2187.000000	0.418825
2188.000000	0.417263
2189.000000	0.415775
2190.000000	0.416095
2191.000000	0.415256
2192.000000	0.414052
2193.000000	0.412700
2194.000000	0.411705
2195.000000	0.409575
2196.000000	0.408748
2197.000000	0.409504
2198.000000	0.408849
2199.000000	0.408107
2200.000000	0.407486
2201.000000	0.406806
2202.000000	0.405438
2203.000000	0.404015
2204.000000	0.400626
2205.000000	0.396742
2206.000000	0.393727
2207.000000	0.392323
2208.000000	0.392803
2209.000000	0.394069
2210.000000	0.398107
2211.000000	0.399891
2212.000000	0.402651
2213.000000	0.404040
2214.000000	0.402701
2215.000000	0.403789
2216.000000	0.406331
2217.000000	0.407789
2218.000000	0.411258
2219.000000	0.412922
2220.000000	0.411292
2221.000000	0.411861
2222.000000	0.413402
2223.000000	0.413834
2224.000000	0.415357
2225.000000	0.415371
2226.000000	0.412599
2227.000000	0.411467
2228.000000	0.409593
2229.000000	0.407219
2230.000000	0.404309
2231.000000	0.402252
2232.000000	0.399508
2233.000000	0.398667
2234.000000	0.401851
2235.000000	0.401797
2236.000000	0.402155
2237.000000	0.403638
2238.000000	0.403010
2239.000000	0.400136
2240.000000	0.399451
2241.000000	0.397716
2242.000000	0.398627
2243.000000	0.401538
2244.000000	0.403426
2245.000000	0.408340
2246.000000	0.409552
2247.000000	0.407670
2248.000000	0.407786
2249.000000	0.408205
2250.000000	0.406529
2251.000000	0.404371
2252.000000	0.402492
2253.000000	0.398548
2254.000000	0.393961
2255.000000	0.394271
2256.000000	0.395794
2257.000000	0.397033
2258.000000	0.398570
2259.000000	0.395475
2260.000000	0.391000
2261.000000	0.388342
2262.000000	0.384999
2263.000000	0.382852
2264.000000	0.383083
2265.000000	0.381752
2266.000000	0.380322
2267.000000	0.377014
2268.000000	0.372164
2269.000000	0.368276
2270.000000	0.363909
2271.000000	0.359065
2272.000000	0.354695
2273.000000	0.349917
2274.000000	0.343067
2275.000000	0.338144
2276.000000	0.334369
2277.000000	0.330319
2278.000000	0.328255
2279.000000	0.326518
2280.000000	0.323377
2281.000000	0.320255
2282.000000	0.315988
2283.000000	0.311681
2284.000000	0.310957
2285.000000	0.311683
2286.000000	0.312391
2287.000000	0.314248
2288.000000	0.315782
2289.000000	0.317182
2290.000000	0.317535
2291.000000	0.317509
2292.000000	0.317779
2293.000000	0.317627
2294.000000	0.319457
2295.000000	0.324079
2296.000000	0.326940
2297.000000	0.329435
2298.000000	0.332474
2299.000000	0.334742
2300.000000	0.338311
2301.000000	0.344392
2302.000000	0.348201
2303.000000	0.351194
2304.000000	0.353963
2305.000000	0.356383
2306.000000	0.357706
2307.000000	0.357696
2308.000000	0.358848
2309.000000	0.360728
2310.000000	0.359586
2311.000000	0.360937
2312.000000	0.362740
2313.000000	0.363361
2314.000000	0.365008
2315.000000	0.365804
2316.000000	0.367817
2317.000000	0.369598
2318.000000	0.370444
2319.000000	0.373126
2320.000000	0.373981
2321.000000	0.373555
2322.000000	0.372644
2323.000000	0.369994
2324.000000	0.367435
2325.000000	0.364267
2326.000000	0.361057
2327.000000	0.359710
2328.000000	0.360559
2329.000000	0.361823
2330.000000	0.362104
2331.000000	0.360568
2332.000000	0.356336
2333.000000	0.354531
2334.000000	0.357002
2335.000000	0.359018
2336.000000	0.363353
2337.000000	0.366434
2338.000000	0.369699
2339.000000	0.369958
2340.000000	0.369339
2341.000000	0.367835
2342.000000	0.362543
2343.000000	0.359829
2344.000000	0.358365
2345.000000	0.356334
2346.000000	0.354933
2347.000000	0.353226
2348.000000	0.351289
2349.000000	0.348463
2350.000000	0.347173
2351.000000	0.344276
2352.000000	0.340622
2353.000000	0.339726
2354.000000	0.337204
2355.000000	0.337263
2356.000000	0.340948
2357.000000	0.341814
2358.000000	0.341879
2359.000000	0.341556
2360.000000	0.339537
2361.000000	0.336927
2362.000000	0.332459
2363.000000	0.330109
2364.000000	0.327443
2365.000000	0.325490
2366.000000	0.327753
2367.000000	0.330412
2368.000000	0.331217
2369.000000	0.330124
2370.000000	0.327354
2371.000000	0.324387
2372.000000	0.325341
2373.000000	0.325841
2374.000000	0.325852
2375.000000	0.325936
2376.000000	0.321077
2377.000000	0.315274
2378.000000	0.314212
2379.000000	0.313139
2380.000000	0.311118
2381.000000	0.312265
2382.000000	0.309092
2383.000000	0.304681
2384.000000	0.303074
2385.000000	0.300505
2386.000000	0.299525
2387.000000	0.302094
2388.000000	0.302913
2389.000000	0.302147
2390.000000	0.306526
2391.000000	0.306871
2392.000000	0.302870
2393.000000	0.301638
2394.000000	0.293864
2395.000000	0.285737
2396.000000	0.287816
2397.000000	0.286766
2398.000000	0.289661
2399.000000	0.295547
2400.000000	0.290982
2401.000000	0.294123
2402.000000	0.295079
2403.000000	0.293382
2404.000000	0.293962
2405.000000	0.286073
2406.000000	0.285071
2407.000000	0.285933
2408.000000	0.281464
2409.000000	0.281915
2410.000000	0.277434
2411.000000	0.265925
2412.000000	0.264330
2413.000000	0.259277
2414.000000	0.255801
2415.000000	0.264775
2416.000000	0.268550
2417.000000	0.275816
2418.000000	0.282981
2419.000000	0.280781
2420.000000	0.277249
2421.000000	0.273808
2422.000000	0.273202
2423.000000	0.278387
2424.000000	0.286571
2425.000000	0.290755
2426.000000	0.290247
2427.000000	0.284401
2428.000000	0.272146
2429.000000	0.255986
2430.000000	0.248517
2431.000000	0.245714
2432.000000	0.240465
2433.000000	0.249342
2434.000000	0.253515
2435.000000	0.254907
2436.000000	0.266305
2437.000000	0.270240
2438.000000	0.274465
2439.000000	0.278377
2440.000000	0.273405
2441.000000	0.265816
2442.000000	0.258324
2443.000000	0.258098
2444.000000	0.268419
2445.000000	0.267876
2446.000000	0.274776
2447.000000	0.276776
2448.000000	0.256235
2449.000000	0.266961
2450.000000	0.274528
2451.000000	0.278469
2452.000000	0.302514
2453.000000	0.297692
2454.000000	0.285478
2455.000000	0.264493
2456.000000	0.236038
2457.000000	0.227705
2458.000000	0.227207
2459.000000	0.227952
2460.000000	0.240820
2461.000000	0.247947
2462.000000	0.243233
2463.000000	0.238898
2464.000000	0.226622
2465.000000	0.226859
2466.000000	0.234848
2467.000000	0.259977
2468.000000	0.276543
2469.000000	0.262694
2470.000000	0.266308
2471.000000	0.251291
2472.000000	0.243063
2473.000000	0.248904
2474.000000	0.235770
2475.000000	0.229520
2476.000000	0.224802
2477.000000	0.220783
2478.000000	0.220665
2479.000000	0.217747
2480.000000	0.197697
2481.000000	0.177562
2482.000000	0.177038
2483.000000	0.176228
2484.000000	0.199165
2485.000000	0.272480
2486.000000	0.312386
2487.000000	0.310059
2488.000000	0.332061
2489.000000	0.286105
2490.000000	0.226466
2491.000000	0.218349
2492.000000	0.189984
2493.000000	0.167413
2494.000000	0.157828
2495.000000	0.165316
2496.000000	0.135376
2497.000000	0.068401
2498.000000	0.053095
2499.000000	0.012088
2500.000000	0.023877
