# Wavelength	NAu-1-20_HEX-40_FV7-40_00000.asd.rts.txt
350.000000	0.216232
351.000000	0.194917
352.000000	0.172491
353.000000	0.175361
354.000000	0.201080
355.000000	0.195862
356.000000	0.192056
357.000000	0.194185
358.000000	0.185467
359.000000	0.184547
360.000000	0.189889
361.000000	0.194077
362.000000	0.188070
363.000000	0.182589
364.000000	0.184658
365.000000	0.191885
366.000000	0.194472
367.000000	0.190554
368.000000	0.184900
369.000000	0.186675
370.000000	0.189707
371.000000	0.185251
372.000000	0.186993
373.000000	0.190298
374.000000	0.191497
375.000000	0.193066
376.000000	0.193017
377.000000	0.192144
378.000000	0.194251
379.000000	0.195999
380.000000	0.196835
381.000000	0.197760
382.000000	0.198432
383.000000	0.198100
384.000000	0.197054
385.000000	0.197728
386.000000	0.198080
387.000000	0.198280
388.000000	0.200651
389.000000	0.203622
390.000000	0.204594
391.000000	0.201199
392.000000	0.201751
393.000000	0.204816
394.000000	0.207551
395.000000	0.207343
396.000000	0.207779
397.000000	0.209554
398.000000	0.209623
399.000000	0.209879
400.000000	0.210658
401.000000	0.211542
402.000000	0.210755
403.000000	0.211424
404.000000	0.215446
405.000000	0.215819
406.000000	0.216279
407.000000	0.218243
408.000000	0.218606
409.000000	0.218805
410.000000	0.219471
411.000000	0.220844
412.000000	0.220827
413.000000	0.220955
414.000000	0.222794
415.000000	0.222939
416.000000	0.222698
417.000000	0.223117
418.000000	0.224062
419.000000	0.224655
420.000000	0.224878
421.000000	0.225446
422.000000	0.225729
423.000000	0.225491
424.000000	0.224860
425.000000	0.225325
426.000000	0.225996
427.000000	0.226134
428.000000	0.226513
429.000000	0.226747
430.000000	0.226805
431.000000	0.227128
432.000000	0.227371
433.000000	0.227472
434.000000	0.227591
435.000000	0.227986
436.000000	0.228231
437.000000	0.227985
438.000000	0.227997
439.000000	0.228173
440.000000	0.228352
441.000000	0.227933
442.000000	0.227689
443.000000	0.227636
444.000000	0.227439
445.000000	0.227624
446.000000	0.227955
447.000000	0.227940
448.000000	0.228279
449.000000	0.228942
450.000000	0.229818
451.000000	0.230802
452.000000	0.231830
453.000000	0.232777
454.000000	0.233601
455.000000	0.234952
456.000000	0.236557
457.000000	0.237647
458.000000	0.239270
459.000000	0.240766
460.000000	0.241611
461.000000	0.242779
462.000000	0.243871
463.000000	0.244599
464.000000	0.245441
465.000000	0.246335
466.000000	0.247084
467.000000	0.247501
468.000000	0.248108
469.000000	0.248665
470.000000	0.248978
471.000000	0.249337
472.000000	0.249737
473.000000	0.250224
474.000000	0.251053
475.000000	0.251475
476.000000	0.251582
477.000000	0.252040
478.000000	0.252406
479.000000	0.252776
480.000000	0.253096
481.000000	0.253555
482.000000	0.253921
483.000000	0.253895
484.000000	0.254421
485.000000	0.254936
486.000000	0.255318
487.000000	0.255731
488.000000	0.256144
489.000000	0.256523
490.000000	0.256798
491.000000	0.257338
492.000000	0.257958
493.000000	0.258258
494.000000	0.258699
495.000000	0.259169
496.000000	0.259562
497.000000	0.260142
498.000000	0.260625
499.000000	0.261054
500.000000	0.261699
501.000000	0.262154
502.000000	0.262522
503.000000	0.263038
504.000000	0.263635
505.000000	0.264122
506.000000	0.264384
507.000000	0.264703
508.000000	0.265258
509.000000	0.265989
510.000000	0.266521
511.000000	0.267032
512.000000	0.267598
513.000000	0.268178
514.000000	0.268680
515.000000	0.269203
516.000000	0.269813
517.000000	0.270314
518.000000	0.270847
519.000000	0.271436
520.000000	0.271988
521.000000	0.272501
522.000000	0.272995
523.000000	0.273491
524.000000	0.274051
525.000000	0.274688
526.000000	0.275424
527.000000	0.275997
528.000000	0.276474
529.000000	0.277047
530.000000	0.277719
531.000000	0.278410
532.000000	0.279003
533.000000	0.279664
534.000000	0.280322
535.000000	0.280954
536.000000	0.281629
537.000000	0.282304
538.000000	0.282965
539.000000	0.283597
540.000000	0.284208
541.000000	0.284806
542.000000	0.285427
543.000000	0.286013
544.000000	0.286679
545.000000	0.287357
546.000000	0.287853
547.000000	0.288466
548.000000	0.289224
549.000000	0.289879
550.000000	0.290533
551.000000	0.291195
552.000000	0.291802
553.000000	0.292413
554.000000	0.293027
555.000000	0.293652
556.000000	0.294334
557.000000	0.294964
558.000000	0.295617
559.000000	0.296217
560.000000	0.296781
561.000000	0.297394
562.000000	0.298006
563.000000	0.298533
564.000000	0.299086
565.000000	0.299668
566.000000	0.300236
567.000000	0.300766
568.000000	0.301255
569.000000	0.301836
570.000000	0.302353
571.000000	0.302804
572.000000	0.303360
573.000000	0.303828
574.000000	0.304188
575.000000	0.304545
576.000000	0.304975
577.000000	0.305407
578.000000	0.305825
579.000000	0.306138
580.000000	0.306492
581.000000	0.306910
582.000000	0.307222
583.000000	0.307561
584.000000	0.307941
585.000000	0.308321
586.000000	0.308630
587.000000	0.308898
588.000000	0.309179
589.000000	0.309514
590.000000	0.309810
591.000000	0.310028
592.000000	0.310274
593.000000	0.310506
594.000000	0.310735
595.000000	0.311040
596.000000	0.311290
597.000000	0.311496
598.000000	0.311625
599.000000	0.311817
600.000000	0.312044
601.000000	0.312186
602.000000	0.312342
603.000000	0.312512
604.000000	0.312704
605.000000	0.312921
606.000000	0.313111
607.000000	0.313274
608.000000	0.313441
609.000000	0.313615
610.000000	0.313823
611.000000	0.314066
612.000000	0.314206
613.000000	0.314267
614.000000	0.314327
615.000000	0.314405
616.000000	0.314509
617.000000	0.314596
618.000000	0.314681
619.000000	0.314752
620.000000	0.314813
621.000000	0.314931
622.000000	0.315035
623.000000	0.315148
624.000000	0.315277
625.000000	0.315323
626.000000	0.315418
627.000000	0.315609
628.000000	0.315822
629.000000	0.316055
630.000000	0.316181
631.000000	0.316313
632.000000	0.316477
633.000000	0.316598
634.000000	0.316616
635.000000	0.316776
636.000000	0.316989
637.000000	0.317160
638.000000	0.317289
639.000000	0.317453
640.000000	0.317701
641.000000	0.317880
642.000000	0.318030
643.000000	0.318179
644.000000	0.318352
645.000000	0.318519
646.000000	0.318659
647.000000	0.318751
648.000000	0.318889
649.000000	0.319077
650.000000	0.319288
651.000000	0.319520
652.000000	0.319657
653.000000	0.319773
654.000000	0.319936
655.000000	0.320153
656.000000	0.320424
657.000000	0.320676
658.000000	0.320866
659.000000	0.321078
660.000000	0.321319
661.000000	0.321521
662.000000	0.321665
663.000000	0.321837
664.000000	0.322079
665.000000	0.322277
666.000000	0.322459
667.000000	0.322643
668.000000	0.322824
669.000000	0.323015
670.000000	0.323220
671.000000	0.323390
672.000000	0.323545
673.000000	0.323712
674.000000	0.323950
675.000000	0.324155
676.000000	0.324379
677.000000	0.324711
678.000000	0.325033
679.000000	0.325306
680.000000	0.325541
681.000000	0.325823
682.000000	0.326128
683.000000	0.326388
684.000000	0.326729
685.000000	0.326970
686.000000	0.327181
687.000000	0.327443
688.000000	0.327677
689.000000	0.327869
690.000000	0.328083
691.000000	0.328433
692.000000	0.328757
693.000000	0.329046
694.000000	0.329266
695.000000	0.329505
696.000000	0.329750
697.000000	0.329958
698.000000	0.330260
699.000000	0.330593
700.000000	0.330885
701.000000	0.331079
702.000000	0.331339
703.000000	0.331673
704.000000	0.331935
705.000000	0.332205
706.000000	0.332465
707.000000	0.332755
708.000000	0.333005
709.000000	0.333259
710.000000	0.333582
711.000000	0.333929
712.000000	0.334247
713.000000	0.334538
714.000000	0.334805
715.000000	0.335072
716.000000	0.335359
717.000000	0.335658
718.000000	0.335968
719.000000	0.336290
720.000000	0.336614
721.000000	0.336780
722.000000	0.336964
723.000000	0.337265
724.000000	0.337475
725.000000	0.337652
726.000000	0.337872
727.000000	0.338054
728.000000	0.338289
729.000000	0.338570
730.000000	0.338807
731.000000	0.338991
732.000000	0.339217
733.000000	0.339516
734.000000	0.339704
735.000000	0.339876
736.000000	0.340160
737.000000	0.340408
738.000000	0.340588
739.000000	0.340808
740.000000	0.340966
741.000000	0.341163
742.000000	0.341365
743.000000	0.341532
744.000000	0.341706
745.000000	0.341848
746.000000	0.342027
747.000000	0.342219
748.000000	0.342400
749.000000	0.342559
750.000000	0.342664
751.000000	0.342777
752.000000	0.342903
753.000000	0.343043
754.000000	0.343167
755.000000	0.343272
756.000000	0.343365
757.000000	0.343413
758.000000	0.343502
759.000000	0.343582
760.000000	0.343580
761.000000	0.343715
762.000000	0.343821
763.000000	0.343870
764.000000	0.343997
765.000000	0.344080
766.000000	0.344169
767.000000	0.344317
768.000000	0.344476
769.000000	0.344570
770.000000	0.344590
771.000000	0.344609
772.000000	0.344657
773.000000	0.344635
774.000000	0.344560
775.000000	0.344595
776.000000	0.344663
777.000000	0.344672
778.000000	0.344678
779.000000	0.344671
780.000000	0.344629
781.000000	0.344494
782.000000	0.344444
783.000000	0.344517
784.000000	0.344508
785.000000	0.344483
786.000000	0.344462
787.000000	0.344465
788.000000	0.344555
789.000000	0.344529
790.000000	0.344424
791.000000	0.344448
792.000000	0.344375
793.000000	0.344280
794.000000	0.344245
795.000000	0.344172
796.000000	0.344080
797.000000	0.344007
798.000000	0.344028
799.000000	0.344028
800.000000	0.344018
801.000000	0.344028
802.000000	0.343902
803.000000	0.343811
804.000000	0.343840
805.000000	0.343725
806.000000	0.343573
807.000000	0.343518
808.000000	0.343531
809.000000	0.343456
810.000000	0.343343
811.000000	0.343229
812.000000	0.343085
813.000000	0.342960
814.000000	0.342857
815.000000	0.342764
816.000000	0.342595
817.000000	0.342458
818.000000	0.342372
819.000000	0.342263
820.000000	0.342211
821.000000	0.342160
822.000000	0.342022
823.000000	0.341841
824.000000	0.341618
825.000000	0.341474
826.000000	0.341361
827.000000	0.341235
828.000000	0.341142
829.000000	0.341158
830.000000	0.341047
831.000000	0.340892
832.000000	0.340763
833.000000	0.340598
834.000000	0.340430
835.000000	0.340316
836.000000	0.340211
837.000000	0.340108
838.000000	0.340015
839.000000	0.339898
840.000000	0.339731
841.000000	0.339541
842.000000	0.339332
843.000000	0.339204
844.000000	0.339104
845.000000	0.338985
846.000000	0.338889
847.000000	0.338749
848.000000	0.338609
849.000000	0.338547
850.000000	0.338400
851.000000	0.338220
852.000000	0.338061
853.000000	0.337842
854.000000	0.337597
855.000000	0.337472
856.000000	0.337395
857.000000	0.337210
858.000000	0.337081
859.000000	0.336990
860.000000	0.336846
861.000000	0.336640
862.000000	0.336457
863.000000	0.336314
864.000000	0.336158
865.000000	0.336021
866.000000	0.335927
867.000000	0.335777
868.000000	0.335668
869.000000	0.335540
870.000000	0.335411
871.000000	0.335315
872.000000	0.335202
873.000000	0.335009
874.000000	0.334910
875.000000	0.334737
876.000000	0.334501
877.000000	0.334218
878.000000	0.333984
879.000000	0.333846
880.000000	0.333652
881.000000	0.333419
882.000000	0.333250
883.000000	0.333153
884.000000	0.333022
885.000000	0.332893
886.000000	0.332697
887.000000	0.332451
888.000000	0.332246
889.000000	0.332027
890.000000	0.331794
891.000000	0.331771
892.000000	0.331637
893.000000	0.331348
894.000000	0.331049
895.000000	0.330701
896.000000	0.330505
897.000000	0.330427
898.000000	0.330356
899.000000	0.330320
900.000000	0.330231
901.000000	0.330042
902.000000	0.329912
903.000000	0.329817
904.000000	0.329657
905.000000	0.329286
906.000000	0.329157
907.000000	0.329024
908.000000	0.328840
909.000000	0.328604
910.000000	0.328239
911.000000	0.327943
912.000000	0.327883
913.000000	0.327790
914.000000	0.327713
915.000000	0.327647
916.000000	0.327387
917.000000	0.327202
918.000000	0.327010
919.000000	0.326746
920.000000	0.326668
921.000000	0.326483
922.000000	0.326241
923.000000	0.326120
924.000000	0.326004
925.000000	0.325917
926.000000	0.325876
927.000000	0.325745
928.000000	0.325520
929.000000	0.325263
930.000000	0.325051
931.000000	0.324844
932.000000	0.324754
933.000000	0.324752
934.000000	0.324545
935.000000	0.324195
936.000000	0.324084
937.000000	0.324246
938.000000	0.323884
939.000000	0.323691
940.000000	0.323588
941.000000	0.323246
942.000000	0.322971
943.000000	0.322803
944.000000	0.322588
945.000000	0.322347
946.000000	0.322211
947.000000	0.322149
948.000000	0.321987
949.000000	0.321622
950.000000	0.321376
951.000000	0.321257
952.000000	0.321094
953.000000	0.321123
954.000000	0.321066
955.000000	0.320723
956.000000	0.320632
957.000000	0.320413
958.000000	0.320115
959.000000	0.320046
960.000000	0.319951
961.000000	0.319676
962.000000	0.319306
963.000000	0.319251
964.000000	0.319184
965.000000	0.319014
966.000000	0.318660
967.000000	0.318484
968.000000	0.318347
969.000000	0.318161
970.000000	0.318001
971.000000	0.317869
972.000000	0.317717
973.000000	0.317485
974.000000	0.317313
975.000000	0.317264
976.000000	0.317223
977.000000	0.317095
978.000000	0.316968
979.000000	0.316954
980.000000	0.316818
981.000000	0.316704
982.000000	0.316530
983.000000	0.316391
984.000000	0.316364
985.000000	0.316326
986.000000	0.316313
987.000000	0.316286
988.000000	0.316083
989.000000	0.315708
990.000000	0.315651
991.000000	0.315870
992.000000	0.316097
993.000000	0.315858
994.000000	0.315685
995.000000	0.315756
996.000000	0.315566
997.000000	0.315622
998.000000	0.315571
999.000000	0.315361
1000.000000	0.315252
1001.000000	0.316242
1002.000000	0.315469
1003.000000	0.314473
1004.000000	0.314171
1005.000000	0.314320
1006.000000	0.314068
1007.000000	0.314175
1008.000000	0.313767
1009.000000	0.313341
1010.000000	0.313072
1011.000000	0.312998
1012.000000	0.313271
1013.000000	0.313095
1014.000000	0.313015
1015.000000	0.313388
1016.000000	0.313762
1017.000000	0.313700
1018.000000	0.313836
1019.000000	0.314153
1020.000000	0.314721
1021.000000	0.314508
1022.000000	0.314410
1023.000000	0.314320
1024.000000	0.313198
1025.000000	0.313155
1026.000000	0.313897
1027.000000	0.314433
1028.000000	0.314895
1029.000000	0.315090
1030.000000	0.314363
1031.000000	0.313777
1032.000000	0.313797
1033.000000	0.314081
1034.000000	0.314408
1035.000000	0.315631
1036.000000	0.315954
1037.000000	0.315415
1038.000000	0.315384
1039.000000	0.315398
1040.000000	0.315863
1041.000000	0.315992
1042.000000	0.316421
1043.000000	0.316241
1044.000000	0.315636
1045.000000	0.315548
1046.000000	0.315956
1047.000000	0.316474
1048.000000	0.317542
1049.000000	0.317945
1050.000000	0.318259
1051.000000	0.318328
1052.000000	0.317821
1053.000000	0.317839
1054.000000	0.318351
1055.000000	0.318527
1056.000000	0.318688
1057.000000	0.318924
1058.000000	0.318967
1059.000000	0.319002
1060.000000	0.319691
1061.000000	0.320134
1062.000000	0.320268
1063.000000	0.320507
1064.000000	0.320676
1065.000000	0.320521
1066.000000	0.320765
1067.000000	0.321243
1068.000000	0.321497
1069.000000	0.321720
1070.000000	0.321943
1071.000000	0.322174
1072.000000	0.322348
1073.000000	0.322489
1074.000000	0.322858
1075.000000	0.323043
1076.000000	0.323272
1077.000000	0.323251
1078.000000	0.323282
1079.000000	0.323792
1080.000000	0.324596
1081.000000	0.325129
1082.000000	0.326355
1083.000000	0.326810
1084.000000	0.326559
1085.000000	0.326701
1086.000000	0.326739
1087.000000	0.326848
1088.000000	0.327083
1089.000000	0.327120
1090.000000	0.326776
1091.000000	0.326839
1092.000000	0.327169
1093.000000	0.327409
1094.000000	0.327552
1095.000000	0.327664
1096.000000	0.328126
1097.000000	0.328666
1098.000000	0.329046
1099.000000	0.329728
1100.000000	0.330169
1101.000000	0.330114
1102.000000	0.330289
1103.000000	0.330625
1104.000000	0.330922
1105.000000	0.331079
1106.000000	0.331348
1107.000000	0.331731
1108.000000	0.332032
1109.000000	0.332566
1110.000000	0.332639
1111.000000	0.332966
1112.000000	0.333308
1113.000000	0.333634
1114.000000	0.334033
1115.000000	0.334322
1116.000000	0.334529
1117.000000	0.334766
1118.000000	0.334956
1119.000000	0.335123
1120.000000	0.335312
1121.000000	0.335452
1122.000000	0.335702
1123.000000	0.335995
1124.000000	0.335880
1125.000000	0.336051
1126.000000	0.336254
1127.000000	0.336429
1128.000000	0.336653
1129.000000	0.337055
1130.000000	0.337415
1131.000000	0.337780
1132.000000	0.338057
1133.000000	0.338494
1134.000000	0.338720
1135.000000	0.338699
1136.000000	0.338748
1137.000000	0.338739
1138.000000	0.338711
1139.000000	0.338646
1140.000000	0.338823
1141.000000	0.339109
1142.000000	0.339306
1143.000000	0.339521
1144.000000	0.339841
1145.000000	0.340007
1146.000000	0.339971
1147.000000	0.340110
1148.000000	0.340256
1149.000000	0.340360
1150.000000	0.340438
1151.000000	0.340650
1152.000000	0.340858
1153.000000	0.341054
1154.000000	0.341350
1155.000000	0.341483
1156.000000	0.341496
1157.000000	0.341548
1158.000000	0.341476
1159.000000	0.341467
1160.000000	0.341463
1161.000000	0.341505
1162.000000	0.341698
1163.000000	0.341897
1164.000000	0.342064
1165.000000	0.342092
1166.000000	0.342235
1167.000000	0.342358
1168.000000	0.342369
1169.000000	0.342385
1170.000000	0.342449
1171.000000	0.342440
1172.000000	0.342579
1173.000000	0.342877
1174.000000	0.342987
1175.000000	0.343038
1176.000000	0.343005
1177.000000	0.342855
1178.000000	0.342860
1179.000000	0.342914
1180.000000	0.342924
1181.000000	0.343141
1182.000000	0.343210
1183.000000	0.343294
1184.000000	0.343304
1185.000000	0.343426
1186.000000	0.343619
1187.000000	0.343684
1188.000000	0.343751
1189.000000	0.343790
1190.000000	0.343761
1191.000000	0.343755
1192.000000	0.343949
1193.000000	0.344081
1194.000000	0.343948
1195.000000	0.343994
1196.000000	0.344074
1197.000000	0.344095
1198.000000	0.344176
1199.000000	0.344226
1200.000000	0.344211
1201.000000	0.344187
1202.000000	0.344246
1203.000000	0.344327
1204.000000	0.344312
1205.000000	0.344416
1206.000000	0.344448
1207.000000	0.344556
1208.000000	0.344571
1209.000000	0.344632
1210.000000	0.344649
1211.000000	0.344568
1212.000000	0.344583
1213.000000	0.344689
1214.000000	0.344770
1215.000000	0.344896
1216.000000	0.344937
1217.000000	0.344793
1218.000000	0.344833
1219.000000	0.345014
1220.000000	0.345134
1221.000000	0.345275
1222.000000	0.345474
1223.000000	0.345307
1224.000000	0.345168
1225.000000	0.345093
1226.000000	0.344945
1227.000000	0.344895
1228.000000	0.344856
1229.000000	0.344762
1230.000000	0.344541
1231.000000	0.344464
1232.000000	0.344621
1233.000000	0.344759
1234.000000	0.344971
1235.000000	0.345068
1236.000000	0.344943
1237.000000	0.344975
1238.000000	0.344995
1239.000000	0.345040
1240.000000	0.345160
1241.000000	0.345276
1242.000000	0.345269
1243.000000	0.345324
1244.000000	0.345349
1245.000000	0.345389
1246.000000	0.345528
1247.000000	0.345578
1248.000000	0.345585
1249.000000	0.345636
1250.000000	0.345550
1251.000000	0.345451
1252.000000	0.345470
1253.000000	0.345652
1254.000000	0.345644
1255.000000	0.345609
1256.000000	0.345644
1257.000000	0.345596
1258.000000	0.345622
1259.000000	0.345742
1260.000000	0.345812
1261.000000	0.345745
1262.000000	0.345721
1263.000000	0.345745
1264.000000	0.345743
1265.000000	0.345720
1266.000000	0.345690
1267.000000	0.345756
1268.000000	0.345776
1269.000000	0.345727
1270.000000	0.345853
1271.000000	0.345890
1272.000000	0.345871
1273.000000	0.345873
1274.000000	0.345839
1275.000000	0.345813
1276.000000	0.345791
1277.000000	0.345835
1278.000000	0.345789
1279.000000	0.345801
1280.000000	0.345804
1281.000000	0.345757
1282.000000	0.345777
1283.000000	0.345890
1284.000000	0.345897
1285.000000	0.345982
1286.000000	0.346188
1287.000000	0.346259
1288.000000	0.346298
1289.000000	0.346381
1290.000000	0.346315
1291.000000	0.346200
1292.000000	0.346135
1293.000000	0.346092
1294.000000	0.345995
1295.000000	0.345942
1296.000000	0.345947
1297.000000	0.345955
1298.000000	0.345991
1299.000000	0.346037
1300.000000	0.346222
1301.000000	0.346283
1302.000000	0.346240
1303.000000	0.346306
1304.000000	0.346318
1305.000000	0.346305
1306.000000	0.346228
1307.000000	0.346180
1308.000000	0.346161
1309.000000	0.346129
1310.000000	0.346017
1311.000000	0.345920
1312.000000	0.345800
1313.000000	0.345686
1314.000000	0.345463
1315.000000	0.345334
1316.000000	0.345316
1317.000000	0.345187
1318.000000	0.345054
1319.000000	0.345089
1320.000000	0.345238
1321.000000	0.345198
1322.000000	0.345099
1323.000000	0.344930
1324.000000	0.344691
1325.000000	0.344481
1326.000000	0.344268
1327.000000	0.344216
1328.000000	0.344249
1329.000000	0.344127
1330.000000	0.344024
1331.000000	0.343933
1332.000000	0.343780
1333.000000	0.343660
1334.000000	0.343629
1335.000000	0.343669
1336.000000	0.343838
1337.000000	0.343815
1338.000000	0.343708
1339.000000	0.343557
1340.000000	0.343341
1341.000000	0.342874
1342.000000	0.342668
1343.000000	0.342648
1344.000000	0.342410
1345.000000	0.342269
1346.000000	0.342200
1347.000000	0.341899
1348.000000	0.341826
1349.000000	0.341742
1350.000000	0.341580
1351.000000	0.341384
1352.000000	0.341142
1353.000000	0.340951
1354.000000	0.340810
1355.000000	0.340743
1356.000000	0.340713
1357.000000	0.340558
1358.000000	0.340466
1359.000000	0.340317
1360.000000	0.340187
1361.000000	0.340151
1362.000000	0.340068
1363.000000	0.339920
1364.000000	0.339814
1365.000000	0.339686
1366.000000	0.339572
1367.000000	0.339488
1368.000000	0.339294
1369.000000	0.339158
1370.000000	0.338980
1371.000000	0.338687
1372.000000	0.338412
1373.000000	0.338200
1374.000000	0.337889
1375.000000	0.337497
1376.000000	0.337355
1377.000000	0.337246
1378.000000	0.337004
1379.000000	0.336791
1380.000000	0.336436
1381.000000	0.335860
1382.000000	0.335454
1383.000000	0.335130
1384.000000	0.334640
1385.000000	0.334325
1386.000000	0.333975
1387.000000	0.333347
1388.000000	0.332750
1389.000000	0.332138
1390.000000	0.331515
1391.000000	0.330937
1392.000000	0.330366
1393.000000	0.329782
1394.000000	0.329279
1395.000000	0.328663
1396.000000	0.327996
1397.000000	0.327276
1398.000000	0.326381
1399.000000	0.325570
1400.000000	0.324847
1401.000000	0.324040
1402.000000	0.323261
1403.000000	0.322345
1404.000000	0.321583
1405.000000	0.320618
1406.000000	0.319678
1407.000000	0.318875
1408.000000	0.317878
1409.000000	0.317036
1410.000000	0.316243
1411.000000	0.315380
1412.000000	0.314678
1413.000000	0.313843
1414.000000	0.312891
1415.000000	0.312197
1416.000000	0.311455
1417.000000	0.310681
1418.000000	0.310164
1419.000000	0.309650
1420.000000	0.308929
1421.000000	0.308339
1422.000000	0.307683
1423.000000	0.306928
1424.000000	0.306229
1425.000000	0.305611
1426.000000	0.304882
1427.000000	0.304172
1428.000000	0.303494
1429.000000	0.302835
1430.000000	0.302252
1431.000000	0.301693
1432.000000	0.301168
1433.000000	0.300736
1434.000000	0.300272
1435.000000	0.299864
1436.000000	0.299526
1437.000000	0.299185
1438.000000	0.298858
1439.000000	0.298648
1440.000000	0.298504
1441.000000	0.298424
1442.000000	0.298372
1443.000000	0.298331
1444.000000	0.298286
1445.000000	0.298305
1446.000000	0.298337
1447.000000	0.298439
1448.000000	0.298464
1449.000000	0.298316
1450.000000	0.298175
1451.000000	0.298048
1452.000000	0.297887
1453.000000	0.297854
1454.000000	0.297846
1455.000000	0.297664
1456.000000	0.297515
1457.000000	0.297371
1458.000000	0.297132
1459.000000	0.297028
1460.000000	0.296980
1461.000000	0.296894
1462.000000	0.296795
1463.000000	0.296649
1464.000000	0.296609
1465.000000	0.296590
1466.000000	0.296525
1467.000000	0.296553
1468.000000	0.296544
1469.000000	0.296630
1470.000000	0.296729
1471.000000	0.296781
1472.000000	0.296856
1473.000000	0.296989
1474.000000	0.297112
1475.000000	0.297312
1476.000000	0.297594
1477.000000	0.297848
1478.000000	0.298054
1479.000000	0.298276
1480.000000	0.298541
1481.000000	0.298757
1482.000000	0.298977
1483.000000	0.299249
1484.000000	0.299548
1485.000000	0.299810
1486.000000	0.300074
1487.000000	0.300373
1488.000000	0.300676
1489.000000	0.300939
1490.000000	0.301098
1491.000000	0.301368
1492.000000	0.301587
1493.000000	0.301854
1494.000000	0.302151
1495.000000	0.302428
1496.000000	0.302696
1497.000000	0.303000
1498.000000	0.303370
1499.000000	0.303700
1500.000000	0.303967
1501.000000	0.304177
1502.000000	0.304358
1503.000000	0.304553
1504.000000	0.304795
1505.000000	0.304957
1506.000000	0.305222
1507.000000	0.305491
1508.000000	0.305604
1509.000000	0.305771
1510.000000	0.305912
1511.000000	0.306072
1512.000000	0.306362
1513.000000	0.306692
1514.000000	0.306932
1515.000000	0.307087
1516.000000	0.307302
1517.000000	0.307461
1518.000000	0.307598
1519.000000	0.307599
1520.000000	0.307563
1521.000000	0.307618
1522.000000	0.307708
1523.000000	0.307896
1524.000000	0.308147
1525.000000	0.308338
1526.000000	0.308503
1527.000000	0.308741
1528.000000	0.308771
1529.000000	0.308723
1530.000000	0.308815
1531.000000	0.308831
1532.000000	0.308918
1533.000000	0.309061
1534.000000	0.309060
1535.000000	0.309179
1536.000000	0.309310
1537.000000	0.309474
1538.000000	0.309666
1539.000000	0.309663
1540.000000	0.309606
1541.000000	0.309670
1542.000000	0.309709
1543.000000	0.309732
1544.000000	0.309910
1545.000000	0.310017
1546.000000	0.310038
1547.000000	0.310154
1548.000000	0.310152
1549.000000	0.310134
1550.000000	0.310222
1551.000000	0.310269
1552.000000	0.310378
1553.000000	0.310415
1554.000000	0.310306
1555.000000	0.310203
1556.000000	0.310070
1557.000000	0.309979
1558.000000	0.310012
1559.000000	0.310183
1560.000000	0.310222
1561.000000	0.310282
1562.000000	0.310258
1563.000000	0.310177
1564.000000	0.310117
1565.000000	0.310070
1566.000000	0.309992
1567.000000	0.309966
1568.000000	0.309904
1569.000000	0.309874
1570.000000	0.309893
1571.000000	0.309928
1572.000000	0.309924
1573.000000	0.309982
1574.000000	0.309942
1575.000000	0.309830
1576.000000	0.309776
1577.000000	0.309700
1578.000000	0.309608
1579.000000	0.309580
1580.000000	0.309528
1581.000000	0.309460
1582.000000	0.309497
1583.000000	0.309620
1584.000000	0.309647
1585.000000	0.309797
1586.000000	0.309854
1587.000000	0.309808
1588.000000	0.309839
1589.000000	0.309915
1590.000000	0.309946
1591.000000	0.309987
1592.000000	0.310017
1593.000000	0.310069
1594.000000	0.310030
1595.000000	0.309992
1596.000000	0.309987
1597.000000	0.309923
1598.000000	0.309941
1599.000000	0.310113
1600.000000	0.310109
1601.000000	0.310075
1602.000000	0.310135
1603.000000	0.310258
1604.000000	0.310264
1605.000000	0.310257
1606.000000	0.310322
1607.000000	0.310409
1608.000000	0.310460
1609.000000	0.310629
1610.000000	0.310762
1611.000000	0.310842
1612.000000	0.310876
1613.000000	0.311082
1614.000000	0.311137
1615.000000	0.311061
1616.000000	0.311070
1617.000000	0.311051
1618.000000	0.311058
1619.000000	0.311041
1620.000000	0.311070
1621.000000	0.311164
1622.000000	0.311275
1623.000000	0.311400
1624.000000	0.311470
1625.000000	0.311405
1626.000000	0.311362
1627.000000	0.311227
1628.000000	0.311317
1629.000000	0.311554
1630.000000	0.311760
1631.000000	0.312062
1632.000000	0.312146
1633.000000	0.312030
1634.000000	0.312117
1635.000000	0.312290
1636.000000	0.312405
1637.000000	0.312618
1638.000000	0.312749
1639.000000	0.312824
1640.000000	0.312914
1641.000000	0.313115
1642.000000	0.313243
1643.000000	0.313336
1644.000000	0.313439
1645.000000	0.313575
1646.000000	0.313620
1647.000000	0.313624
1648.000000	0.313613
1649.000000	0.313563
1650.000000	0.313674
1651.000000	0.313966
1652.000000	0.314148
1653.000000	0.314344
1654.000000	0.314482
1655.000000	0.314409
1656.000000	0.314429
1657.000000	0.314550
1658.000000	0.314661
1659.000000	0.314962
1660.000000	0.315103
1661.000000	0.315099
1662.000000	0.315212
1663.000000	0.315184
1664.000000	0.315361
1665.000000	0.315711
1666.000000	0.315977
1667.000000	0.316272
1668.000000	0.316424
1669.000000	0.316414
1670.000000	0.316518
1671.000000	0.316723
1672.000000	0.316861
1673.000000	0.317009
1674.000000	0.317100
1675.000000	0.317136
1676.000000	0.317098
1677.000000	0.317049
1678.000000	0.316985
1679.000000	0.316964
1680.000000	0.316975
1681.000000	0.317148
1682.000000	0.317338
1683.000000	0.317388
1684.000000	0.317518
1685.000000	0.317717
1686.000000	0.317821
1687.000000	0.318006
1688.000000	0.318124
1689.000000	0.318134
1690.000000	0.318122
1691.000000	0.318172
1692.000000	0.318225
1693.000000	0.318276
1694.000000	0.318263
1695.000000	0.318402
1696.000000	0.318527
1697.000000	0.318524
1698.000000	0.318475
1699.000000	0.318533
1700.000000	0.318614
1701.000000	0.318708
1702.000000	0.318718
1703.000000	0.318718
1704.000000	0.318664
1705.000000	0.318710
1706.000000	0.318960
1707.000000	0.319092
1708.000000	0.319162
1709.000000	0.319190
1710.000000	0.319220
1711.000000	0.319297
1712.000000	0.319447
1713.000000	0.319511
1714.000000	0.319591
1715.000000	0.319660
1716.000000	0.319719
1717.000000	0.319716
1718.000000	0.319592
1719.000000	0.319579
1720.000000	0.319634
1721.000000	0.319659
1722.000000	0.319775
1723.000000	0.319829
1724.000000	0.319747
1725.000000	0.319893
1726.000000	0.320140
1727.000000	0.320259
1728.000000	0.320391
1729.000000	0.320386
1730.000000	0.320330
1731.000000	0.320349
1732.000000	0.320388
1733.000000	0.320505
1734.000000	0.320527
1735.000000	0.320596
1736.000000	0.320706
1737.000000	0.320770
1738.000000	0.320797
1739.000000	0.320933
1740.000000	0.321112
1741.000000	0.321198
1742.000000	0.321329
1743.000000	0.321460
1744.000000	0.321491
1745.000000	0.321560
1746.000000	0.321697
1747.000000	0.321584
1748.000000	0.321558
1749.000000	0.321561
1750.000000	0.321562
1751.000000	0.321853
1752.000000	0.322071
1753.000000	0.322062
1754.000000	0.322102
1755.000000	0.321976
1756.000000	0.322001
1757.000000	0.322254
1758.000000	0.322313
1759.000000	0.322299
1760.000000	0.322309
1761.000000	0.322137
1762.000000	0.322033
1763.000000	0.322070
1764.000000	0.322027
1765.000000	0.321777
1766.000000	0.321786
1767.000000	0.321954
1768.000000	0.321869
1769.000000	0.321825
1770.000000	0.321898
1771.000000	0.321738
1772.000000	0.321853
1773.000000	0.322300
1774.000000	0.322464
1775.000000	0.322614
1776.000000	0.322716
1777.000000	0.322641
1778.000000	0.322692
1779.000000	0.322750
1780.000000	0.322884
1781.000000	0.323082
1782.000000	0.323136
1783.000000	0.323240
1784.000000	0.323313
1785.000000	0.323208
1786.000000	0.323249
1787.000000	0.323289
1788.000000	0.323171
1789.000000	0.323188
1790.000000	0.323415
1791.000000	0.323514
1792.000000	0.323857
1793.000000	0.324029
1794.000000	0.323970
1795.000000	0.324071
1796.000000	0.324353
1797.000000	0.324318
1798.000000	0.323958
1799.000000	0.323955
1800.000000	0.323969
1801.000000	0.323475
1802.000000	0.324038
1803.000000	0.324369
1804.000000	0.324628
1805.000000	0.324866
1806.000000	0.325081
1807.000000	0.324934
1808.000000	0.325053
1809.000000	0.325408
1810.000000	0.325961
1811.000000	0.325840
1812.000000	0.325061
1813.000000	0.325194
1814.000000	0.325454
1815.000000	0.325666
1816.000000	0.326345
1817.000000	0.326937
1818.000000	0.327606
1819.000000	0.328038
1820.000000	0.328722
1821.000000	0.329149
1822.000000	0.328922
1823.000000	0.327847
1824.000000	0.326851
1825.000000	0.324881
1826.000000	0.324011
1827.000000	0.323211
1828.000000	0.322734
1829.000000	0.322583
1830.000000	0.323228
1831.000000	0.323215
1832.000000	0.322573
1833.000000	0.322807
1834.000000	0.323701
1835.000000	0.323902
1836.000000	0.324457
1837.000000	0.324546
1838.000000	0.323972
1839.000000	0.322853
1840.000000	0.322367
1841.000000	0.322086
1842.000000	0.321910
1843.000000	0.322246
1844.000000	0.322073
1845.000000	0.321452
1846.000000	0.321303
1847.000000	0.321025
1848.000000	0.320688
1849.000000	0.321117
1850.000000	0.320874
1851.000000	0.320340
1852.000000	0.319295
1853.000000	0.318714
1854.000000	0.317499
1855.000000	0.316877
1856.000000	0.316752
1857.000000	0.316385
1858.000000	0.315806
1859.000000	0.315704
1860.000000	0.315701
1861.000000	0.315349
1862.000000	0.314552
1863.000000	0.313422
1864.000000	0.312740
1865.000000	0.311631
1866.000000	0.310916
1867.000000	0.310913
1868.000000	0.310318
1869.000000	0.309455
1870.000000	0.308321
1871.000000	0.306926
1872.000000	0.305698
1873.000000	0.304379
1874.000000	0.303096
1875.000000	0.301700
1876.000000	0.300084
1877.000000	0.297785
1878.000000	0.296359
1879.000000	0.294519
1880.000000	0.292724
1881.000000	0.291852
1882.000000	0.290403
1883.000000	0.288282
1884.000000	0.286072
1885.000000	0.283552
1886.000000	0.280719
1887.000000	0.277150
1888.000000	0.273940
1889.000000	0.271410
1890.000000	0.268365
1891.000000	0.265721
1892.000000	0.263244
1893.000000	0.260193
1894.000000	0.256794
1895.000000	0.253280
1896.000000	0.249741
1897.000000	0.246003
1898.000000	0.242181
1899.000000	0.239409
1900.000000	0.237191
1901.000000	0.234975
1902.000000	0.232474
1903.000000	0.229852
1904.000000	0.227397
1905.000000	0.224659
1906.000000	0.221896
1907.000000	0.219394
1908.000000	0.216555
1909.000000	0.213858
1910.000000	0.211580
1911.000000	0.209068
1912.000000	0.207607
1913.000000	0.206207
1914.000000	0.204411
1915.000000	0.203284
1916.000000	0.202061
1917.000000	0.200604
1918.000000	0.198886
1919.000000	0.197361
1920.000000	0.196226
1921.000000	0.196091
1922.000000	0.196120
1923.000000	0.195946
1924.000000	0.195982
1925.000000	0.195290
1926.000000	0.194630
1927.000000	0.194349
1928.000000	0.193981
1929.000000	0.193570
1930.000000	0.193542
1931.000000	0.193364
1932.000000	0.193820
1933.000000	0.194465
1934.000000	0.194303
1935.000000	0.194136
1936.000000	0.193627
1937.000000	0.193534
1938.000000	0.193398
1939.000000	0.193230
1940.000000	0.193263
1941.000000	0.193269
1942.000000	0.192415
1943.000000	0.192415
1944.000000	0.192667
1945.000000	0.192867
1946.000000	0.193576
1947.000000	0.193538
1948.000000	0.192859
1949.000000	0.192298
1950.000000	0.192216
1951.000000	0.191891
1952.000000	0.191700
1953.000000	0.191495
1954.000000	0.191368
1955.000000	0.190447
1956.000000	0.189771
1957.000000	0.189543
1958.000000	0.189167
1959.000000	0.189290
1960.000000	0.189537
1961.000000	0.189415
1962.000000	0.189196
1963.000000	0.188847
1964.000000	0.188535
1965.000000	0.188098
1966.000000	0.187923
1967.000000	0.188269
1968.000000	0.188375
1969.000000	0.188306
1970.000000	0.188690
1971.000000	0.188912
1972.000000	0.189565
1973.000000	0.190220
1974.000000	0.191528
1975.000000	0.191878
1976.000000	0.192040
1977.000000	0.191872
1978.000000	0.190949
1979.000000	0.190729
1980.000000	0.191141
1981.000000	0.192015
1982.000000	0.192623
1983.000000	0.192822
1984.000000	0.193217
1985.000000	0.193265
1986.000000	0.193394
1987.000000	0.193550
1988.000000	0.194460
1989.000000	0.195039
1990.000000	0.195628
1991.000000	0.196340
1992.000000	0.196790
1993.000000	0.197188
1994.000000	0.197847
1995.000000	0.198317
1996.000000	0.198705
1997.000000	0.199139
1998.000000	0.199238
1999.000000	0.199802
2000.000000	0.200458
2001.000000	0.201712
2002.000000	0.203122
2003.000000	0.204404
2004.000000	0.205684
2005.000000	0.206325
2006.000000	0.206524
2007.000000	0.206743
2008.000000	0.207075
2009.000000	0.206897
2010.000000	0.207689
2011.000000	0.209157
2012.000000	0.210214
2013.000000	0.211484
2014.000000	0.212769
2015.000000	0.213481
2016.000000	0.214104
2017.000000	0.215308
2018.000000	0.216596
2019.000000	0.217864
2020.000000	0.218956
2021.000000	0.219832
2022.000000	0.220244
2023.000000	0.220858
2024.000000	0.221468
2025.000000	0.222205
2026.000000	0.223035
2027.000000	0.223460
2028.000000	0.224005
2029.000000	0.224267
2030.000000	0.224609
2031.000000	0.225345
2032.000000	0.225910
2033.000000	0.227308
2034.000000	0.228414
2035.000000	0.229602
2036.000000	0.230495
2037.000000	0.231569
2038.000000	0.232286
2039.000000	0.232540
2040.000000	0.233402
2041.000000	0.234134
2042.000000	0.234829
2043.000000	0.235511
2044.000000	0.236031
2045.000000	0.236405
2046.000000	0.236727
2047.000000	0.237184
2048.000000	0.237654
2049.000000	0.238224
2050.000000	0.238628
2051.000000	0.239037
2052.000000	0.239159
2053.000000	0.239637
2054.000000	0.240377
2055.000000	0.241564
2056.000000	0.242627
2057.000000	0.243713
2058.000000	0.244737
2059.000000	0.245243
2060.000000	0.245596
2061.000000	0.245698
2062.000000	0.245958
2063.000000	0.245705
2064.000000	0.246073
2065.000000	0.247325
2066.000000	0.247816
2067.000000	0.248267
2068.000000	0.249234
2069.000000	0.249611
2070.000000	0.249927
2071.000000	0.250521
2072.000000	0.250764
2073.000000	0.250863
2074.000000	0.251615
2075.000000	0.252176
2076.000000	0.253019
2077.000000	0.253423
2078.000000	0.253351
2079.000000	0.253638
2080.000000	0.254074
2081.000000	0.254561
2082.000000	0.255186
2083.000000	0.255918
2084.000000	0.256999
2085.000000	0.257836
2086.000000	0.258629
2087.000000	0.259231
2088.000000	0.258753
2089.000000	0.258232
2090.000000	0.258524
2091.000000	0.259228
2092.000000	0.259873
2093.000000	0.261312
2094.000000	0.262218
2095.000000	0.262753
2096.000000	0.263440
2097.000000	0.264157
2098.000000	0.264746
2099.000000	0.265179
2100.000000	0.266226
2101.000000	0.267024
2102.000000	0.267549
2103.000000	0.268146
2104.000000	0.268373
2105.000000	0.268745
2106.000000	0.269322
2107.000000	0.269554
2108.000000	0.269521
2109.000000	0.269481
2110.000000	0.268646
2111.000000	0.268696
2112.000000	0.269057
2113.000000	0.269589
2114.000000	0.270269
2115.000000	0.270436
2116.000000	0.270124
2117.000000	0.269403
2118.000000	0.269245
2119.000000	0.269135
2120.000000	0.269805
2121.000000	0.271550
2122.000000	0.272703
2123.000000	0.274501
2124.000000	0.275432
2125.000000	0.275661
2126.000000	0.275666
2127.000000	0.275078
2128.000000	0.274858
2129.000000	0.274321
2130.000000	0.274253
2131.000000	0.273988
2132.000000	0.273438
2133.000000	0.273923
2134.000000	0.274056
2135.000000	0.274430
2136.000000	0.275591
2137.000000	0.276274
2138.000000	0.276849
2139.000000	0.277272
2140.000000	0.277964
2141.000000	0.277869
2142.000000	0.276797
2143.000000	0.276098
2144.000000	0.274985
2145.000000	0.274594
2146.000000	0.274753
2147.000000	0.275407
2148.000000	0.275899
2149.000000	0.276767
2150.000000	0.276580
2151.000000	0.276421
2152.000000	0.276741
2153.000000	0.276139
2154.000000	0.276016
2155.000000	0.276237
2156.000000	0.276436
2157.000000	0.276551
2158.000000	0.276948
2159.000000	0.277969
2160.000000	0.278564
2161.000000	0.279336
2162.000000	0.279398
2163.000000	0.278626
2164.000000	0.277923
2165.000000	0.276444
2166.000000	0.275452
2167.000000	0.275569
2168.000000	0.276227
2169.000000	0.276885
2170.000000	0.277918
2171.000000	0.278269
2172.000000	0.278174
2173.000000	0.277937
2174.000000	0.276972
2175.000000	0.276960
2176.000000	0.277155
2177.000000	0.277337
2178.000000	0.278468
2179.000000	0.279004
2180.000000	0.279067
2181.000000	0.279136
2182.000000	0.278517
2183.000000	0.278128
2184.000000	0.277364
2185.000000	0.276385
2186.000000	0.276650
2187.000000	0.276977
2188.000000	0.276622
2189.000000	0.277320
2190.000000	0.277353
2191.000000	0.276475
2192.000000	0.275750
2193.000000	0.274560
2194.000000	0.274282
2195.000000	0.274293
2196.000000	0.274462
2197.000000	0.275728
2198.000000	0.276210
2199.000000	0.276320
2200.000000	0.276470
2201.000000	0.276426
2202.000000	0.276728
2203.000000	0.277407
2204.000000	0.276565
2205.000000	0.276448
2206.000000	0.276130
2207.000000	0.275024
2208.000000	0.276037
2209.000000	0.277837
2210.000000	0.279223
2211.000000	0.278932
2212.000000	0.278339
2213.000000	0.277334
2214.000000	0.274483
2215.000000	0.272872
2216.000000	0.271267
2217.000000	0.270531
2218.000000	0.270477
2219.000000	0.270326
2220.000000	0.270722
2221.000000	0.271907
2222.000000	0.273707
2223.000000	0.274550
2224.000000	0.275604
2225.000000	0.276917
2226.000000	0.276417
2227.000000	0.275638
2228.000000	0.277732
2229.000000	0.278374
2230.000000	0.278356
2231.000000	0.278185
2232.000000	0.276035
2233.000000	0.275852
2234.000000	0.276739
2235.000000	0.278495
2236.000000	0.278893
2237.000000	0.279804
2238.000000	0.278489
2239.000000	0.273393
2240.000000	0.272877
2241.000000	0.273653
2242.000000	0.274147
2243.000000	0.278807
2244.000000	0.279635
2245.000000	0.276600
2246.000000	0.275543
2247.000000	0.274013
2248.000000	0.272941
2249.000000	0.272213
2250.000000	0.273222
2251.000000	0.273518
2252.000000	0.274483
2253.000000	0.273918
2254.000000	0.273367
2255.000000	0.274062
2256.000000	0.272154
2257.000000	0.272505
2258.000000	0.274679
2259.000000	0.273743
2260.000000	0.272802
2261.000000	0.272755
2262.000000	0.272668
2263.000000	0.272153
2264.000000	0.272218
2265.000000	0.272664
2266.000000	0.273087
2267.000000	0.272121
2268.000000	0.270388
2269.000000	0.270066
2270.000000	0.269118
2271.000000	0.268610
2272.000000	0.271089
2273.000000	0.271442
2274.000000	0.269557
2275.000000	0.267827
2276.000000	0.265825
2277.000000	0.263121
2278.000000	0.260590
2279.000000	0.261355
2280.000000	0.262553
2281.000000	0.263544
2282.000000	0.263693
2283.000000	0.261364
2284.000000	0.259297
2285.000000	0.258628
2286.000000	0.260077
2287.000000	0.262003
2288.000000	0.262947
2289.000000	0.263906
2290.000000	0.264207
2291.000000	0.263817
2292.000000	0.264171
2293.000000	0.264182
2294.000000	0.263305
2295.000000	0.261416
2296.000000	0.259633
2297.000000	0.256062
2298.000000	0.255301
2299.000000	0.256030
2300.000000	0.257003
2301.000000	0.259811
2302.000000	0.261623
2303.000000	0.263237
2304.000000	0.263426
2305.000000	0.263689
2306.000000	0.263451
2307.000000	0.260926
2308.000000	0.260853
2309.000000	0.261312
2310.000000	0.260144
2311.000000	0.261593
2312.000000	0.259881
2313.000000	0.258634
2314.000000	0.259387
2315.000000	0.257455
2316.000000	0.258839
2317.000000	0.259029
2318.000000	0.257370
2319.000000	0.258068
2320.000000	0.254834
2321.000000	0.253227
2322.000000	0.253439
2323.000000	0.250753
2324.000000	0.251059
2325.000000	0.251998
2326.000000	0.250757
2327.000000	0.250207
2328.000000	0.249913
2329.000000	0.248445
2330.000000	0.247300
2331.000000	0.246583
2332.000000	0.246613
2333.000000	0.247539
2334.000000	0.245509
2335.000000	0.244451
2336.000000	0.243039
2337.000000	0.241551
2338.000000	0.240619
2339.000000	0.239870
2340.000000	0.239405
2341.000000	0.237751
2342.000000	0.233808
2343.000000	0.231636
2344.000000	0.228704
2345.000000	0.228586
2346.000000	0.232113
2347.000000	0.234348
2348.000000	0.238109
2349.000000	0.240884
2350.000000	0.236897
2351.000000	0.231653
2352.000000	0.229873
2353.000000	0.227591
2354.000000	0.227699
2355.000000	0.231301
2356.000000	0.228281
2357.000000	0.223096
2358.000000	0.221119
2359.000000	0.217855
2360.000000	0.218149
2361.000000	0.218866
2362.000000	0.220247
2363.000000	0.224247
2364.000000	0.220294
2365.000000	0.217763
2366.000000	0.216574
2367.000000	0.212799
2368.000000	0.213061
2369.000000	0.211724
2370.000000	0.208334
2371.000000	0.201463
2372.000000	0.199873
2373.000000	0.204124
2374.000000	0.204911
2375.000000	0.209151
2376.000000	0.209559
2377.000000	0.203543
2378.000000	0.200695
2379.000000	0.198875
2380.000000	0.196561
2381.000000	0.195150
2382.000000	0.194769
2383.000000	0.192279
2384.000000	0.188313
2385.000000	0.189894
2386.000000	0.189174
2387.000000	0.188566
2388.000000	0.193008
2389.000000	0.194510
2390.000000	0.195194
2391.000000	0.192467
2392.000000	0.190146
2393.000000	0.189251
2394.000000	0.187265
2395.000000	0.187196
2396.000000	0.188790
2397.000000	0.192207
2398.000000	0.190163
2399.000000	0.187364
2400.000000	0.182860
2401.000000	0.173477
2402.000000	0.167118
2403.000000	0.167174
2404.000000	0.172913
2405.000000	0.178847
2406.000000	0.187533
2407.000000	0.195010
2408.000000	0.199965
2409.000000	0.201854
2410.000000	0.194659
2411.000000	0.186168
2412.000000	0.180455
2413.000000	0.169339
2414.000000	0.163906
2415.000000	0.166673
2416.000000	0.162419
2417.000000	0.163853
2418.000000	0.164042
2419.000000	0.154752
2420.000000	0.146583
2421.000000	0.138424
2422.000000	0.131112
2423.000000	0.131055
2424.000000	0.139768
2425.000000	0.145615
2426.000000	0.149785
2427.000000	0.160994
2428.000000	0.167980
2429.000000	0.162443
2430.000000	0.162132
2431.000000	0.162678
2432.000000	0.156984
2433.000000	0.157757
2434.000000	0.159188
2435.000000	0.163934
2436.000000	0.167228
2437.000000	0.162609
2438.000000	0.158390
2439.000000	0.149611
2440.000000	0.139581
2441.000000	0.146869
2442.000000	0.170327
2443.000000	0.192294
2444.000000	0.196981
2445.000000	0.191268
2446.000000	0.184229
2447.000000	0.164777
2448.000000	0.154386
2449.000000	0.157571
2450.000000	0.153536
2451.000000	0.153721
2452.000000	0.156674
2453.000000	0.162512
2454.000000	0.167699
2455.000000	0.172639
2456.000000	0.172132
2457.000000	0.147880
2458.000000	0.127003
2459.000000	0.114912
2460.000000	0.117106
2461.000000	0.141370
2462.000000	0.150873
2463.000000	0.142289
2464.000000	0.134045
2465.000000	0.135181
2466.000000	0.146841
2467.000000	0.172768
2468.000000	0.206497
2469.000000	0.225191
2470.000000	0.236989
2471.000000	0.241841
2472.000000	0.236693
2473.000000	0.223151
2474.000000	0.184461
2475.000000	0.143085
2476.000000	0.119222
2477.000000	0.123346
2478.000000	0.154443
2479.000000	0.187529
2480.000000	0.201948
2481.000000	0.203103
2482.000000	0.202866
2483.000000	0.201545
2484.000000	0.201000
2485.000000	0.169834
2486.000000	0.124503
2487.000000	0.115249
2488.000000	0.115912
2489.000000	0.127174
2490.000000	0.115539
2491.000000	0.058315
2492.000000	0.031808
2493.000000	0.019145
2494.000000	-0.003857
2495.000000	-0.033016
2496.000000	-0.034109
2497.000000	-0.020592
2498.000000	0.001083
2499.000000	0.047704
2500.000000	0.087560
