# Wavelength	NAu-1-20_HEX-30_FV7-50_00000.asd.rts.txt
350.000000	0.166633
351.000000	0.186603
352.000000	0.180618
353.000000	0.170907
354.000000	0.172144
355.000000	0.175257
356.000000	0.176431
357.000000	0.176737
358.000000	0.177528
359.000000	0.174286
360.000000	0.173521
361.000000	0.180757
362.000000	0.181647
363.000000	0.178780
364.000000	0.175224
365.000000	0.173395
366.000000	0.167969
367.000000	0.164578
368.000000	0.180433
369.000000	0.181428
370.000000	0.176977
371.000000	0.185397
372.000000	0.185068
373.000000	0.185860
374.000000	0.192235
375.000000	0.183417
376.000000	0.180324
377.000000	0.186056
378.000000	0.186924
379.000000	0.189952
380.000000	0.192216
381.000000	0.189794
382.000000	0.187995
383.000000	0.188877
384.000000	0.192278
385.000000	0.192653
386.000000	0.194815
387.000000	0.198202
388.000000	0.195771
389.000000	0.195388
390.000000	0.195411
391.000000	0.191680
392.000000	0.193589
393.000000	0.196578
394.000000	0.196483
395.000000	0.196514
396.000000	0.196859
397.000000	0.197421
398.000000	0.197727
399.000000	0.200152
400.000000	0.202957
401.000000	0.202791
402.000000	0.203976
403.000000	0.205028
404.000000	0.204683
405.000000	0.206231
406.000000	0.207647
407.000000	0.208068
408.000000	0.208568
409.000000	0.209297
410.000000	0.210147
411.000000	0.210788
412.000000	0.211317
413.000000	0.211791
414.000000	0.212242
415.000000	0.212395
416.000000	0.212675
417.000000	0.213366
418.000000	0.214544
419.000000	0.214865
420.000000	0.214558
421.000000	0.215213
422.000000	0.216080
423.000000	0.216546
424.000000	0.216276
425.000000	0.216806
426.000000	0.217045
427.000000	0.216408
428.000000	0.216993
429.000000	0.217418
430.000000	0.217381
431.000000	0.218052
432.000000	0.218107
433.000000	0.217772
434.000000	0.218033
435.000000	0.218267
436.000000	0.218490
437.000000	0.218700
438.000000	0.218308
439.000000	0.218247
440.000000	0.218793
441.000000	0.218518
442.000000	0.218386
443.000000	0.218462
444.000000	0.218385
445.000000	0.218244
446.000000	0.218248
447.000000	0.218486
448.000000	0.219184
449.000000	0.220008
450.000000	0.220711
451.000000	0.221407
452.000000	0.221910
453.000000	0.222382
454.000000	0.223633
455.000000	0.225245
456.000000	0.226860
457.000000	0.227999
458.000000	0.229311
459.000000	0.230499
460.000000	0.231355
461.000000	0.232459
462.000000	0.233680
463.000000	0.234644
464.000000	0.234947
465.000000	0.235478
466.000000	0.236220
467.000000	0.236712
468.000000	0.237471
469.000000	0.238033
470.000000	0.238079
471.000000	0.238855
472.000000	0.239451
473.000000	0.239449
474.000000	0.240181
475.000000	0.240734
476.000000	0.240972
477.000000	0.241205
478.000000	0.241526
479.000000	0.241991
480.000000	0.242293
481.000000	0.242518
482.000000	0.242902
483.000000	0.243400
484.000000	0.243932
485.000000	0.244249
486.000000	0.244463
487.000000	0.244736
488.000000	0.245187
489.000000	0.245720
490.000000	0.246049
491.000000	0.246450
492.000000	0.246908
493.000000	0.247222
494.000000	0.247530
495.000000	0.247895
496.000000	0.248341
497.000000	0.249052
498.000000	0.249546
499.000000	0.249813
500.000000	0.250212
501.000000	0.250668
502.000000	0.251195
503.000000	0.251726
504.000000	0.252026
505.000000	0.252292
506.000000	0.252751
507.000000	0.253345
508.000000	0.253903
509.000000	0.254342
510.000000	0.254904
511.000000	0.255380
512.000000	0.255804
513.000000	0.256346
514.000000	0.256881
515.000000	0.257440
516.000000	0.258018
517.000000	0.258476
518.000000	0.258989
519.000000	0.259574
520.000000	0.259979
521.000000	0.260479
522.000000	0.261133
523.000000	0.261669
524.000000	0.262234
525.000000	0.262829
526.000000	0.263432
527.000000	0.263891
528.000000	0.264346
529.000000	0.265004
530.000000	0.265661
531.000000	0.266273
532.000000	0.266771
533.000000	0.267326
534.000000	0.267917
535.000000	0.268515
536.000000	0.269114
537.000000	0.269725
538.000000	0.270353
539.000000	0.270986
540.000000	0.271586
541.000000	0.272132
542.000000	0.272660
543.000000	0.273215
544.000000	0.273862
545.000000	0.274523
546.000000	0.275089
547.000000	0.275700
548.000000	0.276354
549.000000	0.276857
550.000000	0.277405
551.000000	0.278010
552.000000	0.278580
553.000000	0.279115
554.000000	0.279696
555.000000	0.280362
556.000000	0.280988
557.000000	0.281491
558.000000	0.282005
559.000000	0.282579
560.000000	0.283118
561.000000	0.283674
562.000000	0.284217
563.000000	0.284756
564.000000	0.285325
565.000000	0.285851
566.000000	0.286415
567.000000	0.286954
568.000000	0.287413
569.000000	0.287850
570.000000	0.288333
571.000000	0.288806
572.000000	0.289121
573.000000	0.289604
574.000000	0.290114
575.000000	0.290438
576.000000	0.290853
577.000000	0.291267
578.000000	0.291639
579.000000	0.291987
580.000000	0.292345
581.000000	0.292713
582.000000	0.293036
583.000000	0.293393
584.000000	0.293753
585.000000	0.294028
586.000000	0.294332
587.000000	0.294649
588.000000	0.294949
589.000000	0.295314
590.000000	0.295633
591.000000	0.295841
592.000000	0.296000
593.000000	0.296183
594.000000	0.296420
595.000000	0.296713
596.000000	0.296936
597.000000	0.297123
598.000000	0.297277
599.000000	0.297464
600.000000	0.297630
601.000000	0.297689
602.000000	0.297969
603.000000	0.298211
604.000000	0.298320
605.000000	0.298467
606.000000	0.298577
607.000000	0.298684
608.000000	0.298874
609.000000	0.298991
610.000000	0.299104
611.000000	0.299304
612.000000	0.299430
613.000000	0.299524
614.000000	0.299671
615.000000	0.299868
616.000000	0.299982
617.000000	0.300031
618.000000	0.300309
619.000000	0.300469
620.000000	0.300512
621.000000	0.300626
622.000000	0.300685
623.000000	0.300730
624.000000	0.300812
625.000000	0.300946
626.000000	0.301059
627.000000	0.301141
628.000000	0.301276
629.000000	0.301460
630.000000	0.301584
631.000000	0.301763
632.000000	0.301846
633.000000	0.301931
634.000000	0.302118
635.000000	0.302308
636.000000	0.302513
637.000000	0.302712
638.000000	0.302876
639.000000	0.303004
640.000000	0.303147
641.000000	0.303228
642.000000	0.303433
643.000000	0.303688
644.000000	0.303856
645.000000	0.303990
646.000000	0.304158
647.000000	0.304354
648.000000	0.304474
649.000000	0.304545
650.000000	0.304606
651.000000	0.304775
652.000000	0.304970
653.000000	0.305170
654.000000	0.305292
655.000000	0.305411
656.000000	0.305602
657.000000	0.305843
658.000000	0.306051
659.000000	0.306252
660.000000	0.306452
661.000000	0.306674
662.000000	0.306875
663.000000	0.307089
664.000000	0.307283
665.000000	0.307490
666.000000	0.307684
667.000000	0.307813
668.000000	0.308016
669.000000	0.308226
670.000000	0.308418
671.000000	0.308674
672.000000	0.308902
673.000000	0.309094
674.000000	0.309329
675.000000	0.309496
676.000000	0.309639
677.000000	0.309860
678.000000	0.310154
679.000000	0.310431
680.000000	0.310654
681.000000	0.310880
682.000000	0.311151
683.000000	0.311401
684.000000	0.311695
685.000000	0.311919
686.000000	0.312135
687.000000	0.312399
688.000000	0.312656
689.000000	0.312868
690.000000	0.313077
691.000000	0.313434
692.000000	0.313705
693.000000	0.313923
694.000000	0.314259
695.000000	0.314562
696.000000	0.314782
697.000000	0.314922
698.000000	0.315146
699.000000	0.315395
700.000000	0.315614
701.000000	0.315832
702.000000	0.316108
703.000000	0.316407
704.000000	0.316616
705.000000	0.316847
706.000000	0.317090
707.000000	0.317379
708.000000	0.317621
709.000000	0.317845
710.000000	0.318111
711.000000	0.318397
712.000000	0.318695
713.000000	0.319001
714.000000	0.319259
715.000000	0.319480
716.000000	0.319697
717.000000	0.319927
718.000000	0.320173
719.000000	0.320372
720.000000	0.320523
721.000000	0.320811
722.000000	0.321084
723.000000	0.321330
724.000000	0.321537
725.000000	0.321801
726.000000	0.322154
727.000000	0.322425
728.000000	0.322654
729.000000	0.322910
730.000000	0.323177
731.000000	0.323447
732.000000	0.323633
733.000000	0.323780
734.000000	0.323979
735.000000	0.324092
736.000000	0.324264
737.000000	0.324472
738.000000	0.324632
739.000000	0.324820
740.000000	0.324944
741.000000	0.325179
742.000000	0.325322
743.000000	0.325356
744.000000	0.325564
745.000000	0.325695
746.000000	0.325796
747.000000	0.325907
748.000000	0.326114
749.000000	0.326366
750.000000	0.326557
751.000000	0.326615
752.000000	0.326660
753.000000	0.326752
754.000000	0.326875
755.000000	0.326988
756.000000	0.327073
757.000000	0.327087
758.000000	0.327126
759.000000	0.327207
760.000000	0.327257
761.000000	0.327326
762.000000	0.327480
763.000000	0.327633
764.000000	0.327696
765.000000	0.327773
766.000000	0.327873
767.000000	0.327973
768.000000	0.328054
769.000000	0.328100
770.000000	0.328133
771.000000	0.328219
772.000000	0.328301
773.000000	0.328324
774.000000	0.328379
775.000000	0.328456
776.000000	0.328533
777.000000	0.328565
778.000000	0.328505
779.000000	0.328510
780.000000	0.328579
781.000000	0.328540
782.000000	0.328512
783.000000	0.328570
784.000000	0.328575
785.000000	0.328530
786.000000	0.328512
787.000000	0.328529
788.000000	0.328474
789.000000	0.328394
790.000000	0.328337
791.000000	0.328392
792.000000	0.328350
793.000000	0.328242
794.000000	0.328134
795.000000	0.328012
796.000000	0.327894
797.000000	0.327809
798.000000	0.327805
799.000000	0.327800
800.000000	0.327744
801.000000	0.327627
802.000000	0.327594
803.000000	0.327553
804.000000	0.327499
805.000000	0.327499
806.000000	0.327431
807.000000	0.327345
808.000000	0.327215
809.000000	0.327076
810.000000	0.326988
811.000000	0.326971
812.000000	0.326983
813.000000	0.326906
814.000000	0.326755
815.000000	0.326691
816.000000	0.326571
817.000000	0.326466
818.000000	0.326381
819.000000	0.326316
820.000000	0.326294
821.000000	0.326243
822.000000	0.326102
823.000000	0.326026
824.000000	0.325951
825.000000	0.325868
826.000000	0.325770
827.000000	0.325530
828.000000	0.325213
829.000000	0.325143
830.000000	0.325108
831.000000	0.325061
832.000000	0.324867
833.000000	0.324737
834.000000	0.324634
835.000000	0.324521
836.000000	0.324307
837.000000	0.324130
838.000000	0.324052
839.000000	0.324023
840.000000	0.323946
841.000000	0.323849
842.000000	0.323731
843.000000	0.323556
844.000000	0.323458
845.000000	0.323418
846.000000	0.323322
847.000000	0.323279
848.000000	0.323246
849.000000	0.323176
850.000000	0.322968
851.000000	0.322726
852.000000	0.322564
853.000000	0.322494
854.000000	0.322358
855.000000	0.322228
856.000000	0.322036
857.000000	0.321719
858.000000	0.321526
859.000000	0.321468
860.000000	0.321401
861.000000	0.321315
862.000000	0.321189
863.000000	0.320951
864.000000	0.320812
865.000000	0.320744
866.000000	0.320686
867.000000	0.320436
868.000000	0.320344
869.000000	0.320312
870.000000	0.320185
871.000000	0.319924
872.000000	0.319663
873.000000	0.319445
874.000000	0.319356
875.000000	0.319195
876.000000	0.318915
877.000000	0.318506
878.000000	0.318301
879.000000	0.318167
880.000000	0.317914
881.000000	0.317888
882.000000	0.317739
883.000000	0.317513
884.000000	0.317335
885.000000	0.317161
886.000000	0.316946
887.000000	0.316734
888.000000	0.316649
889.000000	0.316428
890.000000	0.316049
891.000000	0.315815
892.000000	0.315606
893.000000	0.315461
894.000000	0.315419
895.000000	0.315081
896.000000	0.314799
897.000000	0.314606
898.000000	0.314436
899.000000	0.314312
900.000000	0.314192
901.000000	0.314034
902.000000	0.313929
903.000000	0.313755
904.000000	0.313589
905.000000	0.313427
906.000000	0.313259
907.000000	0.313024
908.000000	0.312771
909.000000	0.312491
910.000000	0.312404
911.000000	0.312391
912.000000	0.312303
913.000000	0.312111
914.000000	0.311925
915.000000	0.311788
916.000000	0.311518
917.000000	0.311231
918.000000	0.311089
919.000000	0.311066
920.000000	0.310697
921.000000	0.310386
922.000000	0.310211
923.000000	0.310043
924.000000	0.309825
925.000000	0.309593
926.000000	0.309400
927.000000	0.309187
928.000000	0.308927
929.000000	0.308723
930.000000	0.308673
931.000000	0.308557
932.000000	0.308352
933.000000	0.308127
934.000000	0.307931
935.000000	0.307653
936.000000	0.307468
937.000000	0.307380
938.000000	0.307105
939.000000	0.307021
940.000000	0.306971
941.000000	0.306683
942.000000	0.306450
943.000000	0.306292
944.000000	0.306075
945.000000	0.305909
946.000000	0.305661
947.000000	0.305421
948.000000	0.305238
949.000000	0.305031
950.000000	0.304897
951.000000	0.304784
952.000000	0.304622
953.000000	0.304460
954.000000	0.304295
955.000000	0.304076
956.000000	0.303946
957.000000	0.303857
958.000000	0.303646
959.000000	0.303297
960.000000	0.303077
961.000000	0.302929
962.000000	0.302795
963.000000	0.302705
964.000000	0.302555
965.000000	0.302317
966.000000	0.301983
967.000000	0.302136
968.000000	0.301935
969.000000	0.301413
970.000000	0.301127
971.000000	0.300781
972.000000	0.300665
973.000000	0.300707
974.000000	0.300542
975.000000	0.300200
976.000000	0.299926
977.000000	0.299880
978.000000	0.299883
979.000000	0.299790
980.000000	0.299561
981.000000	0.299630
982.000000	0.299465
983.000000	0.299226
984.000000	0.299059
985.000000	0.298877
986.000000	0.298522
987.000000	0.298408
988.000000	0.298540
989.000000	0.298191
990.000000	0.298023
991.000000	0.298098
992.000000	0.298262
993.000000	0.298191
994.000000	0.298203
995.000000	0.298300
996.000000	0.297935
997.000000	0.298048
998.000000	0.298122
999.000000	0.298031
1000.000000	0.298219
1001.000000	0.298283
1002.000000	0.297932
1003.000000	0.298157
1004.000000	0.297960
1005.000000	0.296173
1006.000000	0.295987
1007.000000	0.296669
1008.000000	0.297692
1009.000000	0.298251
1010.000000	0.298346
1011.000000	0.298102
1012.000000	0.297834
1013.000000	0.297397
1014.000000	0.297677
1015.000000	0.298470
1016.000000	0.298306
1017.000000	0.298246
1018.000000	0.298606
1019.000000	0.298560
1020.000000	0.298321
1021.000000	0.297798
1022.000000	0.297000
1023.000000	0.296783
1024.000000	0.296518
1025.000000	0.296019
1026.000000	0.296457
1027.000000	0.296938
1028.000000	0.296816
1029.000000	0.297317
1030.000000	0.297583
1031.000000	0.297789
1032.000000	0.298352
1033.000000	0.298460
1034.000000	0.298536
1035.000000	0.298427
1036.000000	0.298402
1037.000000	0.298292
1038.000000	0.298302
1039.000000	0.298462
1040.000000	0.298723
1041.000000	0.299031
1042.000000	0.298927
1043.000000	0.299204
1044.000000	0.299436
1045.000000	0.299359
1046.000000	0.299806
1047.000000	0.300069
1048.000000	0.300185
1049.000000	0.300240
1050.000000	0.300242
1051.000000	0.300336
1052.000000	0.300395
1053.000000	0.300559
1054.000000	0.301071
1055.000000	0.301461
1056.000000	0.301909
1057.000000	0.302114
1058.000000	0.302359
1059.000000	0.302453
1060.000000	0.302830
1061.000000	0.302992
1062.000000	0.303000
1063.000000	0.303469
1064.000000	0.303869
1065.000000	0.304233
1066.000000	0.304725
1067.000000	0.305531
1068.000000	0.305739
1069.000000	0.305627
1070.000000	0.305526
1071.000000	0.305041
1072.000000	0.304961
1073.000000	0.305035
1074.000000	0.305296
1075.000000	0.305755
1076.000000	0.306154
1077.000000	0.306738
1078.000000	0.306987
1079.000000	0.307254
1080.000000	0.307426
1081.000000	0.307702
1082.000000	0.308116
1083.000000	0.308357
1084.000000	0.308490
1085.000000	0.308798
1086.000000	0.309054
1087.000000	0.309350
1088.000000	0.309744
1089.000000	0.310088
1090.000000	0.310385
1091.000000	0.310608
1092.000000	0.310596
1093.000000	0.310882
1094.000000	0.311100
1095.000000	0.311033
1096.000000	0.311363
1097.000000	0.312120
1098.000000	0.312476
1099.000000	0.312639
1100.000000	0.313072
1101.000000	0.313418
1102.000000	0.313780
1103.000000	0.314504
1104.000000	0.314817
1105.000000	0.314637
1106.000000	0.314825
1107.000000	0.315049
1108.000000	0.315178
1109.000000	0.315466
1110.000000	0.315777
1111.000000	0.316052
1112.000000	0.316181
1113.000000	0.316458
1114.000000	0.316996
1115.000000	0.317143
1116.000000	0.316994
1117.000000	0.317120
1118.000000	0.317046
1119.000000	0.317284
1120.000000	0.317947
1121.000000	0.318357
1122.000000	0.318899
1123.000000	0.319473
1124.000000	0.319691
1125.000000	0.320044
1126.000000	0.320477
1127.000000	0.320718
1128.000000	0.320877
1129.000000	0.320996
1130.000000	0.321173
1131.000000	0.321252
1132.000000	0.321377
1133.000000	0.321606
1134.000000	0.321874
1135.000000	0.322207
1136.000000	0.322282
1137.000000	0.322185
1138.000000	0.322257
1139.000000	0.322337
1140.000000	0.322459
1141.000000	0.322675
1142.000000	0.322926
1143.000000	0.323017
1144.000000	0.323268
1145.000000	0.323620
1146.000000	0.323807
1147.000000	0.323843
1148.000000	0.323585
1149.000000	0.323625
1150.000000	0.323658
1151.000000	0.323725
1152.000000	0.323849
1153.000000	0.324019
1154.000000	0.324192
1155.000000	0.324284
1156.000000	0.324406
1157.000000	0.324547
1158.000000	0.324562
1159.000000	0.324585
1160.000000	0.324664
1161.000000	0.324739
1162.000000	0.324787
1163.000000	0.324966
1164.000000	0.325248
1165.000000	0.325411
1166.000000	0.325489
1167.000000	0.325408
1168.000000	0.325444
1169.000000	0.325435
1170.000000	0.325552
1171.000000	0.325869
1172.000000	0.326081
1173.000000	0.326325
1174.000000	0.326370
1175.000000	0.326155
1176.000000	0.326156
1177.000000	0.326264
1178.000000	0.326290
1179.000000	0.326387
1180.000000	0.326463
1181.000000	0.326549
1182.000000	0.326580
1183.000000	0.326766
1184.000000	0.326922
1185.000000	0.326968
1186.000000	0.326830
1187.000000	0.326893
1188.000000	0.327027
1189.000000	0.327089
1190.000000	0.327250
1191.000000	0.327378
1192.000000	0.327512
1193.000000	0.327757
1194.000000	0.328095
1195.000000	0.328198
1196.000000	0.328085
1197.000000	0.328101
1198.000000	0.327996
1199.000000	0.327963
1200.000000	0.328047
1201.000000	0.328131
1202.000000	0.328055
1203.000000	0.328160
1204.000000	0.328340
1205.000000	0.328473
1206.000000	0.328515
1207.000000	0.328680
1208.000000	0.328644
1209.000000	0.328445
1210.000000	0.328420
1211.000000	0.328404
1212.000000	0.328422
1213.000000	0.328603
1214.000000	0.328687
1215.000000	0.328717
1216.000000	0.328717
1217.000000	0.328628
1218.000000	0.328582
1219.000000	0.328520
1220.000000	0.328548
1221.000000	0.328736
1222.000000	0.328856
1223.000000	0.328798
1224.000000	0.328762
1225.000000	0.328616
1226.000000	0.328425
1227.000000	0.328356
1228.000000	0.328396
1229.000000	0.328394
1230.000000	0.328410
1231.000000	0.328309
1232.000000	0.328256
1233.000000	0.328362
1234.000000	0.328504
1235.000000	0.328499
1236.000000	0.328419
1237.000000	0.328444
1238.000000	0.328344
1239.000000	0.328275
1240.000000	0.328305
1241.000000	0.328323
1242.000000	0.328372
1243.000000	0.328366
1244.000000	0.328351
1245.000000	0.328500
1246.000000	0.328505
1247.000000	0.328359
1248.000000	0.328421
1249.000000	0.328553
1250.000000	0.328504
1251.000000	0.328454
1252.000000	0.328491
1253.000000	0.328555
1254.000000	0.328650
1255.000000	0.328914
1256.000000	0.329019
1257.000000	0.329039
1258.000000	0.329105
1259.000000	0.329005
1260.000000	0.329112
1261.000000	0.329410
1262.000000	0.329428
1263.000000	0.329351
1264.000000	0.329373
1265.000000	0.329229
1266.000000	0.329050
1267.000000	0.329165
1268.000000	0.329244
1269.000000	0.329102
1270.000000	0.329098
1271.000000	0.329045
1272.000000	0.328912
1273.000000	0.328926
1274.000000	0.328935
1275.000000	0.328950
1276.000000	0.329024
1277.000000	0.329130
1278.000000	0.329231
1279.000000	0.329180
1280.000000	0.328939
1281.000000	0.328842
1282.000000	0.328715
1283.000000	0.328748
1284.000000	0.328924
1285.000000	0.329020
1286.000000	0.329075
1287.000000	0.329162
1288.000000	0.329241
1289.000000	0.329211
1290.000000	0.329107
1291.000000	0.329055
1292.000000	0.328976
1293.000000	0.328970
1294.000000	0.329003
1295.000000	0.328985
1296.000000	0.329050
1297.000000	0.329133
1298.000000	0.329219
1299.000000	0.329271
1300.000000	0.329290
1301.000000	0.329238
1302.000000	0.329105
1303.000000	0.328984
1304.000000	0.328825
1305.000000	0.328668
1306.000000	0.328565
1307.000000	0.328544
1308.000000	0.328554
1309.000000	0.328623
1310.000000	0.328638
1311.000000	0.328687
1312.000000	0.328623
1313.000000	0.328579
1314.000000	0.328660
1315.000000	0.328619
1316.000000	0.328639
1317.000000	0.328677
1318.000000	0.328491
1319.000000	0.328366
1320.000000	0.328347
1321.000000	0.328281
1322.000000	0.328178
1323.000000	0.328110
1324.000000	0.328059
1325.000000	0.327933
1326.000000	0.328010
1327.000000	0.328032
1328.000000	0.327992
1329.000000	0.327935
1330.000000	0.327854
1331.000000	0.327727
1332.000000	0.327640
1333.000000	0.327558
1334.000000	0.327531
1335.000000	0.327492
1336.000000	0.327369
1337.000000	0.327325
1338.000000	0.327274
1339.000000	0.327183
1340.000000	0.327177
1341.000000	0.327277
1342.000000	0.327147
1343.000000	0.327003
1344.000000	0.326854
1345.000000	0.326723
1346.000000	0.326826
1347.000000	0.326781
1348.000000	0.326734
1349.000000	0.326603
1350.000000	0.326392
1351.000000	0.326245
1352.000000	0.326106
1353.000000	0.325922
1354.000000	0.325809
1355.000000	0.325791
1356.000000	0.325854
1357.000000	0.325831
1358.000000	0.325725
1359.000000	0.325605
1360.000000	0.325492
1361.000000	0.325324
1362.000000	0.325234
1363.000000	0.325169
1364.000000	0.325138
1365.000000	0.325243
1366.000000	0.325191
1367.000000	0.325090
1368.000000	0.324904
1369.000000	0.324810
1370.000000	0.324491
1371.000000	0.324266
1372.000000	0.324153
1373.000000	0.323934
1374.000000	0.323702
1375.000000	0.323481
1376.000000	0.323415
1377.000000	0.323279
1378.000000	0.323009
1379.000000	0.322792
1380.000000	0.322607
1381.000000	0.322339
1382.000000	0.322012
1383.000000	0.321758
1384.000000	0.321315
1385.000000	0.320862
1386.000000	0.320735
1387.000000	0.320510
1388.000000	0.320110
1389.000000	0.319771
1390.000000	0.319384
1391.000000	0.318912
1392.000000	0.318587
1393.000000	0.318208
1394.000000	0.317881
1395.000000	0.317475
1396.000000	0.317027
1397.000000	0.316505
1398.000000	0.315896
1399.000000	0.315321
1400.000000	0.314625
1401.000000	0.314066
1402.000000	0.313674
1403.000000	0.313086
1404.000000	0.312563
1405.000000	0.312195
1406.000000	0.311648
1407.000000	0.311160
1408.000000	0.310541
1409.000000	0.309879
1410.000000	0.309368
1411.000000	0.308752
1412.000000	0.308240
1413.000000	0.307789
1414.000000	0.307250
1415.000000	0.306745
1416.000000	0.306215
1417.000000	0.305817
1418.000000	0.305416
1419.000000	0.304987
1420.000000	0.304596
1421.000000	0.304318
1422.000000	0.304007
1423.000000	0.303772
1424.000000	0.303460
1425.000000	0.303084
1426.000000	0.302731
1427.000000	0.302291
1428.000000	0.301865
1429.000000	0.301503
1430.000000	0.301035
1431.000000	0.300586
1432.000000	0.300203
1433.000000	0.299859
1434.000000	0.299583
1435.000000	0.299509
1436.000000	0.299335
1437.000000	0.299093
1438.000000	0.298946
1439.000000	0.298846
1440.000000	0.298865
1441.000000	0.299067
1442.000000	0.299197
1443.000000	0.299326
1444.000000	0.299333
1445.000000	0.299334
1446.000000	0.299478
1447.000000	0.299566
1448.000000	0.299745
1449.000000	0.299905
1450.000000	0.299900
1451.000000	0.299931
1452.000000	0.299857
1453.000000	0.299754
1454.000000	0.299724
1455.000000	0.299741
1456.000000	0.299745
1457.000000	0.299674
1458.000000	0.299639
1459.000000	0.299637
1460.000000	0.299574
1461.000000	0.299494
1462.000000	0.299477
1463.000000	0.299314
1464.000000	0.299178
1465.000000	0.299271
1466.000000	0.299221
1467.000000	0.299146
1468.000000	0.299178
1469.000000	0.299186
1470.000000	0.299163
1471.000000	0.299329
1472.000000	0.299429
1473.000000	0.299541
1474.000000	0.299721
1475.000000	0.299720
1476.000000	0.299762
1477.000000	0.299961
1478.000000	0.300138
1479.000000	0.300280
1480.000000	0.300422
1481.000000	0.300546
1482.000000	0.300546
1483.000000	0.300725
1484.000000	0.301103
1485.000000	0.301341
1486.000000	0.301548
1487.000000	0.301759
1488.000000	0.301903
1489.000000	0.302089
1490.000000	0.302159
1491.000000	0.302407
1492.000000	0.302714
1493.000000	0.302958
1494.000000	0.303293
1495.000000	0.303478
1496.000000	0.303466
1497.000000	0.303629
1498.000000	0.303862
1499.000000	0.304035
1500.000000	0.304305
1501.000000	0.304477
1502.000000	0.304523
1503.000000	0.304662
1504.000000	0.304839
1505.000000	0.305045
1506.000000	0.305297
1507.000000	0.305419
1508.000000	0.305609
1509.000000	0.305842
1510.000000	0.305943
1511.000000	0.306139
1512.000000	0.306251
1513.000000	0.306260
1514.000000	0.306448
1515.000000	0.306618
1516.000000	0.306765
1517.000000	0.306790
1518.000000	0.306834
1519.000000	0.307006
1520.000000	0.307145
1521.000000	0.307346
1522.000000	0.307435
1523.000000	0.307353
1524.000000	0.307377
1525.000000	0.307347
1526.000000	0.307330
1527.000000	0.307448
1528.000000	0.307481
1529.000000	0.307515
1530.000000	0.307525
1531.000000	0.307557
1532.000000	0.307623
1533.000000	0.307636
1534.000000	0.307770
1535.000000	0.308013
1536.000000	0.308032
1537.000000	0.308054
1538.000000	0.308126
1539.000000	0.307963
1540.000000	0.307868
1541.000000	0.307939
1542.000000	0.307969
1543.000000	0.308038
1544.000000	0.308098
1545.000000	0.308175
1546.000000	0.308190
1547.000000	0.308141
1548.000000	0.308133
1549.000000	0.308134
1550.000000	0.308178
1551.000000	0.308196
1552.000000	0.308266
1553.000000	0.308289
1554.000000	0.308155
1555.000000	0.308218
1556.000000	0.308297
1557.000000	0.308189
1558.000000	0.308173
1559.000000	0.308123
1560.000000	0.308060
1561.000000	0.308053
1562.000000	0.308051
1563.000000	0.308095
1564.000000	0.308124
1565.000000	0.308124
1566.000000	0.308082
1567.000000	0.308137
1568.000000	0.308141
1569.000000	0.308190
1570.000000	0.308163
1571.000000	0.308074
1572.000000	0.307991
1573.000000	0.307900
1574.000000	0.307821
1575.000000	0.307699
1576.000000	0.307668
1577.000000	0.307691
1578.000000	0.307640
1579.000000	0.307635
1580.000000	0.307706
1581.000000	0.307858
1582.000000	0.307932
1583.000000	0.308087
1584.000000	0.308096
1585.000000	0.308009
1586.000000	0.308006
1587.000000	0.307997
1588.000000	0.308023
1589.000000	0.308098
1590.000000	0.308148
1591.000000	0.308266
1592.000000	0.308305
1593.000000	0.308335
1594.000000	0.308323
1595.000000	0.308285
1596.000000	0.308284
1597.000000	0.308273
1598.000000	0.308243
1599.000000	0.308350
1600.000000	0.308238
1601.000000	0.308053
1602.000000	0.307974
1603.000000	0.307768
1604.000000	0.307659
1605.000000	0.307739
1606.000000	0.307750
1607.000000	0.307823
1608.000000	0.307899
1609.000000	0.307991
1610.000000	0.308085
1611.000000	0.308232
1612.000000	0.308333
1613.000000	0.308503
1614.000000	0.308637
1615.000000	0.308891
1616.000000	0.308961
1617.000000	0.308844
1618.000000	0.308892
1619.000000	0.308832
1620.000000	0.308839
1621.000000	0.309075
1622.000000	0.309208
1623.000000	0.309224
1624.000000	0.309245
1625.000000	0.309085
1626.000000	0.309088
1627.000000	0.309162
1628.000000	0.309216
1629.000000	0.309397
1630.000000	0.309484
1631.000000	0.309363
1632.000000	0.309367
1633.000000	0.309451
1634.000000	0.309510
1635.000000	0.309633
1636.000000	0.309750
1637.000000	0.309889
1638.000000	0.309984
1639.000000	0.310145
1640.000000	0.310196
1641.000000	0.310208
1642.000000	0.310259
1643.000000	0.310325
1644.000000	0.310395
1645.000000	0.310532
1646.000000	0.310567
1647.000000	0.310584
1648.000000	0.310483
1649.000000	0.310354
1650.000000	0.310339
1651.000000	0.310322
1652.000000	0.310351
1653.000000	0.310430
1654.000000	0.310491
1655.000000	0.310461
1656.000000	0.310456
1657.000000	0.310560
1658.000000	0.310644
1659.000000	0.310868
1660.000000	0.310979
1661.000000	0.310958
1662.000000	0.310995
1663.000000	0.310916
1664.000000	0.310969
1665.000000	0.311167
1666.000000	0.311331
1667.000000	0.311425
1668.000000	0.311523
1669.000000	0.311551
1670.000000	0.311607
1671.000000	0.311783
1672.000000	0.311968
1673.000000	0.312200
1674.000000	0.312339
1675.000000	0.312372
1676.000000	0.312323
1677.000000	0.312302
1678.000000	0.312338
1679.000000	0.312480
1680.000000	0.312542
1681.000000	0.312558
1682.000000	0.312707
1683.000000	0.312719
1684.000000	0.312670
1685.000000	0.312807
1686.000000	0.312737
1687.000000	0.312547
1688.000000	0.312631
1689.000000	0.312664
1690.000000	0.312468
1691.000000	0.312589
1692.000000	0.312583
1693.000000	0.312352
1694.000000	0.312380
1695.000000	0.312547
1696.000000	0.312438
1697.000000	0.312391
1698.000000	0.312395
1699.000000	0.312372
1700.000000	0.312438
1701.000000	0.312519
1702.000000	0.312308
1703.000000	0.312186
1704.000000	0.312193
1705.000000	0.312196
1706.000000	0.312280
1707.000000	0.312381
1708.000000	0.312465
1709.000000	0.312532
1710.000000	0.312812
1711.000000	0.312892
1712.000000	0.312871
1713.000000	0.312845
1714.000000	0.312708
1715.000000	0.312650
1716.000000	0.312667
1717.000000	0.312656
1718.000000	0.312612
1719.000000	0.312544
1720.000000	0.312509
1721.000000	0.312474
1722.000000	0.312459
1723.000000	0.312379
1724.000000	0.312241
1725.000000	0.312265
1726.000000	0.312242
1727.000000	0.312226
1728.000000	0.312291
1729.000000	0.312233
1730.000000	0.312162
1731.000000	0.312195
1732.000000	0.312302
1733.000000	0.312440
1734.000000	0.312506
1735.000000	0.312579
1736.000000	0.312642
1737.000000	0.312688
1738.000000	0.312771
1739.000000	0.312748
1740.000000	0.312637
1741.000000	0.312564
1742.000000	0.312441
1743.000000	0.312410
1744.000000	0.312386
1745.000000	0.312484
1746.000000	0.312665
1747.000000	0.312726
1748.000000	0.312783
1749.000000	0.312740
1750.000000	0.312681
1751.000000	0.312843
1752.000000	0.312988
1753.000000	0.312889
1754.000000	0.312873
1755.000000	0.312848
1756.000000	0.312821
1757.000000	0.312774
1758.000000	0.312833
1759.000000	0.312993
1760.000000	0.313051
1761.000000	0.313099
1762.000000	0.313100
1763.000000	0.312950
1764.000000	0.312945
1765.000000	0.313038
1766.000000	0.313051
1767.000000	0.312996
1768.000000	0.312921
1769.000000	0.312843
1770.000000	0.312851
1771.000000	0.312904
1772.000000	0.312884
1773.000000	0.312730
1774.000000	0.312795
1775.000000	0.313014
1776.000000	0.313117
1777.000000	0.313295
1778.000000	0.313381
1779.000000	0.313304
1780.000000	0.313339
1781.000000	0.313372
1782.000000	0.313502
1783.000000	0.313738
1784.000000	0.313939
1785.000000	0.313982
1786.000000	0.313889
1787.000000	0.313907
1788.000000	0.313854
1789.000000	0.313844
1790.000000	0.313847
1791.000000	0.313806
1792.000000	0.313938
1793.000000	0.313973
1794.000000	0.313910
1795.000000	0.313920
1796.000000	0.313879
1797.000000	0.313920
1798.000000	0.314070
1799.000000	0.314156
1800.000000	0.314300
1801.000000	0.313361
1802.000000	0.313956
1803.000000	0.315209
1804.000000	0.315587
1805.000000	0.315181
1806.000000	0.315264
1807.000000	0.315619
1808.000000	0.315438
1809.000000	0.315012
1810.000000	0.314494
1811.000000	0.314088
1812.000000	0.313198
1813.000000	0.312815
1814.000000	0.312853
1815.000000	0.312827
1816.000000	0.313106
1817.000000	0.312851
1818.000000	0.312567
1819.000000	0.312117
1820.000000	0.311492
1821.000000	0.311346
1822.000000	0.311522
1823.000000	0.312612
1824.000000	0.312737
1825.000000	0.312211
1826.000000	0.312448
1827.000000	0.312713
1828.000000	0.312752
1829.000000	0.313282
1830.000000	0.313914
1831.000000	0.313975
1832.000000	0.313193
1833.000000	0.313086
1834.000000	0.313209
1835.000000	0.313246
1836.000000	0.313426
1837.000000	0.313320
1838.000000	0.313178
1839.000000	0.312346
1840.000000	0.311486
1841.000000	0.311560
1842.000000	0.311226
1843.000000	0.310558
1844.000000	0.310956
1845.000000	0.311919
1846.000000	0.312346
1847.000000	0.313621
1848.000000	0.313742
1849.000000	0.312380
1850.000000	0.311685
1851.000000	0.310975
1852.000000	0.309559
1853.000000	0.309114
1854.000000	0.309158
1855.000000	0.308874
1856.000000	0.308540
1857.000000	0.308768
1858.000000	0.308458
1859.000000	0.308506
1860.000000	0.308151
1861.000000	0.307910
1862.000000	0.307733
1863.000000	0.307655
1864.000000	0.307265
1865.000000	0.307061
1866.000000	0.306595
1867.000000	0.305990
1868.000000	0.304648
1869.000000	0.303499
1870.000000	0.302379
1871.000000	0.301182
1872.000000	0.300510
1873.000000	0.299869
1874.000000	0.299767
1875.000000	0.299210
1876.000000	0.298365
1877.000000	0.297046
1878.000000	0.296163
1879.000000	0.294416
1880.000000	0.292973
1881.000000	0.292405
1882.000000	0.291036
1883.000000	0.289746
1884.000000	0.288373
1885.000000	0.286537
1886.000000	0.284580
1887.000000	0.282476
1888.000000	0.280415
1889.000000	0.278375
1890.000000	0.275899
1891.000000	0.273993
1892.000000	0.272499
1893.000000	0.270155
1894.000000	0.268084
1895.000000	0.265942
1896.000000	0.264093
1897.000000	0.261282
1898.000000	0.258306
1899.000000	0.256138
1900.000000	0.253571
1901.000000	0.250672
1902.000000	0.248700
1903.000000	0.246825
1904.000000	0.244771
1905.000000	0.242991
1906.000000	0.241522
1907.000000	0.240411
1908.000000	0.239307
1909.000000	0.238223
1910.000000	0.237564
1911.000000	0.236008
1912.000000	0.234034
1913.000000	0.232891
1914.000000	0.231337
1915.000000	0.230238
1916.000000	0.229759
1917.000000	0.229163
1918.000000	0.228657
1919.000000	0.228528
1920.000000	0.227793
1921.000000	0.227061
1922.000000	0.226016
1923.000000	0.225075
1924.000000	0.224733
1925.000000	0.224389
1926.000000	0.224695
1927.000000	0.224639
1928.000000	0.224709
1929.000000	0.224973
1930.000000	0.225633
1931.000000	0.225505
1932.000000	0.225473
1933.000000	0.225582
1934.000000	0.225478
1935.000000	0.225584
1936.000000	0.225845
1937.000000	0.225996
1938.000000	0.225852
1939.000000	0.225781
1940.000000	0.225615
1941.000000	0.225923
1942.000000	0.225702
1943.000000	0.225073
1944.000000	0.224742
1945.000000	0.224288
1946.000000	0.224722
1947.000000	0.225463
1948.000000	0.225931
1949.000000	0.226512
1950.000000	0.226304
1951.000000	0.226122
1952.000000	0.225927
1953.000000	0.225736
1954.000000	0.225007
1955.000000	0.224899
1956.000000	0.224771
1957.000000	0.224423
1958.000000	0.224473
1959.000000	0.224484
1960.000000	0.224671
1961.000000	0.225171
1962.000000	0.225112
1963.000000	0.224969
1964.000000	0.224564
1965.000000	0.223804
1966.000000	0.222737
1967.000000	0.222598
1968.000000	0.223239
1969.000000	0.223498
1970.000000	0.224068
1971.000000	0.224284
1972.000000	0.223673
1973.000000	0.223586
1974.000000	0.223634
1975.000000	0.223898
1976.000000	0.224460
1977.000000	0.225446
1978.000000	0.225754
1979.000000	0.226197
1980.000000	0.226342
1981.000000	0.225720
1982.000000	0.225737
1983.000000	0.225954
1984.000000	0.226040
1985.000000	0.226410
1986.000000	0.226810
1987.000000	0.227461
1988.000000	0.227297
1989.000000	0.227070
1990.000000	0.227259
1991.000000	0.227318
1992.000000	0.227853
1993.000000	0.229542
1994.000000	0.231144
1995.000000	0.232143
1996.000000	0.233092
1997.000000	0.233895
1998.000000	0.234398
1999.000000	0.234827
2000.000000	0.235215
2001.000000	0.235449
2002.000000	0.235397
2003.000000	0.235350
2004.000000	0.235760
2005.000000	0.236669
2006.000000	0.237866
2007.000000	0.238922
2008.000000	0.239606
2009.000000	0.239821
2010.000000	0.240266
2011.000000	0.240216
2012.000000	0.240797
2013.000000	0.241653
2014.000000	0.242628
2015.000000	0.243829
2016.000000	0.244916
2017.000000	0.245376
2018.000000	0.245442
2019.000000	0.245443
2020.000000	0.245336
2021.000000	0.245541
2022.000000	0.245858
2023.000000	0.246496
2024.000000	0.247543
2025.000000	0.248314
2026.000000	0.249063
2027.000000	0.250021
2028.000000	0.250204
2029.000000	0.250660
2030.000000	0.251234
2031.000000	0.251104
2032.000000	0.251377
2033.000000	0.251897
2034.000000	0.251840
2035.000000	0.251185
2036.000000	0.251233
2037.000000	0.251191
2038.000000	0.251569
2039.000000	0.252623
2040.000000	0.254016
2041.000000	0.254304
2042.000000	0.254980
2043.000000	0.255435
2044.000000	0.255566
2045.000000	0.256597
2046.000000	0.257319
2047.000000	0.257520
2048.000000	0.257194
2049.000000	0.257361
2050.000000	0.256674
2051.000000	0.256626
2052.000000	0.257239
2053.000000	0.257657
2054.000000	0.258335
2055.000000	0.258822
2056.000000	0.260059
2057.000000	0.260604
2058.000000	0.261005
2059.000000	0.262378
2060.000000	0.263138
2061.000000	0.263713
2062.000000	0.264207
2063.000000	0.264583
2064.000000	0.264608
2065.000000	0.264363
2066.000000	0.264479
2067.000000	0.264494
2068.000000	0.265441
2069.000000	0.266686
2070.000000	0.267324
2071.000000	0.267890
2072.000000	0.268226
2073.000000	0.268110
2074.000000	0.268648
2075.000000	0.269154
2076.000000	0.269871
2077.000000	0.270188
2078.000000	0.270546
2079.000000	0.270633
2080.000000	0.270074
2081.000000	0.270180
2082.000000	0.270644
2083.000000	0.271128
2084.000000	0.270947
2085.000000	0.271416
2086.000000	0.272080
2087.000000	0.271976
2088.000000	0.272729
2089.000000	0.273629
2090.000000	0.273974
2091.000000	0.273741
2092.000000	0.274172
2093.000000	0.274770
2094.000000	0.275116
2095.000000	0.275923
2096.000000	0.276137
2097.000000	0.275740
2098.000000	0.275242
2099.000000	0.275299
2100.000000	0.274856
2101.000000	0.274677
2102.000000	0.275286
2103.000000	0.275470
2104.000000	0.276164
2105.000000	0.277045
2106.000000	0.278616
2107.000000	0.279279
2108.000000	0.280008
2109.000000	0.280194
2110.000000	0.279173
2111.000000	0.278804
2112.000000	0.278247
2113.000000	0.277820
2114.000000	0.277992
2115.000000	0.278470
2116.000000	0.279254
2117.000000	0.279478
2118.000000	0.279069
2119.000000	0.278911
2120.000000	0.278994
2121.000000	0.278782
2122.000000	0.279221
2123.000000	0.280646
2124.000000	0.281178
2125.000000	0.281795
2126.000000	0.281864
2127.000000	0.280921
2128.000000	0.280813
2129.000000	0.280590
2130.000000	0.280676
2131.000000	0.281550
2132.000000	0.281940
2133.000000	0.282555
2134.000000	0.283731
2135.000000	0.283625
2136.000000	0.283835
2137.000000	0.283624
2138.000000	0.282151
2139.000000	0.282082
2140.000000	0.282785
2141.000000	0.283013
2142.000000	0.283747
2143.000000	0.284153
2144.000000	0.284631
2145.000000	0.284617
2146.000000	0.284432
2147.000000	0.284603
2148.000000	0.283537
2149.000000	0.282737
2150.000000	0.282776
2151.000000	0.282376
2152.000000	0.283449
2153.000000	0.284331
2154.000000	0.284125
2155.000000	0.283560
2156.000000	0.283229
2157.000000	0.281633
2158.000000	0.281107
2159.000000	0.281644
2160.000000	0.281684
2161.000000	0.281050
2162.000000	0.281659
2163.000000	0.283753
2164.000000	0.284451
2165.000000	0.285001
2166.000000	0.285548
2167.000000	0.285218
2168.000000	0.284004
2169.000000	0.283715
2170.000000	0.283643
2171.000000	0.282798
2172.000000	0.280899
2173.000000	0.280333
2174.000000	0.279582
2175.000000	0.279664
2176.000000	0.281735
2177.000000	0.282361
2178.000000	0.282738
2179.000000	0.283135
2180.000000	0.282306
2181.000000	0.282630
2182.000000	0.283441
2183.000000	0.283747
2184.000000	0.283619
2185.000000	0.282852
2186.000000	0.281658
2187.000000	0.281226
2188.000000	0.281993
2189.000000	0.283495
2190.000000	0.284490
2191.000000	0.285165
2192.000000	0.284925
2193.000000	0.282774
2194.000000	0.282320
2195.000000	0.282155
2196.000000	0.282281
2197.000000	0.283606
2198.000000	0.284382
2199.000000	0.285150
2200.000000	0.285242
2201.000000	0.285697
2202.000000	0.284962
2203.000000	0.282432
2204.000000	0.280308
2205.000000	0.276111
2206.000000	0.274012
2207.000000	0.273889
2208.000000	0.273255
2209.000000	0.276170
2210.000000	0.279842
2211.000000	0.282009
2212.000000	0.285223
2213.000000	0.286983
2214.000000	0.286945
2215.000000	0.287746
2216.000000	0.289196
2217.000000	0.289015
2218.000000	0.288427
2219.000000	0.287517
2220.000000	0.284401
2221.000000	0.282767
2222.000000	0.281845
2223.000000	0.280322
2224.000000	0.277653
2225.000000	0.278224
2226.000000	0.278431
2227.000000	0.279699
2228.000000	0.281870
2229.000000	0.281959
2230.000000	0.280705
2231.000000	0.279732
2232.000000	0.279897
2233.000000	0.279536
2234.000000	0.279041
2235.000000	0.280361
2236.000000	0.281105
2237.000000	0.281798
2238.000000	0.282576
2239.000000	0.284031
2240.000000	0.283878
2241.000000	0.282774
2242.000000	0.281694
2243.000000	0.278999
2244.000000	0.278530
2245.000000	0.278781
2246.000000	0.279308
2247.000000	0.281201
2248.000000	0.283085
2249.000000	0.285721
2250.000000	0.287738
2251.000000	0.288733
2252.000000	0.287752
2253.000000	0.283398
2254.000000	0.278975
2255.000000	0.275876
2256.000000	0.274246
2257.000000	0.277652
2258.000000	0.280116
2259.000000	0.280885
2260.000000	0.282552
2261.000000	0.279682
2262.000000	0.270602
2263.000000	0.267704
2264.000000	0.263592
2265.000000	0.263180
2266.000000	0.268629
2267.000000	0.270448
2268.000000	0.272335
2269.000000	0.274027
2270.000000	0.275061
2271.000000	0.275078
2272.000000	0.275248
2273.000000	0.274629
2274.000000	0.271017
2275.000000	0.269176
2276.000000	0.268030
2277.000000	0.267513
2278.000000	0.266040
2279.000000	0.266274
2280.000000	0.264136
2281.000000	0.260824
2282.000000	0.258927
2283.000000	0.258668
2284.000000	0.261688
2285.000000	0.264278
2286.000000	0.266636
2287.000000	0.268568
2288.000000	0.267266
2289.000000	0.266539
2290.000000	0.266113
2291.000000	0.265476
2292.000000	0.267549
2293.000000	0.269909
2294.000000	0.270305
2295.000000	0.269672
2296.000000	0.269315
2297.000000	0.266635
2298.000000	0.266322
2299.000000	0.268191
2300.000000	0.268846
2301.000000	0.270547
2302.000000	0.270849
2303.000000	0.269170
2304.000000	0.268276
2305.000000	0.267382
2306.000000	0.266023
2307.000000	0.263877
2308.000000	0.263545
2309.000000	0.264069
2310.000000	0.263347
2311.000000	0.265140
2312.000000	0.269333
2313.000000	0.272621
2314.000000	0.275262
2315.000000	0.275651
2316.000000	0.274709
2317.000000	0.272593
2318.000000	0.271067
2319.000000	0.270713
2320.000000	0.268390
2321.000000	0.266461
2322.000000	0.262890
2323.000000	0.260634
2324.000000	0.261923
2325.000000	0.260063
2326.000000	0.260552
2327.000000	0.261762
2328.000000	0.260514
2329.000000	0.262161
2330.000000	0.261765
2331.000000	0.260633
2332.000000	0.261258
2333.000000	0.259954
2334.000000	0.257734
2335.000000	0.256509
2336.000000	0.254110
2337.000000	0.251916
2338.000000	0.250808
2339.000000	0.250797
2340.000000	0.250415
2341.000000	0.251198
2342.000000	0.253183
2343.000000	0.254014
2344.000000	0.255465
2345.000000	0.255561
2346.000000	0.255657
2347.000000	0.256006
2348.000000	0.255021
2349.000000	0.255378
2350.000000	0.256289
2351.000000	0.255392
2352.000000	0.256613
2353.000000	0.255484
2354.000000	0.253809
2355.000000	0.251853
2356.000000	0.245586
2357.000000	0.243045
2358.000000	0.242201
2359.000000	0.241676
2360.000000	0.245498
2361.000000	0.246662
2362.000000	0.246220
2363.000000	0.247740
2364.000000	0.246275
2365.000000	0.244059
2366.000000	0.243726
2367.000000	0.240297
2368.000000	0.238032
2369.000000	0.238614
2370.000000	0.238536
2371.000000	0.242919
2372.000000	0.245285
2373.000000	0.248225
2374.000000	0.250838
2375.000000	0.246446
2376.000000	0.244695
2377.000000	0.239657
2378.000000	0.232664
2379.000000	0.230245
2380.000000	0.226867
2381.000000	0.225718
2382.000000	0.227316
2383.000000	0.225925
2384.000000	0.225471
2385.000000	0.225272
2386.000000	0.222376
2387.000000	0.223911
2388.000000	0.222573
2389.000000	0.221448
2390.000000	0.223222
2391.000000	0.215166
2392.000000	0.212876
2393.000000	0.213293
2394.000000	0.208153
2395.000000	0.211160
2396.000000	0.213867
2397.000000	0.217048
2398.000000	0.225565
2399.000000	0.231142
2400.000000	0.230732
2401.000000	0.223424
2402.000000	0.218150
2403.000000	0.211422
2404.000000	0.204870
2405.000000	0.209029
2406.000000	0.212262
2407.000000	0.218121
2408.000000	0.224838
2409.000000	0.228971
2410.000000	0.233020
2411.000000	0.227158
2412.000000	0.222800
2413.000000	0.226085
2414.000000	0.225058
2415.000000	0.229712
2416.000000	0.245735
2417.000000	0.253869
2418.000000	0.250102
2419.000000	0.243399
2420.000000	0.232619
2421.000000	0.213606
2422.000000	0.204056
2423.000000	0.205300
2424.000000	0.199604
2425.000000	0.204838
2426.000000	0.210922
2427.000000	0.215709
2428.000000	0.220409
2429.000000	0.213253
2430.000000	0.215028
2431.000000	0.213360
2432.000000	0.209887
2433.000000	0.216838
2434.000000	0.209128
2435.000000	0.201424
2436.000000	0.207106
2437.000000	0.198781
2438.000000	0.196616
2439.000000	0.190224
2440.000000	0.173218
2441.000000	0.176918
2442.000000	0.178179
2443.000000	0.186375
2444.000000	0.195505
2445.000000	0.190828
2446.000000	0.193556
2447.000000	0.182774
2448.000000	0.172114
2449.000000	0.169181
2450.000000	0.166012
2451.000000	0.174053
2452.000000	0.187490
2453.000000	0.212383
2454.000000	0.225152
2455.000000	0.226599
2456.000000	0.228401
2457.000000	0.222229
2458.000000	0.224781
2459.000000	0.218290
2460.000000	0.225930
2461.000000	0.230520
2462.000000	0.210076
2463.000000	0.230080
2464.000000	0.233298
2465.000000	0.219132
2466.000000	0.237964
2467.000000	0.229888
2468.000000	0.222394
2469.000000	0.219517
2470.000000	0.203911
2471.000000	0.203114
2472.000000	0.201006
2473.000000	0.205864
2474.000000	0.209351
2475.000000	0.226705
2476.000000	0.239972
2477.000000	0.232626
2478.000000	0.258707
2479.000000	0.244662
2480.000000	0.234960
2481.000000	0.270687
2482.000000	0.259289
2483.000000	0.252040
2484.000000	0.242692
2485.000000	0.229510
2486.000000	0.230567
2487.000000	0.241348
2488.000000	0.270883
2489.000000	0.261742
2490.000000	0.249718
2491.000000	0.256180
2492.000000	0.230204
2493.000000	0.171572
2494.000000	0.155377
2495.000000	0.137808
2496.000000	0.122236
2497.000000	0.141387
2498.000000	0.164786
2499.000000	0.192785
2500.000000	0.205755
