# Wavelength	NAu-2-40_HEX-40_FV7-20_000000000.asd.rts.txt
350.000000	0.142796
351.000000	0.145995
352.000000	0.147670
353.000000	0.142998
354.000000	0.134268
355.000000	0.133261
356.000000	0.132131
357.000000	0.130932
358.000000	0.132854
359.000000	0.136315
360.000000	0.136214
361.000000	0.129212
362.000000	0.130838
363.000000	0.133732
364.000000	0.132560
365.000000	0.132047
366.000000	0.131681
367.000000	0.131084
368.000000	0.130191
369.000000	0.131465
370.000000	0.133097
371.000000	0.132555
372.000000	0.133449
373.000000	0.133085
374.000000	0.130998
375.000000	0.133427
376.000000	0.135148
377.000000	0.134616
378.000000	0.133783
379.000000	0.133401
380.000000	0.133428
381.000000	0.133879
382.000000	0.134418
383.000000	0.134211
384.000000	0.133265
385.000000	0.133304
386.000000	0.134004
387.000000	0.134845
388.000000	0.134771
389.000000	0.135432
390.000000	0.136280
391.000000	0.135968
392.000000	0.135419
393.000000	0.134896
394.000000	0.134624
395.000000	0.135070
396.000000	0.135879
397.000000	0.136528
398.000000	0.136188
399.000000	0.136101
400.000000	0.136393
401.000000	0.136654
402.000000	0.136932
403.000000	0.137023
404.000000	0.136974
405.000000	0.137597
406.000000	0.138160
407.000000	0.138328
408.000000	0.138320
409.000000	0.138542
410.000000	0.138869
411.000000	0.138841
412.000000	0.139251
413.000000	0.139804
414.000000	0.140058
415.000000	0.140099
416.000000	0.140266
417.000000	0.140715
418.000000	0.141252
419.000000	0.141562
420.000000	0.141709
421.000000	0.142085
422.000000	0.142494
423.000000	0.142807
424.000000	0.142990
425.000000	0.143252
426.000000	0.143543
427.000000	0.143823
428.000000	0.144234
429.000000	0.144640
430.000000	0.144977
431.000000	0.145234
432.000000	0.145578
433.000000	0.145899
434.000000	0.146044
435.000000	0.146423
436.000000	0.146838
437.000000	0.147050
438.000000	0.147258
439.000000	0.147493
440.000000	0.147800
441.000000	0.148070
442.000000	0.148396
443.000000	0.148704
444.000000	0.148901
445.000000	0.149138
446.000000	0.149521
447.000000	0.149990
448.000000	0.150293
449.000000	0.150596
450.000000	0.151030
451.000000	0.151490
452.000000	0.152012
453.000000	0.152521
454.000000	0.152943
455.000000	0.153345
456.000000	0.153770
457.000000	0.154134
458.000000	0.154332
459.000000	0.154621
460.000000	0.155200
461.000000	0.155647
462.000000	0.156018
463.000000	0.156307
464.000000	0.156673
465.000000	0.157057
466.000000	0.157391
467.000000	0.157670
468.000000	0.158109
469.000000	0.158511
470.000000	0.158745
471.000000	0.159065
472.000000	0.159420
473.000000	0.159772
474.000000	0.160137
475.000000	0.160460
476.000000	0.160801
477.000000	0.161127
478.000000	0.161415
479.000000	0.161805
480.000000	0.162258
481.000000	0.162472
482.000000	0.162670
483.000000	0.162960
484.000000	0.163385
485.000000	0.163733
486.000000	0.164007
487.000000	0.164192
488.000000	0.164428
489.000000	0.164730
490.000000	0.165007
491.000000	0.165214
492.000000	0.165421
493.000000	0.165626
494.000000	0.165758
495.000000	0.165881
496.000000	0.166022
497.000000	0.166176
498.000000	0.166277
499.000000	0.166382
500.000000	0.166589
501.000000	0.166726
502.000000	0.166854
503.000000	0.167071
504.000000	0.167285
505.000000	0.167471
506.000000	0.167642
507.000000	0.167874
508.000000	0.168156
509.000000	0.168456
510.000000	0.168818
511.000000	0.169164
512.000000	0.169484
513.000000	0.169783
514.000000	0.170154
515.000000	0.170583
516.000000	0.170981
517.000000	0.171349
518.000000	0.171757
519.000000	0.172197
520.000000	0.172634
521.000000	0.173080
522.000000	0.173556
523.000000	0.174084
524.000000	0.174691
525.000000	0.175381
526.000000	0.176167
527.000000	0.176966
528.000000	0.177823
529.000000	0.178824
530.000000	0.179848
531.000000	0.180973
532.000000	0.182176
533.000000	0.183411
534.000000	0.184626
535.000000	0.185840
536.000000	0.187186
537.000000	0.188490
538.000000	0.189718
539.000000	0.190886
540.000000	0.192087
541.000000	0.193244
542.000000	0.194312
543.000000	0.195365
544.000000	0.196429
545.000000	0.197465
546.000000	0.198487
547.000000	0.199556
548.000000	0.200678
549.000000	0.201751
550.000000	0.202899
551.000000	0.204161
552.000000	0.205506
553.000000	0.206876
554.000000	0.208315
555.000000	0.209860
556.000000	0.211491
557.000000	0.213130
558.000000	0.214837
559.000000	0.216577
560.000000	0.218320
561.000000	0.220102
562.000000	0.221867
563.000000	0.223559
564.000000	0.225221
565.000000	0.226819
566.000000	0.228361
567.000000	0.229842
568.000000	0.231231
569.000000	0.232491
570.000000	0.233676
571.000000	0.234787
572.000000	0.235803
573.000000	0.236698
574.000000	0.237468
575.000000	0.238167
576.000000	0.238834
577.000000	0.239402
578.000000	0.239874
579.000000	0.240282
580.000000	0.240629
581.000000	0.240907
582.000000	0.241093
583.000000	0.241220
584.000000	0.241306
585.000000	0.241367
586.000000	0.241368
587.000000	0.241295
588.000000	0.241153
589.000000	0.240996
590.000000	0.240794
591.000000	0.240532
592.000000	0.240249
593.000000	0.239928
594.000000	0.239555
595.000000	0.239120
596.000000	0.238661
597.000000	0.238209
598.000000	0.237709
599.000000	0.237206
600.000000	0.236701
601.000000	0.236133
602.000000	0.235572
603.000000	0.235023
604.000000	0.234488
605.000000	0.233946
606.000000	0.233370
607.000000	0.232779
608.000000	0.232218
609.000000	0.231631
610.000000	0.231075
611.000000	0.230601
612.000000	0.230037
613.000000	0.229464
614.000000	0.228966
615.000000	0.228461
616.000000	0.227948
617.000000	0.227423
618.000000	0.226953
619.000000	0.226532
620.000000	0.226117
621.000000	0.225698
622.000000	0.225320
623.000000	0.224963
624.000000	0.224602
625.000000	0.224257
626.000000	0.223937
627.000000	0.223642
628.000000	0.223343
629.000000	0.223092
630.000000	0.222804
631.000000	0.222534
632.000000	0.222302
633.000000	0.222108
634.000000	0.221934
635.000000	0.221752
636.000000	0.221596
637.000000	0.221467
638.000000	0.221353
639.000000	0.221266
640.000000	0.221230
641.000000	0.221152
642.000000	0.221123
643.000000	0.221148
644.000000	0.221206
645.000000	0.221255
646.000000	0.221322
647.000000	0.221408
648.000000	0.221505
649.000000	0.221642
650.000000	0.221822
651.000000	0.222057
652.000000	0.222264
653.000000	0.222488
654.000000	0.222767
655.000000	0.223085
656.000000	0.223448
657.000000	0.223825
658.000000	0.224254
659.000000	0.224706
660.000000	0.225158
661.000000	0.225642
662.000000	0.226111
663.000000	0.226617
664.000000	0.227184
665.000000	0.227758
666.000000	0.228355
667.000000	0.228985
668.000000	0.229678
669.000000	0.230412
670.000000	0.231173
671.000000	0.231962
672.000000	0.232794
673.000000	0.233643
674.000000	0.234464
675.000000	0.235324
676.000000	0.236236
677.000000	0.237203
678.000000	0.238168
679.000000	0.239170
680.000000	0.240232
681.000000	0.241281
682.000000	0.242391
683.000000	0.243531
684.000000	0.244740
685.000000	0.245966
686.000000	0.247223
687.000000	0.248507
688.000000	0.249824
689.000000	0.251179
690.000000	0.252597
691.000000	0.254039
692.000000	0.255479
693.000000	0.256969
694.000000	0.258503
695.000000	0.260046
696.000000	0.261602
697.000000	0.263194
698.000000	0.264801
699.000000	0.266443
700.000000	0.268136
701.000000	0.269825
702.000000	0.271565
703.000000	0.273348
704.000000	0.275122
705.000000	0.276946
706.000000	0.278797
707.000000	0.280697
708.000000	0.282586
709.000000	0.284467
710.000000	0.286371
711.000000	0.288296
712.000000	0.290271
713.000000	0.292298
714.000000	0.294284
715.000000	0.296256
716.000000	0.298246
717.000000	0.300269
718.000000	0.302313
719.000000	0.304368
720.000000	0.306438
721.000000	0.308488
722.000000	0.310502
723.000000	0.312546
724.000000	0.314612
725.000000	0.316645
726.000000	0.318699
727.000000	0.320711
728.000000	0.322712
729.000000	0.324706
730.000000	0.326646
731.000000	0.328594
732.000000	0.330539
733.000000	0.332488
734.000000	0.334340
735.000000	0.336170
736.000000	0.338084
737.000000	0.339926
738.000000	0.341737
739.000000	0.343576
740.000000	0.345302
741.000000	0.347050
742.000000	0.348771
743.000000	0.350403
744.000000	0.351967
745.000000	0.353499
746.000000	0.355042
747.000000	0.356530
748.000000	0.358021
749.000000	0.359502
750.000000	0.360920
751.000000	0.362295
752.000000	0.363631
753.000000	0.364943
754.000000	0.366227
755.000000	0.367450
756.000000	0.368627
757.000000	0.369740
758.000000	0.370856
759.000000	0.371964
760.000000	0.372987
761.000000	0.374058
762.000000	0.375073
763.000000	0.376007
764.000000	0.376977
765.000000	0.377867
766.000000	0.378696
767.000000	0.379491
768.000000	0.380258
769.000000	0.380969
770.000000	0.381628
771.000000	0.382275
772.000000	0.382956
773.000000	0.383586
774.000000	0.384193
775.000000	0.384729
776.000000	0.385278
777.000000	0.385860
778.000000	0.386348
779.000000	0.386800
780.000000	0.387252
781.000000	0.387699
782.000000	0.388084
783.000000	0.388509
784.000000	0.388875
785.000000	0.389172
786.000000	0.389458
787.000000	0.389757
788.000000	0.390055
789.000000	0.390314
790.000000	0.390523
791.000000	0.390748
792.000000	0.390974
793.000000	0.391194
794.000000	0.391406
795.000000	0.391602
796.000000	0.391744
797.000000	0.391836
798.000000	0.391947
799.000000	0.392040
800.000000	0.392148
801.000000	0.392303
802.000000	0.392402
803.000000	0.392466
804.000000	0.392558
805.000000	0.392635
806.000000	0.392613
807.000000	0.392586
808.000000	0.392537
809.000000	0.392476
810.000000	0.392456
811.000000	0.392479
812.000000	0.392456
813.000000	0.392440
814.000000	0.392429
815.000000	0.392408
816.000000	0.392351
817.000000	0.392274
818.000000	0.392121
819.000000	0.392121
820.000000	0.392170
821.000000	0.392127
822.000000	0.392007
823.000000	0.391901
824.000000	0.391739
825.000000	0.391564
826.000000	0.391427
827.000000	0.391278
828.000000	0.391143
829.000000	0.391029
830.000000	0.390890
831.000000	0.390786
832.000000	0.390620
833.000000	0.390493
834.000000	0.390369
835.000000	0.390251
836.000000	0.390137
837.000000	0.390021
838.000000	0.389911
839.000000	0.389766
840.000000	0.389607
841.000000	0.389446
842.000000	0.389246
843.000000	0.389061
844.000000	0.388888
845.000000	0.388684
846.000000	0.388460
847.000000	0.388248
848.000000	0.388036
849.000000	0.387838
850.000000	0.387609
851.000000	0.387370
852.000000	0.387173
853.000000	0.386972
854.000000	0.386690
855.000000	0.386439
856.000000	0.386143
857.000000	0.385822
858.000000	0.385649
859.000000	0.385560
860.000000	0.385397
861.000000	0.385238
862.000000	0.385099
863.000000	0.384874
864.000000	0.384570
865.000000	0.384299
866.000000	0.384120
867.000000	0.383864
868.000000	0.383637
869.000000	0.383364
870.000000	0.383062
871.000000	0.382822
872.000000	0.382563
873.000000	0.382191
874.000000	0.381894
875.000000	0.381551
876.000000	0.381210
877.000000	0.380885
878.000000	0.380538
879.000000	0.380279
880.000000	0.380001
881.000000	0.379775
882.000000	0.379585
883.000000	0.379393
884.000000	0.379084
885.000000	0.378817
886.000000	0.378554
887.000000	0.378299
888.000000	0.378067
889.000000	0.377779
890.000000	0.377383
891.000000	0.377107
892.000000	0.376779
893.000000	0.376398
894.000000	0.376124
895.000000	0.375863
896.000000	0.375498
897.000000	0.375133
898.000000	0.374909
899.000000	0.374627
900.000000	0.374331
901.000000	0.374015
902.000000	0.373748
903.000000	0.373469
904.000000	0.373216
905.000000	0.372930
906.000000	0.372750
907.000000	0.372545
908.000000	0.372312
909.000000	0.371974
910.000000	0.371546
911.000000	0.371124
912.000000	0.370802
913.000000	0.370491
914.000000	0.370227
915.000000	0.370049
916.000000	0.369796
917.000000	0.369516
918.000000	0.369252
919.000000	0.369010
920.000000	0.368806
921.000000	0.368565
922.000000	0.368280
923.000000	0.367949
924.000000	0.367671
925.000000	0.367404
926.000000	0.367134
927.000000	0.366780
928.000000	0.366447
929.000000	0.366157
930.000000	0.365893
931.000000	0.365570
932.000000	0.365280
933.000000	0.365074
934.000000	0.364818
935.000000	0.364539
936.000000	0.364279
937.000000	0.363955
938.000000	0.363617
939.000000	0.363335
940.000000	0.363061
941.000000	0.362857
942.000000	0.362586
943.000000	0.362349
944.000000	0.362066
945.000000	0.361806
946.000000	0.361482
947.000000	0.361242
948.000000	0.361141
949.000000	0.360875
950.000000	0.360659
951.000000	0.360462
952.000000	0.360162
953.000000	0.359889
954.000000	0.359577
955.000000	0.359132
956.000000	0.358817
957.000000	0.358565
958.000000	0.358348
959.000000	0.358256
960.000000	0.357978
961.000000	0.357613
962.000000	0.357258
963.000000	0.357036
964.000000	0.356915
965.000000	0.356795
966.000000	0.356507
967.000000	0.356359
968.000000	0.356204
969.000000	0.355973
970.000000	0.355773
971.000000	0.355470
972.000000	0.355206
973.000000	0.354999
974.000000	0.354904
975.000000	0.354788
976.000000	0.354620
977.000000	0.354412
978.000000	0.354268
979.000000	0.354129
980.000000	0.353867
981.000000	0.353868
982.000000	0.353826
983.000000	0.353642
984.000000	0.353407
985.000000	0.353211
986.000000	0.353090
987.000000	0.353020
988.000000	0.352863
989.000000	0.352783
990.000000	0.352733
991.000000	0.352632
992.000000	0.352503
993.000000	0.352598
994.000000	0.352503
995.000000	0.352342
996.000000	0.352181
997.000000	0.352244
998.000000	0.352268
999.000000	0.352256
1000.000000	0.352390
1001.000000	0.352622
1002.000000	0.352311
1003.000000	0.351980
1004.000000	0.351758
1005.000000	0.351459
1006.000000	0.351246
1007.000000	0.351205
1008.000000	0.351142
1009.000000	0.351158
1010.000000	0.350826
1011.000000	0.350852
1012.000000	0.351158
1013.000000	0.351029
1014.000000	0.350953
1015.000000	0.350804
1016.000000	0.350716
1017.000000	0.350760
1018.000000	0.350860
1019.000000	0.351031
1020.000000	0.351548
1021.000000	0.351496
1022.000000	0.351470
1023.000000	0.351637
1024.000000	0.351543
1025.000000	0.351577
1026.000000	0.351595
1027.000000	0.351533
1028.000000	0.351821
1029.000000	0.352001
1030.000000	0.352005
1031.000000	0.352269
1032.000000	0.352478
1033.000000	0.352590
1034.000000	0.352697
1035.000000	0.353020
1036.000000	0.353034
1037.000000	0.352630
1038.000000	0.352522
1039.000000	0.352527
1040.000000	0.352755
1041.000000	0.353035
1042.000000	0.353254
1043.000000	0.353407
1044.000000	0.353558
1045.000000	0.353702
1046.000000	0.353928
1047.000000	0.354222
1048.000000	0.354594
1049.000000	0.354734
1050.000000	0.354868
1051.000000	0.354944
1052.000000	0.354660
1053.000000	0.354680
1054.000000	0.355097
1055.000000	0.355424
1056.000000	0.355859
1057.000000	0.356335
1058.000000	0.356592
1059.000000	0.356600
1060.000000	0.356885
1061.000000	0.357206
1062.000000	0.357276
1063.000000	0.357439
1064.000000	0.357654
1065.000000	0.357630
1066.000000	0.357879
1067.000000	0.358458
1068.000000	0.358705
1069.000000	0.358701
1070.000000	0.358909
1071.000000	0.359169
1072.000000	0.359430
1073.000000	0.359794
1074.000000	0.360385
1075.000000	0.360731
1076.000000	0.360995
1077.000000	0.361207
1078.000000	0.361189
1079.000000	0.361392
1080.000000	0.361653
1081.000000	0.361845
1082.000000	0.362257
1083.000000	0.362523
1084.000000	0.362661
1085.000000	0.362900
1086.000000	0.363103
1087.000000	0.363409
1088.000000	0.363761
1089.000000	0.363965
1090.000000	0.364060
1091.000000	0.364240
1092.000000	0.364449
1093.000000	0.364677
1094.000000	0.364926
1095.000000	0.365249
1096.000000	0.365539
1097.000000	0.365786
1098.000000	0.366046
1099.000000	0.366208
1100.000000	0.366602
1101.000000	0.367135
1102.000000	0.367399
1103.000000	0.367621
1104.000000	0.367899
1105.000000	0.367899
1106.000000	0.368112
1107.000000	0.368539
1108.000000	0.368850
1109.000000	0.369206
1110.000000	0.369536
1111.000000	0.369836
1112.000000	0.370140
1113.000000	0.370403
1114.000000	0.370638
1115.000000	0.370846
1116.000000	0.371037
1117.000000	0.371188
1118.000000	0.371241
1119.000000	0.371330
1120.000000	0.371354
1121.000000	0.371499
1122.000000	0.371882
1123.000000	0.372331
1124.000000	0.372617
1125.000000	0.372913
1126.000000	0.373107
1127.000000	0.373243
1128.000000	0.373337
1129.000000	0.373408
1130.000000	0.373588
1131.000000	0.373842
1132.000000	0.373902
1133.000000	0.373949
1134.000000	0.374134
1135.000000	0.374224
1136.000000	0.374289
1137.000000	0.374513
1138.000000	0.374561
1139.000000	0.374446
1140.000000	0.374552
1141.000000	0.374689
1142.000000	0.374841
1143.000000	0.375035
1144.000000	0.375270
1145.000000	0.375316
1146.000000	0.375277
1147.000000	0.375354
1148.000000	0.375300
1149.000000	0.375376
1150.000000	0.375605
1151.000000	0.375750
1152.000000	0.375797
1153.000000	0.375921
1154.000000	0.376048
1155.000000	0.376114
1156.000000	0.376158
1157.000000	0.376240
1158.000000	0.376247
1159.000000	0.376274
1160.000000	0.376322
1161.000000	0.376368
1162.000000	0.376460
1163.000000	0.376664
1164.000000	0.376788
1165.000000	0.376928
1166.000000	0.377088
1167.000000	0.377221
1168.000000	0.377266
1169.000000	0.377298
1170.000000	0.377407
1171.000000	0.377527
1172.000000	0.377683
1173.000000	0.377922
1174.000000	0.378049
1175.000000	0.378052
1176.000000	0.378073
1177.000000	0.378171
1178.000000	0.378237
1179.000000	0.378260
1180.000000	0.378257
1181.000000	0.378327
1182.000000	0.378391
1183.000000	0.378495
1184.000000	0.378679
1185.000000	0.378775
1186.000000	0.378851
1187.000000	0.378902
1188.000000	0.378909
1189.000000	0.378891
1190.000000	0.378890
1191.000000	0.378932
1192.000000	0.379091
1193.000000	0.379307
1194.000000	0.379433
1195.000000	0.379582
1196.000000	0.379648
1197.000000	0.379775
1198.000000	0.380033
1199.000000	0.380191
1200.000000	0.380297
1201.000000	0.380417
1202.000000	0.380441
1203.000000	0.380449
1204.000000	0.380520
1205.000000	0.380603
1206.000000	0.380640
1207.000000	0.380788
1208.000000	0.380856
1209.000000	0.380945
1210.000000	0.381034
1211.000000	0.381121
1212.000000	0.381196
1213.000000	0.381304
1214.000000	0.381431
1215.000000	0.381580
1216.000000	0.381649
1217.000000	0.381634
1218.000000	0.381640
1219.000000	0.381612
1220.000000	0.381654
1221.000000	0.381779
1222.000000	0.381901
1223.000000	0.382038
1224.000000	0.382201
1225.000000	0.382332
1226.000000	0.382465
1227.000000	0.382559
1228.000000	0.382711
1229.000000	0.382758
1230.000000	0.382707
1231.000000	0.382688
1232.000000	0.382778
1233.000000	0.382923
1234.000000	0.383118
1235.000000	0.383221
1236.000000	0.383166
1237.000000	0.383233
1238.000000	0.383244
1239.000000	0.383272
1240.000000	0.383360
1241.000000	0.383424
1242.000000	0.383417
1243.000000	0.383493
1244.000000	0.383581
1245.000000	0.383769
1246.000000	0.383965
1247.000000	0.384182
1248.000000	0.384440
1249.000000	0.384664
1250.000000	0.384833
1251.000000	0.385006
1252.000000	0.385114
1253.000000	0.385159
1254.000000	0.385232
1255.000000	0.385278
1256.000000	0.385354
1257.000000	0.385488
1258.000000	0.385618
1259.000000	0.385659
1260.000000	0.385805
1261.000000	0.385919
1262.000000	0.386005
1263.000000	0.386156
1264.000000	0.386244
1265.000000	0.386303
1266.000000	0.386415
1267.000000	0.386560
1268.000000	0.386681
1269.000000	0.386719
1270.000000	0.386842
1271.000000	0.386946
1272.000000	0.387098
1273.000000	0.387326
1274.000000	0.387440
1275.000000	0.387533
1276.000000	0.387617
1277.000000	0.387780
1278.000000	0.387845
1279.000000	0.387906
1280.000000	0.387904
1281.000000	0.387891
1282.000000	0.387871
1283.000000	0.387989
1284.000000	0.388129
1285.000000	0.388237
1286.000000	0.388335
1287.000000	0.388433
1288.000000	0.388557
1289.000000	0.388613
1290.000000	0.388612
1291.000000	0.388612
1292.000000	0.388620
1293.000000	0.388674
1294.000000	0.388752
1295.000000	0.388878
1296.000000	0.388974
1297.000000	0.389028
1298.000000	0.389148
1299.000000	0.389259
1300.000000	0.389400
1301.000000	0.389519
1302.000000	0.389519
1303.000000	0.389575
1304.000000	0.389555
1305.000000	0.389551
1306.000000	0.389531
1307.000000	0.389569
1308.000000	0.389587
1309.000000	0.389564
1310.000000	0.389524
1311.000000	0.389505
1312.000000	0.389406
1313.000000	0.389343
1314.000000	0.389347
1315.000000	0.389307
1316.000000	0.389343
1317.000000	0.389398
1318.000000	0.389385
1319.000000	0.389284
1320.000000	0.389255
1321.000000	0.389198
1322.000000	0.389033
1323.000000	0.388990
1324.000000	0.389024
1325.000000	0.388947
1326.000000	0.388868
1327.000000	0.388775
1328.000000	0.388723
1329.000000	0.388606
1330.000000	0.388486
1331.000000	0.388422
1332.000000	0.388425
1333.000000	0.388359
1334.000000	0.388411
1335.000000	0.388394
1336.000000	0.388270
1337.000000	0.388188
1338.000000	0.388055
1339.000000	0.387886
1340.000000	0.387721
1341.000000	0.387586
1342.000000	0.387487
1343.000000	0.387384
1344.000000	0.387281
1345.000000	0.387182
1346.000000	0.387131
1347.000000	0.386938
1348.000000	0.386822
1349.000000	0.386728
1350.000000	0.386667
1351.000000	0.386560
1352.000000	0.386412
1353.000000	0.386255
1354.000000	0.386038
1355.000000	0.385807
1356.000000	0.385688
1357.000000	0.385483
1358.000000	0.385301
1359.000000	0.385133
1360.000000	0.384917
1361.000000	0.384693
1362.000000	0.384469
1363.000000	0.384181
1364.000000	0.383988
1365.000000	0.383817
1366.000000	0.383652
1367.000000	0.383547
1368.000000	0.383316
1369.000000	0.383150
1370.000000	0.382880
1371.000000	0.382520
1372.000000	0.382157
1373.000000	0.381757
1374.000000	0.381395
1375.000000	0.381042
1376.000000	0.380768
1377.000000	0.380483
1378.000000	0.380078
1379.000000	0.379541
1380.000000	0.378983
1381.000000	0.378364
1382.000000	0.377690
1383.000000	0.377031
1384.000000	0.376196
1385.000000	0.375314
1386.000000	0.374467
1387.000000	0.373531
1388.000000	0.372483
1389.000000	0.371312
1390.000000	0.370076
1391.000000	0.368696
1392.000000	0.367314
1393.000000	0.365810
1394.000000	0.364256
1395.000000	0.362645
1396.000000	0.360944
1397.000000	0.359142
1398.000000	0.357224
1399.000000	0.355366
1400.000000	0.353418
1401.000000	0.351503
1402.000000	0.349669
1403.000000	0.347775
1404.000000	0.346012
1405.000000	0.344288
1406.000000	0.342634
1407.000000	0.341166
1408.000000	0.339669
1409.000000	0.338330
1410.000000	0.337179
1411.000000	0.335971
1412.000000	0.334821
1413.000000	0.333788
1414.000000	0.332791
1415.000000	0.331901
1416.000000	0.331065
1417.000000	0.330250
1418.000000	0.329384
1419.000000	0.328585
1420.000000	0.327783
1421.000000	0.327059
1422.000000	0.326398
1423.000000	0.325821
1424.000000	0.325186
1425.000000	0.324577
1426.000000	0.323948
1427.000000	0.323330
1428.000000	0.322772
1429.000000	0.322219
1430.000000	0.321702
1431.000000	0.321198
1432.000000	0.320687
1433.000000	0.320227
1434.000000	0.319746
1435.000000	0.319315
1436.000000	0.318913
1437.000000	0.318478
1438.000000	0.318110
1439.000000	0.317815
1440.000000	0.317624
1441.000000	0.317520
1442.000000	0.317512
1443.000000	0.317547
1444.000000	0.317635
1445.000000	0.317789
1446.000000	0.317982
1447.000000	0.318226
1448.000000	0.318545
1449.000000	0.318897
1450.000000	0.319266
1451.000000	0.319632
1452.000000	0.319891
1453.000000	0.320097
1454.000000	0.320269
1455.000000	0.320419
1456.000000	0.320653
1457.000000	0.320916
1458.000000	0.321116
1459.000000	0.321278
1460.000000	0.321434
1461.000000	0.321555
1462.000000	0.321721
1463.000000	0.321876
1464.000000	0.322028
1465.000000	0.322274
1466.000000	0.322467
1467.000000	0.322666
1468.000000	0.322908
1469.000000	0.323146
1470.000000	0.323347
1471.000000	0.323653
1472.000000	0.323984
1473.000000	0.324377
1474.000000	0.324762
1475.000000	0.325164
1476.000000	0.325608
1477.000000	0.326052
1478.000000	0.326537
1479.000000	0.327014
1480.000000	0.327446
1481.000000	0.327885
1482.000000	0.328366
1483.000000	0.328871
1484.000000	0.329393
1485.000000	0.329914
1486.000000	0.330433
1487.000000	0.330957
1488.000000	0.331502
1489.000000	0.332068
1490.000000	0.332520
1491.000000	0.333036
1492.000000	0.333547
1493.000000	0.334073
1494.000000	0.334575
1495.000000	0.335055
1496.000000	0.335531
1497.000000	0.335983
1498.000000	0.336409
1499.000000	0.336876
1500.000000	0.337350
1501.000000	0.337768
1502.000000	0.338180
1503.000000	0.338635
1504.000000	0.339041
1505.000000	0.339412
1506.000000	0.339830
1507.000000	0.340193
1508.000000	0.340593
1509.000000	0.341007
1510.000000	0.341329
1511.000000	0.341651
1512.000000	0.341893
1513.000000	0.342159
1514.000000	0.342506
1515.000000	0.342737
1516.000000	0.343019
1517.000000	0.343262
1518.000000	0.343408
1519.000000	0.343573
1520.000000	0.343803
1521.000000	0.343968
1522.000000	0.344199
1523.000000	0.344498
1524.000000	0.344712
1525.000000	0.344978
1526.000000	0.345183
1527.000000	0.345347
1528.000000	0.345584
1529.000000	0.345764
1530.000000	0.345901
1531.000000	0.346136
1532.000000	0.346321
1533.000000	0.346488
1534.000000	0.346708
1535.000000	0.346886
1536.000000	0.347024
1537.000000	0.347230
1538.000000	0.347383
1539.000000	0.347458
1540.000000	0.347581
1541.000000	0.347736
1542.000000	0.347882
1543.000000	0.348056
1544.000000	0.348193
1545.000000	0.348319
1546.000000	0.348458
1547.000000	0.348585
1548.000000	0.348713
1549.000000	0.348825
1550.000000	0.348907
1551.000000	0.348984
1552.000000	0.349054
1553.000000	0.349072
1554.000000	0.349086
1555.000000	0.349160
1556.000000	0.349229
1557.000000	0.349258
1558.000000	0.349329
1559.000000	0.349340
1560.000000	0.349366
1561.000000	0.349463
1562.000000	0.349519
1563.000000	0.349604
1564.000000	0.349683
1565.000000	0.349763
1566.000000	0.349743
1567.000000	0.349777
1568.000000	0.349808
1569.000000	0.349886
1570.000000	0.349928
1571.000000	0.349946
1572.000000	0.349966
1573.000000	0.349970
1574.000000	0.349975
1575.000000	0.350015
1576.000000	0.350061
1577.000000	0.350080
1578.000000	0.350069
1579.000000	0.350126
1580.000000	0.350144
1581.000000	0.350191
1582.000000	0.350216
1583.000000	0.350205
1584.000000	0.350201
1585.000000	0.350289
1586.000000	0.350361
1587.000000	0.350454
1588.000000	0.350510
1589.000000	0.350555
1590.000000	0.350592
1591.000000	0.350635
1592.000000	0.350683
1593.000000	0.350773
1594.000000	0.350772
1595.000000	0.350777
1596.000000	0.350800
1597.000000	0.350792
1598.000000	0.350820
1599.000000	0.350940
1600.000000	0.350967
1601.000000	0.351042
1602.000000	0.351110
1603.000000	0.351197
1604.000000	0.351254
1605.000000	0.351321
1606.000000	0.351384
1607.000000	0.351495
1608.000000	0.351553
1609.000000	0.351670
1610.000000	0.351719
1611.000000	0.351724
1612.000000	0.351742
1613.000000	0.351848
1614.000000	0.351913
1615.000000	0.352010
1616.000000	0.352168
1617.000000	0.352316
1618.000000	0.352416
1619.000000	0.352511
1620.000000	0.352603
1621.000000	0.352661
1622.000000	0.352849
1623.000000	0.353092
1624.000000	0.353266
1625.000000	0.353294
1626.000000	0.353353
1627.000000	0.353402
1628.000000	0.353533
1629.000000	0.353713
1630.000000	0.353904
1631.000000	0.354053
1632.000000	0.354177
1633.000000	0.354312
1634.000000	0.354472
1635.000000	0.354681
1636.000000	0.354843
1637.000000	0.355027
1638.000000	0.355170
1639.000000	0.355333
1640.000000	0.355470
1641.000000	0.355665
1642.000000	0.355844
1643.000000	0.356029
1644.000000	0.356208
1645.000000	0.356390
1646.000000	0.356538
1647.000000	0.356724
1648.000000	0.356834
1649.000000	0.357007
1650.000000	0.357177
1651.000000	0.357351
1652.000000	0.357531
1653.000000	0.357657
1654.000000	0.357837
1655.000000	0.357962
1656.000000	0.358001
1657.000000	0.358125
1658.000000	0.358211
1659.000000	0.358326
1660.000000	0.358506
1661.000000	0.358620
1662.000000	0.358811
1663.000000	0.359025
1664.000000	0.359209
1665.000000	0.359435
1666.000000	0.359705
1667.000000	0.359882
1668.000000	0.360039
1669.000000	0.360196
1670.000000	0.360258
1671.000000	0.360339
1672.000000	0.360482
1673.000000	0.360595
1674.000000	0.360755
1675.000000	0.360945
1676.000000	0.361074
1677.000000	0.361147
1678.000000	0.361176
1679.000000	0.361204
1680.000000	0.361219
1681.000000	0.361282
1682.000000	0.361397
1683.000000	0.361521
1684.000000	0.361625
1685.000000	0.361802
1686.000000	0.361929
1687.000000	0.362018
1688.000000	0.362118
1689.000000	0.362207
1690.000000	0.362218
1691.000000	0.362310
1692.000000	0.362346
1693.000000	0.362293
1694.000000	0.362256
1695.000000	0.362313
1696.000000	0.362348
1697.000000	0.362326
1698.000000	0.362338
1699.000000	0.362388
1700.000000	0.362405
1701.000000	0.362561
1702.000000	0.362632
1703.000000	0.362664
1704.000000	0.362832
1705.000000	0.362950
1706.000000	0.363068
1707.000000	0.363195
1708.000000	0.363294
1709.000000	0.363316
1710.000000	0.363413
1711.000000	0.363509
1712.000000	0.363619
1713.000000	0.363669
1714.000000	0.363727
1715.000000	0.363799
1716.000000	0.363843
1717.000000	0.363909
1718.000000	0.363993
1719.000000	0.364039
1720.000000	0.364117
1721.000000	0.364182
1722.000000	0.364235
1723.000000	0.364309
1724.000000	0.364426
1725.000000	0.364533
1726.000000	0.364543
1727.000000	0.364597
1728.000000	0.364580
1729.000000	0.364548
1730.000000	0.364671
1731.000000	0.364757
1732.000000	0.364844
1733.000000	0.365002
1734.000000	0.365045
1735.000000	0.365137
1736.000000	0.365230
1737.000000	0.365295
1738.000000	0.365383
1739.000000	0.365445
1740.000000	0.365467
1741.000000	0.365465
1742.000000	0.365452
1743.000000	0.365507
1744.000000	0.365544
1745.000000	0.365543
1746.000000	0.365556
1747.000000	0.365509
1748.000000	0.365447
1749.000000	0.365427
1750.000000	0.365374
1751.000000	0.365439
1752.000000	0.365598
1753.000000	0.365637
1754.000000	0.365709
1755.000000	0.365786
1756.000000	0.365827
1757.000000	0.365854
1758.000000	0.365902
1759.000000	0.365885
1760.000000	0.365942
1761.000000	0.366042
1762.000000	0.366076
1763.000000	0.366151
1764.000000	0.366190
1765.000000	0.366096
1766.000000	0.366098
1767.000000	0.366048
1768.000000	0.366001
1769.000000	0.366132
1770.000000	0.366176
1771.000000	0.366101
1772.000000	0.366109
1773.000000	0.366039
1774.000000	0.366042
1775.000000	0.366194
1776.000000	0.366308
1777.000000	0.366381
1778.000000	0.366455
1779.000000	0.366537
1780.000000	0.366627
1781.000000	0.366685
1782.000000	0.366689
1783.000000	0.366726
1784.000000	0.366806
1785.000000	0.366748
1786.000000	0.366868
1787.000000	0.367104
1788.000000	0.367254
1789.000000	0.367370
1790.000000	0.367400
1791.000000	0.367392
1792.000000	0.367442
1793.000000	0.367470
1794.000000	0.367476
1795.000000	0.367570
1796.000000	0.367713
1797.000000	0.367781
1798.000000	0.367846
1799.000000	0.367912
1800.000000	0.367959
1801.000000	0.367961
1802.000000	0.368022
1803.000000	0.367734
1804.000000	0.367773
1805.000000	0.367747
1806.000000	0.367887
1807.000000	0.368403
1808.000000	0.368597
1809.000000	0.368833
1810.000000	0.368757
1811.000000	0.368597
1812.000000	0.368094
1813.000000	0.367985
1814.000000	0.367947
1815.000000	0.367957
1816.000000	0.368269
1817.000000	0.368201
1818.000000	0.368050
1819.000000	0.367936
1820.000000	0.367813
1821.000000	0.367644
1822.000000	0.367471
1823.000000	0.367205
1824.000000	0.366953
1825.000000	0.366538
1826.000000	0.366354
1827.000000	0.366056
1828.000000	0.365954
1829.000000	0.366140
1830.000000	0.366219
1831.000000	0.366155
1832.000000	0.366072
1833.000000	0.365981
1834.000000	0.365745
1835.000000	0.365576
1836.000000	0.365393
1837.000000	0.365215
1838.000000	0.365008
1839.000000	0.364407
1840.000000	0.363877
1841.000000	0.363882
1842.000000	0.363607
1843.000000	0.363181
1844.000000	0.362956
1845.000000	0.362584
1846.000000	0.362414
1847.000000	0.362239
1848.000000	0.362179
1849.000000	0.362152
1850.000000	0.361827
1851.000000	0.361488
1852.000000	0.360931
1853.000000	0.360566
1854.000000	0.360145
1855.000000	0.359386
1856.000000	0.358500
1857.000000	0.357295
1858.000000	0.355938
1859.000000	0.354922
1860.000000	0.353819
1861.000000	0.352833
1862.000000	0.351659
1863.000000	0.350470
1864.000000	0.349166
1865.000000	0.347749
1866.000000	0.346275
1867.000000	0.344688
1868.000000	0.342952
1869.000000	0.341249
1870.000000	0.339377
1871.000000	0.337480
1872.000000	0.335626
1873.000000	0.333508
1874.000000	0.331196
1875.000000	0.328869
1876.000000	0.326320
1877.000000	0.323197
1878.000000	0.319902
1879.000000	0.316629
1880.000000	0.313401
1881.000000	0.309878
1882.000000	0.306212
1883.000000	0.302514
1884.000000	0.298545
1885.000000	0.293911
1886.000000	0.289431
1887.000000	0.284993
1888.000000	0.279939
1889.000000	0.274863
1890.000000	0.269816
1891.000000	0.264315
1892.000000	0.258874
1893.000000	0.253604
1894.000000	0.248283
1895.000000	0.243041
1896.000000	0.238046
1897.000000	0.233237
1898.000000	0.228277
1899.000000	0.223588
1900.000000	0.219095
1901.000000	0.214756
1902.000000	0.210628
1903.000000	0.206941
1904.000000	0.203899
1905.000000	0.201271
1906.000000	0.198976
1907.000000	0.197251
1908.000000	0.195835
1909.000000	0.194651
1910.000000	0.193723
1911.000000	0.192933
1912.000000	0.192121
1913.000000	0.191353
1914.000000	0.190639
1915.000000	0.190004
1916.000000	0.189625
1917.000000	0.189243
1918.000000	0.189004
1919.000000	0.188890
1920.000000	0.188938
1921.000000	0.189168
1922.000000	0.189485
1923.000000	0.189819
1924.000000	0.189919
1925.000000	0.189991
1926.000000	0.190203
1927.000000	0.190402
1928.000000	0.190713
1929.000000	0.191213
1930.000000	0.191786
1931.000000	0.192358
1932.000000	0.192890
1933.000000	0.193423
1934.000000	0.193781
1935.000000	0.193964
1936.000000	0.194314
1937.000000	0.194533
1938.000000	0.194682
1939.000000	0.194813
1940.000000	0.194958
1941.000000	0.194887
1942.000000	0.194779
1943.000000	0.194672
1944.000000	0.194509
1945.000000	0.194453
1946.000000	0.194579
1947.000000	0.194603
1948.000000	0.194494
1949.000000	0.194410
1950.000000	0.194197
1951.000000	0.193897
1952.000000	0.193528
1953.000000	0.193263
1954.000000	0.193032
1955.000000	0.192855
1956.000000	0.192764
1957.000000	0.192531
1958.000000	0.192332
1959.000000	0.192376
1960.000000	0.192411
1961.000000	0.192585
1962.000000	0.192645
1963.000000	0.192773
1964.000000	0.192633
1965.000000	0.192565
1966.000000	0.192566
1967.000000	0.192752
1968.000000	0.193165
1969.000000	0.193339
1970.000000	0.193579
1971.000000	0.193886
1972.000000	0.193881
1973.000000	0.193917
1974.000000	0.194042
1975.000000	0.194272
1976.000000	0.194417
1977.000000	0.194889
1978.000000	0.195399
1979.000000	0.196025
1980.000000	0.196778
1981.000000	0.197284
1982.000000	0.197779
1983.000000	0.198330
1984.000000	0.198825
1985.000000	0.199245
1986.000000	0.199707
1987.000000	0.200237
1988.000000	0.200817
1989.000000	0.201346
1990.000000	0.201895
1991.000000	0.202623
1992.000000	0.203405
1993.000000	0.204185
1994.000000	0.204960
1995.000000	0.205596
1996.000000	0.206343
1997.000000	0.207136
1998.000000	0.208030
1999.000000	0.208947
2000.000000	0.210019
2001.000000	0.210860
2002.000000	0.211714
2003.000000	0.212660
2004.000000	0.213637
2005.000000	0.214583
2006.000000	0.215748
2007.000000	0.216810
2008.000000	0.217692
2009.000000	0.218397
2010.000000	0.219219
2011.000000	0.219696
2012.000000	0.220519
2013.000000	0.221488
2014.000000	0.222465
2015.000000	0.223588
2016.000000	0.224654
2017.000000	0.225599
2018.000000	0.226653
2019.000000	0.227649
2020.000000	0.228626
2021.000000	0.229623
2022.000000	0.230563
2023.000000	0.231548
2024.000000	0.232575
2025.000000	0.233642
2026.000000	0.234706
2027.000000	0.235670
2028.000000	0.236464
2029.000000	0.237515
2030.000000	0.238338
2031.000000	0.239041
2032.000000	0.240059
2033.000000	0.240899
2034.000000	0.241720
2035.000000	0.242632
2036.000000	0.243448
2037.000000	0.244339
2038.000000	0.245182
2039.000000	0.246028
2040.000000	0.246864
2041.000000	0.247803
2042.000000	0.248718
2043.000000	0.249566
2044.000000	0.250401
2045.000000	0.251096
2046.000000	0.251497
2047.000000	0.252140
2048.000000	0.252791
2049.000000	0.253640
2050.000000	0.254366
2051.000000	0.255129
2052.000000	0.255952
2053.000000	0.256535
2054.000000	0.257242
2055.000000	0.257932
2056.000000	0.258386
2057.000000	0.258885
2058.000000	0.259468
2059.000000	0.260111
2060.000000	0.260829
2061.000000	0.261854
2062.000000	0.262484
2063.000000	0.263004
2064.000000	0.263418
2065.000000	0.263617
2066.000000	0.264065
2067.000000	0.264786
2068.000000	0.265784
2069.000000	0.266840
2070.000000	0.267826
2071.000000	0.268484
2072.000000	0.269193
2073.000000	0.269691
2074.000000	0.270229
2075.000000	0.270879
2076.000000	0.271586
2077.000000	0.272293
2078.000000	0.273126
2079.000000	0.273745
2080.000000	0.274409
2081.000000	0.274993
2082.000000	0.275384
2083.000000	0.275870
2084.000000	0.276429
2085.000000	0.276999
2086.000000	0.277826
2087.000000	0.278744
2088.000000	0.279492
2089.000000	0.280316
2090.000000	0.281005
2091.000000	0.281505
2092.000000	0.282142
2093.000000	0.282760
2094.000000	0.283541
2095.000000	0.284604
2096.000000	0.285396
2097.000000	0.286303
2098.000000	0.286720
2099.000000	0.286857
2100.000000	0.287267
2101.000000	0.287524
2102.000000	0.288149
2103.000000	0.288726
2104.000000	0.289085
2105.000000	0.289663
2106.000000	0.290325
2107.000000	0.290942
2108.000000	0.291685
2109.000000	0.292332
2110.000000	0.292661
2111.000000	0.293183
2112.000000	0.293642
2113.000000	0.294112
2114.000000	0.294644
2115.000000	0.295071
2116.000000	0.295620
2117.000000	0.295698
2118.000000	0.295776
2119.000000	0.296164
2120.000000	0.296588
2121.000000	0.297068
2122.000000	0.297609
2123.000000	0.298403
2124.000000	0.298888
2125.000000	0.299249
2126.000000	0.299578
2127.000000	0.299876
2128.000000	0.300184
2129.000000	0.300398
2130.000000	0.300460
2131.000000	0.300628
2132.000000	0.300452
2133.000000	0.300617
2134.000000	0.301168
2135.000000	0.301236
2136.000000	0.301576
2137.000000	0.301826
2138.000000	0.301978
2139.000000	0.302109
2140.000000	0.302284
2141.000000	0.302361
2142.000000	0.302258
2143.000000	0.302089
2144.000000	0.302084
2145.000000	0.302220
2146.000000	0.302536
2147.000000	0.302870
2148.000000	0.303147
2149.000000	0.303379
2150.000000	0.303489
2151.000000	0.303706
2152.000000	0.303924
2153.000000	0.304077
2154.000000	0.304154
2155.000000	0.304191
2156.000000	0.304142
2157.000000	0.303889
2158.000000	0.303954
2159.000000	0.304170
2160.000000	0.304398
2161.000000	0.304883
2162.000000	0.305337
2163.000000	0.305714
2164.000000	0.305882
2165.000000	0.306078
2166.000000	0.305960
2167.000000	0.305674
2168.000000	0.305754
2169.000000	0.305902
2170.000000	0.306112
2171.000000	0.306251
2172.000000	0.306514
2173.000000	0.306458
2174.000000	0.306151
2175.000000	0.306019
2176.000000	0.305766
2177.000000	0.305664
2178.000000	0.305863
2179.000000	0.305856
2180.000000	0.305607
2181.000000	0.305775
2182.000000	0.305328
2183.000000	0.305383
2184.000000	0.305678
2185.000000	0.305355
2186.000000	0.305279
2187.000000	0.305552
2188.000000	0.305865
2189.000000	0.306154
2190.000000	0.306538
2191.000000	0.307020
2192.000000	0.307071
2193.000000	0.306959
2194.000000	0.306687
2195.000000	0.305771
2196.000000	0.305429
2197.000000	0.305129
2198.000000	0.304946
2199.000000	0.305334
2200.000000	0.305612
2201.000000	0.306060
2202.000000	0.306180
2203.000000	0.306050
2204.000000	0.305499
2205.000000	0.304994
2206.000000	0.305153
2207.000000	0.305195
2208.000000	0.305780
2209.000000	0.306152
2210.000000	0.305777
2211.000000	0.305410
2212.000000	0.304821
2213.000000	0.304579
2214.000000	0.304098
2215.000000	0.304143
2216.000000	0.305206
2217.000000	0.305357
2218.000000	0.304939
2219.000000	0.305066
2220.000000	0.304941
2221.000000	0.305130
2222.000000	0.306281
2223.000000	0.306398
2224.000000	0.306011
2225.000000	0.305593
2226.000000	0.305177
2227.000000	0.304209
2228.000000	0.303684
2229.000000	0.302986
2230.000000	0.301505
2231.000000	0.301108
2232.000000	0.301076
2233.000000	0.300830
2234.000000	0.300310
2235.000000	0.300336
2236.000000	0.300177
2237.000000	0.299667
2238.000000	0.299307
2239.000000	0.298992
2240.000000	0.298880
2241.000000	0.298989
2242.000000	0.299108
2243.000000	0.299527
2244.000000	0.299727
2245.000000	0.299492
2246.000000	0.299409
2247.000000	0.299395
2248.000000	0.299373
2249.000000	0.299652
2250.000000	0.299574
2251.000000	0.298398
2252.000000	0.298338
2253.000000	0.297449
2254.000000	0.296450
2255.000000	0.296810
2256.000000	0.296955
2257.000000	0.298131
2258.000000	0.299073
2259.000000	0.298636
2260.000000	0.298083
2261.000000	0.297149
2262.000000	0.295020
2263.000000	0.293968
2264.000000	0.293011
2265.000000	0.292878
2266.000000	0.293791
2267.000000	0.293513
2268.000000	0.293508
2269.000000	0.292977
2270.000000	0.291355
2271.000000	0.289903
2272.000000	0.288824
2273.000000	0.287406
2274.000000	0.284962
2275.000000	0.283527
2276.000000	0.283066
2277.000000	0.281271
2278.000000	0.279057
2279.000000	0.277227
2280.000000	0.274962
2281.000000	0.272394
2282.000000	0.271471
2283.000000	0.270568
2284.000000	0.268656
2285.000000	0.267471
2286.000000	0.266011
2287.000000	0.264771
2288.000000	0.264295
2289.000000	0.262984
2290.000000	0.261214
2291.000000	0.260032
2292.000000	0.258723
2293.000000	0.257526
2294.000000	0.256669
2295.000000	0.256202
2296.000000	0.255321
2297.000000	0.254469
2298.000000	0.253881
2299.000000	0.253081
2300.000000	0.252574
2301.000000	0.251973
2302.000000	0.252229
2303.000000	0.253283
2304.000000	0.253965
2305.000000	0.255277
2306.000000	0.256328
2307.000000	0.256602
2308.000000	0.257764
2309.000000	0.259544
2310.000000	0.260688
2311.000000	0.262477
2312.000000	0.263232
2313.000000	0.263594
2314.000000	0.263908
2315.000000	0.262949
2316.000000	0.262932
2317.000000	0.262936
2318.000000	0.262902
2319.000000	0.264040
2320.000000	0.264180
2321.000000	0.264091
2322.000000	0.264087
2323.000000	0.262808
2324.000000	0.261564
2325.000000	0.260685
2326.000000	0.260158
2327.000000	0.259950
2328.000000	0.259424
2329.000000	0.258563
2330.000000	0.256885
2331.000000	0.255246
2332.000000	0.254670
2333.000000	0.254993
2334.000000	0.254999
2335.000000	0.255297
2336.000000	0.256010
2337.000000	0.255652
2338.000000	0.254598
2339.000000	0.253674
2340.000000	0.252445
2341.000000	0.251172
2342.000000	0.249535
2343.000000	0.248625
2344.000000	0.247866
2345.000000	0.246648
2346.000000	0.246151
2347.000000	0.244708
2348.000000	0.242411
2349.000000	0.240038
2350.000000	0.238385
2351.000000	0.236847
2352.000000	0.236501
2353.000000	0.237379
2354.000000	0.237148
2355.000000	0.236859
2356.000000	0.235804
2357.000000	0.234164
2358.000000	0.233490
2359.000000	0.233296
2360.000000	0.233121
2361.000000	0.232352
2362.000000	0.229757
2363.000000	0.226800
2364.000000	0.223482
2365.000000	0.220331
2366.000000	0.219186
2367.000000	0.219561
2368.000000	0.220224
2369.000000	0.220861
2370.000000	0.221112
2371.000000	0.219639
2372.000000	0.218146
2373.000000	0.216508
2374.000000	0.213715
2375.000000	0.211661
2376.000000	0.210570
2377.000000	0.210866
2378.000000	0.211824
2379.000000	0.210804
2380.000000	0.208456
2381.000000	0.206185
2382.000000	0.202942
2383.000000	0.202357
2384.000000	0.203919
2385.000000	0.204934
2386.000000	0.205948
2387.000000	0.205069
2388.000000	0.203086
2389.000000	0.200094
2390.000000	0.196239
2391.000000	0.192898
2392.000000	0.190733
2393.000000	0.189426
2394.000000	0.188920
2395.000000	0.190341
2396.000000	0.192508
2397.000000	0.193416
2398.000000	0.193408
2399.000000	0.193907
2400.000000	0.193106
2401.000000	0.192529
2402.000000	0.193789
2403.000000	0.194553
2404.000000	0.194503
2405.000000	0.193320
2406.000000	0.195006
2407.000000	0.195310
2408.000000	0.193431
2409.000000	0.192411
2410.000000	0.188491
2411.000000	0.187408
2412.000000	0.189215
2413.000000	0.191666
2414.000000	0.193959
2415.000000	0.193685
2416.000000	0.192580
2417.000000	0.192988
2418.000000	0.195310
2419.000000	0.196757
2420.000000	0.199339
2421.000000	0.200508
2422.000000	0.199088
2423.000000	0.199130
2424.000000	0.195274
2425.000000	0.191758
2426.000000	0.190066
2427.000000	0.187152
2428.000000	0.188454
2429.000000	0.190724
2430.000000	0.193452
2431.000000	0.196925
2432.000000	0.197801
2433.000000	0.196645
2434.000000	0.193246
2435.000000	0.187161
2436.000000	0.182995
2437.000000	0.182411
2438.000000	0.181153
2439.000000	0.181614
2440.000000	0.182624
2441.000000	0.180045
2442.000000	0.179249
2443.000000	0.179032
2444.000000	0.180479
2445.000000	0.185733
2446.000000	0.188028
2447.000000	0.192011
2448.000000	0.192274
2449.000000	0.187169
2450.000000	0.185660
2451.000000	0.183571
2452.000000	0.183667
2453.000000	0.184258
2454.000000	0.184385
2455.000000	0.185835
2456.000000	0.184629
2457.000000	0.182707
2458.000000	0.183601
2459.000000	0.184628
2460.000000	0.185717
2461.000000	0.188771
2462.000000	0.188438
2463.000000	0.181804
2464.000000	0.171854
2465.000000	0.168946
2466.000000	0.171123
2467.000000	0.175460
2468.000000	0.185176
2469.000000	0.182240
2470.000000	0.172391
2471.000000	0.167355
2472.000000	0.160159
2473.000000	0.161183
2474.000000	0.158932
2475.000000	0.153926
2476.000000	0.157764
2477.000000	0.159010
2478.000000	0.168603
2479.000000	0.178343
2480.000000	0.180106
2481.000000	0.183141
2482.000000	0.182574
2483.000000	0.182141
2484.000000	0.175099
2485.000000	0.155627
2486.000000	0.142705
2487.000000	0.138971
2488.000000	0.140719
2489.000000	0.153186
2490.000000	0.170000
2491.000000	0.180003
2492.000000	0.175246
2493.000000	0.167217
2494.000000	0.165325
2495.000000	0.144808
2496.000000	0.140625
2497.000000	0.151346
2498.000000	0.150374
2499.000000	0.163543
2500.000000	0.162345
