# Wavelength	NAu-2-40_HEX-10_FV7-50_00002.asd.rts.txt
350.000000	0.131011
351.000000	0.140278
352.000000	0.145078
353.000000	0.143715
354.000000	0.139460
355.000000	0.139168
356.000000	0.129893
357.000000	0.117718
358.000000	0.121383
359.000000	0.128506
360.000000	0.134937
361.000000	0.137989
362.000000	0.133164
363.000000	0.128774
364.000000	0.130555
365.000000	0.138415
366.000000	0.139101
367.000000	0.132471
368.000000	0.129329
369.000000	0.134837
370.000000	0.140047
371.000000	0.134502
372.000000	0.132767
373.000000	0.134611
374.000000	0.137037
375.000000	0.132728
376.000000	0.129112
377.000000	0.128829
378.000000	0.130614
379.000000	0.132755
380.000000	0.133546
381.000000	0.132348
382.000000	0.132094
383.000000	0.132289
384.000000	0.133024
385.000000	0.137712
386.000000	0.138115
387.000000	0.134942
388.000000	0.138476
389.000000	0.139680
390.000000	0.138158
391.000000	0.136377
392.000000	0.136903
393.000000	0.137711
394.000000	0.137205
395.000000	0.137361
396.000000	0.137502
397.000000	0.137307
398.000000	0.136976
399.000000	0.136707
400.000000	0.136669
401.000000	0.136940
402.000000	0.137912
403.000000	0.138497
404.000000	0.138085
405.000000	0.138389
406.000000	0.139286
407.000000	0.140182
408.000000	0.139494
409.000000	0.139508
410.000000	0.140537
411.000000	0.141774
412.000000	0.141641
413.000000	0.141034
414.000000	0.141224
415.000000	0.141881
416.000000	0.142234
417.000000	0.142102
418.000000	0.142645
419.000000	0.143201
420.000000	0.143456
421.000000	0.143311
422.000000	0.143024
423.000000	0.142931
424.000000	0.143381
425.000000	0.144123
426.000000	0.144791
427.000000	0.145149
428.000000	0.145315
429.000000	0.145732
430.000000	0.146268
431.000000	0.145939
432.000000	0.145734
433.000000	0.146136
434.000000	0.147402
435.000000	0.147886
436.000000	0.147819
437.000000	0.147772
438.000000	0.147958
439.000000	0.148268
440.000000	0.148591
441.000000	0.148610
442.000000	0.148585
443.000000	0.148617
444.000000	0.148812
445.000000	0.149214
446.000000	0.149638
447.000000	0.149799
448.000000	0.150146
449.000000	0.150693
450.000000	0.151332
451.000000	0.151741
452.000000	0.152062
453.000000	0.152325
454.000000	0.152559
455.000000	0.153001
456.000000	0.153499
457.000000	0.153660
458.000000	0.154039
459.000000	0.154221
460.000000	0.154000
461.000000	0.154620
462.000000	0.155084
463.000000	0.154970
464.000000	0.155286
465.000000	0.155625
466.000000	0.155851
467.000000	0.156035
468.000000	0.156222
469.000000	0.156490
470.000000	0.156990
471.000000	0.157593
472.000000	0.157741
473.000000	0.157416
474.000000	0.158043
475.000000	0.158663
476.000000	0.159016
477.000000	0.159327
478.000000	0.159540
479.000000	0.159774
480.000000	0.159980
481.000000	0.160041
482.000000	0.160123
483.000000	0.160266
484.000000	0.160554
485.000000	0.160980
486.000000	0.161505
487.000000	0.161627
488.000000	0.161755
489.000000	0.161973
490.000000	0.162152
491.000000	0.162572
492.000000	0.162989
493.000000	0.163006
494.000000	0.163004
495.000000	0.163125
496.000000	0.163367
497.000000	0.163587
498.000000	0.163642
499.000000	0.163639
500.000000	0.163888
501.000000	0.164113
502.000000	0.164246
503.000000	0.164260
504.000000	0.164378
505.000000	0.164658
506.000000	0.165046
507.000000	0.165129
508.000000	0.165269
509.000000	0.165622
510.000000	0.165958
511.000000	0.166321
512.000000	0.166681
513.000000	0.166909
514.000000	0.167337
515.000000	0.167808
516.000000	0.168013
517.000000	0.168299
518.000000	0.168687
519.000000	0.169085
520.000000	0.169453
521.000000	0.169885
522.000000	0.170390
523.000000	0.170835
524.000000	0.171256
525.000000	0.171724
526.000000	0.172371
527.000000	0.173089
528.000000	0.173799
529.000000	0.174496
530.000000	0.175329
531.000000	0.176294
532.000000	0.177287
533.000000	0.178214
534.000000	0.179205
535.000000	0.180260
536.000000	0.181278
537.000000	0.182195
538.000000	0.183069
539.000000	0.183994
540.000000	0.184793
541.000000	0.185556
542.000000	0.186396
543.000000	0.187206
544.000000	0.188002
545.000000	0.188759
546.000000	0.189530
547.000000	0.190291
548.000000	0.191081
549.000000	0.191918
550.000000	0.192834
551.000000	0.193822
552.000000	0.194821
553.000000	0.195808
554.000000	0.196894
555.000000	0.198125
556.000000	0.199290
557.000000	0.200484
558.000000	0.201799
559.000000	0.203051
560.000000	0.204232
561.000000	0.205452
562.000000	0.206770
563.000000	0.208045
564.000000	0.209275
565.000000	0.210405
566.000000	0.211439
567.000000	0.212453
568.000000	0.213458
569.000000	0.214377
570.000000	0.215146
571.000000	0.215812
572.000000	0.216562
573.000000	0.217230
574.000000	0.217793
575.000000	0.218315
576.000000	0.218802
577.000000	0.219261
578.000000	0.219713
579.000000	0.219999
580.000000	0.220282
581.000000	0.220601
582.000000	0.220793
583.000000	0.220926
584.000000	0.221034
585.000000	0.221144
586.000000	0.221181
587.000000	0.221170
588.000000	0.221151
589.000000	0.221102
590.000000	0.220989
591.000000	0.220813
592.000000	0.220665
593.000000	0.220511
594.000000	0.220321
595.000000	0.220061
596.000000	0.219837
597.000000	0.219646
598.000000	0.219358
599.000000	0.218981
600.000000	0.218619
601.000000	0.218294
602.000000	0.217950
603.000000	0.217582
604.000000	0.217212
605.000000	0.216877
606.000000	0.216555
607.000000	0.216225
608.000000	0.215855
609.000000	0.215563
610.000000	0.215273
611.000000	0.214882
612.000000	0.214450
613.000000	0.214048
614.000000	0.213735
615.000000	0.213462
616.000000	0.213128
617.000000	0.212750
618.000000	0.212555
619.000000	0.212245
620.000000	0.211908
621.000000	0.211786
622.000000	0.211506
623.000000	0.211183
624.000000	0.210953
625.000000	0.210723
626.000000	0.210541
627.000000	0.210398
628.000000	0.210181
629.000000	0.210024
630.000000	0.209857
631.000000	0.209711
632.000000	0.209534
633.000000	0.209373
634.000000	0.209267
635.000000	0.209189
636.000000	0.209167
637.000000	0.209182
638.000000	0.209144
639.000000	0.209169
640.000000	0.209253
641.000000	0.209169
642.000000	0.209176
643.000000	0.209255
644.000000	0.209312
645.000000	0.209390
646.000000	0.209476
647.000000	0.209547
648.000000	0.209668
649.000000	0.209811
650.000000	0.209944
651.000000	0.210055
652.000000	0.210273
653.000000	0.210564
654.000000	0.210766
655.000000	0.211027
656.000000	0.211355
657.000000	0.211684
658.000000	0.211981
659.000000	0.212287
660.000000	0.212610
661.000000	0.212924
662.000000	0.213300
663.000000	0.213733
664.000000	0.214100
665.000000	0.214533
666.000000	0.215036
667.000000	0.215552
668.000000	0.216043
669.000000	0.216589
670.000000	0.217209
671.000000	0.217763
672.000000	0.218382
673.000000	0.219057
674.000000	0.219688
675.000000	0.220331
676.000000	0.220981
677.000000	0.221643
678.000000	0.222351
679.000000	0.223079
680.000000	0.223811
681.000000	0.224552
682.000000	0.225380
683.000000	0.226234
684.000000	0.227084
685.000000	0.227991
686.000000	0.228925
687.000000	0.229790
688.000000	0.230653
689.000000	0.231525
690.000000	0.232452
691.000000	0.233496
692.000000	0.234540
693.000000	0.235563
694.000000	0.236488
695.000000	0.237576
696.000000	0.238767
697.000000	0.239877
698.000000	0.240964
699.000000	0.242094
700.000000	0.243305
701.000000	0.244507
702.000000	0.245661
703.000000	0.246783
704.000000	0.248015
705.000000	0.249295
706.000000	0.250561
707.000000	0.251827
708.000000	0.253131
709.000000	0.254416
710.000000	0.255663
711.000000	0.256981
712.000000	0.258286
713.000000	0.259567
714.000000	0.260868
715.000000	0.262180
716.000000	0.263500
717.000000	0.264805
718.000000	0.266129
719.000000	0.267448
720.000000	0.268757
721.000000	0.270093
722.000000	0.271385
723.000000	0.272668
724.000000	0.273958
725.000000	0.275237
726.000000	0.276576
727.000000	0.277926
728.000000	0.279256
729.000000	0.280533
730.000000	0.281713
731.000000	0.282955
732.000000	0.284182
733.000000	0.285390
734.000000	0.286563
735.000000	0.287676
736.000000	0.288856
737.000000	0.290036
738.000000	0.291118
739.000000	0.292189
740.000000	0.293172
741.000000	0.294164
742.000000	0.295177
743.000000	0.296168
744.000000	0.297126
745.000000	0.298050
746.000000	0.298966
747.000000	0.299831
748.000000	0.300788
749.000000	0.301742
750.000000	0.302592
751.000000	0.303417
752.000000	0.304230
753.000000	0.305035
754.000000	0.305804
755.000000	0.306597
756.000000	0.307356
757.000000	0.307980
758.000000	0.308662
759.000000	0.309332
760.000000	0.309878
761.000000	0.310406
762.000000	0.310971
763.000000	0.311518
764.000000	0.311997
765.000000	0.312485
766.000000	0.312985
767.000000	0.313472
768.000000	0.313913
769.000000	0.314282
770.000000	0.314622
771.000000	0.315081
772.000000	0.315552
773.000000	0.315913
774.000000	0.316190
775.000000	0.316544
776.000000	0.316847
777.000000	0.317019
778.000000	0.317324
779.000000	0.317633
780.000000	0.317924
781.000000	0.318247
782.000000	0.318451
783.000000	0.318714
784.000000	0.319052
785.000000	0.319254
786.000000	0.319438
787.000000	0.319643
788.000000	0.319744
789.000000	0.319770
790.000000	0.319788
791.000000	0.319929
792.000000	0.320055
793.000000	0.320145
794.000000	0.320222
795.000000	0.320366
796.000000	0.320457
797.000000	0.320476
798.000000	0.320520
799.000000	0.320571
800.000000	0.320618
801.000000	0.320665
802.000000	0.320778
803.000000	0.320832
804.000000	0.320812
805.000000	0.320797
806.000000	0.320775
807.000000	0.320829
808.000000	0.320910
809.000000	0.320914
810.000000	0.320899
811.000000	0.320903
812.000000	0.320883
813.000000	0.320833
814.000000	0.320738
815.000000	0.320606
816.000000	0.320509
817.000000	0.320467
818.000000	0.320387
819.000000	0.320297
820.000000	0.320273
821.000000	0.320285
822.000000	0.320319
823.000000	0.320290
824.000000	0.320198
825.000000	0.320183
826.000000	0.320069
827.000000	0.319921
828.000000	0.319827
829.000000	0.319709
830.000000	0.319606
831.000000	0.319520
832.000000	0.319289
833.000000	0.319249
834.000000	0.319285
835.000000	0.319261
836.000000	0.319043
837.000000	0.318859
838.000000	0.318739
839.000000	0.318513
840.000000	0.318392
841.000000	0.318305
842.000000	0.318124
843.000000	0.317994
844.000000	0.317858
845.000000	0.317709
846.000000	0.317679
847.000000	0.317609
848.000000	0.317500
849.000000	0.317417
850.000000	0.317277
851.000000	0.317055
852.000000	0.316862
853.000000	0.316890
854.000000	0.316744
855.000000	0.316546
856.000000	0.316368
857.000000	0.316163
858.000000	0.316012
859.000000	0.315845
860.000000	0.315578
861.000000	0.315336
862.000000	0.315151
863.000000	0.314955
864.000000	0.314971
865.000000	0.314878
866.000000	0.314557
867.000000	0.314231
868.000000	0.313995
869.000000	0.313756
870.000000	0.313465
871.000000	0.313176
872.000000	0.312954
873.000000	0.312767
874.000000	0.312628
875.000000	0.312494
876.000000	0.312318
877.000000	0.312011
878.000000	0.311829
879.000000	0.311687
880.000000	0.311397
881.000000	0.311159
882.000000	0.310821
883.000000	0.310572
884.000000	0.310586
885.000000	0.310329
886.000000	0.309990
887.000000	0.309746
888.000000	0.309516
889.000000	0.309326
890.000000	0.309036
891.000000	0.308714
892.000000	0.308532
893.000000	0.308327
894.000000	0.308102
895.000000	0.307762
896.000000	0.307570
897.000000	0.307374
898.000000	0.306940
899.000000	0.306490
900.000000	0.306235
901.000000	0.306161
902.000000	0.306091
903.000000	0.305893
904.000000	0.305689
905.000000	0.305514
906.000000	0.305246
907.000000	0.304864
908.000000	0.304526
909.000000	0.304393
910.000000	0.304147
911.000000	0.303842
912.000000	0.303580
913.000000	0.303181
914.000000	0.302912
915.000000	0.302797
916.000000	0.302510
917.000000	0.302154
918.000000	0.301923
919.000000	0.301817
920.000000	0.301347
921.000000	0.301058
922.000000	0.300933
923.000000	0.300674
924.000000	0.300532
925.000000	0.300316
926.000000	0.300007
927.000000	0.299855
928.000000	0.299654
929.000000	0.299370
930.000000	0.299042
931.000000	0.298742
932.000000	0.298472
933.000000	0.298267
934.000000	0.298094
935.000000	0.297778
936.000000	0.297472
937.000000	0.297172
938.000000	0.296540
939.000000	0.296206
940.000000	0.296099
941.000000	0.295897
942.000000	0.295793
943.000000	0.295666
944.000000	0.295375
945.000000	0.295245
946.000000	0.295000
947.000000	0.294744
948.000000	0.294570
949.000000	0.294266
950.000000	0.293988
951.000000	0.293665
952.000000	0.293152
953.000000	0.292905
954.000000	0.292781
955.000000	0.292546
956.000000	0.292349
957.000000	0.292066
958.000000	0.291752
959.000000	0.291629
960.000000	0.291527
961.000000	0.291278
962.000000	0.290907
963.000000	0.290724
964.000000	0.290487
965.000000	0.290200
966.000000	0.289832
967.000000	0.289594
968.000000	0.289387
969.000000	0.289210
970.000000	0.289186
971.000000	0.288955
972.000000	0.288676
973.000000	0.288446
974.000000	0.288400
975.000000	0.287993
976.000000	0.287668
977.000000	0.287703
978.000000	0.287297
979.000000	0.286976
980.000000	0.286725
981.000000	0.286731
982.000000	0.286784
983.000000	0.286431
984.000000	0.285887
985.000000	0.285876
986.000000	0.285907
987.000000	0.285956
988.000000	0.285974
989.000000	0.286111
990.000000	0.285865
991.000000	0.285449
992.000000	0.285304
993.000000	0.285282
994.000000	0.285194
995.000000	0.285138
996.000000	0.285048
997.000000	0.285140
998.000000	0.284947
999.000000	0.284478
1000.000000	0.284297
1001.000000	0.284093
1002.000000	0.284460
1003.000000	0.285168
1004.000000	0.285272
1005.000000	0.284641
1006.000000	0.284651
1007.000000	0.284937
1008.000000	0.284928
1009.000000	0.284712
1010.000000	0.284739
1011.000000	0.284129
1012.000000	0.283523
1013.000000	0.283594
1014.000000	0.283566
1015.000000	0.283736
1016.000000	0.284265
1017.000000	0.283842
1018.000000	0.283621
1019.000000	0.283818
1020.000000	0.284290
1021.000000	0.284036
1022.000000	0.284287
1023.000000	0.284427
1024.000000	0.283916
1025.000000	0.283671
1026.000000	0.283813
1027.000000	0.283531
1028.000000	0.283307
1029.000000	0.283411
1030.000000	0.283439
1031.000000	0.283916
1032.000000	0.284337
1033.000000	0.284643
1034.000000	0.284672
1035.000000	0.284202
1036.000000	0.284060
1037.000000	0.283784
1038.000000	0.283803
1039.000000	0.284212
1040.000000	0.285027
1041.000000	0.284756
1042.000000	0.283998
1043.000000	0.283552
1044.000000	0.283524
1045.000000	0.284321
1046.000000	0.285353
1047.000000	0.285731
1048.000000	0.285606
1049.000000	0.285762
1050.000000	0.285681
1051.000000	0.285848
1052.000000	0.286606
1053.000000	0.286656
1054.000000	0.286149
1055.000000	0.286263
1056.000000	0.286587
1057.000000	0.286618
1058.000000	0.286775
1059.000000	0.286964
1060.000000	0.287114
1061.000000	0.286955
1062.000000	0.286978
1063.000000	0.287789
1064.000000	0.288075
1065.000000	0.288069
1066.000000	0.288208
1067.000000	0.288171
1068.000000	0.288282
1069.000000	0.288662
1070.000000	0.288815
1071.000000	0.288744
1072.000000	0.288995
1073.000000	0.289500
1074.000000	0.289597
1075.000000	0.290125
1076.000000	0.291045
1077.000000	0.291113
1078.000000	0.291043
1079.000000	0.291179
1080.000000	0.291164
1081.000000	0.291304
1082.000000	0.291764
1083.000000	0.292039
1084.000000	0.292160
1085.000000	0.292445
1086.000000	0.293001
1087.000000	0.293325
1088.000000	0.293359
1089.000000	0.293570
1090.000000	0.293880
1091.000000	0.293851
1092.000000	0.293846
1093.000000	0.294302
1094.000000	0.294477
1095.000000	0.294451
1096.000000	0.294471
1097.000000	0.294520
1098.000000	0.294555
1099.000000	0.294326
1100.000000	0.294514
1101.000000	0.294849
1102.000000	0.295214
1103.000000	0.295780
1104.000000	0.296314
1105.000000	0.297086
1106.000000	0.297517
1107.000000	0.297608
1108.000000	0.297874
1109.000000	0.298164
1110.000000	0.298263
1111.000000	0.298482
1112.000000	0.298992
1113.000000	0.299099
1114.000000	0.298857
1115.000000	0.298957
1116.000000	0.299090
1117.000000	0.299228
1118.000000	0.299569
1119.000000	0.299677
1120.000000	0.299507
1121.000000	0.299616
1122.000000	0.299945
1123.000000	0.300316
1124.000000	0.300656
1125.000000	0.300958
1126.000000	0.301199
1127.000000	0.301274
1128.000000	0.301260
1129.000000	0.301152
1130.000000	0.301252
1131.000000	0.301295
1132.000000	0.301409
1133.000000	0.301854
1134.000000	0.301994
1135.000000	0.301829
1136.000000	0.301897
1137.000000	0.301928
1138.000000	0.302052
1139.000000	0.302520
1140.000000	0.302780
1141.000000	0.302948
1142.000000	0.303079
1143.000000	0.302881
1144.000000	0.303026
1145.000000	0.303152
1146.000000	0.303273
1147.000000	0.303470
1148.000000	0.303748
1149.000000	0.303911
1150.000000	0.304095
1151.000000	0.304198
1152.000000	0.304191
1153.000000	0.304227
1154.000000	0.304141
1155.000000	0.304131
1156.000000	0.304147
1157.000000	0.304181
1158.000000	0.304168
1159.000000	0.304273
1160.000000	0.304496
1161.000000	0.304618
1162.000000	0.304904
1163.000000	0.305060
1164.000000	0.305102
1165.000000	0.305228
1166.000000	0.305308
1167.000000	0.305307
1168.000000	0.305397
1169.000000	0.305587
1170.000000	0.305615
1171.000000	0.305675
1172.000000	0.305755
1173.000000	0.305591
1174.000000	0.305672
1175.000000	0.306016
1176.000000	0.306076
1177.000000	0.306095
1178.000000	0.306202
1179.000000	0.306260
1180.000000	0.306217
1181.000000	0.306235
1182.000000	0.306324
1183.000000	0.306333
1184.000000	0.306470
1185.000000	0.306489
1186.000000	0.306536
1187.000000	0.306562
1188.000000	0.306522
1189.000000	0.306418
1190.000000	0.306329
1191.000000	0.306365
1192.000000	0.306415
1193.000000	0.306600
1194.000000	0.306966
1195.000000	0.307123
1196.000000	0.307079
1197.000000	0.307144
1198.000000	0.307196
1199.000000	0.307282
1200.000000	0.307473
1201.000000	0.307560
1202.000000	0.307526
1203.000000	0.307590
1204.000000	0.307569
1205.000000	0.307579
1206.000000	0.307572
1207.000000	0.307661
1208.000000	0.307704
1209.000000	0.307825
1210.000000	0.307865
1211.000000	0.307876
1212.000000	0.307887
1213.000000	0.307851
1214.000000	0.307893
1215.000000	0.308026
1216.000000	0.308087
1217.000000	0.308081
1218.000000	0.308102
1219.000000	0.308124
1220.000000	0.308162
1221.000000	0.308324
1222.000000	0.308358
1223.000000	0.308457
1224.000000	0.308603
1225.000000	0.308565
1226.000000	0.308689
1227.000000	0.308753
1228.000000	0.308783
1229.000000	0.308771
1230.000000	0.308692
1231.000000	0.308658
1232.000000	0.308693
1233.000000	0.308842
1234.000000	0.309088
1235.000000	0.309266
1236.000000	0.309426
1237.000000	0.309532
1238.000000	0.309495
1239.000000	0.309552
1240.000000	0.309641
1241.000000	0.309657
1242.000000	0.309693
1243.000000	0.309875
1244.000000	0.310032
1245.000000	0.310199
1246.000000	0.310432
1247.000000	0.310599
1248.000000	0.310549
1249.000000	0.310578
1250.000000	0.310631
1251.000000	0.310561
1252.000000	0.310566
1253.000000	0.310712
1254.000000	0.310695
1255.000000	0.310613
1256.000000	0.310545
1257.000000	0.310422
1258.000000	0.310362
1259.000000	0.310201
1260.000000	0.310192
1261.000000	0.310219
1262.000000	0.310243
1263.000000	0.310316
1264.000000	0.310490
1265.000000	0.310644
1266.000000	0.310720
1267.000000	0.310892
1268.000000	0.311009
1269.000000	0.310999
1270.000000	0.311168
1271.000000	0.311298
1272.000000	0.311343
1273.000000	0.311388
1274.000000	0.311304
1275.000000	0.311291
1276.000000	0.311251
1277.000000	0.311367
1278.000000	0.311612
1279.000000	0.311589
1280.000000	0.311318
1281.000000	0.311253
1282.000000	0.311174
1283.000000	0.311235
1284.000000	0.311538
1285.000000	0.311649
1286.000000	0.311675
1287.000000	0.311550
1288.000000	0.311541
1289.000000	0.311516
1290.000000	0.311476
1291.000000	0.311650
1292.000000	0.311692
1293.000000	0.311662
1294.000000	0.311722
1295.000000	0.311610
1296.000000	0.311615
1297.000000	0.311775
1298.000000	0.311843
1299.000000	0.311932
1300.000000	0.312017
1301.000000	0.312000
1302.000000	0.311937
1303.000000	0.311884
1304.000000	0.311867
1305.000000	0.311974
1306.000000	0.311975
1307.000000	0.311971
1308.000000	0.312045
1309.000000	0.312190
1310.000000	0.312196
1311.000000	0.312167
1312.000000	0.312216
1313.000000	0.312186
1314.000000	0.311822
1315.000000	0.311721
1316.000000	0.311810
1317.000000	0.311817
1318.000000	0.311994
1319.000000	0.312079
1320.000000	0.311973
1321.000000	0.311835
1322.000000	0.311713
1323.000000	0.311707
1324.000000	0.311863
1325.000000	0.312028
1326.000000	0.312109
1327.000000	0.312070
1328.000000	0.311984
1329.000000	0.311828
1330.000000	0.311497
1331.000000	0.311478
1332.000000	0.311653
1333.000000	0.311684
1334.000000	0.311910
1335.000000	0.311986
1336.000000	0.311901
1337.000000	0.311853
1338.000000	0.311787
1339.000000	0.311625
1340.000000	0.311463
1341.000000	0.311237
1342.000000	0.311119
1343.000000	0.311195
1344.000000	0.311165
1345.000000	0.311172
1346.000000	0.311188
1347.000000	0.311081
1348.000000	0.311194
1349.000000	0.311242
1350.000000	0.311357
1351.000000	0.311369
1352.000000	0.311154
1353.000000	0.311095
1354.000000	0.311157
1355.000000	0.311164
1356.000000	0.311272
1357.000000	0.311214
1358.000000	0.310888
1359.000000	0.310663
1360.000000	0.310548
1361.000000	0.310492
1362.000000	0.310449
1363.000000	0.310583
1364.000000	0.310616
1365.000000	0.310537
1366.000000	0.310547
1367.000000	0.310612
1368.000000	0.310576
1369.000000	0.310637
1370.000000	0.310629
1371.000000	0.310506
1372.000000	0.310304
1373.000000	0.310077
1374.000000	0.309900
1375.000000	0.309797
1376.000000	0.309774
1377.000000	0.309693
1378.000000	0.309621
1379.000000	0.309452
1380.000000	0.309177
1381.000000	0.308941
1382.000000	0.308626
1383.000000	0.308237
1384.000000	0.307854
1385.000000	0.307439
1386.000000	0.307130
1387.000000	0.306844
1388.000000	0.306257
1389.000000	0.305676
1390.000000	0.305213
1391.000000	0.304410
1392.000000	0.303670
1393.000000	0.303055
1394.000000	0.302524
1395.000000	0.301780
1396.000000	0.301153
1397.000000	0.300362
1398.000000	0.299177
1399.000000	0.298224
1400.000000	0.297297
1401.000000	0.296486
1402.000000	0.295818
1403.000000	0.295112
1404.000000	0.294493
1405.000000	0.293940
1406.000000	0.293227
1407.000000	0.292605
1408.000000	0.291998
1409.000000	0.291353
1410.000000	0.290881
1411.000000	0.290573
1412.000000	0.290306
1413.000000	0.290113
1414.000000	0.289980
1415.000000	0.289753
1416.000000	0.289493
1417.000000	0.289335
1418.000000	0.289065
1419.000000	0.288828
1420.000000	0.288667
1421.000000	0.288522
1422.000000	0.288328
1423.000000	0.288152
1424.000000	0.287903
1425.000000	0.287771
1426.000000	0.287674
1427.000000	0.287605
1428.000000	0.287745
1429.000000	0.287847
1430.000000	0.287798
1431.000000	0.287803
1432.000000	0.287807
1433.000000	0.287706
1434.000000	0.287695
1435.000000	0.287892
1436.000000	0.287984
1437.000000	0.288016
1438.000000	0.288081
1439.000000	0.288140
1440.000000	0.288325
1441.000000	0.288603
1442.000000	0.288874
1443.000000	0.289156
1444.000000	0.289488
1445.000000	0.289719
1446.000000	0.289953
1447.000000	0.290310
1448.000000	0.290710
1449.000000	0.291219
1450.000000	0.291746
1451.000000	0.292088
1452.000000	0.292366
1453.000000	0.292685
1454.000000	0.292948
1455.000000	0.293217
1456.000000	0.293529
1457.000000	0.293707
1458.000000	0.293844
1459.000000	0.294026
1460.000000	0.294264
1461.000000	0.294589
1462.000000	0.294829
1463.000000	0.294970
1464.000000	0.295156
1465.000000	0.295388
1466.000000	0.295556
1467.000000	0.295752
1468.000000	0.295954
1469.000000	0.296028
1470.000000	0.296094
1471.000000	0.296334
1472.000000	0.296527
1473.000000	0.296884
1474.000000	0.297268
1475.000000	0.297587
1476.000000	0.297895
1477.000000	0.298104
1478.000000	0.298337
1479.000000	0.298476
1480.000000	0.298587
1481.000000	0.298731
1482.000000	0.298904
1483.000000	0.299053
1484.000000	0.299184
1485.000000	0.299466
1486.000000	0.299792
1487.000000	0.300121
1488.000000	0.300673
1489.000000	0.300963
1490.000000	0.300953
1491.000000	0.301082
1492.000000	0.301122
1493.000000	0.301264
1494.000000	0.301427
1495.000000	0.301551
1496.000000	0.301659
1497.000000	0.301787
1498.000000	0.301922
1499.000000	0.302130
1500.000000	0.302278
1501.000000	0.302383
1502.000000	0.302449
1503.000000	0.302562
1504.000000	0.302711
1505.000000	0.302755
1506.000000	0.302827
1507.000000	0.303006
1508.000000	0.303271
1509.000000	0.303560
1510.000000	0.303730
1511.000000	0.303825
1512.000000	0.303854
1513.000000	0.303901
1514.000000	0.304057
1515.000000	0.304095
1516.000000	0.304092
1517.000000	0.304130
1518.000000	0.304156
1519.000000	0.304144
1520.000000	0.304162
1521.000000	0.304084
1522.000000	0.304049
1523.000000	0.304167
1524.000000	0.304246
1525.000000	0.304379
1526.000000	0.304413
1527.000000	0.304337
1528.000000	0.304344
1529.000000	0.304353
1530.000000	0.304351
1531.000000	0.304445
1532.000000	0.304602
1533.000000	0.304724
1534.000000	0.304740
1535.000000	0.304797
1536.000000	0.304880
1537.000000	0.304969
1538.000000	0.305096
1539.000000	0.305203
1540.000000	0.305247
1541.000000	0.305266
1542.000000	0.305389
1543.000000	0.305573
1544.000000	0.305670
1545.000000	0.305841
1546.000000	0.305991
1547.000000	0.305995
1548.000000	0.305982
1549.000000	0.305944
1550.000000	0.305909
1551.000000	0.305963
1552.000000	0.306021
1553.000000	0.306008
1554.000000	0.306046
1555.000000	0.306075
1556.000000	0.306039
1557.000000	0.306126
1558.000000	0.306239
1559.000000	0.306305
1560.000000	0.306297
1561.000000	0.306400
1562.000000	0.306390
1563.000000	0.306241
1564.000000	0.306234
1565.000000	0.306310
1566.000000	0.306228
1567.000000	0.306204
1568.000000	0.306167
1569.000000	0.306131
1570.000000	0.306086
1571.000000	0.306008
1572.000000	0.305964
1573.000000	0.305888
1574.000000	0.305890
1575.000000	0.306025
1576.000000	0.306117
1577.000000	0.306242
1578.000000	0.306264
1579.000000	0.306207
1580.000000	0.306278
1581.000000	0.306477
1582.000000	0.306563
1583.000000	0.306708
1584.000000	0.306685
1585.000000	0.306557
1586.000000	0.306497
1587.000000	0.306419
1588.000000	0.306410
1589.000000	0.306424
1590.000000	0.306436
1591.000000	0.306594
1592.000000	0.306504
1593.000000	0.306231
1594.000000	0.306164
1595.000000	0.306081
1596.000000	0.306097
1597.000000	0.306385
1598.000000	0.306479
1599.000000	0.306530
1600.000000	0.306539
1601.000000	0.306573
1602.000000	0.306548
1603.000000	0.306460
1604.000000	0.306410
1605.000000	0.306326
1606.000000	0.306350
1607.000000	0.306560
1608.000000	0.306632
1609.000000	0.306775
1610.000000	0.306814
1611.000000	0.306700
1612.000000	0.306680
1613.000000	0.306828
1614.000000	0.306826
1615.000000	0.306836
1616.000000	0.306876
1617.000000	0.306789
1618.000000	0.306758
1619.000000	0.306757
1620.000000	0.306775
1621.000000	0.306832
1622.000000	0.306869
1623.000000	0.306903
1624.000000	0.306966
1625.000000	0.306895
1626.000000	0.306809
1627.000000	0.306715
1628.000000	0.306730
1629.000000	0.306756
1630.000000	0.306791
1631.000000	0.306914
1632.000000	0.306875
1633.000000	0.306653
1634.000000	0.306623
1635.000000	0.306680
1636.000000	0.306675
1637.000000	0.306835
1638.000000	0.306754
1639.000000	0.306554
1640.000000	0.306420
1641.000000	0.306166
1642.000000	0.306165
1643.000000	0.306379
1644.000000	0.306471
1645.000000	0.306694
1646.000000	0.306735
1647.000000	0.306657
1648.000000	0.306592
1649.000000	0.306583
1650.000000	0.306577
1651.000000	0.306504
1652.000000	0.306647
1653.000000	0.306924
1654.000000	0.307002
1655.000000	0.307094
1656.000000	0.306987
1657.000000	0.306643
1658.000000	0.306559
1659.000000	0.306655
1660.000000	0.306738
1661.000000	0.306840
1662.000000	0.306916
1663.000000	0.306958
1664.000000	0.306950
1665.000000	0.306923
1666.000000	0.306987
1667.000000	0.306950
1668.000000	0.307019
1669.000000	0.307193
1670.000000	0.307143
1671.000000	0.307114
1672.000000	0.307142
1673.000000	0.307021
1674.000000	0.307204
1675.000000	0.307368
1676.000000	0.307515
1677.000000	0.307670
1678.000000	0.307673
1679.000000	0.307602
1680.000000	0.307344
1681.000000	0.307072
1682.000000	0.307046
1683.000000	0.307214
1684.000000	0.307274
1685.000000	0.307282
1686.000000	0.307209
1687.000000	0.306988
1688.000000	0.306983
1689.000000	0.307115
1690.000000	0.307073
1691.000000	0.307047
1692.000000	0.306892
1693.000000	0.306897
1694.000000	0.307003
1695.000000	0.307022
1696.000000	0.307126
1697.000000	0.307072
1698.000000	0.306900
1699.000000	0.306839
1700.000000	0.306745
1701.000000	0.306752
1702.000000	0.306674
1703.000000	0.306644
1704.000000	0.306767
1705.000000	0.306805
1706.000000	0.306845
1707.000000	0.306968
1708.000000	0.307100
1709.000000	0.307136
1710.000000	0.307349
1711.000000	0.307442
1712.000000	0.307360
1713.000000	0.307345
1714.000000	0.307417
1715.000000	0.307439
1716.000000	0.307463
1717.000000	0.307433
1718.000000	0.307237
1719.000000	0.307206
1720.000000	0.307348
1721.000000	0.307351
1722.000000	0.307402
1723.000000	0.307400
1724.000000	0.307274
1725.000000	0.307231
1726.000000	0.307203
1727.000000	0.307102
1728.000000	0.306837
1729.000000	0.306680
1730.000000	0.306658
1731.000000	0.306649
1732.000000	0.306798
1733.000000	0.306788
1734.000000	0.306497
1735.000000	0.306506
1736.000000	0.306534
1737.000000	0.306573
1738.000000	0.306856
1739.000000	0.306909
1740.000000	0.306772
1741.000000	0.306746
1742.000000	0.306740
1743.000000	0.306790
1744.000000	0.306831
1745.000000	0.306918
1746.000000	0.307081
1747.000000	0.307035
1748.000000	0.307034
1749.000000	0.307009
1750.000000	0.306953
1751.000000	0.307108
1752.000000	0.307262
1753.000000	0.307271
1754.000000	0.307221
1755.000000	0.307060
1756.000000	0.306928
1757.000000	0.306687
1758.000000	0.306564
1759.000000	0.306563
1760.000000	0.306484
1761.000000	0.306294
1762.000000	0.306245
1763.000000	0.306282
1764.000000	0.306288
1765.000000	0.306396
1766.000000	0.306406
1767.000000	0.306253
1768.000000	0.306083
1769.000000	0.305878
1770.000000	0.305896
1771.000000	0.305947
1772.000000	0.305987
1773.000000	0.306214
1774.000000	0.306222
1775.000000	0.306074
1776.000000	0.306086
1777.000000	0.306113
1778.000000	0.306020
1779.000000	0.305891
1780.000000	0.305865
1781.000000	0.305701
1782.000000	0.305736
1783.000000	0.306098
1784.000000	0.306150
1785.000000	0.305949
1786.000000	0.305748
1787.000000	0.305700
1788.000000	0.305710
1789.000000	0.305719
1790.000000	0.305780
1791.000000	0.305679
1792.000000	0.305470
1793.000000	0.305448
1794.000000	0.305594
1795.000000	0.305549
1796.000000	0.305528
1797.000000	0.305431
1798.000000	0.304888
1799.000000	0.304793
1800.000000	0.305168
1801.000000	0.304770
1802.000000	0.304956
1803.000000	0.305122
1804.000000	0.305527
1805.000000	0.306112
1806.000000	0.306438
1807.000000	0.306908
1808.000000	0.307362
1809.000000	0.308383
1810.000000	0.307644
1811.000000	0.307503
1812.000000	0.307574
1813.000000	0.307197
1814.000000	0.306041
1815.000000	0.305726
1816.000000	0.306058
1817.000000	0.305549
1818.000000	0.304828
1819.000000	0.304387
1820.000000	0.303963
1821.000000	0.303257
1822.000000	0.302805
1823.000000	0.302659
1824.000000	0.302599
1825.000000	0.302106
1826.000000	0.302317
1827.000000	0.303002
1828.000000	0.304142
1829.000000	0.304512
1830.000000	0.304875
1831.000000	0.304700
1832.000000	0.303432
1833.000000	0.303073
1834.000000	0.302778
1835.000000	0.302791
1836.000000	0.303474
1837.000000	0.303710
1838.000000	0.304044
1839.000000	0.303863
1840.000000	0.302777
1841.000000	0.302178
1842.000000	0.301638
1843.000000	0.300457
1844.000000	0.300125
1845.000000	0.300630
1846.000000	0.300752
1847.000000	0.300683
1848.000000	0.301162
1849.000000	0.301325
1850.000000	0.301169
1851.000000	0.301440
1852.000000	0.302098
1853.000000	0.302423
1854.000000	0.302686
1855.000000	0.302437
1856.000000	0.301636
1857.000000	0.300914
1858.000000	0.300303
1859.000000	0.300681
1860.000000	0.301311
1861.000000	0.300665
1862.000000	0.299809
1863.000000	0.298148
1864.000000	0.297185
1865.000000	0.295816
1866.000000	0.295314
1867.000000	0.295844
1868.000000	0.295379
1869.000000	0.295090
1870.000000	0.294857
1871.000000	0.294043
1872.000000	0.293562
1873.000000	0.293014
1874.000000	0.292837
1875.000000	0.291931
1876.000000	0.290538
1877.000000	0.288691
1878.000000	0.286966
1879.000000	0.284681
1880.000000	0.282558
1881.000000	0.280747
1882.000000	0.278572
1883.000000	0.276843
1884.000000	0.275326
1885.000000	0.274505
1886.000000	0.272451
1887.000000	0.270090
1888.000000	0.267372
1889.000000	0.263704
1890.000000	0.260524
1891.000000	0.258270
1892.000000	0.255381
1893.000000	0.252965
1894.000000	0.251031
1895.000000	0.248430
1896.000000	0.245412
1897.000000	0.243164
1898.000000	0.240433
1899.000000	0.237751
1900.000000	0.235992
1901.000000	0.233702
1902.000000	0.231529
1903.000000	0.229768
1904.000000	0.228470
1905.000000	0.227401
1906.000000	0.226651
1907.000000	0.226376
1908.000000	0.226669
1909.000000	0.226725
1910.000000	0.227304
1911.000000	0.228070
1912.000000	0.228252
1913.000000	0.228849
1914.000000	0.229510
1915.000000	0.230079
1916.000000	0.231607
1917.000000	0.232770
1918.000000	0.234216
1919.000000	0.234935
1920.000000	0.235813
1921.000000	0.236145
1922.000000	0.236207
1923.000000	0.236716
1924.000000	0.236637
1925.000000	0.236778
1926.000000	0.237027
1927.000000	0.237107
1928.000000	0.237354
1929.000000	0.238031
1930.000000	0.238410
1931.000000	0.238752
1932.000000	0.239441
1933.000000	0.240371
1934.000000	0.241609
1935.000000	0.241893
1936.000000	0.241894
1937.000000	0.242428
1938.000000	0.242273
1939.000000	0.242367
1940.000000	0.242877
1941.000000	0.243462
1942.000000	0.243375
1943.000000	0.243285
1944.000000	0.243081
1945.000000	0.243384
1946.000000	0.243744
1947.000000	0.244112
1948.000000	0.244536
1949.000000	0.244434
1950.000000	0.244069
1951.000000	0.243759
1952.000000	0.243168
1953.000000	0.243176
1954.000000	0.243891
1955.000000	0.244072
1956.000000	0.244888
1957.000000	0.245466
1958.000000	0.244643
1959.000000	0.244826
1960.000000	0.244710
1961.000000	0.244154
1962.000000	0.244199
1963.000000	0.244866
1964.000000	0.245295
1965.000000	0.245726
1966.000000	0.246136
1967.000000	0.246715
1968.000000	0.246921
1969.000000	0.246933
1970.000000	0.247413
1971.000000	0.247528
1972.000000	0.247593
1973.000000	0.247721
1974.000000	0.248100
1975.000000	0.248378
1976.000000	0.248561
1977.000000	0.248954
1978.000000	0.249621
1979.000000	0.250295
1980.000000	0.250932
1981.000000	0.251460
1982.000000	0.251806
1983.000000	0.251670
1984.000000	0.251595
1985.000000	0.251385
1986.000000	0.251389
1987.000000	0.251280
1988.000000	0.251686
1989.000000	0.252325
1990.000000	0.253103
1991.000000	0.253605
1992.000000	0.254057
1993.000000	0.254483
1994.000000	0.254407
1995.000000	0.254442
1996.000000	0.254715
1997.000000	0.254794
1998.000000	0.254507
1999.000000	0.255004
2000.000000	0.255979
2001.000000	0.256486
2002.000000	0.257613
2003.000000	0.258716
2004.000000	0.259368
2005.000000	0.259882
2006.000000	0.260209
2007.000000	0.260379
2008.000000	0.260618
2009.000000	0.260601
2010.000000	0.260980
2011.000000	0.261645
2012.000000	0.261792
2013.000000	0.261608
2014.000000	0.261689
2015.000000	0.261899
2016.000000	0.262030
2017.000000	0.262718
2018.000000	0.263166
2019.000000	0.262775
2020.000000	0.263081
2021.000000	0.263297
2022.000000	0.263404
2023.000000	0.263760
2024.000000	0.264377
2025.000000	0.264683
2026.000000	0.264934
2027.000000	0.265083
2028.000000	0.264906
2029.000000	0.265604
2030.000000	0.266292
2031.000000	0.266929
2032.000000	0.268055
2033.000000	0.268894
2034.000000	0.269342
2035.000000	0.269822
2036.000000	0.269972
2037.000000	0.269415
2038.000000	0.269457
2039.000000	0.269995
2040.000000	0.269859
2041.000000	0.269945
2042.000000	0.270338
2043.000000	0.269908
2044.000000	0.270269
2045.000000	0.270987
2046.000000	0.271091
2047.000000	0.271419
2048.000000	0.271837
2049.000000	0.272353
2050.000000	0.272677
2051.000000	0.272892
2052.000000	0.273054
2053.000000	0.273130
2054.000000	0.273154
2055.000000	0.273191
2056.000000	0.273389
2057.000000	0.274084
2058.000000	0.274544
2059.000000	0.275080
2060.000000	0.275321
2061.000000	0.275454
2062.000000	0.275267
2063.000000	0.274517
2064.000000	0.274186
2065.000000	0.274086
2066.000000	0.274081
2067.000000	0.274536
2068.000000	0.275119
2069.000000	0.275717
2070.000000	0.276057
2071.000000	0.276123
2072.000000	0.276502
2073.000000	0.276972
2074.000000	0.277300
2075.000000	0.277607
2076.000000	0.278284
2077.000000	0.278340
2078.000000	0.277840
2079.000000	0.277645
2080.000000	0.277073
2081.000000	0.276949
2082.000000	0.277249
2083.000000	0.277451
2084.000000	0.277590
2085.000000	0.277922
2086.000000	0.278063
2087.000000	0.277998
2088.000000	0.278005
2089.000000	0.278182
2090.000000	0.278257
2091.000000	0.278399
2092.000000	0.278495
2093.000000	0.278355
2094.000000	0.278497
2095.000000	0.279003
2096.000000	0.279273
2097.000000	0.279306
2098.000000	0.279800
2099.000000	0.280381
2100.000000	0.280114
2101.000000	0.279998
2102.000000	0.279980
2103.000000	0.279344
2104.000000	0.278845
2105.000000	0.278841
2106.000000	0.279238
2107.000000	0.279656
2108.000000	0.280537
2109.000000	0.280992
2110.000000	0.281156
2111.000000	0.281186
2112.000000	0.280527
2113.000000	0.280904
2114.000000	0.280826
2115.000000	0.280578
2116.000000	0.280770
2117.000000	0.280174
2118.000000	0.279569
2119.000000	0.279402
2120.000000	0.279306
2121.000000	0.279012
2122.000000	0.279422
2123.000000	0.280530
2124.000000	0.281336
2125.000000	0.282741
2126.000000	0.283467
2127.000000	0.283723
2128.000000	0.284141
2129.000000	0.284251
2130.000000	0.284507
2131.000000	0.284719
2132.000000	0.284118
2133.000000	0.283347
2134.000000	0.282481
2135.000000	0.282145
2136.000000	0.281966
2137.000000	0.281589
2138.000000	0.281389
2139.000000	0.281229
2140.000000	0.280438
2141.000000	0.280743
2142.000000	0.282151
2143.000000	0.282736
2144.000000	0.284024
2145.000000	0.284615
2146.000000	0.284775
2147.000000	0.284504
2148.000000	0.284615
2149.000000	0.284608
2150.000000	0.284210
2151.000000	0.284193
2152.000000	0.283567
2153.000000	0.282396
2154.000000	0.282206
2155.000000	0.282674
2156.000000	0.282749
2157.000000	0.283515
2158.000000	0.283536
2159.000000	0.282813
2160.000000	0.282371
2161.000000	0.281599
2162.000000	0.281542
2163.000000	0.281914
2164.000000	0.282061
2165.000000	0.282784
2166.000000	0.282735
2167.000000	0.282476
2168.000000	0.282353
2169.000000	0.282167
2170.000000	0.282253
2171.000000	0.282492
2172.000000	0.283051
2173.000000	0.283266
2174.000000	0.283638
2175.000000	0.283640
2176.000000	0.283449
2177.000000	0.282828
2178.000000	0.281453
2179.000000	0.281000
2180.000000	0.280371
2181.000000	0.280439
2182.000000	0.281059
2183.000000	0.281502
2184.000000	0.281796
2185.000000	0.281349
2186.000000	0.281305
2187.000000	0.281249
2188.000000	0.280783
2189.000000	0.280994
2190.000000	0.280780
2191.000000	0.280938
2192.000000	0.280457
2193.000000	0.279560
2194.000000	0.279126
2195.000000	0.278100
2196.000000	0.277911
2197.000000	0.278795
2198.000000	0.279251
2199.000000	0.280162
2200.000000	0.280751
2201.000000	0.281773
2202.000000	0.281626
2203.000000	0.279793
2204.000000	0.278733
2205.000000	0.277038
2206.000000	0.276773
2207.000000	0.278350
2208.000000	0.278927
2209.000000	0.278639
2210.000000	0.276836
2211.000000	0.275392
2212.000000	0.275713
2213.000000	0.276073
2214.000000	0.278073
2215.000000	0.278697
2216.000000	0.279009
2217.000000	0.279387
2218.000000	0.278944
2219.000000	0.279907
2220.000000	0.283001
2221.000000	0.282943
2222.000000	0.280808
2223.000000	0.280194
2224.000000	0.278730
2225.000000	0.277299
2226.000000	0.277259
2227.000000	0.279882
2228.000000	0.281324
2229.000000	0.281163
2230.000000	0.281808
2231.000000	0.283009
2232.000000	0.281804
2233.000000	0.279313
2234.000000	0.278209
2235.000000	0.276464
2236.000000	0.275339
2237.000000	0.275334
2238.000000	0.275344
2239.000000	0.274680
2240.000000	0.275285
2241.000000	0.278775
2242.000000	0.278915
2243.000000	0.277600
2244.000000	0.276678
2245.000000	0.273536
2246.000000	0.271679
2247.000000	0.270030
2248.000000	0.269103
2249.000000	0.268981
2250.000000	0.268531
2251.000000	0.268203
2252.000000	0.271014
2253.000000	0.273011
2254.000000	0.273841
2255.000000	0.276389
2256.000000	0.277868
2257.000000	0.278308
2258.000000	0.279423
2259.000000	0.277393
2260.000000	0.275912
2261.000000	0.274933
2262.000000	0.273160
2263.000000	0.272778
2264.000000	0.273707
2265.000000	0.273741
2266.000000	0.274987
2267.000000	0.274262
2268.000000	0.272598
2269.000000	0.271201
2270.000000	0.267079
2271.000000	0.264905
2272.000000	0.264312
2273.000000	0.263717
2274.000000	0.264119
2275.000000	0.264940
2276.000000	0.267395
2277.000000	0.266266
2278.000000	0.265627
2279.000000	0.264465
2280.000000	0.260919
2281.000000	0.259415
2282.000000	0.256974
2283.000000	0.254472
2284.000000	0.255205
2285.000000	0.254107
2286.000000	0.254039
2287.000000	0.256146
2288.000000	0.256694
2289.000000	0.256366
2290.000000	0.255111
2291.000000	0.252474
2292.000000	0.251331
2293.000000	0.250837
2294.000000	0.249746
2295.000000	0.249806
2296.000000	0.249415
2297.000000	0.248091
2298.000000	0.246115
2299.000000	0.243820
2300.000000	0.242494
2301.000000	0.239868
2302.000000	0.239076
2303.000000	0.239997
2304.000000	0.240865
2305.000000	0.242377
2306.000000	0.244641
2307.000000	0.248089
2308.000000	0.251309
2309.000000	0.253993
2310.000000	0.253585
2311.000000	0.252792
2312.000000	0.253168
2313.000000	0.252137
2314.000000	0.252186
2315.000000	0.252899
2316.000000	0.252571
2317.000000	0.254166
2318.000000	0.257834
2319.000000	0.260131
2320.000000	0.260348
2321.000000	0.260217
2322.000000	0.258733
2323.000000	0.257838
2324.000000	0.258581
2325.000000	0.259820
2326.000000	0.260332
2327.000000	0.260258
2328.000000	0.262013
2329.000000	0.261230
2330.000000	0.260305
2331.000000	0.262369
2332.000000	0.261154
2333.000000	0.261618
2334.000000	0.262597
2335.000000	0.261582
2336.000000	0.256963
2337.000000	0.257206
2338.000000	0.259092
2339.000000	0.259158
2340.000000	0.260982
2341.000000	0.260483
2342.000000	0.256356
2343.000000	0.254823
2344.000000	0.254665
2345.000000	0.254477
2346.000000	0.255421
2347.000000	0.255996
2348.000000	0.256044
2349.000000	0.257744
2350.000000	0.259996
2351.000000	0.256971
2352.000000	0.256528
2353.000000	0.255552
2354.000000	0.251517
2355.000000	0.252409
2356.000000	0.250977
2357.000000	0.246813
2358.000000	0.245140
2359.000000	0.241959
2360.000000	0.242330
2361.000000	0.243984
2362.000000	0.243558
2363.000000	0.245616
2364.000000	0.242521
2365.000000	0.239914
2366.000000	0.238458
2367.000000	0.234993
2368.000000	0.234610
2369.000000	0.232717
2370.000000	0.233864
2371.000000	0.235921
2372.000000	0.238944
2373.000000	0.244693
2374.000000	0.242912
2375.000000	0.239442
2376.000000	0.238451
2377.000000	0.237843
2378.000000	0.240101
2379.000000	0.243112
2380.000000	0.242389
2381.000000	0.240616
2382.000000	0.239844
2383.000000	0.233569
2384.000000	0.227172
2385.000000	0.226064
2386.000000	0.225254
2387.000000	0.229093
2388.000000	0.236652
2389.000000	0.236899
2390.000000	0.234339
2391.000000	0.233621
2392.000000	0.229187
2393.000000	0.221953
2394.000000	0.218384
2395.000000	0.219823
2396.000000	0.217434
2397.000000	0.218991
2398.000000	0.222921
2399.000000	0.216755
2400.000000	0.214049
2401.000000	0.216209
2402.000000	0.216536
2403.000000	0.219334
2404.000000	0.227546
2405.000000	0.227780
2406.000000	0.222084
2407.000000	0.228449
2408.000000	0.231034
2409.000000	0.234292
2410.000000	0.245340
2411.000000	0.244318
2412.000000	0.240744
2413.000000	0.240483
2414.000000	0.247019
2415.000000	0.254277
2416.000000	0.260875
2417.000000	0.266391
2418.000000	0.257981
2419.000000	0.253277
2420.000000	0.247716
2421.000000	0.239970
2422.000000	0.239659
2423.000000	0.239653
2424.000000	0.235278
2425.000000	0.233938
2426.000000	0.241647
2427.000000	0.237382
2428.000000	0.227624
2429.000000	0.226003
2430.000000	0.212805
2431.000000	0.204523
2432.000000	0.216310
2433.000000	0.227004
2434.000000	0.234402
2435.000000	0.240883
2436.000000	0.238636
2437.000000	0.226434
2438.000000	0.220235
2439.000000	0.215445
2440.000000	0.199772
2441.000000	0.195498
2442.000000	0.201117
2443.000000	0.200728
2444.000000	0.207305
2445.000000	0.213692
2446.000000	0.205614
2447.000000	0.195355
2448.000000	0.194005
2449.000000	0.185110
2450.000000	0.180838
2451.000000	0.206411
2452.000000	0.224904
2453.000000	0.234722
2454.000000	0.252413
2455.000000	0.247837
2456.000000	0.229914
2457.000000	0.232564
2458.000000	0.238613
2459.000000	0.238744
2460.000000	0.249261
2461.000000	0.264463
2462.000000	0.265985
2463.000000	0.252217
2464.000000	0.247391
2465.000000	0.239703
2466.000000	0.234718
2467.000000	0.239217
2468.000000	0.242665
2469.000000	0.231099
2470.000000	0.207186
2471.000000	0.196985
2472.000000	0.183300
2473.000000	0.170785
2474.000000	0.182669
2475.000000	0.197467
2476.000000	0.206127
2477.000000	0.227109
2478.000000	0.233204
2479.000000	0.230587
2480.000000	0.218416
2481.000000	0.201392
2482.000000	0.200962
2483.000000	0.201744
2484.000000	0.230337
2485.000000	0.256859
2486.000000	0.263472
2487.000000	0.242366
2488.000000	0.190715
2489.000000	0.176709
2490.000000	0.186111
2491.000000	0.188920
2492.000000	0.204534
2493.000000	0.203163
2494.000000	0.213882
2495.000000	0.286721
2496.000000	0.290527
2497.000000	0.245611
2498.000000	0.223348
2499.000000	0.152870
2500.000000	0.140720
