# Wavelength	NAu-2-30_HEX-60_FV7-10_00002.asd.rts.txt
350.000000	0.144929
351.000000	0.163391
352.000000	0.166929
353.000000	0.162801
354.000000	0.158337
355.000000	0.145203
356.000000	0.142161
357.000000	0.148991
358.000000	0.149214
359.000000	0.151684
360.000000	0.156726
361.000000	0.161651
362.000000	0.159391
363.000000	0.159561
364.000000	0.165861
365.000000	0.166941
366.000000	0.165690
367.000000	0.163873
368.000000	0.162978
369.000000	0.166758
370.000000	0.169750
371.000000	0.165409
372.000000	0.160877
373.000000	0.159449
374.000000	0.161676
375.000000	0.161778
376.000000	0.162335
377.000000	0.162544
378.000000	0.158163
379.000000	0.158962
380.000000	0.161315
381.000000	0.159306
382.000000	0.163116
383.000000	0.165774
384.000000	0.163362
385.000000	0.164765
386.000000	0.164879
387.000000	0.163911
388.000000	0.167983
389.000000	0.167788
390.000000	0.165685
391.000000	0.167297
392.000000	0.167827
393.000000	0.168342
394.000000	0.169715
395.000000	0.169476
396.000000	0.169910
397.000000	0.170865
398.000000	0.168686
399.000000	0.167638
400.000000	0.168128
401.000000	0.168883
402.000000	0.169426
403.000000	0.169502
404.000000	0.169425
405.000000	0.171095
406.000000	0.172355
407.000000	0.172142
408.000000	0.170789
409.000000	0.170710
410.000000	0.171874
411.000000	0.172761
412.000000	0.172731
413.000000	0.172532
414.000000	0.173003
415.000000	0.173137
416.000000	0.173218
417.000000	0.173572
418.000000	0.174625
419.000000	0.174534
420.000000	0.173961
421.000000	0.175835
422.000000	0.176498
423.000000	0.176135
424.000000	0.176153
425.000000	0.176645
426.000000	0.177084
427.000000	0.177210
428.000000	0.177952
429.000000	0.178593
430.000000	0.178831
431.000000	0.178856
432.000000	0.178778
433.000000	0.178771
434.000000	0.179111
435.000000	0.179947
436.000000	0.180607
437.000000	0.180563
438.000000	0.180707
439.000000	0.180888
440.000000	0.181114
441.000000	0.181613
442.000000	0.181920
443.000000	0.181988
444.000000	0.182186
445.000000	0.182832
446.000000	0.183541
447.000000	0.183715
448.000000	0.184009
449.000000	0.184595
450.000000	0.185420
451.000000	0.186015
452.000000	0.186269
453.000000	0.186330
454.000000	0.186856
455.000000	0.187401
456.000000	0.187846
457.000000	0.188068
458.000000	0.188386
459.000000	0.188713
460.000000	0.188986
461.000000	0.189306
462.000000	0.189709
463.000000	0.190103
464.000000	0.190562
465.000000	0.191099
466.000000	0.191556
467.000000	0.191761
468.000000	0.192058
469.000000	0.192447
470.000000	0.192927
471.000000	0.193142
472.000000	0.193408
473.000000	0.193917
474.000000	0.194297
475.000000	0.194697
476.000000	0.195176
477.000000	0.195414
478.000000	0.195692
479.000000	0.196112
480.000000	0.196441
481.000000	0.196730
482.000000	0.197033
483.000000	0.197251
484.000000	0.197594
485.000000	0.198030
486.000000	0.198535
487.000000	0.198605
488.000000	0.198676
489.000000	0.198902
490.000000	0.199259
491.000000	0.199408
492.000000	0.199578
493.000000	0.199955
494.000000	0.199980
495.000000	0.200049
496.000000	0.200382
497.000000	0.200613
498.000000	0.200626
499.000000	0.200605
500.000000	0.201020
501.000000	0.201068
502.000000	0.200977
503.000000	0.201326
504.000000	0.201573
505.000000	0.201786
506.000000	0.202087
507.000000	0.202256
508.000000	0.202464
509.000000	0.202763
510.000000	0.203043
511.000000	0.203481
512.000000	0.204011
513.000000	0.204315
514.000000	0.204709
515.000000	0.205162
516.000000	0.205513
517.000000	0.205999
518.000000	0.206457
519.000000	0.206750
520.000000	0.207326
521.000000	0.207893
522.000000	0.208376
523.000000	0.209016
524.000000	0.209709
525.000000	0.210432
526.000000	0.211229
527.000000	0.212086
528.000000	0.213037
529.000000	0.214138
530.000000	0.215214
531.000000	0.216452
532.000000	0.217852
533.000000	0.219191
534.000000	0.220475
535.000000	0.221753
536.000000	0.223166
537.000000	0.224597
538.000000	0.225957
539.000000	0.227164
540.000000	0.228366
541.000000	0.229498
542.000000	0.230544
543.000000	0.231678
544.000000	0.232842
545.000000	0.233931
546.000000	0.234952
547.000000	0.236056
548.000000	0.237264
549.000000	0.238415
550.000000	0.239688
551.000000	0.241090
552.000000	0.242541
553.000000	0.244106
554.000000	0.245714
555.000000	0.247344
556.000000	0.249155
557.000000	0.250954
558.000000	0.252788
559.000000	0.254689
560.000000	0.256585
561.000000	0.258517
562.000000	0.260439
563.000000	0.262279
564.000000	0.264038
565.000000	0.265655
566.000000	0.267297
567.000000	0.268866
568.000000	0.270283
569.000000	0.271632
570.000000	0.272855
571.000000	0.273947
572.000000	0.274970
573.000000	0.275924
574.000000	0.276744
575.000000	0.277408
576.000000	0.278014
577.000000	0.278530
578.000000	0.278987
579.000000	0.279421
580.000000	0.279727
581.000000	0.279884
582.000000	0.280023
583.000000	0.280088
584.000000	0.280087
585.000000	0.280069
586.000000	0.280024
587.000000	0.279905
588.000000	0.279685
589.000000	0.279481
590.000000	0.279276
591.000000	0.279025
592.000000	0.278606
593.000000	0.278211
594.000000	0.277838
595.000000	0.277290
596.000000	0.276821
597.000000	0.276428
598.000000	0.275922
599.000000	0.275336
600.000000	0.274713
601.000000	0.274030
602.000000	0.273388
603.000000	0.272723
604.000000	0.272028
605.000000	0.271377
606.000000	0.270753
607.000000	0.270131
608.000000	0.269467
609.000000	0.268882
610.000000	0.268288
611.000000	0.267590
612.000000	0.267005
613.000000	0.266459
614.000000	0.265909
615.000000	0.265329
616.000000	0.264742
617.000000	0.264177
618.000000	0.263783
619.000000	0.263320
620.000000	0.262760
621.000000	0.262220
622.000000	0.261775
623.000000	0.261350
624.000000	0.260876
625.000000	0.260379
626.000000	0.259994
627.000000	0.259739
628.000000	0.259438
629.000000	0.259186
630.000000	0.258899
631.000000	0.258651
632.000000	0.258449
633.000000	0.258268
634.000000	0.258067
635.000000	0.257853
636.000000	0.257730
637.000000	0.257691
638.000000	0.257530
639.000000	0.257400
640.000000	0.257358
641.000000	0.257252
642.000000	0.257196
643.000000	0.257202
644.000000	0.257246
645.000000	0.257234
646.000000	0.257298
647.000000	0.257497
648.000000	0.257677
649.000000	0.257921
650.000000	0.258211
651.000000	0.258447
652.000000	0.258690
653.000000	0.258961
654.000000	0.259200
655.000000	0.259513
656.000000	0.259873
657.000000	0.260208
658.000000	0.260684
659.000000	0.261190
660.000000	0.261661
661.000000	0.262158
662.000000	0.262665
663.000000	0.263223
664.000000	0.263812
665.000000	0.264431
666.000000	0.265102
667.000000	0.265817
668.000000	0.266590
669.000000	0.267336
670.000000	0.268050
671.000000	0.268904
672.000000	0.269782
673.000000	0.270661
674.000000	0.271611
675.000000	0.272596
676.000000	0.273602
677.000000	0.274639
678.000000	0.275735
679.000000	0.276832
680.000000	0.277898
681.000000	0.278933
682.000000	0.280141
683.000000	0.281462
684.000000	0.282770
685.000000	0.284108
686.000000	0.285472
687.000000	0.286811
688.000000	0.288215
689.000000	0.289650
690.000000	0.291128
691.000000	0.292733
692.000000	0.294317
693.000000	0.295923
694.000000	0.297650
695.000000	0.299363
696.000000	0.301040
697.000000	0.302722
698.000000	0.304572
699.000000	0.306468
700.000000	0.308297
701.000000	0.310095
702.000000	0.311988
703.000000	0.313979
704.000000	0.315964
705.000000	0.317948
706.000000	0.319946
707.000000	0.322072
708.000000	0.324175
709.000000	0.326230
710.000000	0.328290
711.000000	0.330540
712.000000	0.332780
713.000000	0.334952
714.000000	0.337147
715.000000	0.339433
716.000000	0.341738
717.000000	0.343908
718.000000	0.346159
719.000000	0.348460
720.000000	0.350752
721.000000	0.352965
722.000000	0.355204
723.000000	0.357535
724.000000	0.359760
725.000000	0.362052
726.000000	0.364440
727.000000	0.366701
728.000000	0.368972
729.000000	0.371231
730.000000	0.373389
731.000000	0.375505
732.000000	0.377681
733.000000	0.379975
734.000000	0.382255
735.000000	0.384396
736.000000	0.386547
737.000000	0.388636
738.000000	0.390502
739.000000	0.392391
740.000000	0.394289
741.000000	0.396252
742.000000	0.398198
743.000000	0.400089
744.000000	0.402056
745.000000	0.403825
746.000000	0.405541
747.000000	0.407327
748.000000	0.409080
749.000000	0.410747
750.000000	0.412296
751.000000	0.413913
752.000000	0.415479
753.000000	0.416954
754.000000	0.418323
755.000000	0.419751
756.000000	0.421192
757.000000	0.422503
758.000000	0.423879
759.000000	0.425282
760.000000	0.426563
761.000000	0.427734
762.000000	0.428898
763.000000	0.429998
764.000000	0.431000
765.000000	0.432010
766.000000	0.432994
767.000000	0.433894
768.000000	0.434719
769.000000	0.435554
770.000000	0.436414
771.000000	0.437196
772.000000	0.438061
773.000000	0.438851
774.000000	0.439487
775.000000	0.440083
776.000000	0.440679
777.000000	0.441269
778.000000	0.441882
779.000000	0.442383
780.000000	0.442835
781.000000	0.443452
782.000000	0.443974
783.000000	0.444422
784.000000	0.444669
785.000000	0.445018
786.000000	0.445389
787.000000	0.445712
788.000000	0.446001
789.000000	0.446307
790.000000	0.446573
791.000000	0.446770
792.000000	0.447132
793.000000	0.447502
794.000000	0.447746
795.000000	0.447990
796.000000	0.448100
797.000000	0.448085
798.000000	0.448120
799.000000	0.448202
800.000000	0.448345
801.000000	0.448545
802.000000	0.448685
803.000000	0.448791
804.000000	0.448919
805.000000	0.448953
806.000000	0.448953
807.000000	0.449031
808.000000	0.449090
809.000000	0.449068
810.000000	0.449040
811.000000	0.449038
812.000000	0.448968
813.000000	0.448982
814.000000	0.449054
815.000000	0.449039
816.000000	0.448909
817.000000	0.448791
818.000000	0.448701
819.000000	0.448716
820.000000	0.448667
821.000000	0.448495
822.000000	0.448534
823.000000	0.448530
824.000000	0.448376
825.000000	0.448207
826.000000	0.448028
827.000000	0.447870
828.000000	0.447788
829.000000	0.447666
830.000000	0.447493
831.000000	0.447331
832.000000	0.447050
833.000000	0.446823
834.000000	0.446691
835.000000	0.446656
836.000000	0.446489
837.000000	0.446174
838.000000	0.445891
839.000000	0.445900
840.000000	0.445798
841.000000	0.445610
842.000000	0.445379
843.000000	0.445167
844.000000	0.444939
845.000000	0.444669
846.000000	0.444456
847.000000	0.444305
848.000000	0.444141
849.000000	0.443927
850.000000	0.443620
851.000000	0.443289
852.000000	0.443046
853.000000	0.442902
854.000000	0.442658
855.000000	0.442477
856.000000	0.442318
857.000000	0.442005
858.000000	0.441679
859.000000	0.441361
860.000000	0.441208
861.000000	0.440962
862.000000	0.440703
863.000000	0.440493
864.000000	0.440181
865.000000	0.439819
866.000000	0.439513
867.000000	0.439317
868.000000	0.439076
869.000000	0.438745
870.000000	0.438482
871.000000	0.438181
872.000000	0.437818
873.000000	0.437386
874.000000	0.437217
875.000000	0.436987
876.000000	0.436690
877.000000	0.436358
878.000000	0.436038
879.000000	0.435760
880.000000	0.435385
881.000000	0.435194
882.000000	0.434997
883.000000	0.434794
884.000000	0.434548
885.000000	0.434138
886.000000	0.433806
887.000000	0.433645
888.000000	0.433297
889.000000	0.432908
890.000000	0.432434
891.000000	0.432082
892.000000	0.431710
893.000000	0.431355
894.000000	0.431142
895.000000	0.430753
896.000000	0.430323
897.000000	0.429971
898.000000	0.429777
899.000000	0.429567
900.000000	0.429339
901.000000	0.429055
902.000000	0.428797
903.000000	0.428499
904.000000	0.428199
905.000000	0.427827
906.000000	0.427603
907.000000	0.427342
908.000000	0.427066
909.000000	0.426777
910.000000	0.426410
911.000000	0.426155
912.000000	0.426126
913.000000	0.425849
914.000000	0.425413
915.000000	0.425011
916.000000	0.424675
917.000000	0.424387
918.000000	0.424123
919.000000	0.423863
920.000000	0.423771
921.000000	0.423548
922.000000	0.423303
923.000000	0.423246
924.000000	0.422892
925.000000	0.422426
926.000000	0.422054
927.000000	0.421703
928.000000	0.421412
929.000000	0.421151
930.000000	0.420871
931.000000	0.420488
932.000000	0.420209
933.000000	0.420065
934.000000	0.419738
935.000000	0.419492
936.000000	0.419237
937.000000	0.418806
938.000000	0.418686
939.000000	0.418590
940.000000	0.418327
941.000000	0.417996
942.000000	0.417501
943.000000	0.417167
944.000000	0.416986
945.000000	0.416867
946.000000	0.416684
947.000000	0.416418
948.000000	0.416044
949.000000	0.415796
950.000000	0.415643
951.000000	0.415449
952.000000	0.415166
953.000000	0.414743
954.000000	0.414520
955.000000	0.414549
956.000000	0.414412
957.000000	0.414149
958.000000	0.413719
959.000000	0.413286
960.000000	0.413089
961.000000	0.412952
962.000000	0.412781
963.000000	0.412689
964.000000	0.412350
965.000000	0.411962
966.000000	0.411601
967.000000	0.411356
968.000000	0.411103
969.000000	0.410849
970.000000	0.410792
971.000000	0.410551
972.000000	0.410320
973.000000	0.410182
974.000000	0.410271
975.000000	0.410030
976.000000	0.409731
977.000000	0.409635
978.000000	0.409433
979.000000	0.409430
980.000000	0.409343
981.000000	0.409297
982.000000	0.408999
983.000000	0.408626
984.000000	0.408496
985.000000	0.408778
986.000000	0.408965
987.000000	0.408895
988.000000	0.408446
989.000000	0.407939
990.000000	0.407984
991.000000	0.408154
992.000000	0.407958
993.000000	0.408257
994.000000	0.408408
995.000000	0.408450
996.000000	0.408395
997.000000	0.408149
998.000000	0.408103
999.000000	0.408314
1000.000000	0.407935
1001.000000	0.407873
1002.000000	0.408148
1003.000000	0.408331
1004.000000	0.408470
1005.000000	0.408524
1006.000000	0.408441
1007.000000	0.408279
1008.000000	0.408191
1009.000000	0.408719
1010.000000	0.409208
1011.000000	0.409793
1012.000000	0.410551
1013.000000	0.409932
1014.000000	0.408332
1015.000000	0.407250
1016.000000	0.407458
1017.000000	0.407756
1018.000000	0.408003
1019.000000	0.408318
1020.000000	0.408713
1021.000000	0.408437
1022.000000	0.408352
1023.000000	0.408612
1024.000000	0.408637
1025.000000	0.408693
1026.000000	0.408716
1027.000000	0.408418
1028.000000	0.408213
1029.000000	0.408213
1030.000000	0.408334
1031.000000	0.409086
1032.000000	0.409690
1033.000000	0.409339
1034.000000	0.409418
1035.000000	0.409238
1036.000000	0.409546
1037.000000	0.410454
1038.000000	0.410756
1039.000000	0.411227
1040.000000	0.411566
1041.000000	0.411082
1042.000000	0.410940
1043.000000	0.411190
1044.000000	0.411359
1045.000000	0.411478
1046.000000	0.412017
1047.000000	0.412551
1048.000000	0.413180
1049.000000	0.413333
1050.000000	0.413405
1051.000000	0.413552
1052.000000	0.413352
1053.000000	0.413315
1054.000000	0.413713
1055.000000	0.413921
1056.000000	0.413879
1057.000000	0.414249
1058.000000	0.414321
1059.000000	0.414781
1060.000000	0.415419
1061.000000	0.415630
1062.000000	0.416112
1063.000000	0.416639
1064.000000	0.416969
1065.000000	0.417074
1066.000000	0.417277
1067.000000	0.417331
1068.000000	0.417432
1069.000000	0.417618
1070.000000	0.417762
1071.000000	0.417686
1072.000000	0.417946
1073.000000	0.418647
1074.000000	0.419047
1075.000000	0.419216
1076.000000	0.419507
1077.000000	0.419236
1078.000000	0.418843
1079.000000	0.418889
1080.000000	0.419196
1081.000000	0.419543
1082.000000	0.420511
1083.000000	0.420731
1084.000000	0.420552
1085.000000	0.420800
1086.000000	0.420889
1087.000000	0.421055
1088.000000	0.421399
1089.000000	0.421705
1090.000000	0.421934
1091.000000	0.422002
1092.000000	0.421974
1093.000000	0.422289
1094.000000	0.422629
1095.000000	0.422773
1096.000000	0.423127
1097.000000	0.423940
1098.000000	0.424342
1099.000000	0.424414
1100.000000	0.424667
1101.000000	0.424831
1102.000000	0.425010
1103.000000	0.425186
1104.000000	0.425379
1105.000000	0.425485
1106.000000	0.425758
1107.000000	0.426065
1108.000000	0.426336
1109.000000	0.427141
1110.000000	0.427247
1111.000000	0.427367
1112.000000	0.427141
1113.000000	0.427532
1114.000000	0.428142
1115.000000	0.428409
1116.000000	0.429045
1117.000000	0.429174
1118.000000	0.428581
1119.000000	0.428387
1120.000000	0.428080
1121.000000	0.428188
1122.000000	0.428824
1123.000000	0.429384
1124.000000	0.430107
1125.000000	0.430450
1126.000000	0.430066
1127.000000	0.430041
1128.000000	0.430074
1129.000000	0.430090
1130.000000	0.430272
1131.000000	0.430699
1132.000000	0.431033
1133.000000	0.431589
1134.000000	0.431776
1135.000000	0.431752
1136.000000	0.431808
1137.000000	0.431585
1138.000000	0.431508
1139.000000	0.431820
1140.000000	0.431962
1141.000000	0.431737
1142.000000	0.431843
1143.000000	0.432228
1144.000000	0.432392
1145.000000	0.432213
1146.000000	0.432126
1147.000000	0.432164
1148.000000	0.431851
1149.000000	0.431889
1150.000000	0.432497
1151.000000	0.432530
1152.000000	0.432128
1153.000000	0.432048
1154.000000	0.431813
1155.000000	0.431773
1156.000000	0.432078
1157.000000	0.432129
1158.000000	0.432011
1159.000000	0.431963
1160.000000	0.431852
1161.000000	0.431711
1162.000000	0.431627
1163.000000	0.431725
1164.000000	0.431676
1165.000000	0.431740
1166.000000	0.431850
1167.000000	0.432052
1168.000000	0.432090
1169.000000	0.432116
1170.000000	0.432176
1171.000000	0.432240
1172.000000	0.432352
1173.000000	0.432481
1174.000000	0.432546
1175.000000	0.432464
1176.000000	0.432522
1177.000000	0.432745
1178.000000	0.432930
1179.000000	0.433315
1180.000000	0.433412
1181.000000	0.433453
1182.000000	0.433395
1183.000000	0.433436
1184.000000	0.433596
1185.000000	0.433647
1186.000000	0.433708
1187.000000	0.433852
1188.000000	0.433994
1189.000000	0.434030
1190.000000	0.434264
1191.000000	0.434281
1192.000000	0.434090
1193.000000	0.434254
1194.000000	0.434435
1195.000000	0.434555
1196.000000	0.434746
1197.000000	0.434804
1198.000000	0.434693
1199.000000	0.434686
1200.000000	0.434659
1201.000000	0.434676
1202.000000	0.434712
1203.000000	0.434885
1204.000000	0.434925
1205.000000	0.434910
1206.000000	0.434943
1207.000000	0.435033
1208.000000	0.435123
1209.000000	0.435414
1210.000000	0.435578
1211.000000	0.435740
1212.000000	0.435785
1213.000000	0.435729
1214.000000	0.435800
1215.000000	0.435821
1216.000000	0.435892
1217.000000	0.436078
1218.000000	0.436163
1219.000000	0.436182
1220.000000	0.436297
1221.000000	0.436524
1222.000000	0.436547
1223.000000	0.436624
1224.000000	0.436843
1225.000000	0.437095
1226.000000	0.437403
1227.000000	0.437573
1228.000000	0.437654
1229.000000	0.437731
1230.000000	0.437604
1231.000000	0.437585
1232.000000	0.437780
1233.000000	0.438071
1234.000000	0.438438
1235.000000	0.438587
1236.000000	0.438639
1237.000000	0.438787
1238.000000	0.438679
1239.000000	0.438682
1240.000000	0.438791
1241.000000	0.438938
1242.000000	0.439121
1243.000000	0.439188
1244.000000	0.439367
1245.000000	0.439732
1246.000000	0.439843
1247.000000	0.440085
1248.000000	0.440380
1249.000000	0.440475
1250.000000	0.440721
1251.000000	0.441088
1252.000000	0.441257
1253.000000	0.441414
1254.000000	0.441561
1255.000000	0.441586
1256.000000	0.441594
1257.000000	0.441602
1258.000000	0.441729
1259.000000	0.441786
1260.000000	0.441843
1261.000000	0.441846
1262.000000	0.441970
1263.000000	0.442092
1264.000000	0.442238
1265.000000	0.442614
1266.000000	0.442945
1267.000000	0.443090
1268.000000	0.443209
1269.000000	0.443247
1270.000000	0.443319
1271.000000	0.443407
1272.000000	0.443627
1273.000000	0.443904
1274.000000	0.443932
1275.000000	0.444012
1276.000000	0.444107
1277.000000	0.444259
1278.000000	0.444244
1279.000000	0.444422
1280.000000	0.444693
1281.000000	0.444739
1282.000000	0.444795
1283.000000	0.444992
1284.000000	0.445018
1285.000000	0.445124
1286.000000	0.445310
1287.000000	0.445516
1288.000000	0.445769
1289.000000	0.445825
1290.000000	0.445778
1291.000000	0.445805
1292.000000	0.445741
1293.000000	0.445760
1294.000000	0.445907
1295.000000	0.446036
1296.000000	0.446151
1297.000000	0.446329
1298.000000	0.446497
1299.000000	0.446581
1300.000000	0.446579
1301.000000	0.446419
1302.000000	0.446346
1303.000000	0.446464
1304.000000	0.446445
1305.000000	0.446612
1306.000000	0.446597
1307.000000	0.446394
1308.000000	0.446391
1309.000000	0.446461
1310.000000	0.446522
1311.000000	0.446752
1312.000000	0.446782
1313.000000	0.446695
1314.000000	0.446539
1315.000000	0.446218
1316.000000	0.446148
1317.000000	0.446028
1318.000000	0.445835
1319.000000	0.445815
1320.000000	0.445702
1321.000000	0.445577
1322.000000	0.445449
1323.000000	0.445213
1324.000000	0.444902
1325.000000	0.444515
1326.000000	0.444231
1327.000000	0.443976
1328.000000	0.443853
1329.000000	0.443610
1330.000000	0.443376
1331.000000	0.443220
1332.000000	0.443058
1333.000000	0.442947
1334.000000	0.443195
1335.000000	0.443118
1336.000000	0.442881
1337.000000	0.442662
1338.000000	0.442249
1339.000000	0.441738
1340.000000	0.441490
1341.000000	0.441317
1342.000000	0.441096
1343.000000	0.440812
1344.000000	0.440420
1345.000000	0.439983
1346.000000	0.439683
1347.000000	0.439431
1348.000000	0.439354
1349.000000	0.439070
1350.000000	0.438806
1351.000000	0.438564
1352.000000	0.438148
1353.000000	0.437749
1354.000000	0.437339
1355.000000	0.436848
1356.000000	0.436404
1357.000000	0.435962
1358.000000	0.435668
1359.000000	0.435365
1360.000000	0.435079
1361.000000	0.434969
1362.000000	0.434736
1363.000000	0.434437
1364.000000	0.434122
1365.000000	0.433688
1366.000000	0.433350
1367.000000	0.433019
1368.000000	0.432642
1369.000000	0.432372
1370.000000	0.432062
1371.000000	0.431575
1372.000000	0.430797
1373.000000	0.430179
1374.000000	0.429603
1375.000000	0.428841
1376.000000	0.428485
1377.000000	0.428129
1378.000000	0.427385
1379.000000	0.426540
1380.000000	0.425730
1381.000000	0.424582
1382.000000	0.423282
1383.000000	0.422244
1384.000000	0.420917
1385.000000	0.419477
1386.000000	0.418334
1387.000000	0.416973
1388.000000	0.415267
1389.000000	0.413473
1390.000000	0.411616
1391.000000	0.409667
1392.000000	0.407815
1393.000000	0.405796
1394.000000	0.403835
1395.000000	0.401700
1396.000000	0.399410
1397.000000	0.396895
1398.000000	0.394140
1399.000000	0.391527
1400.000000	0.388731
1401.000000	0.386130
1402.000000	0.383777
1403.000000	0.381263
1404.000000	0.378773
1405.000000	0.376305
1406.000000	0.373897
1407.000000	0.371650
1408.000000	0.369368
1409.000000	0.367183
1410.000000	0.365144
1411.000000	0.363019
1412.000000	0.360971
1413.000000	0.359144
1414.000000	0.357287
1415.000000	0.355503
1416.000000	0.353818
1417.000000	0.352063
1418.000000	0.350233
1419.000000	0.348498
1420.000000	0.346787
1421.000000	0.345299
1422.000000	0.343855
1423.000000	0.342443
1424.000000	0.341073
1425.000000	0.339681
1426.000000	0.338225
1427.000000	0.336894
1428.000000	0.335683
1429.000000	0.334433
1430.000000	0.333247
1431.000000	0.332144
1432.000000	0.331012
1433.000000	0.329868
1434.000000	0.328843
1435.000000	0.327950
1436.000000	0.327051
1437.000000	0.326179
1438.000000	0.325351
1439.000000	0.324565
1440.000000	0.323912
1441.000000	0.323398
1442.000000	0.322902
1443.000000	0.322372
1444.000000	0.322015
1445.000000	0.321739
1446.000000	0.321570
1447.000000	0.321513
1448.000000	0.321401
1449.000000	0.321254
1450.000000	0.321147
1451.000000	0.321109
1452.000000	0.321035
1453.000000	0.320943
1454.000000	0.320783
1455.000000	0.320598
1456.000000	0.320627
1457.000000	0.320667
1458.000000	0.320621
1459.000000	0.320588
1460.000000	0.320383
1461.000000	0.320154
1462.000000	0.320140
1463.000000	0.320021
1464.000000	0.319907
1465.000000	0.319950
1466.000000	0.319876
1467.000000	0.319872
1468.000000	0.320003
1469.000000	0.320183
1470.000000	0.320241
1471.000000	0.320404
1472.000000	0.320668
1473.000000	0.320959
1474.000000	0.321381
1475.000000	0.321873
1476.000000	0.322359
1477.000000	0.322926
1478.000000	0.323530
1479.000000	0.324122
1480.000000	0.324697
1481.000000	0.325351
1482.000000	0.326055
1483.000000	0.326948
1484.000000	0.328048
1485.000000	0.329000
1486.000000	0.330054
1487.000000	0.330928
1488.000000	0.331619
1489.000000	0.332440
1490.000000	0.333131
1491.000000	0.333846
1492.000000	0.334604
1493.000000	0.335287
1494.000000	0.335853
1495.000000	0.336437
1496.000000	0.336938
1497.000000	0.337525
1498.000000	0.338162
1499.000000	0.338805
1500.000000	0.339489
1501.000000	0.340190
1502.000000	0.340776
1503.000000	0.341432
1504.000000	0.342081
1505.000000	0.342539
1506.000000	0.342995
1507.000000	0.343475
1508.000000	0.344090
1509.000000	0.344741
1510.000000	0.345390
1511.000000	0.346069
1512.000000	0.346456
1513.000000	0.346837
1514.000000	0.347340
1515.000000	0.347508
1516.000000	0.347741
1517.000000	0.348081
1518.000000	0.348343
1519.000000	0.348713
1520.000000	0.349134
1521.000000	0.349358
1522.000000	0.349596
1523.000000	0.350014
1524.000000	0.350418
1525.000000	0.350849
1526.000000	0.351200
1527.000000	0.351432
1528.000000	0.351621
1529.000000	0.351819
1530.000000	0.352014
1531.000000	0.352197
1532.000000	0.352419
1533.000000	0.352616
1534.000000	0.352799
1535.000000	0.353017
1536.000000	0.353151
1537.000000	0.353412
1538.000000	0.353707
1539.000000	0.353903
1540.000000	0.354097
1541.000000	0.354265
1542.000000	0.354401
1543.000000	0.354555
1544.000000	0.354812
1545.000000	0.355023
1546.000000	0.355028
1547.000000	0.355087
1548.000000	0.355172
1549.000000	0.355174
1550.000000	0.355322
1551.000000	0.355499
1552.000000	0.355494
1553.000000	0.355539
1554.000000	0.355612
1555.000000	0.355534
1556.000000	0.355573
1557.000000	0.355620
1558.000000	0.355666
1559.000000	0.355663
1560.000000	0.355703
1561.000000	0.355816
1562.000000	0.355814
1563.000000	0.355800
1564.000000	0.355806
1565.000000	0.355774
1566.000000	0.355678
1567.000000	0.355672
1568.000000	0.355695
1569.000000	0.355730
1570.000000	0.355795
1571.000000	0.355937
1572.000000	0.356041
1573.000000	0.356175
1574.000000	0.356232
1575.000000	0.356297
1576.000000	0.356334
1577.000000	0.356225
1578.000000	0.356218
1579.000000	0.356316
1580.000000	0.356397
1581.000000	0.356622
1582.000000	0.356754
1583.000000	0.356881
1584.000000	0.356876
1585.000000	0.356819
1586.000000	0.356852
1587.000000	0.356878
1588.000000	0.356913
1589.000000	0.356993
1590.000000	0.357059
1591.000000	0.357126
1592.000000	0.357209
1593.000000	0.357404
1594.000000	0.357471
1595.000000	0.357464
1596.000000	0.357553
1597.000000	0.357667
1598.000000	0.357786
1599.000000	0.358078
1600.000000	0.358141
1601.000000	0.358095
1602.000000	0.358183
1603.000000	0.358317
1604.000000	0.358400
1605.000000	0.358566
1606.000000	0.358694
1607.000000	0.358813
1608.000000	0.358862
1609.000000	0.358938
1610.000000	0.359053
1611.000000	0.359143
1612.000000	0.359240
1613.000000	0.359553
1614.000000	0.359732
1615.000000	0.359836
1616.000000	0.360030
1617.000000	0.360228
1618.000000	0.360441
1619.000000	0.360633
1620.000000	0.360859
1621.000000	0.361164
1622.000000	0.361444
1623.000000	0.361679
1624.000000	0.361975
1625.000000	0.362161
1626.000000	0.362342
1627.000000	0.362536
1628.000000	0.362803
1629.000000	0.363038
1630.000000	0.363356
1631.000000	0.363738
1632.000000	0.364034
1633.000000	0.364335
1634.000000	0.364648
1635.000000	0.364951
1636.000000	0.365239
1637.000000	0.365603
1638.000000	0.365860
1639.000000	0.366078
1640.000000	0.366361
1641.000000	0.366639
1642.000000	0.367019
1643.000000	0.367633
1644.000000	0.368029
1645.000000	0.368423
1646.000000	0.368681
1647.000000	0.368693
1648.000000	0.368922
1649.000000	0.369346
1650.000000	0.369724
1651.000000	0.370251
1652.000000	0.370696
1653.000000	0.370974
1654.000000	0.371351
1655.000000	0.371711
1656.000000	0.371995
1657.000000	0.372391
1658.000000	0.372674
1659.000000	0.372957
1660.000000	0.373366
1661.000000	0.373654
1662.000000	0.374058
1663.000000	0.374599
1664.000000	0.374983
1665.000000	0.375372
1666.000000	0.375717
1667.000000	0.375850
1668.000000	0.376131
1669.000000	0.376363
1670.000000	0.376607
1671.000000	0.377076
1672.000000	0.377433
1673.000000	0.377700
1674.000000	0.378104
1675.000000	0.378390
1676.000000	0.378741
1677.000000	0.378987
1678.000000	0.379014
1679.000000	0.379243
1680.000000	0.379478
1681.000000	0.379682
1682.000000	0.379917
1683.000000	0.380114
1684.000000	0.380351
1685.000000	0.380618
1686.000000	0.380811
1687.000000	0.380995
1688.000000	0.381132
1689.000000	0.381272
1690.000000	0.381472
1691.000000	0.381754
1692.000000	0.381874
1693.000000	0.382065
1694.000000	0.382401
1695.000000	0.382754
1696.000000	0.382899
1697.000000	0.383031
1698.000000	0.383097
1699.000000	0.383220
1700.000000	0.383404
1701.000000	0.383685
1702.000000	0.383777
1703.000000	0.383888
1704.000000	0.384256
1705.000000	0.384425
1706.000000	0.384508
1707.000000	0.384582
1708.000000	0.384428
1709.000000	0.384428
1710.000000	0.384717
1711.000000	0.384819
1712.000000	0.384890
1713.000000	0.384994
1714.000000	0.385010
1715.000000	0.385165
1716.000000	0.385504
1717.000000	0.385773
1718.000000	0.386055
1719.000000	0.386231
1720.000000	0.386406
1721.000000	0.386599
1722.000000	0.386725
1723.000000	0.386888
1724.000000	0.387132
1725.000000	0.387384
1726.000000	0.387525
1727.000000	0.387703
1728.000000	0.387849
1729.000000	0.387953
1730.000000	0.388180
1731.000000	0.388368
1732.000000	0.388515
1733.000000	0.388885
1734.000000	0.389218
1735.000000	0.389494
1736.000000	0.389867
1737.000000	0.390079
1738.000000	0.390126
1739.000000	0.390304
1740.000000	0.390513
1741.000000	0.390641
1742.000000	0.390763
1743.000000	0.390943
1744.000000	0.391104
1745.000000	0.391146
1746.000000	0.391122
1747.000000	0.391311
1748.000000	0.391382
1749.000000	0.391653
1750.000000	0.391764
1751.000000	0.391782
1752.000000	0.391948
1753.000000	0.391970
1754.000000	0.392052
1755.000000	0.392110
1756.000000	0.392202
1757.000000	0.392435
1758.000000	0.392530
1759.000000	0.392526
1760.000000	0.392552
1761.000000	0.392412
1762.000000	0.392363
1763.000000	0.392424
1764.000000	0.392474
1765.000000	0.392381
1766.000000	0.392576
1767.000000	0.392940
1768.000000	0.393088
1769.000000	0.393477
1770.000000	0.393681
1771.000000	0.393527
1772.000000	0.393609
1773.000000	0.393736
1774.000000	0.393789
1775.000000	0.393860
1776.000000	0.394079
1777.000000	0.394317
1778.000000	0.394501
1779.000000	0.394800
1780.000000	0.394972
1781.000000	0.394930
1782.000000	0.395055
1783.000000	0.395291
1784.000000	0.395699
1785.000000	0.395828
1786.000000	0.395924
1787.000000	0.396303
1788.000000	0.396462
1789.000000	0.396582
1790.000000	0.396808
1791.000000	0.396926
1792.000000	0.397060
1793.000000	0.397208
1794.000000	0.397444
1795.000000	0.397569
1796.000000	0.397549
1797.000000	0.397671
1798.000000	0.397715
1799.000000	0.397825
1800.000000	0.398196
1801.000000	0.397301
1802.000000	0.397858
1803.000000	0.398576
1804.000000	0.398675
1805.000000	0.398132
1806.000000	0.397802
1807.000000	0.396785
1808.000000	0.396773
1809.000000	0.397841
1810.000000	0.397683
1811.000000	0.397746
1812.000000	0.398189
1813.000000	0.398421
1814.000000	0.398075
1815.000000	0.398110
1816.000000	0.398502
1817.000000	0.398712
1818.000000	0.398525
1819.000000	0.399426
1820.000000	0.399771
1821.000000	0.399338
1822.000000	0.399557
1823.000000	0.399509
1824.000000	0.399500
1825.000000	0.400092
1826.000000	0.400332
1827.000000	0.400191
1828.000000	0.399604
1829.000000	0.399959
1830.000000	0.399805
1831.000000	0.399647
1832.000000	0.399754
1833.000000	0.399441
1834.000000	0.398537
1835.000000	0.398054
1836.000000	0.397378
1837.000000	0.396898
1838.000000	0.396698
1839.000000	0.396014
1840.000000	0.395626
1841.000000	0.395586
1842.000000	0.395270
1843.000000	0.395020
1844.000000	0.394828
1845.000000	0.394261
1846.000000	0.393855
1847.000000	0.393517
1848.000000	0.393051
1849.000000	0.392140
1850.000000	0.391178
1851.000000	0.390276
1852.000000	0.388843
1853.000000	0.388048
1854.000000	0.387861
1855.000000	0.386987
1856.000000	0.386098
1857.000000	0.384486
1858.000000	0.383176
1859.000000	0.380731
1860.000000	0.378807
1861.000000	0.377680
1862.000000	0.375546
1863.000000	0.372969
1864.000000	0.370828
1865.000000	0.368194
1866.000000	0.365704
1867.000000	0.363483
1868.000000	0.361261
1869.000000	0.358664
1870.000000	0.356655
1871.000000	0.354004
1872.000000	0.351033
1873.000000	0.347673
1874.000000	0.343170
1875.000000	0.339304
1876.000000	0.335530
1877.000000	0.331212
1878.000000	0.326248
1879.000000	0.321921
1880.000000	0.316871
1881.000000	0.311366
1882.000000	0.306173
1883.000000	0.301115
1884.000000	0.296172
1885.000000	0.291277
1886.000000	0.286131
1887.000000	0.281433
1888.000000	0.275210
1889.000000	0.268805
1890.000000	0.262452
1891.000000	0.255474
1892.000000	0.249280
1893.000000	0.243292
1894.000000	0.236898
1895.000000	0.230658
1896.000000	0.224654
1897.000000	0.218719
1898.000000	0.212330
1899.000000	0.206571
1900.000000	0.200903
1901.000000	0.195293
1902.000000	0.190467
1903.000000	0.186057
1904.000000	0.182375
1905.000000	0.178930
1906.000000	0.175639
1907.000000	0.172792
1908.000000	0.169965
1909.000000	0.167315
1910.000000	0.165097
1911.000000	0.162832
1912.000000	0.160983
1913.000000	0.158906
1914.000000	0.157116
1915.000000	0.155767
1916.000000	0.154509
1917.000000	0.153172
1918.000000	0.152040
1919.000000	0.150976
1920.000000	0.149746
1921.000000	0.148563
1922.000000	0.148436
1923.000000	0.147916
1924.000000	0.147806
1925.000000	0.148262
1926.000000	0.148001
1927.000000	0.147997
1928.000000	0.147974
1929.000000	0.147967
1930.000000	0.147647
1931.000000	0.147566
1932.000000	0.148058
1933.000000	0.148240
1934.000000	0.148494
1935.000000	0.148962
1936.000000	0.148678
1937.000000	0.148536
1938.000000	0.148430
1939.000000	0.148313
1940.000000	0.148130
1941.000000	0.148209
1942.000000	0.148047
1943.000000	0.147717
1944.000000	0.147016
1945.000000	0.146055
1946.000000	0.145560
1947.000000	0.145255
1948.000000	0.145162
1949.000000	0.145637
1950.000000	0.145807
1951.000000	0.145771
1952.000000	0.145601
1953.000000	0.145588
1954.000000	0.144993
1955.000000	0.144224
1956.000000	0.143843
1957.000000	0.143445
1958.000000	0.143308
1959.000000	0.143626
1960.000000	0.143956
1961.000000	0.143819
1962.000000	0.143514
1963.000000	0.142928
1964.000000	0.142631
1965.000000	0.141887
1966.000000	0.141308
1967.000000	0.141558
1968.000000	0.141735
1969.000000	0.142123
1970.000000	0.142382
1971.000000	0.142395
1972.000000	0.143009
1973.000000	0.143465
1974.000000	0.144370
1975.000000	0.144764
1976.000000	0.145231
1977.000000	0.144902
1978.000000	0.144150
1979.000000	0.143596
1980.000000	0.143992
1981.000000	0.144583
1982.000000	0.145314
1983.000000	0.146741
1984.000000	0.147427
1985.000000	0.147343
1986.000000	0.147958
1987.000000	0.148791
1988.000000	0.149389
1989.000000	0.150230
1990.000000	0.151469
1991.000000	0.152060
1992.000000	0.152229
1993.000000	0.153466
1994.000000	0.154223
1995.000000	0.154704
1996.000000	0.156214
1997.000000	0.157187
1998.000000	0.157633
1999.000000	0.158535
2000.000000	0.159820
2001.000000	0.160528
2002.000000	0.161514
2003.000000	0.162632
2004.000000	0.163362
2005.000000	0.164418
2006.000000	0.165577
2007.000000	0.166397
2008.000000	0.167519
2009.000000	0.168891
2010.000000	0.170145
2011.000000	0.171221
2012.000000	0.172828
2013.000000	0.174840
2014.000000	0.176224
2015.000000	0.178262
2016.000000	0.179909
2017.000000	0.180628
2018.000000	0.181719
2019.000000	0.182808
2020.000000	0.183638
2021.000000	0.184612
2022.000000	0.185680
2023.000000	0.186945
2024.000000	0.188207
2025.000000	0.189470
2026.000000	0.190961
2027.000000	0.192408
2028.000000	0.193229
2029.000000	0.194439
2030.000000	0.195117
2031.000000	0.195581
2032.000000	0.196205
2033.000000	0.197060
2034.000000	0.198352
2035.000000	0.200428
2036.000000	0.201743
2037.000000	0.203330
2038.000000	0.204647
2039.000000	0.205363
2040.000000	0.206702
2041.000000	0.208292
2042.000000	0.209126
2043.000000	0.209781
2044.000000	0.210456
2045.000000	0.211280
2046.000000	0.212444
2047.000000	0.213766
2048.000000	0.215569
2049.000000	0.217263
2050.000000	0.218958
2051.000000	0.220218
2052.000000	0.221518
2053.000000	0.222319
2054.000000	0.222519
2055.000000	0.222970
2056.000000	0.223789
2057.000000	0.224639
2058.000000	0.226062
2059.000000	0.227212
2060.000000	0.227963
2061.000000	0.228229
2062.000000	0.228892
2063.000000	0.229379
2064.000000	0.230215
2065.000000	0.231663
2066.000000	0.232756
2067.000000	0.234085
2068.000000	0.235072
2069.000000	0.236527
2070.000000	0.238663
2071.000000	0.240205
2072.000000	0.241793
2073.000000	0.242849
2074.000000	0.242911
2075.000000	0.243381
2076.000000	0.243597
2077.000000	0.244293
2078.000000	0.244891
2079.000000	0.246036
2080.000000	0.248151
2081.000000	0.249536
2082.000000	0.250861
2083.000000	0.252403
2084.000000	0.252876
2085.000000	0.253287
2086.000000	0.253830
2087.000000	0.254339
2088.000000	0.255056
2089.000000	0.255768
2090.000000	0.256622
2091.000000	0.257403
2092.000000	0.258487
2093.000000	0.260120
2094.000000	0.261227
2095.000000	0.262612
2096.000000	0.263624
2097.000000	0.263764
2098.000000	0.264456
2099.000000	0.265727
2100.000000	0.266273
2101.000000	0.268360
2102.000000	0.269922
2103.000000	0.271216
2104.000000	0.273277
2105.000000	0.274516
2106.000000	0.275428
2107.000000	0.276167
2108.000000	0.276237
2109.000000	0.276725
2110.000000	0.276895
2111.000000	0.277263
2112.000000	0.277864
2113.000000	0.278140
2114.000000	0.278752
2115.000000	0.279330
2116.000000	0.280266
2117.000000	0.281092
2118.000000	0.281662
2119.000000	0.282576
2120.000000	0.283465
2121.000000	0.284564
2122.000000	0.285084
2123.000000	0.285275
2124.000000	0.285871
2125.000000	0.286153
2126.000000	0.286729
2127.000000	0.288174
2128.000000	0.288910
2129.000000	0.288803
2130.000000	0.289371
2131.000000	0.290416
2132.000000	0.290278
2133.000000	0.290934
2134.000000	0.292207
2135.000000	0.292649
2136.000000	0.293984
2137.000000	0.294448
2138.000000	0.294545
2139.000000	0.294605
2140.000000	0.293896
2141.000000	0.293771
2142.000000	0.293933
2143.000000	0.293827
2144.000000	0.294119
2145.000000	0.294467
2146.000000	0.294900
2147.000000	0.295516
2148.000000	0.295725
2149.000000	0.295654
2150.000000	0.295837
2151.000000	0.296029
2152.000000	0.296098
2153.000000	0.296686
2154.000000	0.296779
2155.000000	0.295890
2156.000000	0.296409
2157.000000	0.297792
2158.000000	0.298627
2159.000000	0.300568
2160.000000	0.301266
2161.000000	0.301022
2162.000000	0.300746
2163.000000	0.299411
2164.000000	0.298897
2165.000000	0.298434
2166.000000	0.298163
2167.000000	0.298983
2168.000000	0.299283
2169.000000	0.299360
2170.000000	0.300061
2171.000000	0.299741
2172.000000	0.298392
2173.000000	0.297968
2174.000000	0.296988
2175.000000	0.297049
2176.000000	0.298940
2177.000000	0.299245
2178.000000	0.298874
2179.000000	0.299328
2180.000000	0.299555
2181.000000	0.299680
2182.000000	0.299756
2183.000000	0.299929
2184.000000	0.299649
2185.000000	0.298522
2186.000000	0.298775
2187.000000	0.300382
2188.000000	0.300804
2189.000000	0.301147
2190.000000	0.301234
2191.000000	0.300613
2192.000000	0.300192
2193.000000	0.299760
2194.000000	0.299217
2195.000000	0.298311
2196.000000	0.297827
2197.000000	0.296898
2198.000000	0.297234
2199.000000	0.299596
2200.000000	0.300318
2201.000000	0.301278
2202.000000	0.301789
2203.000000	0.300598
2204.000000	0.299150
2205.000000	0.299353
2206.000000	0.299446
2207.000000	0.299738
2208.000000	0.299782
2209.000000	0.299720
2210.000000	0.300008
2211.000000	0.299433
2212.000000	0.300079
2213.000000	0.298942
2214.000000	0.296003
2215.000000	0.295139
2216.000000	0.294054
2217.000000	0.293358
2218.000000	0.293925
2219.000000	0.294377
2220.000000	0.294413
2221.000000	0.295418
2222.000000	0.299177
2223.000000	0.300082
2224.000000	0.299277
2225.000000	0.299191
2226.000000	0.297837
2227.000000	0.294291
2228.000000	0.296429
2229.000000	0.297385
2230.000000	0.297959
2231.000000	0.300119
2232.000000	0.298761
2233.000000	0.296537
2234.000000	0.295821
2235.000000	0.296701
2236.000000	0.296010
2237.000000	0.295703
2238.000000	0.294717
2239.000000	0.291255
2240.000000	0.290524
2241.000000	0.291909
2242.000000	0.291291
2243.000000	0.290163
2244.000000	0.290099
2245.000000	0.289448
2246.000000	0.289528
2247.000000	0.291248
2248.000000	0.292552
2249.000000	0.294120
2250.000000	0.294298
2251.000000	0.293812
2252.000000	0.295253
2253.000000	0.296443
2254.000000	0.295785
2255.000000	0.298020
2256.000000	0.299798
2257.000000	0.298977
2258.000000	0.298480
2259.000000	0.294945
2260.000000	0.291650
2261.000000	0.289795
2262.000000	0.288050
2263.000000	0.287291
2264.000000	0.288232
2265.000000	0.288276
2266.000000	0.288528
2267.000000	0.288202
2268.000000	0.288529
2269.000000	0.287654
2270.000000	0.285397
2271.000000	0.283957
2272.000000	0.281869
2273.000000	0.279845
2274.000000	0.278610
2275.000000	0.276844
2276.000000	0.274122
2277.000000	0.272575
2278.000000	0.271589
2279.000000	0.269608
2280.000000	0.268907
2281.000000	0.269144
2282.000000	0.269188
2283.000000	0.268071
2284.000000	0.267649
2285.000000	0.264941
2286.000000	0.260309
2287.000000	0.257749
2288.000000	0.254014
2289.000000	0.250328
2290.000000	0.249330
2291.000000	0.248273
2292.000000	0.247293
2293.000000	0.248369
2294.000000	0.248128
2295.000000	0.247251
2296.000000	0.246784
2297.000000	0.245851
2298.000000	0.245143
2299.000000	0.244453
2300.000000	0.244108
2301.000000	0.244019
2302.000000	0.244213
2303.000000	0.246644
2304.000000	0.245814
2305.000000	0.241451
2306.000000	0.241064
2307.000000	0.241437
2308.000000	0.239945
2309.000000	0.242239
2310.000000	0.244466
2311.000000	0.245255
2312.000000	0.246773
2313.000000	0.248413
2314.000000	0.250194
2315.000000	0.249118
2316.000000	0.248070
2317.000000	0.248597
2318.000000	0.247305
2319.000000	0.245879
2320.000000	0.244682
2321.000000	0.242603
2322.000000	0.240454
2323.000000	0.239548
2324.000000	0.238445
2325.000000	0.238121
2326.000000	0.238250
2327.000000	0.236328
2328.000000	0.237964
2329.000000	0.238991
2330.000000	0.238765
2331.000000	0.241616
2332.000000	0.240369
2333.000000	0.239086
2334.000000	0.237539
2335.000000	0.235431
2336.000000	0.232432
2337.000000	0.229751
2338.000000	0.225394
2339.000000	0.223055
2340.000000	0.222239
2341.000000	0.221170
2342.000000	0.220979
2343.000000	0.220540
2344.000000	0.219958
2345.000000	0.218224
2346.000000	0.215464
2347.000000	0.214043
2348.000000	0.213206
2349.000000	0.211454
2350.000000	0.209682
2351.000000	0.210947
2352.000000	0.209928
2353.000000	0.206202
2354.000000	0.201124
2355.000000	0.194784
2356.000000	0.189832
2357.000000	0.189217
2358.000000	0.191587
2359.000000	0.193562
2360.000000	0.193736
2361.000000	0.190581
2362.000000	0.184894
2363.000000	0.182067
2364.000000	0.181654
2365.000000	0.179096
2366.000000	0.178910
2367.000000	0.178806
2368.000000	0.177291
2369.000000	0.179049
2370.000000	0.179517
2371.000000	0.179938
2372.000000	0.177913
2373.000000	0.173372
2374.000000	0.171609
2375.000000	0.169327
2376.000000	0.167990
2377.000000	0.167992
2378.000000	0.170909
2379.000000	0.172634
2380.000000	0.172572
2381.000000	0.175091
2382.000000	0.174893
2383.000000	0.173905
2384.000000	0.171977
2385.000000	0.170364
2386.000000	0.168101
2387.000000	0.161824
2388.000000	0.155775
2389.000000	0.151919
2390.000000	0.150451
2391.000000	0.150307
2392.000000	0.154665
2393.000000	0.156068
2394.000000	0.151612
2395.000000	0.149655
2396.000000	0.147720
2397.000000	0.147439
2398.000000	0.144896
2399.000000	0.143122
2400.000000	0.145128
2401.000000	0.140566
2402.000000	0.141770
2403.000000	0.148272
2404.000000	0.150764
2405.000000	0.155315
2406.000000	0.159251
2407.000000	0.159130
2408.000000	0.156596
2409.000000	0.160257
2410.000000	0.167708
2411.000000	0.172372
2412.000000	0.176430
2413.000000	0.176141
2414.000000	0.170522
2415.000000	0.161734
2416.000000	0.152567
2417.000000	0.149346
2418.000000	0.144772
2419.000000	0.141779
2420.000000	0.150871
2421.000000	0.154053
2422.000000	0.154425
2423.000000	0.162933
2424.000000	0.160901
2425.000000	0.151286
2426.000000	0.146596
2427.000000	0.141742
2428.000000	0.145171
2429.000000	0.153893
2430.000000	0.156512
2431.000000	0.158098
2432.000000	0.150428
2433.000000	0.143703
2434.000000	0.147639
2435.000000	0.151234
2436.000000	0.152775
2437.000000	0.154673
2438.000000	0.157786
2439.000000	0.168028
2440.000000	0.187082
2441.000000	0.192039
2442.000000	0.184294
2443.000000	0.166156
2444.000000	0.134928
2445.000000	0.129587
2446.000000	0.131956
2447.000000	0.131843
2448.000000	0.141349
2449.000000	0.136012
2450.000000	0.134026
2451.000000	0.140988
2452.000000	0.140570
2453.000000	0.141280
2454.000000	0.143442
2455.000000	0.132278
2456.000000	0.128541
2457.000000	0.121151
2458.000000	0.106790
2459.000000	0.114776
2460.000000	0.113789
2461.000000	0.122070
2462.000000	0.138339
2463.000000	0.136517
2464.000000	0.138828
2465.000000	0.141426
2466.000000	0.142385
2467.000000	0.138743
2468.000000	0.137451
2469.000000	0.138484
2470.000000	0.135657
2471.000000	0.142153
2472.000000	0.136823
2473.000000	0.120858
2474.000000	0.116271
2475.000000	0.107847
2476.000000	0.115861
2477.000000	0.146561
2478.000000	0.136834
2479.000000	0.122010
2480.000000	0.118172
2481.000000	0.082026
2482.000000	0.091553
2483.000000	0.119861
2484.000000	0.110871
2485.000000	0.126622
2486.000000	0.126623
2487.000000	0.094749
2488.000000	0.096027
2489.000000	0.091215
2490.000000	0.054133
2491.000000	0.085877
2492.000000	0.094656
2493.000000	0.133902
2494.000000	0.155689
2495.000000	0.139883
2496.000000	0.124625
2497.000000	0.063370
2498.000000	0.041949
2499.000000	0.074085
2500.000000	0.069028
