# Wavelength	NAu-2-10_HEX-50_FV7-40_00000.asd.rts.txt
350.000000	0.188008
351.000000	0.186225
352.000000	0.164800
353.000000	0.162884
354.000000	0.188622
355.000000	0.186228
356.000000	0.182170
357.000000	0.184130
358.000000	0.185527
359.000000	0.184766
360.000000	0.185445
361.000000	0.190435
362.000000	0.190863
363.000000	0.188438
364.000000	0.185969
365.000000	0.188508
366.000000	0.191066
367.000000	0.190993
368.000000	0.187431
369.000000	0.189404
370.000000	0.194080
371.000000	0.195407
372.000000	0.192032
373.000000	0.187447
374.000000	0.185987
375.000000	0.193661
376.000000	0.195726
377.000000	0.191522
378.000000	0.193830
379.000000	0.194911
380.000000	0.195165
381.000000	0.197654
382.000000	0.200883
383.000000	0.203051
384.000000	0.203296
385.000000	0.201811
386.000000	0.200762
387.000000	0.200729
388.000000	0.200360
389.000000	0.200189
390.000000	0.201252
391.000000	0.203950
392.000000	0.201417
393.000000	0.199991
394.000000	0.203557
395.000000	0.202211
396.000000	0.202194
397.000000	0.204795
398.000000	0.204825
399.000000	0.204279
400.000000	0.204137
401.000000	0.204984
402.000000	0.206172
403.000000	0.207343
404.000000	0.208281
405.000000	0.208326
406.000000	0.208176
407.000000	0.208242
408.000000	0.208327
409.000000	0.208473
410.000000	0.208738
411.000000	0.209156
412.000000	0.209160
413.000000	0.209447
414.000000	0.210594
415.000000	0.210598
416.000000	0.210829
417.000000	0.211894
418.000000	0.212264
419.000000	0.212490
420.000000	0.212759
421.000000	0.212991
422.000000	0.213051
423.000000	0.213236
424.000000	0.213941
425.000000	0.214336
426.000000	0.214618
427.000000	0.214998
428.000000	0.215451
429.000000	0.215361
430.000000	0.214972
431.000000	0.215748
432.000000	0.216475
433.000000	0.216786
434.000000	0.216772
435.000000	0.217034
436.000000	0.217504
437.000000	0.217902
438.000000	0.217802
439.000000	0.217587
440.000000	0.217645
441.000000	0.218097
442.000000	0.218436
443.000000	0.218634
444.000000	0.219148
445.000000	0.219241
446.000000	0.219282
447.000000	0.219673
448.000000	0.219884
449.000000	0.220103
450.000000	0.220536
451.000000	0.221280
452.000000	0.221816
453.000000	0.221907
454.000000	0.221754
455.000000	0.222101
456.000000	0.222768
457.000000	0.223042
458.000000	0.223502
459.000000	0.223861
460.000000	0.223934
461.000000	0.224304
462.000000	0.224667
463.000000	0.224783
464.000000	0.225022
465.000000	0.225301
466.000000	0.225565
467.000000	0.225886
468.000000	0.226232
469.000000	0.226497
470.000000	0.226743
471.000000	0.227135
472.000000	0.227393
473.000000	0.227450
474.000000	0.227806
475.000000	0.228001
476.000000	0.228079
477.000000	0.228331
478.000000	0.228320
479.000000	0.228440
480.000000	0.229037
481.000000	0.229363
482.000000	0.229597
483.000000	0.229804
484.000000	0.229934
485.000000	0.230166
486.000000	0.230659
487.000000	0.231027
488.000000	0.231279
489.000000	0.231485
490.000000	0.231747
491.000000	0.231911
492.000000	0.232148
493.000000	0.232522
494.000000	0.232665
495.000000	0.232873
496.000000	0.233274
497.000000	0.233515
498.000000	0.233669
499.000000	0.233874
500.000000	0.234186
501.000000	0.234604
502.000000	0.234986
503.000000	0.235060
504.000000	0.235177
505.000000	0.235371
506.000000	0.235611
507.000000	0.235877
508.000000	0.236163
509.000000	0.236448
510.000000	0.236824
511.000000	0.237180
512.000000	0.237505
513.000000	0.237814
514.000000	0.238092
515.000000	0.238376
516.000000	0.238663
517.000000	0.239043
518.000000	0.239502
519.000000	0.239910
520.000000	0.240135
521.000000	0.240402
522.000000	0.240791
523.000000	0.241154
524.000000	0.241559
525.000000	0.242008
526.000000	0.242509
527.000000	0.242926
528.000000	0.243300
529.000000	0.243748
530.000000	0.244207
531.000000	0.244787
532.000000	0.245419
533.000000	0.245865
534.000000	0.246375
535.000000	0.247001
536.000000	0.247651
537.000000	0.248208
538.000000	0.248700
539.000000	0.249213
540.000000	0.249816
541.000000	0.250370
542.000000	0.250794
543.000000	0.251219
544.000000	0.251657
545.000000	0.252075
546.000000	0.252598
547.000000	0.253124
548.000000	0.253648
549.000000	0.254142
550.000000	0.254600
551.000000	0.255108
552.000000	0.255707
553.000000	0.256325
554.000000	0.256946
555.000000	0.257580
556.000000	0.258299
557.000000	0.259007
558.000000	0.259758
559.000000	0.260452
560.000000	0.261138
561.000000	0.261869
562.000000	0.262557
563.000000	0.263185
564.000000	0.263843
565.000000	0.264494
566.000000	0.264980
567.000000	0.265477
568.000000	0.266068
569.000000	0.266673
570.000000	0.267256
571.000000	0.267785
572.000000	0.268263
573.000000	0.268692
574.000000	0.269094
575.000000	0.269536
576.000000	0.269857
577.000000	0.270157
578.000000	0.270570
579.000000	0.270900
580.000000	0.271178
581.000000	0.271432
582.000000	0.271687
583.000000	0.271989
584.000000	0.272302
585.000000	0.272538
586.000000	0.272766
587.000000	0.272947
588.000000	0.273050
589.000000	0.273237
590.000000	0.273361
591.000000	0.273375
592.000000	0.273549
593.000000	0.273730
594.000000	0.273863
595.000000	0.273983
596.000000	0.274058
597.000000	0.274158
598.000000	0.274285
599.000000	0.274306
600.000000	0.274279
601.000000	0.274220
602.000000	0.274251
603.000000	0.274263
604.000000	0.274241
605.000000	0.274330
606.000000	0.274365
607.000000	0.274365
608.000000	0.274453
609.000000	0.274519
610.000000	0.274535
611.000000	0.274510
612.000000	0.274548
613.000000	0.274586
614.000000	0.274597
615.000000	0.274526
616.000000	0.274524
617.000000	0.274564
618.000000	0.274528
619.000000	0.274467
620.000000	0.274398
621.000000	0.274383
622.000000	0.274398
623.000000	0.274440
624.000000	0.274492
625.000000	0.274479
626.000000	0.274460
627.000000	0.274468
628.000000	0.274487
629.000000	0.274571
630.000000	0.274626
631.000000	0.274731
632.000000	0.274789
633.000000	0.274856
634.000000	0.274978
635.000000	0.275061
636.000000	0.275103
637.000000	0.275124
638.000000	0.275241
639.000000	0.275368
640.000000	0.275509
641.000000	0.275586
642.000000	0.275683
643.000000	0.275785
644.000000	0.275865
645.000000	0.276034
646.000000	0.276224
647.000000	0.276354
648.000000	0.276490
649.000000	0.276675
650.000000	0.276877
651.000000	0.277013
652.000000	0.277145
653.000000	0.277331
654.000000	0.277550
655.000000	0.277821
656.000000	0.278088
657.000000	0.278269
658.000000	0.278555
659.000000	0.278786
660.000000	0.278921
661.000000	0.279201
662.000000	0.279420
663.000000	0.279621
664.000000	0.279886
665.000000	0.280214
666.000000	0.280545
667.000000	0.280796
668.000000	0.281052
669.000000	0.281384
670.000000	0.281807
671.000000	0.282197
672.000000	0.282592
673.000000	0.282977
674.000000	0.283326
675.000000	0.283690
676.000000	0.284044
677.000000	0.284366
678.000000	0.284743
679.000000	0.285122
680.000000	0.285477
681.000000	0.285849
682.000000	0.286267
683.000000	0.286656
684.000000	0.287038
685.000000	0.287452
686.000000	0.287889
687.000000	0.288282
688.000000	0.288742
689.000000	0.289230
690.000000	0.289731
691.000000	0.290227
692.000000	0.290678
693.000000	0.291131
694.000000	0.291564
695.000000	0.292050
696.000000	0.292574
697.000000	0.293083
698.000000	0.293626
699.000000	0.294185
700.000000	0.294744
701.000000	0.295291
702.000000	0.295822
703.000000	0.296335
704.000000	0.296898
705.000000	0.297443
706.000000	0.297967
707.000000	0.298573
708.000000	0.299154
709.000000	0.299712
710.000000	0.300288
711.000000	0.300889
712.000000	0.301514
713.000000	0.302146
714.000000	0.302683
715.000000	0.303224
716.000000	0.303778
717.000000	0.304295
718.000000	0.304793
719.000000	0.305270
720.000000	0.305756
721.000000	0.306324
722.000000	0.306877
723.000000	0.307428
724.000000	0.307971
725.000000	0.308454
726.000000	0.308963
727.000000	0.309473
728.000000	0.309998
729.000000	0.310519
730.000000	0.310979
731.000000	0.311487
732.000000	0.311989
733.000000	0.312497
734.000000	0.312979
735.000000	0.313460
736.000000	0.313993
737.000000	0.314393
738.000000	0.314781
739.000000	0.315216
740.000000	0.315559
741.000000	0.315912
742.000000	0.316302
743.000000	0.316698
744.000000	0.317096
745.000000	0.317448
746.000000	0.317825
747.000000	0.318222
748.000000	0.318622
749.000000	0.319062
750.000000	0.319497
751.000000	0.319800
752.000000	0.320044
753.000000	0.320305
754.000000	0.320647
755.000000	0.320888
756.000000	0.321095
757.000000	0.321342
758.000000	0.321667
759.000000	0.322021
760.000000	0.322297
761.000000	0.322569
762.000000	0.322773
763.000000	0.322915
764.000000	0.323122
765.000000	0.323338
766.000000	0.323538
767.000000	0.323712
768.000000	0.323924
769.000000	0.324089
770.000000	0.324195
771.000000	0.324314
772.000000	0.324532
773.000000	0.324747
774.000000	0.324926
775.000000	0.325161
776.000000	0.325387
777.000000	0.325529
778.000000	0.325616
779.000000	0.325693
780.000000	0.325758
781.000000	0.325746
782.000000	0.325807
783.000000	0.325962
784.000000	0.326022
785.000000	0.326129
786.000000	0.326229
787.000000	0.326294
788.000000	0.326398
789.000000	0.326448
790.000000	0.326447
791.000000	0.326497
792.000000	0.326521
793.000000	0.326536
794.000000	0.326577
795.000000	0.326673
796.000000	0.326772
797.000000	0.326837
798.000000	0.326856
799.000000	0.326899
800.000000	0.326948
801.000000	0.326971
802.000000	0.327006
803.000000	0.327063
804.000000	0.327162
805.000000	0.327211
806.000000	0.327265
807.000000	0.327370
808.000000	0.327402
809.000000	0.327387
810.000000	0.327408
811.000000	0.327485
812.000000	0.327486
813.000000	0.327484
814.000000	0.327479
815.000000	0.327428
816.000000	0.327406
817.000000	0.327438
818.000000	0.327440
819.000000	0.327460
820.000000	0.327487
821.000000	0.327465
822.000000	0.327436
823.000000	0.327390
824.000000	0.327309
825.000000	0.327292
826.000000	0.327271
827.000000	0.327233
828.000000	0.327230
829.000000	0.327272
830.000000	0.327205
831.000000	0.327098
832.000000	0.326973
833.000000	0.326918
834.000000	0.326912
835.000000	0.326946
836.000000	0.326984
837.000000	0.326924
838.000000	0.326820
839.000000	0.326805
840.000000	0.326768
841.000000	0.326700
842.000000	0.326580
843.000000	0.326503
844.000000	0.326405
845.000000	0.326256
846.000000	0.326149
847.000000	0.326044
848.000000	0.325986
849.000000	0.326034
850.000000	0.325990
851.000000	0.325861
852.000000	0.325750
853.000000	0.325757
854.000000	0.325629
855.000000	0.325525
856.000000	0.325495
857.000000	0.325389
858.000000	0.325332
859.000000	0.325288
860.000000	0.325188
861.000000	0.325067
862.000000	0.324977
863.000000	0.324889
864.000000	0.324840
865.000000	0.324760
866.000000	0.324639
867.000000	0.324511
868.000000	0.324402
869.000000	0.324227
870.000000	0.324005
871.000000	0.323905
872.000000	0.323785
873.000000	0.323539
874.000000	0.323427
875.000000	0.323242
876.000000	0.322997
877.000000	0.322724
878.000000	0.322493
879.000000	0.322319
880.000000	0.322082
881.000000	0.321960
882.000000	0.321878
883.000000	0.321781
884.000000	0.321572
885.000000	0.321469
886.000000	0.321326
887.000000	0.321113
888.000000	0.320992
889.000000	0.320906
890.000000	0.320719
891.000000	0.320510
892.000000	0.320237
893.000000	0.319975
894.000000	0.319885
895.000000	0.319851
896.000000	0.319680
897.000000	0.319437
898.000000	0.319261
899.000000	0.319052
900.000000	0.318781
901.000000	0.318481
902.000000	0.318402
903.000000	0.318173
904.000000	0.317993
905.000000	0.317981
906.000000	0.317756
907.000000	0.317457
908.000000	0.317239
909.000000	0.317068
910.000000	0.316960
911.000000	0.316876
912.000000	0.316772
913.000000	0.316568
914.000000	0.316256
915.000000	0.315967
916.000000	0.315755
917.000000	0.315493
918.000000	0.315218
919.000000	0.314970
920.000000	0.314828
921.000000	0.314593
922.000000	0.314337
923.000000	0.314205
924.000000	0.313870
925.000000	0.313640
926.000000	0.313613
927.000000	0.313263
928.000000	0.312965
929.000000	0.312679
930.000000	0.312304
931.000000	0.312155
932.000000	0.311978
933.000000	0.311716
934.000000	0.311444
935.000000	0.311254
936.000000	0.311129
937.000000	0.310910
938.000000	0.310534
939.000000	0.310321
940.000000	0.310184
941.000000	0.309959
942.000000	0.309631
943.000000	0.309431
944.000000	0.309322
945.000000	0.309162
946.000000	0.308935
947.000000	0.308738
948.000000	0.308598
949.000000	0.308417
950.000000	0.308189
951.000000	0.307896
952.000000	0.307645
953.000000	0.307562
954.000000	0.307397
955.000000	0.306934
956.000000	0.306470
957.000000	0.306377
958.000000	0.306378
959.000000	0.306105
960.000000	0.305775
961.000000	0.305494
962.000000	0.305277
963.000000	0.305109
964.000000	0.304871
965.000000	0.304725
966.000000	0.304616
967.000000	0.304174
968.000000	0.303861
969.000000	0.303554
970.000000	0.303062
971.000000	0.302861
972.000000	0.302871
973.000000	0.302819
974.000000	0.302492
975.000000	0.302405
976.000000	0.302392
977.000000	0.302232
978.000000	0.302033
979.000000	0.301936
980.000000	0.301568
981.000000	0.300976
982.000000	0.300918
983.000000	0.300732
984.000000	0.300449
985.000000	0.300714
986.000000	0.300676
987.000000	0.300447
988.000000	0.300089
989.000000	0.299520
990.000000	0.299365
991.000000	0.299389
992.000000	0.299194
993.000000	0.298987
994.000000	0.299014
995.000000	0.299208
996.000000	0.298928
997.000000	0.298746
998.000000	0.298663
999.000000	0.298651
1000.000000	0.298500
1001.000000	0.298965
1002.000000	0.298790
1003.000000	0.298059
1004.000000	0.297477
1005.000000	0.297082
1006.000000	0.296909
1007.000000	0.296796
1008.000000	0.296271
1009.000000	0.296857
1010.000000	0.296522
1011.000000	0.296266
1012.000000	0.297283
1013.000000	0.296918
1014.000000	0.296070
1015.000000	0.296108
1016.000000	0.296005
1017.000000	0.295825
1018.000000	0.296602
1019.000000	0.296956
1020.000000	0.296983
1021.000000	0.296789
1022.000000	0.296713
1023.000000	0.296748
1024.000000	0.296574
1025.000000	0.296506
1026.000000	0.296115
1027.000000	0.296253
1028.000000	0.296237
1029.000000	0.295717
1030.000000	0.295465
1031.000000	0.295441
1032.000000	0.295484
1033.000000	0.295830
1034.000000	0.295961
1035.000000	0.296201
1036.000000	0.296311
1037.000000	0.296218
1038.000000	0.296103
1039.000000	0.296099
1040.000000	0.296201
1041.000000	0.296032
1042.000000	0.295757
1043.000000	0.295779
1044.000000	0.296421
1045.000000	0.296873
1046.000000	0.297062
1047.000000	0.297511
1048.000000	0.297991
1049.000000	0.298113
1050.000000	0.298279
1051.000000	0.298416
1052.000000	0.298251
1053.000000	0.298043
1054.000000	0.297936
1055.000000	0.298079
1056.000000	0.298329
1057.000000	0.298298
1058.000000	0.298536
1059.000000	0.298642
1060.000000	0.299149
1061.000000	0.299665
1062.000000	0.299696
1063.000000	0.300024
1064.000000	0.300276
1065.000000	0.299973
1066.000000	0.300053
1067.000000	0.300688
1068.000000	0.300861
1069.000000	0.300439
1070.000000	0.300633
1071.000000	0.301199
1072.000000	0.301543
1073.000000	0.302086
1074.000000	0.302788
1075.000000	0.302960
1076.000000	0.302860
1077.000000	0.302837
1078.000000	0.302848
1079.000000	0.302803
1080.000000	0.302725
1081.000000	0.302833
1082.000000	0.302923
1083.000000	0.303214
1084.000000	0.304126
1085.000000	0.304435
1086.000000	0.304441
1087.000000	0.304586
1088.000000	0.304122
1089.000000	0.304118
1090.000000	0.304378
1091.000000	0.304902
1092.000000	0.305059
1093.000000	0.305471
1094.000000	0.305586
1095.000000	0.305158
1096.000000	0.305525
1097.000000	0.306339
1098.000000	0.306729
1099.000000	0.307310
1100.000000	0.307671
1101.000000	0.307484
1102.000000	0.307678
1103.000000	0.308173
1104.000000	0.308416
1105.000000	0.308562
1106.000000	0.308751
1107.000000	0.308823
1108.000000	0.308866
1109.000000	0.309089
1110.000000	0.309018
1111.000000	0.309194
1112.000000	0.309337
1113.000000	0.309618
1114.000000	0.310202
1115.000000	0.310409
1116.000000	0.310438
1117.000000	0.310573
1118.000000	0.310519
1119.000000	0.310608
1120.000000	0.310828
1121.000000	0.311047
1122.000000	0.311661
1123.000000	0.311910
1124.000000	0.311489
1125.000000	0.311554
1126.000000	0.311606
1127.000000	0.311512
1128.000000	0.311474
1129.000000	0.311741
1130.000000	0.311964
1131.000000	0.312052
1132.000000	0.312125
1133.000000	0.312474
1134.000000	0.312658
1135.000000	0.312473
1136.000000	0.312547
1137.000000	0.312932
1138.000000	0.312966
1139.000000	0.312772
1140.000000	0.312942
1141.000000	0.313205
1142.000000	0.313332
1143.000000	0.313555
1144.000000	0.313800
1145.000000	0.313767
1146.000000	0.313628
1147.000000	0.313487
1148.000000	0.313134
1149.000000	0.313239
1150.000000	0.313575
1151.000000	0.313629
1152.000000	0.313817
1153.000000	0.313902
1154.000000	0.313587
1155.000000	0.313512
1156.000000	0.313699
1157.000000	0.313752
1158.000000	0.313687
1159.000000	0.313625
1160.000000	0.313476
1161.000000	0.313451
1162.000000	0.313540
1163.000000	0.313707
1164.000000	0.313801
1165.000000	0.313819
1166.000000	0.313855
1167.000000	0.313711
1168.000000	0.313692
1169.000000	0.313775
1170.000000	0.313870
1171.000000	0.314037
1172.000000	0.314131
1173.000000	0.314230
1174.000000	0.314282
1175.000000	0.314201
1176.000000	0.314173
1177.000000	0.314281
1178.000000	0.314271
1179.000000	0.314169
1180.000000	0.314091
1181.000000	0.314076
1182.000000	0.313997
1183.000000	0.314105
1184.000000	0.314181
1185.000000	0.314181
1186.000000	0.314150
1187.000000	0.314136
1188.000000	0.314076
1189.000000	0.313998
1190.000000	0.313979
1191.000000	0.313946
1192.000000	0.313897
1193.000000	0.314055
1194.000000	0.314254
1195.000000	0.314368
1196.000000	0.314530
1197.000000	0.314595
1198.000000	0.314521
1199.000000	0.314535
1200.000000	0.314577
1201.000000	0.314558
1202.000000	0.314573
1203.000000	0.314659
1204.000000	0.314520
1205.000000	0.314402
1206.000000	0.314395
1207.000000	0.314533
1208.000000	0.314498
1209.000000	0.314591
1210.000000	0.314588
1211.000000	0.314378
1212.000000	0.314263
1213.000000	0.314255
1214.000000	0.314246
1215.000000	0.314170
1216.000000	0.314186
1217.000000	0.314314
1218.000000	0.314324
1219.000000	0.314292
1220.000000	0.314332
1221.000000	0.314453
1222.000000	0.314447
1223.000000	0.314370
1224.000000	0.314369
1225.000000	0.314301
1226.000000	0.314287
1227.000000	0.314346
1228.000000	0.314384
1229.000000	0.314359
1230.000000	0.314167
1231.000000	0.314092
1232.000000	0.314191
1233.000000	0.314347
1234.000000	0.314578
1235.000000	0.314686
1236.000000	0.314730
1237.000000	0.314748
1238.000000	0.314573
1239.000000	0.314527
1240.000000	0.314496
1241.000000	0.314528
1242.000000	0.314613
1243.000000	0.314680
1244.000000	0.314693
1245.000000	0.314808
1246.000000	0.314875
1247.000000	0.314815
1248.000000	0.314744
1249.000000	0.314665
1250.000000	0.314676
1251.000000	0.314772
1252.000000	0.314895
1253.000000	0.315301
1254.000000	0.315349
1255.000000	0.315221
1256.000000	0.315197
1257.000000	0.315022
1258.000000	0.315002
1259.000000	0.315127
1260.000000	0.315111
1261.000000	0.314886
1262.000000	0.314875
1263.000000	0.314962
1264.000000	0.314938
1265.000000	0.315159
1266.000000	0.315341
1267.000000	0.315300
1268.000000	0.315329
1269.000000	0.315149
1270.000000	0.315126
1271.000000	0.315235
1272.000000	0.315164
1273.000000	0.315353
1274.000000	0.315443
1275.000000	0.315427
1276.000000	0.315354
1277.000000	0.315428
1278.000000	0.315369
1279.000000	0.315382
1280.000000	0.315471
1281.000000	0.315430
1282.000000	0.315342
1283.000000	0.315359
1284.000000	0.315308
1285.000000	0.315310
1286.000000	0.315324
1287.000000	0.315362
1288.000000	0.315578
1289.000000	0.315638
1290.000000	0.315569
1291.000000	0.315530
1292.000000	0.315295
1293.000000	0.315091
1294.000000	0.315031
1295.000000	0.315033
1296.000000	0.315025
1297.000000	0.315066
1298.000000	0.315237
1299.000000	0.315272
1300.000000	0.315258
1301.000000	0.315139
1302.000000	0.315013
1303.000000	0.314905
1304.000000	0.314788
1305.000000	0.314816
1306.000000	0.314751
1307.000000	0.314575
1308.000000	0.314531
1309.000000	0.314615
1310.000000	0.314579
1311.000000	0.314544
1312.000000	0.314472
1313.000000	0.314501
1314.000000	0.314487
1315.000000	0.314517
1316.000000	0.314655
1317.000000	0.314485
1318.000000	0.314210
1319.000000	0.314056
1320.000000	0.313961
1321.000000	0.313960
1322.000000	0.314038
1323.000000	0.314136
1324.000000	0.314096
1325.000000	0.314005
1326.000000	0.313988
1327.000000	0.313959
1328.000000	0.313927
1329.000000	0.313758
1330.000000	0.313506
1331.000000	0.313379
1332.000000	0.313235
1333.000000	0.313123
1334.000000	0.313197
1335.000000	0.313251
1336.000000	0.313267
1337.000000	0.313217
1338.000000	0.313152
1339.000000	0.313109
1340.000000	0.312902
1341.000000	0.312745
1342.000000	0.312608
1343.000000	0.312322
1344.000000	0.312088
1345.000000	0.311931
1346.000000	0.311918
1347.000000	0.311860
1348.000000	0.311715
1349.000000	0.311377
1350.000000	0.311095
1351.000000	0.310967
1352.000000	0.310835
1353.000000	0.310797
1354.000000	0.310869
1355.000000	0.310841
1356.000000	0.310846
1357.000000	0.310665
1358.000000	0.310446
1359.000000	0.310302
1360.000000	0.310138
1361.000000	0.310056
1362.000000	0.309977
1363.000000	0.309845
1364.000000	0.309685
1365.000000	0.309461
1366.000000	0.309339
1367.000000	0.309235
1368.000000	0.309167
1369.000000	0.309198
1370.000000	0.309074
1371.000000	0.308748
1372.000000	0.308496
1373.000000	0.308352
1374.000000	0.308298
1375.000000	0.308318
1376.000000	0.308417
1377.000000	0.308409
1378.000000	0.308210
1379.000000	0.307916
1380.000000	0.307691
1381.000000	0.307344
1382.000000	0.306828
1383.000000	0.306499
1384.000000	0.306076
1385.000000	0.305503
1386.000000	0.305194
1387.000000	0.304978
1388.000000	0.304563
1389.000000	0.304270
1390.000000	0.304097
1391.000000	0.303688
1392.000000	0.303167
1393.000000	0.302658
1394.000000	0.302179
1395.000000	0.301661
1396.000000	0.301172
1397.000000	0.300520
1398.000000	0.299682
1399.000000	0.298897
1400.000000	0.297949
1401.000000	0.297139
1402.000000	0.296474
1403.000000	0.295803
1404.000000	0.295089
1405.000000	0.294354
1406.000000	0.293535
1407.000000	0.292761
1408.000000	0.291965
1409.000000	0.291217
1410.000000	0.290518
1411.000000	0.289662
1412.000000	0.288777
1413.000000	0.287998
1414.000000	0.287230
1415.000000	0.286526
1416.000000	0.285806
1417.000000	0.285000
1418.000000	0.284164
1419.000000	0.283454
1420.000000	0.282727
1421.000000	0.282087
1422.000000	0.281402
1423.000000	0.280678
1424.000000	0.280009
1425.000000	0.279422
1426.000000	0.278820
1427.000000	0.278191
1428.000000	0.277488
1429.000000	0.276766
1430.000000	0.276106
1431.000000	0.275558
1432.000000	0.274982
1433.000000	0.274450
1434.000000	0.273911
1435.000000	0.273451
1436.000000	0.272974
1437.000000	0.272557
1438.000000	0.272076
1439.000000	0.271518
1440.000000	0.271054
1441.000000	0.270577
1442.000000	0.270220
1443.000000	0.269879
1444.000000	0.269758
1445.000000	0.269532
1446.000000	0.269252
1447.000000	0.268988
1448.000000	0.268570
1449.000000	0.268253
1450.000000	0.268098
1451.000000	0.267989
1452.000000	0.267903
1453.000000	0.267730
1454.000000	0.267548
1455.000000	0.267413
1456.000000	0.267224
1457.000000	0.267071
1458.000000	0.266960
1459.000000	0.266823
1460.000000	0.266726
1461.000000	0.266686
1462.000000	0.266609
1463.000000	0.266339
1464.000000	0.266134
1465.000000	0.266112
1466.000000	0.265977
1467.000000	0.265883
1468.000000	0.265921
1469.000000	0.265843
1470.000000	0.265745
1471.000000	0.265851
1472.000000	0.265839
1473.000000	0.265910
1474.000000	0.266082
1475.000000	0.266205
1476.000000	0.266382
1477.000000	0.266606
1478.000000	0.266849
1479.000000	0.267074
1480.000000	0.267324
1481.000000	0.267606
1482.000000	0.267970
1483.000000	0.268280
1484.000000	0.268689
1485.000000	0.268934
1486.000000	0.268937
1487.000000	0.269137
1488.000000	0.269410
1489.000000	0.269645
1490.000000	0.269861
1491.000000	0.270119
1492.000000	0.270286
1493.000000	0.270484
1494.000000	0.270688
1495.000000	0.270971
1496.000000	0.271281
1497.000000	0.271567
1498.000000	0.271930
1499.000000	0.272231
1500.000000	0.272545
1501.000000	0.272830
1502.000000	0.273034
1503.000000	0.273294
1504.000000	0.273491
1505.000000	0.273676
1506.000000	0.274055
1507.000000	0.274387
1508.000000	0.274622
1509.000000	0.274791
1510.000000	0.274867
1511.000000	0.274998
1512.000000	0.275094
1513.000000	0.275236
1514.000000	0.275351
1515.000000	0.275347
1516.000000	0.275500
1517.000000	0.275619
1518.000000	0.275714
1519.000000	0.275768
1520.000000	0.275791
1521.000000	0.275843
1522.000000	0.275929
1523.000000	0.276097
1524.000000	0.276286
1525.000000	0.276355
1526.000000	0.276315
1527.000000	0.276324
1528.000000	0.276238
1529.000000	0.276193
1530.000000	0.276205
1531.000000	0.276222
1532.000000	0.276408
1533.000000	0.276571
1534.000000	0.276681
1535.000000	0.276853
1536.000000	0.276852
1537.000000	0.276912
1538.000000	0.277091
1539.000000	0.277140
1540.000000	0.277324
1541.000000	0.277563
1542.000000	0.277609
1543.000000	0.277735
1544.000000	0.277730
1545.000000	0.277578
1546.000000	0.277667
1547.000000	0.277771
1548.000000	0.277837
1549.000000	0.278004
1550.000000	0.278083
1551.000000	0.278091
1552.000000	0.278084
1553.000000	0.278018
1554.000000	0.277954
1555.000000	0.277943
1556.000000	0.278035
1557.000000	0.278059
1558.000000	0.278031
1559.000000	0.277860
1560.000000	0.277806
1561.000000	0.277793
1562.000000	0.277767
1563.000000	0.277829
1564.000000	0.277857
1565.000000	0.277824
1566.000000	0.277774
1567.000000	0.277866
1568.000000	0.277834
1569.000000	0.277790
1570.000000	0.277718
1571.000000	0.277545
1572.000000	0.277481
1573.000000	0.277467
1574.000000	0.277374
1575.000000	0.277271
1576.000000	0.277313
1577.000000	0.277382
1578.000000	0.277398
1579.000000	0.277604
1580.000000	0.277658
1581.000000	0.277589
1582.000000	0.277577
1583.000000	0.277583
1584.000000	0.277532
1585.000000	0.277538
1586.000000	0.277511
1587.000000	0.277419
1588.000000	0.277386
1589.000000	0.277395
1590.000000	0.277345
1591.000000	0.277252
1592.000000	0.277366
1593.000000	0.277611
1594.000000	0.277688
1595.000000	0.277948
1596.000000	0.278016
1597.000000	0.277794
1598.000000	0.277801
1599.000000	0.277972
1600.000000	0.277973
1601.000000	0.277973
1602.000000	0.278060
1603.000000	0.278176
1604.000000	0.278210
1605.000000	0.278337
1606.000000	0.278393
1607.000000	0.278334
1608.000000	0.278362
1609.000000	0.278530
1610.000000	0.278588
1611.000000	0.278578
1612.000000	0.278640
1613.000000	0.278794
1614.000000	0.278909
1615.000000	0.279189
1616.000000	0.279273
1617.000000	0.279186
1618.000000	0.279154
1619.000000	0.278918
1620.000000	0.278929
1621.000000	0.279168
1622.000000	0.279298
1623.000000	0.279429
1624.000000	0.279603
1625.000000	0.279665
1626.000000	0.279678
1627.000000	0.279747
1628.000000	0.279804
1629.000000	0.279718
1630.000000	0.279796
1631.000000	0.279964
1632.000000	0.280016
1633.000000	0.280010
1634.000000	0.280113
1635.000000	0.280294
1636.000000	0.280412
1637.000000	0.280610
1638.000000	0.280743
1639.000000	0.280857
1640.000000	0.280907
1641.000000	0.280994
1642.000000	0.281063
1643.000000	0.281042
1644.000000	0.281122
1645.000000	0.281261
1646.000000	0.281383
1647.000000	0.281591
1648.000000	0.281697
1649.000000	0.281848
1650.000000	0.282001
1651.000000	0.282070
1652.000000	0.282297
1653.000000	0.282638
1654.000000	0.282861
1655.000000	0.283076
1656.000000	0.283210
1657.000000	0.283260
1658.000000	0.283319
1659.000000	0.283502
1660.000000	0.283590
1661.000000	0.283507
1662.000000	0.283574
1663.000000	0.283631
1664.000000	0.283743
1665.000000	0.283917
1666.000000	0.284118
1667.000000	0.284319
1668.000000	0.284453
1669.000000	0.284562
1670.000000	0.284624
1671.000000	0.284687
1672.000000	0.284839
1673.000000	0.284994
1674.000000	0.285215
1675.000000	0.285425
1676.000000	0.285536
1677.000000	0.285648
1678.000000	0.285767
1679.000000	0.285900
1680.000000	0.286025
1681.000000	0.286165
1682.000000	0.286284
1683.000000	0.286329
1684.000000	0.286456
1685.000000	0.286607
1686.000000	0.286622
1687.000000	0.286738
1688.000000	0.286757
1689.000000	0.286558
1690.000000	0.286381
1691.000000	0.286417
1692.000000	0.286526
1693.000000	0.286695
1694.000000	0.286922
1695.000000	0.287036
1696.000000	0.286944
1697.000000	0.286892
1698.000000	0.286844
1699.000000	0.286863
1700.000000	0.286937
1701.000000	0.287064
1702.000000	0.287081
1703.000000	0.287100
1704.000000	0.287218
1705.000000	0.287306
1706.000000	0.287473
1707.000000	0.287566
1708.000000	0.287506
1709.000000	0.287538
1710.000000	0.287696
1711.000000	0.287800
1712.000000	0.287991
1713.000000	0.288120
1714.000000	0.288207
1715.000000	0.288305
1716.000000	0.288430
1717.000000	0.288493
1718.000000	0.288508
1719.000000	0.288468
1720.000000	0.288376
1721.000000	0.288368
1722.000000	0.288364
1723.000000	0.288358
1724.000000	0.288433
1725.000000	0.288512
1726.000000	0.288481
1727.000000	0.288504
1728.000000	0.288465
1729.000000	0.288546
1730.000000	0.288899
1731.000000	0.288988
1732.000000	0.289099
1733.000000	0.289171
1734.000000	0.288767
1735.000000	0.288923
1736.000000	0.289415
1737.000000	0.289630
1738.000000	0.290009
1739.000000	0.290178
1740.000000	0.290075
1741.000000	0.290097
1742.000000	0.290159
1743.000000	0.290262
1744.000000	0.290344
1745.000000	0.290349
1746.000000	0.290348
1747.000000	0.290445
1748.000000	0.290406
1749.000000	0.290385
1750.000000	0.290349
1751.000000	0.290204
1752.000000	0.290289
1753.000000	0.290542
1754.000000	0.290628
1755.000000	0.290577
1756.000000	0.290640
1757.000000	0.290647
1758.000000	0.290727
1759.000000	0.291001
1760.000000	0.291138
1761.000000	0.291114
1762.000000	0.291176
1763.000000	0.291297
1764.000000	0.291349
1765.000000	0.291344
1766.000000	0.291399
1767.000000	0.291371
1768.000000	0.291315
1769.000000	0.291344
1770.000000	0.291453
1771.000000	0.291619
1772.000000	0.291549
1773.000000	0.291303
1774.000000	0.291304
1775.000000	0.291268
1776.000000	0.291292
1777.000000	0.291571
1778.000000	0.291668
1779.000000	0.291547
1780.000000	0.291617
1781.000000	0.291827
1782.000000	0.291846
1783.000000	0.291807
1784.000000	0.291838
1785.000000	0.291808
1786.000000	0.291918
1787.000000	0.292292
1788.000000	0.292679
1789.000000	0.292902
1790.000000	0.292860
1791.000000	0.292925
1792.000000	0.293076
1793.000000	0.293105
1794.000000	0.293156
1795.000000	0.293243
1796.000000	0.293141
1797.000000	0.293156
1798.000000	0.293320
1799.000000	0.293498
1800.000000	0.293819
1801.000000	0.293864
1802.000000	0.293984
1803.000000	0.292788
1804.000000	0.292730
1805.000000	0.293077
1806.000000	0.292996
1807.000000	0.292858
1808.000000	0.293001
1809.000000	0.293007
1810.000000	0.292988
1811.000000	0.293197
1812.000000	0.293855
1813.000000	0.294397
1814.000000	0.294930
1815.000000	0.295458
1816.000000	0.296356
1817.000000	0.296715
1818.000000	0.296948
1819.000000	0.297192
1820.000000	0.296151
1821.000000	0.295335
1822.000000	0.294904
1823.000000	0.294098
1824.000000	0.293463
1825.000000	0.293217
1826.000000	0.293197
1827.000000	0.293047
1828.000000	0.292834
1829.000000	0.293236
1830.000000	0.293763
1831.000000	0.293806
1832.000000	0.293342
1833.000000	0.293318
1834.000000	0.293204
1835.000000	0.293175
1836.000000	0.293645
1837.000000	0.293452
1838.000000	0.292491
1839.000000	0.292230
1840.000000	0.291951
1841.000000	0.291185
1842.000000	0.290940
1843.000000	0.291267
1844.000000	0.291375
1845.000000	0.291382
1846.000000	0.291421
1847.000000	0.291536
1848.000000	0.291303
1849.000000	0.291156
1850.000000	0.291439
1851.000000	0.291328
1852.000000	0.291380
1853.000000	0.290946
1854.000000	0.289765
1855.000000	0.288782
1856.000000	0.287442
1857.000000	0.286260
1858.000000	0.285793
1859.000000	0.285562
1860.000000	0.285457
1861.000000	0.285184
1862.000000	0.284476
1863.000000	0.282932
1864.000000	0.282266
1865.000000	0.282075
1866.000000	0.281537
1867.000000	0.281145
1868.000000	0.280896
1869.000000	0.279785
1870.000000	0.278173
1871.000000	0.276865
1872.000000	0.275336
1873.000000	0.274137
1874.000000	0.273137
1875.000000	0.272173
1876.000000	0.271270
1877.000000	0.270006
1878.000000	0.268889
1879.000000	0.266944
1880.000000	0.264835
1881.000000	0.262990
1882.000000	0.260470
1883.000000	0.258621
1884.000000	0.256666
1885.000000	0.254390
1886.000000	0.252362
1887.000000	0.250807
1888.000000	0.248427
1889.000000	0.246049
1890.000000	0.243638
1891.000000	0.240722
1892.000000	0.237532
1893.000000	0.234280
1894.000000	0.231157
1895.000000	0.227832
1896.000000	0.224261
1897.000000	0.221370
1898.000000	0.218665
1899.000000	0.215837
1900.000000	0.213836
1901.000000	0.211500
1902.000000	0.208894
1903.000000	0.206483
1904.000000	0.204002
1905.000000	0.201749
1906.000000	0.199735
1907.000000	0.198192
1908.000000	0.196454
1909.000000	0.194334
1910.000000	0.192475
1911.000000	0.190164
1912.000000	0.188035
1913.000000	0.186707
1914.000000	0.185338
1915.000000	0.183753
1916.000000	0.182238
1917.000000	0.181003
1918.000000	0.179929
1919.000000	0.178977
1920.000000	0.178248
1921.000000	0.178048
1922.000000	0.177663
1923.000000	0.177143
1924.000000	0.176851
1925.000000	0.176086
1926.000000	0.175006
1927.000000	0.174220
1928.000000	0.173649
1929.000000	0.173222
1930.000000	0.172830
1931.000000	0.172863
1932.000000	0.173124
1933.000000	0.172711
1934.000000	0.172622
1935.000000	0.172539
1936.000000	0.172415
1937.000000	0.172359
1938.000000	0.171669
1939.000000	0.171236
1940.000000	0.170863
1941.000000	0.169951
1942.000000	0.169638
1943.000000	0.170177
1944.000000	0.170334
1945.000000	0.170765
1946.000000	0.170907
1947.000000	0.171007
1948.000000	0.170965
1949.000000	0.170323
1950.000000	0.169698
1951.000000	0.168820
1952.000000	0.167444
1953.000000	0.165873
1954.000000	0.165409
1955.000000	0.165243
1956.000000	0.164740
1957.000000	0.165040
1958.000000	0.165483
1959.000000	0.165165
1960.000000	0.165450
1961.000000	0.165888
1962.000000	0.166135
1963.000000	0.166193
1964.000000	0.166748
1965.000000	0.166260
1966.000000	0.165452
1967.000000	0.164580
1968.000000	0.163554
1969.000000	0.163898
1970.000000	0.164605
1971.000000	0.165262
1972.000000	0.165957
1973.000000	0.166276
1974.000000	0.166334
1975.000000	0.166391
1976.000000	0.166333
1977.000000	0.166001
1978.000000	0.165980
1979.000000	0.166027
1980.000000	0.166220
1981.000000	0.166943
1982.000000	0.167180
1983.000000	0.167241
1984.000000	0.167473
1985.000000	0.167495
1986.000000	0.167772
1987.000000	0.168398
1988.000000	0.168975
1989.000000	0.169108
1990.000000	0.169943
1991.000000	0.170096
1992.000000	0.170543
1993.000000	0.171657
1994.000000	0.171860
1995.000000	0.172676
1996.000000	0.173213
1997.000000	0.173660
1998.000000	0.174000
1999.000000	0.174664
2000.000000	0.175224
2001.000000	0.176146
2002.000000	0.177126
2003.000000	0.177660
2004.000000	0.178639
2005.000000	0.179204
2006.000000	0.179118
2007.000000	0.179900
2008.000000	0.180654
2009.000000	0.181071
2010.000000	0.181740
2011.000000	0.182888
2012.000000	0.183608
2013.000000	0.183975
2014.000000	0.184618
2015.000000	0.185152
2016.000000	0.185932
2017.000000	0.186417
2018.000000	0.187124
2019.000000	0.188236
2020.000000	0.189557
2021.000000	0.190506
2022.000000	0.191511
2023.000000	0.192279
2024.000000	0.192539
2025.000000	0.193007
2026.000000	0.193490
2027.000000	0.193839
2028.000000	0.194071
2029.000000	0.194766
2030.000000	0.195198
2031.000000	0.195467
2032.000000	0.196724
2033.000000	0.197711
2034.000000	0.198438
2035.000000	0.199477
2036.000000	0.200298
2037.000000	0.200493
2038.000000	0.201278
2039.000000	0.202575
2040.000000	0.203685
2041.000000	0.204568
2042.000000	0.205160
2043.000000	0.205559
2044.000000	0.206147
2045.000000	0.207127
2046.000000	0.208164
2047.000000	0.208858
2048.000000	0.209489
2049.000000	0.210019
2050.000000	0.209765
2051.000000	0.210038
2052.000000	0.210417
2053.000000	0.210860
2054.000000	0.211561
2055.000000	0.212606
2056.000000	0.213356
2057.000000	0.213931
2058.000000	0.214360
2059.000000	0.214305
2060.000000	0.214769
2061.000000	0.215611
2062.000000	0.215933
2063.000000	0.216326
2064.000000	0.216673
2065.000000	0.216577
2066.000000	0.216898
2067.000000	0.218059
2068.000000	0.218462
2069.000000	0.218474
2070.000000	0.219136
2071.000000	0.219639
2072.000000	0.220581
2073.000000	0.221853
2074.000000	0.222321
2075.000000	0.222715
2076.000000	0.222316
2077.000000	0.222613
2078.000000	0.223292
2079.000000	0.223717
2080.000000	0.224368
2081.000000	0.224903
2082.000000	0.225258
2083.000000	0.225313
2084.000000	0.225949
2085.000000	0.226617
2086.000000	0.227717
2087.000000	0.228850
2088.000000	0.229548
2089.000000	0.230290
2090.000000	0.230887
2091.000000	0.231076
2092.000000	0.231697
2093.000000	0.232643
2094.000000	0.233280
2095.000000	0.233980
2096.000000	0.234475
2097.000000	0.234773
2098.000000	0.234831
2099.000000	0.234676
2100.000000	0.234866
2101.000000	0.235324
2102.000000	0.236026
2103.000000	0.236369
2104.000000	0.236642
2105.000000	0.237175
2106.000000	0.237421
2107.000000	0.237952
2108.000000	0.239139
2109.000000	0.239797
2110.000000	0.239924
2111.000000	0.240186
2112.000000	0.240243
2113.000000	0.240463
2114.000000	0.240283
2115.000000	0.241175
2116.000000	0.242366
2117.000000	0.243368
2118.000000	0.245155
2119.000000	0.245513
2120.000000	0.245996
2121.000000	0.246199
2122.000000	0.246145
2123.000000	0.245622
2124.000000	0.245504
2125.000000	0.245006
2126.000000	0.244934
2127.000000	0.245305
2128.000000	0.245698
2129.000000	0.246410
2130.000000	0.246594
2131.000000	0.247065
2132.000000	0.247234
2133.000000	0.247399
2134.000000	0.248532
2135.000000	0.249104
2136.000000	0.249127
2137.000000	0.249003
2138.000000	0.247993
2139.000000	0.247727
2140.000000	0.247541
2141.000000	0.247798
2142.000000	0.248854
2143.000000	0.249069
2144.000000	0.249713
2145.000000	0.249591
2146.000000	0.248629
2147.000000	0.247896
2148.000000	0.247112
2149.000000	0.246195
2150.000000	0.246856
2151.000000	0.247456
2152.000000	0.248267
2153.000000	0.249556
2154.000000	0.249742
2155.000000	0.249175
2156.000000	0.248961
2157.000000	0.248011
2158.000000	0.247881
2159.000000	0.248143
2160.000000	0.248466
2161.000000	0.249310
2162.000000	0.249889
2163.000000	0.250905
2164.000000	0.251036
2165.000000	0.250727
2166.000000	0.249950
2167.000000	0.249088
2168.000000	0.247646
2169.000000	0.246726
2170.000000	0.247275
2171.000000	0.247624
2172.000000	0.248637
2173.000000	0.249217
2174.000000	0.249804
2175.000000	0.250385
2176.000000	0.250961
2177.000000	0.251289
2178.000000	0.252299
2179.000000	0.252084
2180.000000	0.250345
2181.000000	0.249747
2182.000000	0.248208
2183.000000	0.247336
2184.000000	0.247832
2185.000000	0.248507
2186.000000	0.249439
2187.000000	0.249858
2188.000000	0.250997
2189.000000	0.252461
2190.000000	0.252665
2191.000000	0.252671
2192.000000	0.252794
2193.000000	0.251908
2194.000000	0.251350
2195.000000	0.251385
2196.000000	0.251542
2197.000000	0.250468
2198.000000	0.251081
2199.000000	0.254678
2200.000000	0.255996
2201.000000	0.257812
2202.000000	0.257588
2203.000000	0.254824
2204.000000	0.250407
2205.000000	0.247969
2206.000000	0.245604
2207.000000	0.244553
2208.000000	0.246727
2209.000000	0.246632
2210.000000	0.246656
2211.000000	0.248445
2212.000000	0.250130
2213.000000	0.250811
2214.000000	0.251585
2215.000000	0.251768
2216.000000	0.249903
2217.000000	0.250295
2218.000000	0.252410
2219.000000	0.253196
2220.000000	0.254088
2221.000000	0.254644
2222.000000	0.253884
2223.000000	0.253680
2224.000000	0.254345
2225.000000	0.255048
2226.000000	0.252248
2227.000000	0.250901
2228.000000	0.249471
2229.000000	0.248106
2230.000000	0.250050
2231.000000	0.253309
2232.000000	0.255698
2233.000000	0.257445
2234.000000	0.256796
2235.000000	0.254712
2236.000000	0.254143
2237.000000	0.253665
2238.000000	0.252783
2239.000000	0.252490
2240.000000	0.252339
2241.000000	0.250529
2242.000000	0.250867
2243.000000	0.253547
2244.000000	0.254747
2245.000000	0.257085
2246.000000	0.257662
2247.000000	0.255864
2248.000000	0.255227
2249.000000	0.254613
2250.000000	0.254015
2251.000000	0.251565
2252.000000	0.250249
2253.000000	0.248855
2254.000000	0.246777
2255.000000	0.248253
2256.000000	0.251627
2257.000000	0.253341
2258.000000	0.253141
2259.000000	0.252795
2260.000000	0.252246
2261.000000	0.251424
2262.000000	0.250620
2263.000000	0.250305
2264.000000	0.249330
2265.000000	0.249511
2266.000000	0.251459
2267.000000	0.251856
2268.000000	0.252136
2269.000000	0.251445
2270.000000	0.249115
2271.000000	0.247874
2272.000000	0.246268
2273.000000	0.245824
2274.000000	0.246595
2275.000000	0.246683
2276.000000	0.247406
2277.000000	0.247287
2278.000000	0.246510
2279.000000	0.245783
2280.000000	0.242821
2281.000000	0.240234
2282.000000	0.237064
2283.000000	0.234650
2284.000000	0.234455
2285.000000	0.234508
2286.000000	0.235855
2287.000000	0.236454
2288.000000	0.236431
2289.000000	0.237701
2290.000000	0.237416
2291.000000	0.237443
2292.000000	0.240472
2293.000000	0.240979
2294.000000	0.240166
2295.000000	0.238722
2296.000000	0.237275
2297.000000	0.232952
2298.000000	0.231142
2299.000000	0.232067
2300.000000	0.230855
2301.000000	0.227545
2302.000000	0.226962
2303.000000	0.227168
2304.000000	0.227302
2305.000000	0.229563
2306.000000	0.230768
2307.000000	0.232026
2308.000000	0.230833
2309.000000	0.230704
2310.000000	0.230512
2311.000000	0.226600
2312.000000	0.224603
2313.000000	0.223607
2314.000000	0.221492
2315.000000	0.222417
2316.000000	0.223377
2317.000000	0.223452
2318.000000	0.225155
2319.000000	0.226897
2320.000000	0.227214
2321.000000	0.225462
2322.000000	0.221916
2323.000000	0.219687
2324.000000	0.218874
2325.000000	0.219068
2326.000000	0.220626
2327.000000	0.221820
2328.000000	0.223155
2329.000000	0.223397
2330.000000	0.223866
2331.000000	0.223267
2332.000000	0.221755
2333.000000	0.223068
2334.000000	0.222238
2335.000000	0.220841
2336.000000	0.218575
2337.000000	0.216454
2338.000000	0.211945
2339.000000	0.210702
2340.000000	0.212029
2341.000000	0.211964
2342.000000	0.212799
2343.000000	0.212509
2344.000000	0.210682
2345.000000	0.209625
2346.000000	0.208888
2347.000000	0.207816
2348.000000	0.206406
2349.000000	0.206660
2350.000000	0.205797
2351.000000	0.205587
2352.000000	0.206678
2353.000000	0.205203
2354.000000	0.202989
2355.000000	0.200735
2356.000000	0.197023
2357.000000	0.193567
2358.000000	0.191669
2359.000000	0.192316
2360.000000	0.196120
2361.000000	0.199637
2362.000000	0.200447
2363.000000	0.200066
2364.000000	0.199723
2365.000000	0.199181
2366.000000	0.197919
2367.000000	0.198076
2368.000000	0.196269
2369.000000	0.192499
2370.000000	0.191618
2371.000000	0.191382
2372.000000	0.193564
2373.000000	0.200891
2374.000000	0.203036
2375.000000	0.200820
2376.000000	0.199218
2377.000000	0.189957
2378.000000	0.180441
2379.000000	0.174544
2380.000000	0.170751
2381.000000	0.171209
2382.000000	0.170750
2383.000000	0.176719
2384.000000	0.179577
2385.000000	0.173646
2386.000000	0.176927
2387.000000	0.176038
2388.000000	0.173303
2389.000000	0.176792
2390.000000	0.174957
2391.000000	0.176646
2392.000000	0.175700
2393.000000	0.172115
2394.000000	0.171031
2395.000000	0.165925
2396.000000	0.168639
2397.000000	0.168658
2398.000000	0.168077
2399.000000	0.172580
2400.000000	0.168886
2401.000000	0.174344
2402.000000	0.179434
2403.000000	0.176819
2404.000000	0.180142
2405.000000	0.176814
2406.000000	0.173050
2407.000000	0.175225
2408.000000	0.171553
2409.000000	0.167123
2410.000000	0.161848
2411.000000	0.160018
2412.000000	0.161746
2413.000000	0.162600
2414.000000	0.167836
2415.000000	0.165689
2416.000000	0.163749
2417.000000	0.167869
2418.000000	0.168488
2419.000000	0.167772
2420.000000	0.163297
2421.000000	0.150811
2422.000000	0.138004
2423.000000	0.136598
2424.000000	0.135908
2425.000000	0.131123
2426.000000	0.128792
2427.000000	0.120382
2428.000000	0.116175
2429.000000	0.132588
2430.000000	0.144164
2431.000000	0.154525
2432.000000	0.174050
2433.000000	0.177849
2434.000000	0.181301
2435.000000	0.174963
2436.000000	0.151877
2437.000000	0.138408
2438.000000	0.134138
2439.000000	0.137315
2440.000000	0.150417
2441.000000	0.161509
2442.000000	0.155870
2443.000000	0.147929
2444.000000	0.139556
2445.000000	0.134144
2446.000000	0.147213
2447.000000	0.169076
2448.000000	0.185724
2449.000000	0.190066
2450.000000	0.180997
2451.000000	0.168447
2452.000000	0.163646
2453.000000	0.162153
2454.000000	0.169972
2455.000000	0.188141
2456.000000	0.203426
2457.000000	0.202426
2458.000000	0.195914
2459.000000	0.185470
2460.000000	0.167830
2461.000000	0.174015
2462.000000	0.177982
2463.000000	0.162489
2464.000000	0.158836
2465.000000	0.148020
2466.000000	0.131104
2467.000000	0.140266
2468.000000	0.152233
2469.000000	0.138956
2470.000000	0.134715
2471.000000	0.125449
2472.000000	0.093859
2473.000000	0.108670
2474.000000	0.124183
2475.000000	0.108339
2476.000000	0.105462
2477.000000	0.099110
2478.000000	0.095372
2479.000000	0.095745
2480.000000	0.114470
2481.000000	0.130459
2482.000000	0.117056
2483.000000	0.110326
2484.000000	0.104663
2485.000000	0.096483
2486.000000	0.108057
2487.000000	0.146365
2488.000000	0.184557
2489.000000	0.193193
2490.000000	0.198032
2491.000000	0.205567
2492.000000	0.195302
2493.000000	0.161756
2494.000000	0.148006
2495.000000	0.139546
2496.000000	0.124947
2497.000000	0.119882
2498.000000	0.114448
2499.000000	0.077934
2500.000000	0.088263
