# Wavelength	NAu-1-40_HEX-20_FV7-40_00001.asd.rts.txt
350.000000	0.157987
351.000000	0.148723
352.000000	0.150400
353.000000	0.153754
354.000000	0.153575
355.000000	0.143630
356.000000	0.145639
357.000000	0.157288
358.000000	0.157045
359.000000	0.152684
360.000000	0.147155
361.000000	0.143060
362.000000	0.148636
363.000000	0.151627
364.000000	0.146701
365.000000	0.149564
366.000000	0.150186
367.000000	0.147232
368.000000	0.146866
369.000000	0.147422
370.000000	0.146947
371.000000	0.144512
372.000000	0.149610
373.000000	0.154774
374.000000	0.154618
375.000000	0.151161
376.000000	0.147438
377.000000	0.147777
378.000000	0.158644
379.000000	0.162104
380.000000	0.158681
381.000000	0.155587
382.000000	0.154903
383.000000	0.156696
384.000000	0.160123
385.000000	0.162727
386.000000	0.164080
387.000000	0.164546
388.000000	0.165065
389.000000	0.164141
390.000000	0.164442
391.000000	0.169050
392.000000	0.170401
393.000000	0.170375
394.000000	0.171281
395.000000	0.172365
396.000000	0.173065
397.000000	0.173622
398.000000	0.175598
399.000000	0.176851
400.000000	0.177659
401.000000	0.179150
402.000000	0.180728
403.000000	0.181444
404.000000	0.181250
405.000000	0.183434
406.000000	0.185105
407.000000	0.185287
408.000000	0.186094
409.000000	0.187843
410.000000	0.189526
411.000000	0.189257
412.000000	0.189892
413.000000	0.191120
414.000000	0.192055
415.000000	0.192911
416.000000	0.193756
417.000000	0.194587
418.000000	0.195356
419.000000	0.195397
420.000000	0.195081
421.000000	0.195711
422.000000	0.196399
423.000000	0.196768
424.000000	0.196725
425.000000	0.196740
426.000000	0.197016
427.000000	0.197496
428.000000	0.197539
429.000000	0.197623
430.000000	0.197797
431.000000	0.197465
432.000000	0.197573
433.000000	0.197871
434.000000	0.197684
435.000000	0.197637
436.000000	0.197892
437.000000	0.198329
438.000000	0.198124
439.000000	0.197667
440.000000	0.197269
441.000000	0.196662
442.000000	0.196245
443.000000	0.196149
444.000000	0.196461
445.000000	0.196508
446.000000	0.196392
447.000000	0.196354
448.000000	0.196934
449.000000	0.197867
450.000000	0.198911
451.000000	0.200099
452.000000	0.201477
453.000000	0.203013
454.000000	0.204775
455.000000	0.206797
456.000000	0.208866
457.000000	0.210588
458.000000	0.212925
459.000000	0.215155
460.000000	0.216619
461.000000	0.217813
462.000000	0.219136
463.000000	0.220467
464.000000	0.221155
465.000000	0.222087
466.000000	0.223262
467.000000	0.224255
468.000000	0.225159
469.000000	0.225824
470.000000	0.226296
471.000000	0.227084
472.000000	0.227844
473.000000	0.228388
474.000000	0.229056
475.000000	0.229591
476.000000	0.230085
477.000000	0.230721
478.000000	0.230909
479.000000	0.231178
480.000000	0.232108
481.000000	0.232607
482.000000	0.232948
483.000000	0.233315
484.000000	0.233548
485.000000	0.233883
486.000000	0.234501
487.000000	0.234980
488.000000	0.235271
489.000000	0.235627
490.000000	0.236517
491.000000	0.237104
492.000000	0.237563
493.000000	0.238145
494.000000	0.238517
495.000000	0.238920
496.000000	0.239498
497.000000	0.240190
498.000000	0.240727
499.000000	0.241182
500.000000	0.241893
501.000000	0.242525
502.000000	0.243126
503.000000	0.243817
504.000000	0.244493
505.000000	0.245005
506.000000	0.245321
507.000000	0.245927
508.000000	0.246637
509.000000	0.247315
510.000000	0.248161
511.000000	0.248896
512.000000	0.249525
513.000000	0.250218
514.000000	0.250868
515.000000	0.251525
516.000000	0.252217
517.000000	0.252980
518.000000	0.253768
519.000000	0.254471
520.000000	0.255182
521.000000	0.255929
522.000000	0.256695
523.000000	0.257358
524.000000	0.258112
525.000000	0.258941
526.000000	0.259769
527.000000	0.260582
528.000000	0.261332
529.000000	0.262049
530.000000	0.262911
531.000000	0.263806
532.000000	0.264609
533.000000	0.265574
534.000000	0.266427
535.000000	0.267130
536.000000	0.267910
537.000000	0.268811
538.000000	0.269731
539.000000	0.270497
540.000000	0.271317
541.000000	0.272163
542.000000	0.273017
543.000000	0.273876
544.000000	0.274791
545.000000	0.275697
546.000000	0.276548
547.000000	0.277390
548.000000	0.278261
549.000000	0.279099
550.000000	0.279966
551.000000	0.280884
552.000000	0.281792
553.000000	0.282617
554.000000	0.283452
555.000000	0.284361
556.000000	0.285255
557.000000	0.286060
558.000000	0.286883
559.000000	0.287699
560.000000	0.288406
561.000000	0.289110
562.000000	0.289861
563.000000	0.290576
564.000000	0.291292
565.000000	0.291960
566.000000	0.292696
567.000000	0.293430
568.000000	0.294093
569.000000	0.294715
570.000000	0.295245
571.000000	0.295721
572.000000	0.296301
573.000000	0.296814
574.000000	0.297256
575.000000	0.297743
576.000000	0.298348
577.000000	0.298894
578.000000	0.299310
579.000000	0.299679
580.000000	0.300116
581.000000	0.300615
582.000000	0.300985
583.000000	0.301332
584.000000	0.301686
585.000000	0.302055
586.000000	0.302360
587.000000	0.302677
588.000000	0.303085
589.000000	0.303442
590.000000	0.303735
591.000000	0.303978
592.000000	0.304220
593.000000	0.304481
594.000000	0.304730
595.000000	0.304884
596.000000	0.305076
597.000000	0.305300
598.000000	0.305405
599.000000	0.305575
600.000000	0.305737
601.000000	0.305757
602.000000	0.305883
603.000000	0.305996
604.000000	0.306061
605.000000	0.306161
606.000000	0.306239
607.000000	0.306328
608.000000	0.306510
609.000000	0.306603
610.000000	0.306672
611.000000	0.306826
612.000000	0.306995
613.000000	0.307125
614.000000	0.307221
615.000000	0.307274
616.000000	0.307351
617.000000	0.307442
618.000000	0.307562
619.000000	0.307669
620.000000	0.307715
621.000000	0.307723
622.000000	0.307721
623.000000	0.307698
624.000000	0.307668
625.000000	0.307778
626.000000	0.307951
627.000000	0.308122
628.000000	0.308240
629.000000	0.308469
630.000000	0.308644
631.000000	0.308730
632.000000	0.308881
633.000000	0.309042
634.000000	0.309125
635.000000	0.309250
636.000000	0.309345
637.000000	0.309393
638.000000	0.309602
639.000000	0.309772
640.000000	0.309883
641.000000	0.309874
642.000000	0.309960
643.000000	0.310142
644.000000	0.310343
645.000000	0.310448
646.000000	0.310572
647.000000	0.310760
648.000000	0.310863
649.000000	0.311019
650.000000	0.311246
651.000000	0.311472
652.000000	0.311647
653.000000	0.311812
654.000000	0.311970
655.000000	0.312172
656.000000	0.312419
657.000000	0.312647
658.000000	0.312899
659.000000	0.313176
660.000000	0.313446
661.000000	0.313684
662.000000	0.313869
663.000000	0.314068
664.000000	0.314290
665.000000	0.314506
666.000000	0.314734
667.000000	0.314964
668.000000	0.315239
669.000000	0.315507
670.000000	0.315749
671.000000	0.316008
672.000000	0.316221
673.000000	0.316398
674.000000	0.316636
675.000000	0.316921
676.000000	0.317225
677.000000	0.317533
678.000000	0.317838
679.000000	0.318133
680.000000	0.318411
681.000000	0.318612
682.000000	0.318883
683.000000	0.319171
684.000000	0.319460
685.000000	0.319770
686.000000	0.320117
687.000000	0.320464
688.000000	0.320815
689.000000	0.321160
690.000000	0.321523
691.000000	0.321874
692.000000	0.322204
693.000000	0.322564
694.000000	0.322886
695.000000	0.323178
696.000000	0.323480
697.000000	0.323841
698.000000	0.324188
699.000000	0.324555
700.000000	0.324960
701.000000	0.325256
702.000000	0.325573
703.000000	0.325936
704.000000	0.326291
705.000000	0.326664
706.000000	0.327017
707.000000	0.327394
708.000000	0.327803
709.000000	0.328185
710.000000	0.328519
711.000000	0.328851
712.000000	0.329171
713.000000	0.329494
714.000000	0.329806
715.000000	0.330190
716.000000	0.330626
717.000000	0.331015
718.000000	0.331319
719.000000	0.331582
720.000000	0.331876
721.000000	0.332252
722.000000	0.332606
723.000000	0.332953
724.000000	0.333274
725.000000	0.333562
726.000000	0.333894
727.000000	0.334193
728.000000	0.334475
729.000000	0.334768
730.000000	0.335039
731.000000	0.335337
732.000000	0.335589
733.000000	0.335840
734.000000	0.336164
735.000000	0.336432
736.000000	0.336738
737.000000	0.336983
738.000000	0.337179
739.000000	0.337520
740.000000	0.337909
741.000000	0.338174
742.000000	0.338370
743.000000	0.338535
744.000000	0.338795
745.000000	0.338986
746.000000	0.339157
747.000000	0.339317
748.000000	0.339535
749.000000	0.339736
750.000000	0.339860
751.000000	0.340066
752.000000	0.340294
753.000000	0.340532
754.000000	0.340772
755.000000	0.340983
756.000000	0.341151
757.000000	0.341227
758.000000	0.341288
759.000000	0.341364
760.000000	0.341417
761.000000	0.341600
762.000000	0.341665
763.000000	0.341636
764.000000	0.341786
765.000000	0.341865
766.000000	0.341921
767.000000	0.342020
768.000000	0.342111
769.000000	0.342162
770.000000	0.342159
771.000000	0.342081
772.000000	0.342140
773.000000	0.342186
774.000000	0.342090
775.000000	0.342115
776.000000	0.342134
777.000000	0.342024
778.000000	0.341902
779.000000	0.341868
780.000000	0.341869
781.000000	0.341678
782.000000	0.341535
783.000000	0.341514
784.000000	0.341439
785.000000	0.341378
786.000000	0.341324
787.000000	0.341251
788.000000	0.341107
789.000000	0.341004
790.000000	0.340908
791.000000	0.340772
792.000000	0.340727
793.000000	0.340671
794.000000	0.340538
795.000000	0.340494
796.000000	0.340398
797.000000	0.340202
798.000000	0.339969
799.000000	0.339814
800.000000	0.339687
801.000000	0.339513
802.000000	0.339366
803.000000	0.339240
804.000000	0.339132
805.000000	0.338903
806.000000	0.338660
807.000000	0.338503
808.000000	0.338362
809.000000	0.338249
810.000000	0.338120
811.000000	0.337931
812.000000	0.337704
813.000000	0.337537
814.000000	0.337419
815.000000	0.337266
816.000000	0.337148
817.000000	0.337025
818.000000	0.336776
819.000000	0.336634
820.000000	0.336463
821.000000	0.336197
822.000000	0.336069
823.000000	0.335932
824.000000	0.335708
825.000000	0.335482
826.000000	0.335228
827.000000	0.334965
828.000000	0.334752
829.000000	0.334577
830.000000	0.334220
831.000000	0.333829
832.000000	0.333568
833.000000	0.333405
834.000000	0.333268
835.000000	0.333131
836.000000	0.332966
837.000000	0.332727
838.000000	0.332453
839.000000	0.332206
840.000000	0.332051
841.000000	0.331906
842.000000	0.331664
843.000000	0.331487
844.000000	0.331261
845.000000	0.330962
846.000000	0.330756
847.000000	0.330615
848.000000	0.330482
849.000000	0.330336
850.000000	0.330141
851.000000	0.329961
852.000000	0.329826
853.000000	0.329601
854.000000	0.329289
855.000000	0.329038
856.000000	0.328818
857.000000	0.328581
858.000000	0.328420
859.000000	0.328272
860.000000	0.328072
861.000000	0.327772
862.000000	0.327509
863.000000	0.327380
864.000000	0.327319
865.000000	0.327257
866.000000	0.327146
867.000000	0.326869
868.000000	0.326606
869.000000	0.326309
870.000000	0.325975
871.000000	0.325655
872.000000	0.325435
873.000000	0.325264
874.000000	0.325060
875.000000	0.324814
876.000000	0.324529
877.000000	0.324174
878.000000	0.323977
879.000000	0.323822
880.000000	0.323539
881.000000	0.323479
882.000000	0.323225
883.000000	0.322905
884.000000	0.322759
885.000000	0.322591
886.000000	0.322335
887.000000	0.322054
888.000000	0.321927
889.000000	0.321809
890.000000	0.321532
891.000000	0.321195
892.000000	0.320942
893.000000	0.320726
894.000000	0.320584
895.000000	0.320291
896.000000	0.320061
897.000000	0.319852
898.000000	0.319581
899.000000	0.319457
900.000000	0.319420
901.000000	0.319343
902.000000	0.319165
903.000000	0.318912
904.000000	0.318779
905.000000	0.318777
906.000000	0.318498
907.000000	0.318192
908.000000	0.318028
909.000000	0.317873
910.000000	0.317702
911.000000	0.317522
912.000000	0.317352
913.000000	0.317110
914.000000	0.316912
915.000000	0.316806
916.000000	0.316614
917.000000	0.316459
918.000000	0.316299
919.000000	0.316093
920.000000	0.315972
921.000000	0.315898
922.000000	0.315858
923.000000	0.315797
924.000000	0.315551
925.000000	0.315257
926.000000	0.315079
927.000000	0.315068
928.000000	0.314827
929.000000	0.314449
930.000000	0.314191
931.000000	0.314109
932.000000	0.313917
933.000000	0.313650
934.000000	0.313582
935.000000	0.313385
936.000000	0.313133
937.000000	0.312859
938.000000	0.312623
939.000000	0.312644
940.000000	0.312688
941.000000	0.312452
942.000000	0.312029
943.000000	0.311853
944.000000	0.311938
945.000000	0.311944
946.000000	0.311774
947.000000	0.311605
948.000000	0.311554
949.000000	0.311308
950.000000	0.311116
951.000000	0.311014
952.000000	0.310940
953.000000	0.310918
954.000000	0.310871
955.000000	0.310672
956.000000	0.310387
957.000000	0.310221
958.000000	0.310148
959.000000	0.310121
960.000000	0.309728
961.000000	0.309600
962.000000	0.309755
963.000000	0.309491
964.000000	0.309071
965.000000	0.308853
966.000000	0.308882
967.000000	0.308793
968.000000	0.308580
969.000000	0.308397
970.000000	0.308532
971.000000	0.308443
972.000000	0.308403
973.000000	0.308364
974.000000	0.308021
975.000000	0.307820
976.000000	0.307640
977.000000	0.307391
978.000000	0.307466
979.000000	0.307736
980.000000	0.307743
981.000000	0.307496
982.000000	0.307332
983.000000	0.307336
984.000000	0.307439
985.000000	0.307294
986.000000	0.307235
987.000000	0.307304
988.000000	0.307348
989.000000	0.307348
990.000000	0.307326
991.000000	0.307161
992.000000	0.306889
993.000000	0.307196
994.000000	0.307253
995.000000	0.307146
996.000000	0.307221
997.000000	0.307200
998.000000	0.307247
999.000000	0.307453
1000.000000	0.307461
1001.000000	0.308221
1002.000000	0.307054
1003.000000	0.306886
1004.000000	0.306975
1005.000000	0.307503
1006.000000	0.307423
1007.000000	0.307594
1008.000000	0.307403
1009.000000	0.307293
1010.000000	0.306597
1011.000000	0.306859
1012.000000	0.307670
1013.000000	0.307142
1014.000000	0.307011
1015.000000	0.307310
1016.000000	0.306938
1017.000000	0.307229
1018.000000	0.308174
1019.000000	0.308573
1020.000000	0.309156
1021.000000	0.308959
1022.000000	0.308043
1023.000000	0.308047
1024.000000	0.307780
1025.000000	0.308274
1026.000000	0.309438
1027.000000	0.309524
1028.000000	0.308871
1029.000000	0.308970
1030.000000	0.308955
1031.000000	0.308592
1032.000000	0.308923
1033.000000	0.309020
1034.000000	0.309246
1035.000000	0.309716
1036.000000	0.310056
1037.000000	0.310272
1038.000000	0.310556
1039.000000	0.310980
1040.000000	0.311106
1041.000000	0.311688
1042.000000	0.312442
1043.000000	0.312353
1044.000000	0.312202
1045.000000	0.312308
1046.000000	0.312219
1047.000000	0.312428
1048.000000	0.313240
1049.000000	0.313513
1050.000000	0.313394
1051.000000	0.313571
1052.000000	0.313729
1053.000000	0.313823
1054.000000	0.314188
1055.000000	0.314522
1056.000000	0.314819
1057.000000	0.315174
1058.000000	0.315260
1059.000000	0.315746
1060.000000	0.316140
1061.000000	0.316084
1062.000000	0.316258
1063.000000	0.316262
1064.000000	0.316639
1065.000000	0.317267
1066.000000	0.317645
1067.000000	0.318147
1068.000000	0.318498
1069.000000	0.318316
1070.000000	0.318567
1071.000000	0.319312
1072.000000	0.319739
1073.000000	0.320069
1074.000000	0.320607
1075.000000	0.321225
1076.000000	0.321438
1077.000000	0.321694
1078.000000	0.322233
1079.000000	0.322595
1080.000000	0.322894
1081.000000	0.323122
1082.000000	0.323399
1083.000000	0.323650
1084.000000	0.323672
1085.000000	0.324012
1086.000000	0.324622
1087.000000	0.325100
1088.000000	0.325664
1089.000000	0.326032
1090.000000	0.326208
1091.000000	0.326288
1092.000000	0.326490
1093.000000	0.326866
1094.000000	0.327232
1095.000000	0.327716
1096.000000	0.328083
1097.000000	0.328424
1098.000000	0.328719
1099.000000	0.328829
1100.000000	0.329184
1101.000000	0.329604
1102.000000	0.329967
1103.000000	0.330358
1104.000000	0.330823
1105.000000	0.331329
1106.000000	0.331699
1107.000000	0.332132
1108.000000	0.332398
1109.000000	0.332510
1110.000000	0.332531
1111.000000	0.332693
1112.000000	0.332754
1113.000000	0.333190
1114.000000	0.333890
1115.000000	0.334429
1116.000000	0.335244
1117.000000	0.335707
1118.000000	0.335884
1119.000000	0.336131
1120.000000	0.336296
1121.000000	0.336475
1122.000000	0.336715
1123.000000	0.337145
1124.000000	0.337355
1125.000000	0.337687
1126.000000	0.338240
1127.000000	0.338477
1128.000000	0.338583
1129.000000	0.338512
1130.000000	0.338796
1131.000000	0.339060
1132.000000	0.339323
1133.000000	0.339965
1134.000000	0.340312
1135.000000	0.340234
1136.000000	0.340506
1137.000000	0.341060
1138.000000	0.341282
1139.000000	0.341529
1140.000000	0.341827
1141.000000	0.341724
1142.000000	0.341976
1143.000000	0.342715
1144.000000	0.343105
1145.000000	0.343222
1146.000000	0.343243
1147.000000	0.343293
1148.000000	0.342821
1149.000000	0.342965
1150.000000	0.343521
1151.000000	0.343867
1152.000000	0.344261
1153.000000	0.344616
1154.000000	0.344897
1155.000000	0.345128
1156.000000	0.345369
1157.000000	0.345564
1158.000000	0.345657
1159.000000	0.345724
1160.000000	0.345676
1161.000000	0.345738
1162.000000	0.345945
1163.000000	0.346082
1164.000000	0.346255
1165.000000	0.346527
1166.000000	0.346839
1167.000000	0.347195
1168.000000	0.347358
1169.000000	0.347518
1170.000000	0.347705
1171.000000	0.347770
1172.000000	0.347964
1173.000000	0.348323
1174.000000	0.348526
1175.000000	0.348612
1176.000000	0.348672
1177.000000	0.348657
1178.000000	0.348814
1179.000000	0.349166
1180.000000	0.349264
1181.000000	0.349428
1182.000000	0.349564
1183.000000	0.349539
1184.000000	0.349462
1185.000000	0.349620
1186.000000	0.350013
1187.000000	0.350137
1188.000000	0.350239
1189.000000	0.350337
1190.000000	0.350331
1191.000000	0.350417
1192.000000	0.350694
1193.000000	0.351017
1194.000000	0.351257
1195.000000	0.351459
1196.000000	0.351662
1197.000000	0.351801
1198.000000	0.351872
1199.000000	0.351932
1200.000000	0.351912
1201.000000	0.351966
1202.000000	0.352048
1203.000000	0.352134
1204.000000	0.352220
1205.000000	0.352371
1206.000000	0.352367
1207.000000	0.352306
1208.000000	0.352359
1209.000000	0.352512
1210.000000	0.352550
1211.000000	0.352622
1212.000000	0.352645
1213.000000	0.352531
1214.000000	0.352632
1215.000000	0.352893
1216.000000	0.353038
1217.000000	0.353212
1218.000000	0.353303
1219.000000	0.353336
1220.000000	0.353320
1221.000000	0.353504
1222.000000	0.353552
1223.000000	0.353642
1224.000000	0.353909
1225.000000	0.353916
1226.000000	0.353941
1227.000000	0.353983
1228.000000	0.353925
1229.000000	0.353836
1230.000000	0.353661
1231.000000	0.353585
1232.000000	0.353634
1233.000000	0.353758
1234.000000	0.353997
1235.000000	0.354094
1236.000000	0.353987
1237.000000	0.354073
1238.000000	0.354206
1239.000000	0.354298
1240.000000	0.354536
1241.000000	0.354534
1242.000000	0.354447
1243.000000	0.354347
1244.000000	0.354211
1245.000000	0.354330
1246.000000	0.354425
1247.000000	0.354472
1248.000000	0.354712
1249.000000	0.354840
1250.000000	0.354771
1251.000000	0.354891
1252.000000	0.354988
1253.000000	0.355074
1254.000000	0.355113
1255.000000	0.355231
1256.000000	0.355207
1257.000000	0.355043
1258.000000	0.354976
1259.000000	0.354791
1260.000000	0.354827
1261.000000	0.354888
1262.000000	0.354970
1263.000000	0.355245
1264.000000	0.355384
1265.000000	0.355472
1266.000000	0.355538
1267.000000	0.355515
1268.000000	0.355495
1269.000000	0.355441
1270.000000	0.355385
1271.000000	0.355288
1272.000000	0.355283
1273.000000	0.355430
1274.000000	0.355529
1275.000000	0.355568
1276.000000	0.355641
1277.000000	0.355802
1278.000000	0.355851
1279.000000	0.355866
1280.000000	0.355912
1281.000000	0.355832
1282.000000	0.355627
1283.000000	0.355610
1284.000000	0.355439
1285.000000	0.355483
1286.000000	0.355715
1287.000000	0.355894
1288.000000	0.355962
1289.000000	0.356042
1290.000000	0.355809
1291.000000	0.355516
1292.000000	0.355463
1293.000000	0.355544
1294.000000	0.355647
1295.000000	0.355748
1296.000000	0.355758
1297.000000	0.355734
1298.000000	0.355660
1299.000000	0.355646
1300.000000	0.355841
1301.000000	0.355965
1302.000000	0.355963
1303.000000	0.356109
1304.000000	0.356056
1305.000000	0.355873
1306.000000	0.355773
1307.000000	0.355737
1308.000000	0.355750
1309.000000	0.355776
1310.000000	0.355758
1311.000000	0.355786
1312.000000	0.355739
1313.000000	0.355694
1314.000000	0.355676
1315.000000	0.355735
1316.000000	0.355838
1317.000000	0.355785
1318.000000	0.355784
1319.000000	0.355713
1320.000000	0.355496
1321.000000	0.355317
1322.000000	0.355127
1323.000000	0.354946
1324.000000	0.354931
1325.000000	0.355024
1326.000000	0.355013
1327.000000	0.354870
1328.000000	0.354808
1329.000000	0.354658
1330.000000	0.354406
1331.000000	0.354259
1332.000000	0.354217
1333.000000	0.354098
1334.000000	0.354057
1335.000000	0.354003
1336.000000	0.353917
1337.000000	0.353791
1338.000000	0.353571
1339.000000	0.353382
1340.000000	0.353178
1341.000000	0.353069
1342.000000	0.353017
1343.000000	0.352920
1344.000000	0.352942
1345.000000	0.352866
1346.000000	0.352817
1347.000000	0.352799
1348.000000	0.352730
1349.000000	0.352683
1350.000000	0.352709
1351.000000	0.352648
1352.000000	0.352541
1353.000000	0.352348
1354.000000	0.352250
1355.000000	0.352173
1356.000000	0.352230
1357.000000	0.352239
1358.000000	0.352026
1359.000000	0.351913
1360.000000	0.351801
1361.000000	0.351597
1362.000000	0.351530
1363.000000	0.351660
1364.000000	0.351599
1365.000000	0.351397
1366.000000	0.351292
1367.000000	0.351207
1368.000000	0.350999
1369.000000	0.350915
1370.000000	0.350827
1371.000000	0.350450
1372.000000	0.350074
1373.000000	0.349758
1374.000000	0.349439
1375.000000	0.349213
1376.000000	0.349072
1377.000000	0.349040
1378.000000	0.348875
1379.000000	0.348406
1380.000000	0.347989
1381.000000	0.347447
1382.000000	0.346783
1383.000000	0.346393
1384.000000	0.346026
1385.000000	0.345437
1386.000000	0.344898
1387.000000	0.344419
1388.000000	0.343722
1389.000000	0.342951
1390.000000	0.342171
1391.000000	0.341340
1392.000000	0.340624
1393.000000	0.339855
1394.000000	0.339232
1395.000000	0.338496
1396.000000	0.337617
1397.000000	0.336758
1398.000000	0.335846
1399.000000	0.335006
1400.000000	0.334242
1401.000000	0.333394
1402.000000	0.332611
1403.000000	0.331618
1404.000000	0.330795
1405.000000	0.329856
1406.000000	0.328980
1407.000000	0.328418
1408.000000	0.327674
1409.000000	0.327006
1410.000000	0.326330
1411.000000	0.325353
1412.000000	0.324476
1413.000000	0.323741
1414.000000	0.323127
1415.000000	0.322786
1416.000000	0.322467
1417.000000	0.322172
1418.000000	0.321884
1419.000000	0.321644
1420.000000	0.321379
1421.000000	0.321082
1422.000000	0.320723
1423.000000	0.320365
1424.000000	0.320011
1425.000000	0.319643
1426.000000	0.319183
1427.000000	0.318758
1428.000000	0.318205
1429.000000	0.317697
1430.000000	0.317380
1431.000000	0.317070
1432.000000	0.316820
1433.000000	0.316691
1434.000000	0.316572
1435.000000	0.316596
1436.000000	0.316680
1437.000000	0.316765
1438.000000	0.316949
1439.000000	0.317186
1440.000000	0.317569
1441.000000	0.318203
1442.000000	0.318805
1443.000000	0.319476
1444.000000	0.320030
1445.000000	0.320489
1446.000000	0.320967
1447.000000	0.321510
1448.000000	0.322022
1449.000000	0.322510
1450.000000	0.322923
1451.000000	0.323105
1452.000000	0.323202
1453.000000	0.323312
1454.000000	0.323315
1455.000000	0.323379
1456.000000	0.323545
1457.000000	0.323637
1458.000000	0.323686
1459.000000	0.323770
1460.000000	0.323830
1461.000000	0.323839
1462.000000	0.323941
1463.000000	0.324031
1464.000000	0.324086
1465.000000	0.324238
1466.000000	0.324283
1467.000000	0.324281
1468.000000	0.324281
1469.000000	0.324270
1470.000000	0.324300
1471.000000	0.324453
1472.000000	0.324594
1473.000000	0.324734
1474.000000	0.324849
1475.000000	0.324901
1476.000000	0.325012
1477.000000	0.325367
1478.000000	0.325756
1479.000000	0.326123
1480.000000	0.326549
1481.000000	0.326816
1482.000000	0.326890
1483.000000	0.327213
1484.000000	0.327625
1485.000000	0.327902
1486.000000	0.328268
1487.000000	0.328564
1488.000000	0.328723
1489.000000	0.328970
1490.000000	0.329127
1491.000000	0.329353
1492.000000	0.329517
1493.000000	0.329768
1494.000000	0.330066
1495.000000	0.330349
1496.000000	0.330701
1497.000000	0.330945
1498.000000	0.331140
1499.000000	0.331364
1500.000000	0.331633
1501.000000	0.331858
1502.000000	0.332036
1503.000000	0.332409
1504.000000	0.332666
1505.000000	0.332745
1506.000000	0.333140
1507.000000	0.333449
1508.000000	0.333544
1509.000000	0.333698
1510.000000	0.333635
1511.000000	0.333529
1512.000000	0.333602
1513.000000	0.333783
1514.000000	0.334043
1515.000000	0.334148
1516.000000	0.334230
1517.000000	0.334281
1518.000000	0.334317
1519.000000	0.334403
1520.000000	0.334528
1521.000000	0.334666
1522.000000	0.334809
1523.000000	0.334920
1524.000000	0.334961
1525.000000	0.335017
1526.000000	0.335110
1527.000000	0.335291
1528.000000	0.335475
1529.000000	0.335588
1530.000000	0.335621
1531.000000	0.335713
1532.000000	0.335935
1533.000000	0.336131
1534.000000	0.336322
1535.000000	0.336515
1536.000000	0.336539
1537.000000	0.336536
1538.000000	0.336547
1539.000000	0.336593
1540.000000	0.336703
1541.000000	0.336770
1542.000000	0.336804
1543.000000	0.336836
1544.000000	0.336807
1545.000000	0.336913
1546.000000	0.337105
1547.000000	0.337138
1548.000000	0.337133
1549.000000	0.337098
1550.000000	0.336923
1551.000000	0.336857
1552.000000	0.337031
1553.000000	0.337078
1554.000000	0.337066
1555.000000	0.337279
1556.000000	0.337388
1557.000000	0.337440
1558.000000	0.337587
1559.000000	0.337853
1560.000000	0.337858
1561.000000	0.337790
1562.000000	0.337759
1563.000000	0.337612
1564.000000	0.337608
1565.000000	0.337722
1566.000000	0.337676
1567.000000	0.337759
1568.000000	0.337725
1569.000000	0.337596
1570.000000	0.337527
1571.000000	0.337418
1572.000000	0.337355
1573.000000	0.337394
1574.000000	0.337381
1575.000000	0.337301
1576.000000	0.337375
1577.000000	0.337562
1578.000000	0.337537
1579.000000	0.337582
1580.000000	0.337589
1581.000000	0.337443
1582.000000	0.337437
1583.000000	0.337609
1584.000000	0.337552
1585.000000	0.337435
1586.000000	0.337443
1587.000000	0.337443
1588.000000	0.337415
1589.000000	0.337472
1590.000000	0.337478
1591.000000	0.337373
1592.000000	0.337430
1593.000000	0.337634
1594.000000	0.337741
1595.000000	0.337962
1596.000000	0.338095
1597.000000	0.338201
1598.000000	0.338254
1599.000000	0.338252
1600.000000	0.338264
1601.000000	0.338366
1602.000000	0.338355
1603.000000	0.338388
1604.000000	0.338352
1605.000000	0.338159
1606.000000	0.338076
1607.000000	0.338130
1608.000000	0.338034
1609.000000	0.337912
1610.000000	0.337858
1611.000000	0.337831
1612.000000	0.337762
1613.000000	0.337821
1614.000000	0.337852
1615.000000	0.337896
1616.000000	0.337925
1617.000000	0.337962
1618.000000	0.337943
1619.000000	0.337725
1620.000000	0.337742
1621.000000	0.337970
1622.000000	0.338089
1623.000000	0.338219
1624.000000	0.338338
1625.000000	0.338226
1626.000000	0.338214
1627.000000	0.338308
1628.000000	0.338376
1629.000000	0.338396
1630.000000	0.338467
1631.000000	0.338510
1632.000000	0.338538
1633.000000	0.338609
1634.000000	0.338643
1635.000000	0.338680
1636.000000	0.338738
1637.000000	0.338827
1638.000000	0.338807
1639.000000	0.338782
1640.000000	0.338798
1641.000000	0.338907
1642.000000	0.338896
1643.000000	0.338877
1644.000000	0.338877
1645.000000	0.338768
1646.000000	0.338691
1647.000000	0.338728
1648.000000	0.338738
1649.000000	0.338781
1650.000000	0.338861
1651.000000	0.339068
1652.000000	0.339236
1653.000000	0.339325
1654.000000	0.339452
1655.000000	0.339535
1656.000000	0.339583
1657.000000	0.339713
1658.000000	0.339765
1659.000000	0.339947
1660.000000	0.339991
1661.000000	0.339771
1662.000000	0.339772
1663.000000	0.339781
1664.000000	0.339768
1665.000000	0.339873
1666.000000	0.339977
1667.000000	0.339910
1668.000000	0.339911
1669.000000	0.339957
1670.000000	0.339922
1671.000000	0.339936
1672.000000	0.340065
1673.000000	0.340221
1674.000000	0.340352
1675.000000	0.340502
1676.000000	0.340482
1677.000000	0.340527
1678.000000	0.340614
1679.000000	0.340582
1680.000000	0.340614
1681.000000	0.340689
1682.000000	0.340751
1683.000000	0.340758
1684.000000	0.340827
1685.000000	0.340909
1686.000000	0.340903
1687.000000	0.341156
1688.000000	0.341358
1689.000000	0.341483
1690.000000	0.341471
1691.000000	0.341453
1692.000000	0.341410
1693.000000	0.341261
1694.000000	0.341210
1695.000000	0.341297
1696.000000	0.341292
1697.000000	0.341220
1698.000000	0.341157
1699.000000	0.341188
1700.000000	0.341261
1701.000000	0.341382
1702.000000	0.341407
1703.000000	0.341387
1704.000000	0.341391
1705.000000	0.341393
1706.000000	0.341472
1707.000000	0.341505
1708.000000	0.341474
1709.000000	0.341376
1710.000000	0.341286
1711.000000	0.341291
1712.000000	0.341388
1713.000000	0.341371
1714.000000	0.341377
1715.000000	0.341407
1716.000000	0.341295
1717.000000	0.341386
1718.000000	0.341738
1719.000000	0.341825
1720.000000	0.341917
1721.000000	0.341952
1722.000000	0.341859
1723.000000	0.341742
1724.000000	0.341586
1725.000000	0.341543
1726.000000	0.341342
1727.000000	0.341285
1728.000000	0.341385
1729.000000	0.341285
1730.000000	0.341211
1731.000000	0.341213
1732.000000	0.341238
1733.000000	0.341290
1734.000000	0.341311
1735.000000	0.341241
1736.000000	0.341024
1737.000000	0.340921
1738.000000	0.340792
1739.000000	0.340855
1740.000000	0.341064
1741.000000	0.341106
1742.000000	0.341205
1743.000000	0.341305
1744.000000	0.341326
1745.000000	0.341236
1746.000000	0.341089
1747.000000	0.341228
1748.000000	0.341172
1749.000000	0.341304
1750.000000	0.341296
1751.000000	0.341019
1752.000000	0.341023
1753.000000	0.341118
1754.000000	0.341124
1755.000000	0.341114
1756.000000	0.341075
1757.000000	0.340942
1758.000000	0.340870
1759.000000	0.340730
1760.000000	0.340754
1761.000000	0.340925
1762.000000	0.340940
1763.000000	0.341002
1764.000000	0.341064
1765.000000	0.340968
1766.000000	0.340933
1767.000000	0.340924
1768.000000	0.340822
1769.000000	0.340690
1770.000000	0.340678
1771.000000	0.340707
1772.000000	0.340655
1773.000000	0.340465
1774.000000	0.340519
1775.000000	0.340738
1776.000000	0.340813
1777.000000	0.340983
1778.000000	0.341025
1779.000000	0.340894
1780.000000	0.340785
1781.000000	0.340625
1782.000000	0.340585
1783.000000	0.340525
1784.000000	0.340715
1785.000000	0.340788
1786.000000	0.340829
1787.000000	0.340921
1788.000000	0.341120
1789.000000	0.341238
1790.000000	0.340854
1791.000000	0.340764
1792.000000	0.340769
1793.000000	0.340771
1794.000000	0.341203
1795.000000	0.341356
1796.000000	0.341121
1797.000000	0.341093
1798.000000	0.341067
1799.000000	0.341096
1800.000000	0.341341
1801.000000	0.341362
1802.000000	0.341175
1803.000000	0.340967
1804.000000	0.341646
1805.000000	0.344264
1806.000000	0.344891
1807.000000	0.345099
1808.000000	0.345152
1809.000000	0.343756
1810.000000	0.342799
1811.000000	0.343054
1812.000000	0.344567
1813.000000	0.345045
1814.000000	0.346041
1815.000000	0.346455
1816.000000	0.346135
1817.000000	0.345796
1818.000000	0.345454
1819.000000	0.345262
1820.000000	0.344762
1821.000000	0.344464
1822.000000	0.343870
1823.000000	0.343232
1824.000000	0.342430
1825.000000	0.340399
1826.000000	0.340003
1827.000000	0.340077
1828.000000	0.340730
1829.000000	0.341884
1830.000000	0.343517
1831.000000	0.344240
1832.000000	0.344686
1833.000000	0.344759
1834.000000	0.344458
1835.000000	0.343995
1836.000000	0.342658
1837.000000	0.341991
1838.000000	0.341570
1839.000000	0.340409
1840.000000	0.340071
1841.000000	0.340284
1842.000000	0.340336
1843.000000	0.340696
1844.000000	0.340897
1845.000000	0.340999
1846.000000	0.340947
1847.000000	0.340389
1848.000000	0.340301
1849.000000	0.340432
1850.000000	0.340062
1851.000000	0.339932
1852.000000	0.340055
1853.000000	0.339784
1854.000000	0.339077
1855.000000	0.338784
1856.000000	0.338605
1857.000000	0.337912
1858.000000	0.337753
1859.000000	0.336933
1860.000000	0.336169
1861.000000	0.335894
1862.000000	0.335702
1863.000000	0.336135
1864.000000	0.335984
1865.000000	0.335911
1866.000000	0.335432
1867.000000	0.334537
1868.000000	0.333315
1869.000000	0.332031
1870.000000	0.331107
1871.000000	0.329841
1872.000000	0.328726
1873.000000	0.327753
1874.000000	0.326956
1875.000000	0.325702
1876.000000	0.324040
1877.000000	0.322496
1878.000000	0.320886
1879.000000	0.319049
1880.000000	0.317939
1881.000000	0.316587
1882.000000	0.314048
1883.000000	0.312290
1884.000000	0.310523
1885.000000	0.308219
1886.000000	0.306112
1887.000000	0.304718
1888.000000	0.302444
1889.000000	0.299258
1890.000000	0.296185
1891.000000	0.292651
1892.000000	0.289390
1893.000000	0.286361
1894.000000	0.283337
1895.000000	0.280009
1896.000000	0.276746
1897.000000	0.273076
1898.000000	0.269548
1899.000000	0.266789
1900.000000	0.264249
1901.000000	0.261670
1902.000000	0.259338
1903.000000	0.256794
1904.000000	0.254699
1905.000000	0.253323
1906.000000	0.251589
1907.000000	0.249867
1908.000000	0.248307
1909.000000	0.247119
1910.000000	0.245736
1911.000000	0.244557
1912.000000	0.243810
1913.000000	0.243090
1914.000000	0.242280
1915.000000	0.242032
1916.000000	0.241976
1917.000000	0.241745
1918.000000	0.241566
1919.000000	0.241588
1920.000000	0.241660
1921.000000	0.242155
1922.000000	0.242520
1923.000000	0.242672
1924.000000	0.242595
1925.000000	0.242401
1926.000000	0.242425
1927.000000	0.242927
1928.000000	0.243107
1929.000000	0.243390
1930.000000	0.243277
1931.000000	0.243415
1932.000000	0.243106
1933.000000	0.243389
1934.000000	0.244251
1935.000000	0.244837
1936.000000	0.246120
1937.000000	0.247017
1938.000000	0.247405
1939.000000	0.247597
1940.000000	0.247516
1941.000000	0.246947
1942.000000	0.246681
1943.000000	0.246201
1944.000000	0.245920
1945.000000	0.246157
1946.000000	0.246163
1947.000000	0.246011
1948.000000	0.246348
1949.000000	0.246904
1950.000000	0.247261
1951.000000	0.247407
1952.000000	0.247849
1953.000000	0.247818
1954.000000	0.247244
1955.000000	0.246885
1956.000000	0.247011
1957.000000	0.247276
1958.000000	0.247735
1959.000000	0.247991
1960.000000	0.247761
1961.000000	0.247853
1962.000000	0.247799
1963.000000	0.247547
1964.000000	0.247466
1965.000000	0.247856
1966.000000	0.248130
1967.000000	0.248733
1968.000000	0.248875
1969.000000	0.248862
1970.000000	0.249092
1971.000000	0.248575
1972.000000	0.248718
1973.000000	0.249012
1974.000000	0.249687
1975.000000	0.250002
1976.000000	0.250443
1977.000000	0.250971
1978.000000	0.251426
1979.000000	0.252094
1980.000000	0.252536
1981.000000	0.252898
1982.000000	0.252937
1983.000000	0.253143
1984.000000	0.253713
1985.000000	0.254831
1986.000000	0.255588
1987.000000	0.256668
1988.000000	0.257437
1989.000000	0.257448
1990.000000	0.257762
1991.000000	0.257829
1992.000000	0.257978
1993.000000	0.258592
1994.000000	0.259170
1995.000000	0.259846
1996.000000	0.260570
1997.000000	0.261068
1998.000000	0.261464
1999.000000	0.261975
2000.000000	0.262572
2001.000000	0.262681
2002.000000	0.262916
2003.000000	0.263246
2004.000000	0.263614
2005.000000	0.264243
2006.000000	0.264932
2007.000000	0.265432
2008.000000	0.266030
2009.000000	0.266391
2010.000000	0.267017
2011.000000	0.267865
2012.000000	0.268571
2013.000000	0.269186
2014.000000	0.269777
2015.000000	0.270619
2016.000000	0.271353
2017.000000	0.271735
2018.000000	0.272508
2019.000000	0.273169
2020.000000	0.273691
2021.000000	0.274529
2022.000000	0.275952
2023.000000	0.276599
2024.000000	0.277037
2025.000000	0.277581
2026.000000	0.277771
2027.000000	0.277675
2028.000000	0.278238
2029.000000	0.278855
2030.000000	0.279381
2031.000000	0.280141
2032.000000	0.280822
2033.000000	0.281826
2034.000000	0.282752
2035.000000	0.284168
2036.000000	0.284869
2037.000000	0.285306
2038.000000	0.285871
2039.000000	0.286428
2040.000000	0.286315
2041.000000	0.286851
2042.000000	0.287266
2043.000000	0.287301
2044.000000	0.287685
2045.000000	0.287783
2046.000000	0.287660
2047.000000	0.287875
2048.000000	0.287953
2049.000000	0.288629
2050.000000	0.289551
2051.000000	0.290229
2052.000000	0.290973
2053.000000	0.291315
2054.000000	0.291512
2055.000000	0.292108
2056.000000	0.292337
2057.000000	0.293323
2058.000000	0.294140
2059.000000	0.294845
2060.000000	0.295030
2061.000000	0.294637
2062.000000	0.294520
2063.000000	0.293974
2064.000000	0.293851
2065.000000	0.294714
2066.000000	0.294742
2067.000000	0.294615
2068.000000	0.294664
2069.000000	0.294821
2070.000000	0.294949
2071.000000	0.295319
2072.000000	0.295782
2073.000000	0.295694
2074.000000	0.295556
2075.000000	0.295890
2076.000000	0.296487
2077.000000	0.296987
2078.000000	0.297815
2079.000000	0.298501
2080.000000	0.299439
2081.000000	0.299879
2082.000000	0.300138
2083.000000	0.300263
2084.000000	0.300193
2085.000000	0.299823
2086.000000	0.299838
2087.000000	0.299976
2088.000000	0.299782
2089.000000	0.299926
2090.000000	0.300359
2091.000000	0.301047
2092.000000	0.302014
2093.000000	0.303828
2094.000000	0.304656
2095.000000	0.305600
2096.000000	0.306103
2097.000000	0.305696
2098.000000	0.305478
2099.000000	0.305181
2100.000000	0.304258
2101.000000	0.303810
2102.000000	0.303664
2103.000000	0.304327
2104.000000	0.304923
2105.000000	0.305354
2106.000000	0.305774
2107.000000	0.306160
2108.000000	0.306343
2109.000000	0.306950
2110.000000	0.307775
2111.000000	0.308283
2112.000000	0.309014
2113.000000	0.308725
2114.000000	0.308590
2115.000000	0.308411
2116.000000	0.308469
2117.000000	0.308782
2118.000000	0.308819
2119.000000	0.309336
2120.000000	0.309769
2121.000000	0.310329
2122.000000	0.310567
2123.000000	0.310708
2124.000000	0.310818
2125.000000	0.311103
2126.000000	0.310780
2127.000000	0.309478
2128.000000	0.309448
2129.000000	0.309794
2130.000000	0.309625
2131.000000	0.309919
2132.000000	0.310801
2133.000000	0.311219
2134.000000	0.311305
2135.000000	0.311650
2136.000000	0.312365
2137.000000	0.312314
2138.000000	0.311367
2139.000000	0.310906
2140.000000	0.310245
2141.000000	0.309853
2142.000000	0.309510
2143.000000	0.309257
2144.000000	0.309865
2145.000000	0.309738
2146.000000	0.309197
2147.000000	0.309434
2148.000000	0.308505
2149.000000	0.307708
2150.000000	0.308237
2151.000000	0.308203
2152.000000	0.308816
2153.000000	0.309730
2154.000000	0.310249
2155.000000	0.310811
2156.000000	0.310934
2157.000000	0.311018
2158.000000	0.310427
2159.000000	0.308597
2160.000000	0.308022
2161.000000	0.307458
2162.000000	0.307413
2163.000000	0.308538
2164.000000	0.308879
2165.000000	0.308839
2166.000000	0.309339
2167.000000	0.309029
2168.000000	0.308030
2169.000000	0.307853
2170.000000	0.307409
2171.000000	0.307324
2172.000000	0.307744
2173.000000	0.308352
2174.000000	0.309170
2175.000000	0.309709
2176.000000	0.310591
2177.000000	0.311219
2178.000000	0.311733
2179.000000	0.312047
2180.000000	0.312007
2181.000000	0.312297
2182.000000	0.311866
2183.000000	0.311612
2184.000000	0.311819
2185.000000	0.311627
2186.000000	0.310281
2187.000000	0.308479
2188.000000	0.306654
2189.000000	0.305638
2190.000000	0.305834
2191.000000	0.307394
2192.000000	0.307679
2193.000000	0.307985
2194.000000	0.307656
2195.000000	0.306071
2196.000000	0.305045
2197.000000	0.303363
2198.000000	0.303163
2199.000000	0.304476
2200.000000	0.304996
2201.000000	0.307231
2202.000000	0.307616
2203.000000	0.305875
2204.000000	0.303858
2205.000000	0.303300
2206.000000	0.301873
2207.000000	0.301209
2208.000000	0.304254
2209.000000	0.308038
2210.000000	0.308963
2211.000000	0.308416
2212.000000	0.307892
2213.000000	0.307305
2214.000000	0.304285
2215.000000	0.304496
2216.000000	0.307682
2217.000000	0.308149
2218.000000	0.308571
2219.000000	0.307628
2220.000000	0.304011
2221.000000	0.302878
2222.000000	0.301883
2223.000000	0.302107
2224.000000	0.304135
2225.000000	0.306049
2226.000000	0.307906
2227.000000	0.307836
2228.000000	0.306229
2229.000000	0.304917
2230.000000	0.303922
2231.000000	0.304708
2232.000000	0.306793
2233.000000	0.308117
2234.000000	0.309146
2235.000000	0.308717
2236.000000	0.307200
2237.000000	0.304374
2238.000000	0.302160
2239.000000	0.297537
2240.000000	0.297032
2241.000000	0.298302
2242.000000	0.299751
2243.000000	0.304621
2244.000000	0.306214
2245.000000	0.306957
2246.000000	0.306979
2247.000000	0.304655
2248.000000	0.303816
2249.000000	0.302918
2250.000000	0.302883
2251.000000	0.302630
2252.000000	0.302080
2253.000000	0.301324
2254.000000	0.300265
2255.000000	0.300165
2256.000000	0.300547
2257.000000	0.299316
2258.000000	0.298942
2259.000000	0.298152
2260.000000	0.295117
2261.000000	0.294065
2262.000000	0.294238
2263.000000	0.292952
2264.000000	0.291453
2265.000000	0.291402
2266.000000	0.290875
2267.000000	0.291322
2268.000000	0.293768
2269.000000	0.294943
2270.000000	0.297297
2271.000000	0.296391
2272.000000	0.292987
2273.000000	0.290558
2274.000000	0.284553
2275.000000	0.282244
2276.000000	0.282284
2277.000000	0.283502
2278.000000	0.283830
2279.000000	0.284184
2280.000000	0.283577
2281.000000	0.282302
2282.000000	0.280554
2283.000000	0.280429
2284.000000	0.279996
2285.000000	0.277915
2286.000000	0.277435
2287.000000	0.277067
2288.000000	0.277479
2289.000000	0.278680
2290.000000	0.280370
2291.000000	0.283242
2292.000000	0.284049
2293.000000	0.284452
2294.000000	0.284992
2295.000000	0.284169
2296.000000	0.284289
2297.000000	0.285432
2298.000000	0.285610
2299.000000	0.286544
2300.000000	0.286213
2301.000000	0.283619
2302.000000	0.283154
2303.000000	0.282807
2304.000000	0.282427
2305.000000	0.283357
2306.000000	0.284131
2307.000000	0.284562
2308.000000	0.285544
2309.000000	0.286397
2310.000000	0.286383
2311.000000	0.288202
2312.000000	0.288802
2313.000000	0.289534
2314.000000	0.291842
2315.000000	0.289823
2316.000000	0.288160
2317.000000	0.285557
2318.000000	0.282021
2319.000000	0.281642
2320.000000	0.280899
2321.000000	0.283400
2322.000000	0.287726
2323.000000	0.290295
2324.000000	0.292452
2325.000000	0.289864
2326.000000	0.286260
2327.000000	0.285964
2328.000000	0.284410
2329.000000	0.283570
2330.000000	0.283811
2331.000000	0.283384
2332.000000	0.282051
2333.000000	0.282102
2334.000000	0.284027
2335.000000	0.283625
2336.000000	0.280901
2337.000000	0.279766
2338.000000	0.276483
2339.000000	0.275301
2340.000000	0.276759
2341.000000	0.276128
2342.000000	0.276526
2343.000000	0.275901
2344.000000	0.272112
2345.000000	0.270982
2346.000000	0.271932
2347.000000	0.270442
2348.000000	0.268848
2349.000000	0.267577
2350.000000	0.263719
2351.000000	0.261211
2352.000000	0.262112
2353.000000	0.263437
2354.000000	0.265062
2355.000000	0.266933
2356.000000	0.266520
2357.000000	0.268603
2358.000000	0.269933
2359.000000	0.267963
2360.000000	0.266850
2361.000000	0.260643
2362.000000	0.253492
2363.000000	0.251859
2364.000000	0.251235
2365.000000	0.254258
2366.000000	0.258254
2367.000000	0.261005
2368.000000	0.263247
2369.000000	0.260399
2370.000000	0.258863
2371.000000	0.255283
2372.000000	0.250087
2373.000000	0.250702
2374.000000	0.249756
2375.000000	0.255945
2376.000000	0.265860
2377.000000	0.269203
2378.000000	0.272717
2379.000000	0.268563
2380.000000	0.257990
2381.000000	0.251731
2382.000000	0.247624
2383.000000	0.245045
2384.000000	0.249021
2385.000000	0.256219
2386.000000	0.260266
2387.000000	0.260657
2388.000000	0.257589
2389.000000	0.253434
2390.000000	0.250512
2391.000000	0.251209
2392.000000	0.255209
2393.000000	0.256429
2394.000000	0.252780
2395.000000	0.247638
2396.000000	0.236422
2397.000000	0.224704
2398.000000	0.221881
2399.000000	0.223815
2400.000000	0.231708
2401.000000	0.239068
2402.000000	0.244288
2403.000000	0.247738
2404.000000	0.245138
2405.000000	0.246402
2406.000000	0.241907
2407.000000	0.232586
2408.000000	0.231102
2409.000000	0.227694
2410.000000	0.231674
2411.000000	0.242587
2412.000000	0.247379
2413.000000	0.250636
2414.000000	0.254452
2415.000000	0.255091
2416.000000	0.256376
2417.000000	0.268007
2418.000000	0.270834
2419.000000	0.263365
2420.000000	0.260044
2421.000000	0.245281
2422.000000	0.234115
2423.000000	0.231257
2424.000000	0.224907
2425.000000	0.225629
2426.000000	0.227119
2427.000000	0.220198
2428.000000	0.211477
2429.000000	0.205196
2430.000000	0.202964
2431.000000	0.207780
2432.000000	0.218072
2433.000000	0.225287
2434.000000	0.224147
2435.000000	0.222209
2436.000000	0.218494
2437.000000	0.219991
2438.000000	0.219620
2439.000000	0.216156
2440.000000	0.230304
2441.000000	0.233183
2442.000000	0.226522
2443.000000	0.242188
2444.000000	0.254526
2445.000000	0.247182
2446.000000	0.249804
2447.000000	0.240524
2448.000000	0.208939
2449.000000	0.209597
2450.000000	0.214117
2451.000000	0.204969
2452.000000	0.219471
2453.000000	0.228256
2454.000000	0.231925
2455.000000	0.248900
2456.000000	0.254900
2457.000000	0.248816
2458.000000	0.241647
2459.000000	0.238991
2460.000000	0.240259
2461.000000	0.233655
2462.000000	0.230820
2463.000000	0.227317
2464.000000	0.210625
2465.000000	0.204245
2466.000000	0.201538
2467.000000	0.196454
2468.000000	0.202754
2469.000000	0.195100
2470.000000	0.183250
2471.000000	0.179091
2472.000000	0.177130
2473.000000	0.189610
2474.000000	0.212798
2475.000000	0.249671
2476.000000	0.264467
2477.000000	0.261256
2478.000000	0.265918
2479.000000	0.243431
2480.000000	0.219252
2481.000000	0.205103
2482.000000	0.197587
2483.000000	0.191136
2484.000000	0.161684
2485.000000	0.167335
2486.000000	0.175837
2487.000000	0.174478
2488.000000	0.233310
2489.000000	0.267237
2490.000000	0.268187
2491.000000	0.264483
2492.000000	0.263139
2493.000000	0.282333
2494.000000	0.294964
2495.000000	0.314490
2496.000000	0.293387
2497.000000	0.224503
2498.000000	0.188367
2499.000000	0.135112
2500.000000	0.123459
