# Wavelength	NAu-1-10_HEX-50_FV7-40_00001.asd.rts.txt
350.000000	0.236209
351.000000	0.208602
352.000000	0.189491
353.000000	0.193697
354.000000	0.214010
355.000000	0.206665
356.000000	0.206997
357.000000	0.215280
358.000000	0.204246
359.000000	0.200508
360.000000	0.206222
361.000000	0.215556
362.000000	0.217138
363.000000	0.210891
364.000000	0.201945
365.000000	0.207147
366.000000	0.213428
367.000000	0.215119
368.000000	0.212464
369.000000	0.207812
370.000000	0.206463
371.000000	0.212510
372.000000	0.212929
373.000000	0.211330
374.000000	0.211843
375.000000	0.214012
376.000000	0.213092
377.000000	0.211448
378.000000	0.219123
379.000000	0.223065
380.000000	0.222274
381.000000	0.220823
382.000000	0.222916
383.000000	0.223118
384.000000	0.219042
385.000000	0.218144
386.000000	0.219420
387.000000	0.221249
388.000000	0.220631
389.000000	0.222291
390.000000	0.224710
391.000000	0.224299
392.000000	0.223556
393.000000	0.224291
394.000000	0.226781
395.000000	0.227066
396.000000	0.227258
397.000000	0.227945
398.000000	0.227607
399.000000	0.228326
400.000000	0.229773
401.000000	0.230492
402.000000	0.230084
403.000000	0.230912
404.000000	0.234159
405.000000	0.233533
406.000000	0.233887
407.000000	0.236516
408.000000	0.236085
409.000000	0.235609
410.000000	0.236083
411.000000	0.237489
412.000000	0.236995
413.000000	0.236900
414.000000	0.239468
415.000000	0.239439
416.000000	0.239348
417.000000	0.240584
418.000000	0.240787
419.000000	0.241128
420.000000	0.241766
421.000000	0.242061
422.000000	0.242296
423.000000	0.242440
424.000000	0.242491
425.000000	0.242693
426.000000	0.242996
427.000000	0.243317
428.000000	0.243709
429.000000	0.243863
430.000000	0.243843
431.000000	0.244198
432.000000	0.244653
433.000000	0.244961
434.000000	0.245000
435.000000	0.245304
436.000000	0.245628
437.000000	0.245655
438.000000	0.245580
439.000000	0.245600
440.000000	0.245841
441.000000	0.246007
442.000000	0.246106
443.000000	0.246010
444.000000	0.245667
445.000000	0.245935
446.000000	0.246543
447.000000	0.246800
448.000000	0.247197
449.000000	0.247631
450.000000	0.248065
451.000000	0.248771
452.000000	0.249628
453.000000	0.250453
454.000000	0.251185
455.000000	0.251922
456.000000	0.252881
457.000000	0.254122
458.000000	0.255370
459.000000	0.256439
460.000000	0.257264
461.000000	0.257826
462.000000	0.258473
463.000000	0.259192
464.000000	0.259911
465.000000	0.260343
466.000000	0.260587
467.000000	0.261155
468.000000	0.261885
469.000000	0.262306
470.000000	0.262239
471.000000	0.262687
472.000000	0.263234
473.000000	0.263610
474.000000	0.264198
475.000000	0.264620
476.000000	0.264898
477.000000	0.265096
478.000000	0.265423
479.000000	0.265909
480.000000	0.266149
481.000000	0.266390
482.000000	0.266706
483.000000	0.266940
484.000000	0.267413
485.000000	0.267842
486.000000	0.268242
487.000000	0.268576
488.000000	0.268833
489.000000	0.269108
490.000000	0.269551
491.000000	0.269918
492.000000	0.270264
493.000000	0.270591
494.000000	0.271085
495.000000	0.271559
496.000000	0.271885
497.000000	0.272423
498.000000	0.272846
499.000000	0.273171
500.000000	0.273624
501.000000	0.274017
502.000000	0.274389
503.000000	0.274787
504.000000	0.275343
505.000000	0.275842
506.000000	0.276089
507.000000	0.276222
508.000000	0.276575
509.000000	0.277198
510.000000	0.277756
511.000000	0.278194
512.000000	0.278600
513.000000	0.279144
514.000000	0.279610
515.000000	0.280062
516.000000	0.280564
517.000000	0.281032
518.000000	0.281539
519.000000	0.282041
520.000000	0.282470
521.000000	0.282877
522.000000	0.283306
523.000000	0.283781
524.000000	0.284223
525.000000	0.284667
526.000000	0.285258
527.000000	0.285768
528.000000	0.286209
529.000000	0.286691
530.000000	0.287160
531.000000	0.287627
532.000000	0.288042
533.000000	0.288566
534.000000	0.289171
535.000000	0.289769
536.000000	0.290237
537.000000	0.290690
538.000000	0.291188
539.000000	0.291742
540.000000	0.292156
541.000000	0.292593
542.000000	0.293226
543.000000	0.293812
544.000000	0.294325
545.000000	0.294726
546.000000	0.295195
547.000000	0.295679
548.000000	0.296198
549.000000	0.296710
550.000000	0.297209
551.000000	0.297715
552.000000	0.298198
553.000000	0.298642
554.000000	0.299099
555.000000	0.299627
556.000000	0.300288
557.000000	0.300806
558.000000	0.301260
559.000000	0.301798
560.000000	0.302313
561.000000	0.302848
562.000000	0.303341
563.000000	0.303727
564.000000	0.304149
565.000000	0.304622
566.000000	0.305020
567.000000	0.305495
568.000000	0.306063
569.000000	0.306500
570.000000	0.306862
571.000000	0.307210
572.000000	0.307658
573.000000	0.308099
574.000000	0.308477
575.000000	0.308832
576.000000	0.309313
577.000000	0.309788
578.000000	0.310207
579.000000	0.310643
580.000000	0.311045
581.000000	0.311365
582.000000	0.311545
583.000000	0.311822
584.000000	0.312210
585.000000	0.312598
586.000000	0.312942
587.000000	0.313215
588.000000	0.313427
589.000000	0.313732
590.000000	0.314005
591.000000	0.314194
592.000000	0.314476
593.000000	0.314786
594.000000	0.315078
595.000000	0.315327
596.000000	0.315489
597.000000	0.315671
598.000000	0.315917
599.000000	0.316060
600.000000	0.316219
601.000000	0.316430
602.000000	0.316720
603.000000	0.316946
604.000000	0.317087
605.000000	0.317308
606.000000	0.317510
607.000000	0.317725
608.000000	0.318060
609.000000	0.318275
610.000000	0.318434
611.000000	0.318656
612.000000	0.318799
613.000000	0.318948
614.000000	0.319171
615.000000	0.319279
616.000000	0.319367
617.000000	0.319447
618.000000	0.319565
619.000000	0.319667
620.000000	0.319736
621.000000	0.319835
622.000000	0.319918
623.000000	0.319983
624.000000	0.320049
625.000000	0.320202
626.000000	0.320353
627.000000	0.320477
628.000000	0.320655
629.000000	0.320856
630.000000	0.320985
631.000000	0.321211
632.000000	0.321410
633.000000	0.321564
634.000000	0.321672
635.000000	0.321794
636.000000	0.321994
637.000000	0.322247
638.000000	0.322406
639.000000	0.322582
640.000000	0.322812
641.000000	0.322904
642.000000	0.323053
643.000000	0.323275
644.000000	0.323520
645.000000	0.323638
646.000000	0.323705
647.000000	0.323782
648.000000	0.323912
649.000000	0.324116
650.000000	0.324337
651.000000	0.324484
652.000000	0.324561
653.000000	0.324668
654.000000	0.324862
655.000000	0.325049
656.000000	0.325287
657.000000	0.325552
658.000000	0.325717
659.000000	0.325901
660.000000	0.326133
661.000000	0.326345
662.000000	0.326479
663.000000	0.326625
664.000000	0.326855
665.000000	0.327103
666.000000	0.327287
667.000000	0.327342
668.000000	0.327538
669.000000	0.327759
670.000000	0.327939
671.000000	0.328157
672.000000	0.328406
673.000000	0.328671
674.000000	0.328944
675.000000	0.329143
676.000000	0.329311
677.000000	0.329538
678.000000	0.329765
679.000000	0.329964
680.000000	0.330137
681.000000	0.330313
682.000000	0.330533
683.000000	0.330737
684.000000	0.331021
685.000000	0.331200
686.000000	0.331372
687.000000	0.331658
688.000000	0.331931
689.000000	0.332134
690.000000	0.332304
691.000000	0.332563
692.000000	0.332816
693.000000	0.333075
694.000000	0.333282
695.000000	0.333538
696.000000	0.333784
697.000000	0.333916
698.000000	0.334131
699.000000	0.334418
700.000000	0.334726
701.000000	0.334937
702.000000	0.335174
703.000000	0.335437
704.000000	0.335623
705.000000	0.335779
706.000000	0.335960
707.000000	0.336306
708.000000	0.336548
709.000000	0.336768
710.000000	0.337072
711.000000	0.337313
712.000000	0.337513
713.000000	0.337698
714.000000	0.337825
715.000000	0.338060
716.000000	0.338383
717.000000	0.338651
718.000000	0.338877
719.000000	0.339108
720.000000	0.339378
721.000000	0.339563
722.000000	0.339704
723.000000	0.339903
724.000000	0.340144
725.000000	0.340310
726.000000	0.340493
727.000000	0.340691
728.000000	0.340915
729.000000	0.341148
730.000000	0.341325
731.000000	0.341559
732.000000	0.341750
733.000000	0.341926
734.000000	0.342162
735.000000	0.342305
736.000000	0.342499
737.000000	0.342705
738.000000	0.342830
739.000000	0.343045
740.000000	0.343269
741.000000	0.343447
742.000000	0.343582
743.000000	0.343664
744.000000	0.343766
745.000000	0.343856
746.000000	0.343976
747.000000	0.344075
748.000000	0.344210
749.000000	0.344322
750.000000	0.344348
751.000000	0.344381
752.000000	0.344484
753.000000	0.344647
754.000000	0.344759
755.000000	0.344873
756.000000	0.345000
757.000000	0.345083
758.000000	0.345123
759.000000	0.345201
760.000000	0.345283
761.000000	0.345395
762.000000	0.345524
763.000000	0.345642
764.000000	0.345798
765.000000	0.345843
766.000000	0.345869
767.000000	0.345968
768.000000	0.346050
769.000000	0.346094
770.000000	0.346109
771.000000	0.346127
772.000000	0.346233
773.000000	0.346324
774.000000	0.346369
775.000000	0.346371
776.000000	0.346403
777.000000	0.346479
778.000000	0.346477
779.000000	0.346543
780.000000	0.346646
781.000000	0.346565
782.000000	0.346536
783.000000	0.346609
784.000000	0.346590
785.000000	0.346586
786.000000	0.346552
787.000000	0.346503
788.000000	0.346632
789.000000	0.346661
790.000000	0.346600
791.000000	0.346650
792.000000	0.346704
793.000000	0.346754
794.000000	0.346802
795.000000	0.346800
796.000000	0.346791
797.000000	0.346750
798.000000	0.346587
799.000000	0.346559
800.000000	0.346630
801.000000	0.346672
802.000000	0.346574
803.000000	0.346515
804.000000	0.346579
805.000000	0.346493
806.000000	0.346384
807.000000	0.346376
808.000000	0.346417
809.000000	0.346412
810.000000	0.346387
811.000000	0.346353
812.000000	0.346289
813.000000	0.346145
814.000000	0.345989
815.000000	0.346013
816.000000	0.345917
817.000000	0.345814
818.000000	0.345774
819.000000	0.345736
820.000000	0.345756
821.000000	0.345756
822.000000	0.345625
823.000000	0.345555
824.000000	0.345456
825.000000	0.345299
826.000000	0.345216
827.000000	0.345130
828.000000	0.345051
829.000000	0.345050
830.000000	0.344942
831.000000	0.344848
832.000000	0.344852
833.000000	0.344783
834.000000	0.344648
835.000000	0.344524
836.000000	0.344452
837.000000	0.344362
838.000000	0.344272
839.000000	0.344219
840.000000	0.344122
841.000000	0.344031
842.000000	0.343959
843.000000	0.343903
844.000000	0.343852
845.000000	0.343766
846.000000	0.343665
847.000000	0.343571
848.000000	0.343515
849.000000	0.343522
850.000000	0.343313
851.000000	0.343142
852.000000	0.343139
853.000000	0.343116
854.000000	0.342996
855.000000	0.342865
856.000000	0.342656
857.000000	0.342438
858.000000	0.342339
859.000000	0.342286
860.000000	0.342138
861.000000	0.342009
862.000000	0.341980
863.000000	0.341996
864.000000	0.341877
865.000000	0.341711
866.000000	0.341590
867.000000	0.341460
868.000000	0.341382
869.000000	0.341224
870.000000	0.340949
871.000000	0.340859
872.000000	0.340804
873.000000	0.340628
874.000000	0.340509
875.000000	0.340359
876.000000	0.340183
877.000000	0.339956
878.000000	0.339789
879.000000	0.339733
880.000000	0.339614
881.000000	0.339412
882.000000	0.339185
883.000000	0.339010
884.000000	0.338883
885.000000	0.338740
886.000000	0.338514
887.000000	0.338268
888.000000	0.338222
889.000000	0.338114
890.000000	0.337890
891.000000	0.337812
892.000000	0.337735
893.000000	0.337501
894.000000	0.337222
895.000000	0.337006
896.000000	0.336814
897.000000	0.336695
898.000000	0.336683
899.000000	0.336613
900.000000	0.336419
901.000000	0.336121
902.000000	0.335989
903.000000	0.335902
904.000000	0.335791
905.000000	0.335509
906.000000	0.335213
907.000000	0.334981
908.000000	0.334858
909.000000	0.334660
910.000000	0.334449
911.000000	0.334286
912.000000	0.334199
913.000000	0.334009
914.000000	0.333764
915.000000	0.333555
916.000000	0.333326
917.000000	0.333127
918.000000	0.333000
919.000000	0.332899
920.000000	0.332639
921.000000	0.332493
922.000000	0.332461
923.000000	0.332363
924.000000	0.332169
925.000000	0.331909
926.000000	0.331676
927.000000	0.331530
928.000000	0.331374
929.000000	0.331092
930.000000	0.330659
931.000000	0.330510
932.000000	0.330392
933.000000	0.330252
934.000000	0.330178
935.000000	0.329881
936.000000	0.329601
937.000000	0.329427
938.000000	0.329055
939.000000	0.328944
940.000000	0.328996
941.000000	0.328934
942.000000	0.328529
943.000000	0.328207
944.000000	0.328056
945.000000	0.327888
946.000000	0.327566
947.000000	0.327344
948.000000	0.327356
949.000000	0.326907
950.000000	0.326593
951.000000	0.326496
952.000000	0.326299
953.000000	0.326130
954.000000	0.325926
955.000000	0.325628
956.000000	0.325588
957.000000	0.325462
958.000000	0.325167
959.000000	0.324882
960.000000	0.324686
961.000000	0.324292
962.000000	0.323780
963.000000	0.323729
964.000000	0.323668
965.000000	0.323568
966.000000	0.323344
967.000000	0.323022
968.000000	0.322749
969.000000	0.322598
970.000000	0.322663
971.000000	0.322435
972.000000	0.322323
973.000000	0.322372
974.000000	0.322315
975.000000	0.322267
976.000000	0.322052
977.000000	0.321620
978.000000	0.321450
979.000000	0.321336
980.000000	0.321105
981.000000	0.321067
982.000000	0.320810
983.000000	0.320400
984.000000	0.319995
985.000000	0.319643
986.000000	0.319725
987.000000	0.319734
988.000000	0.319275
989.000000	0.319013
990.000000	0.319229
991.000000	0.319415
992.000000	0.319077
993.000000	0.319062
994.000000	0.318983
995.000000	0.318938
996.000000	0.318969
997.000000	0.319196
998.000000	0.319029
999.000000	0.318667
1000.000000	0.319255
1001.000000	0.318636
1002.000000	0.319021
1003.000000	0.319294
1004.000000	0.319373
1005.000000	0.319242
1006.000000	0.318825
1007.000000	0.317999
1008.000000	0.317799
1009.000000	0.318041
1010.000000	0.317774
1011.000000	0.318003
1012.000000	0.318232
1013.000000	0.317472
1014.000000	0.316892
1015.000000	0.317232
1016.000000	0.317908
1017.000000	0.317632
1018.000000	0.317105
1019.000000	0.317027
1020.000000	0.316518
1021.000000	0.316242
1022.000000	0.317126
1023.000000	0.317591
1024.000000	0.317629
1025.000000	0.317732
1026.000000	0.318187
1027.000000	0.317889
1028.000000	0.317605
1029.000000	0.317791
1030.000000	0.317323
1031.000000	0.317094
1032.000000	0.317629
1033.000000	0.317913
1034.000000	0.318128
1035.000000	0.318639
1036.000000	0.318822
1037.000000	0.318667
1038.000000	0.318463
1039.000000	0.318205
1040.000000	0.318134
1041.000000	0.317683
1042.000000	0.317786
1043.000000	0.318471
1044.000000	0.318728
1045.000000	0.319503
1046.000000	0.320009
1047.000000	0.320082
1048.000000	0.319470
1049.000000	0.319651
1050.000000	0.319986
1051.000000	0.320073
1052.000000	0.320526
1053.000000	0.320497
1054.000000	0.319754
1055.000000	0.319858
1056.000000	0.320420
1057.000000	0.320859
1058.000000	0.321292
1059.000000	0.321779
1060.000000	0.322141
1061.000000	0.322082
1062.000000	0.322244
1063.000000	0.322761
1064.000000	0.323039
1065.000000	0.323245
1066.000000	0.323365
1067.000000	0.323114
1068.000000	0.323272
1069.000000	0.323488
1070.000000	0.323730
1071.000000	0.324479
1072.000000	0.324860
1073.000000	0.324994
1074.000000	0.325265
1075.000000	0.325246
1076.000000	0.325677
1077.000000	0.326117
1078.000000	0.326013
1079.000000	0.326196
1080.000000	0.326545
1081.000000	0.326639
1082.000000	0.326582
1083.000000	0.326878
1084.000000	0.327356
1085.000000	0.327579
1086.000000	0.327922
1087.000000	0.328215
1088.000000	0.328039
1089.000000	0.328110
1090.000000	0.328305
1091.000000	0.328655
1092.000000	0.328946
1093.000000	0.329197
1094.000000	0.329422
1095.000000	0.329664
1096.000000	0.329743
1097.000000	0.329540
1098.000000	0.329808
1099.000000	0.330116
1100.000000	0.330498
1101.000000	0.331331
1102.000000	0.331681
1103.000000	0.331599
1104.000000	0.331839
1105.000000	0.332126
1106.000000	0.332329
1107.000000	0.332534
1108.000000	0.332783
1109.000000	0.333175
1110.000000	0.333194
1111.000000	0.333472
1112.000000	0.333891
1113.000000	0.334293
1114.000000	0.334849
1115.000000	0.335025
1116.000000	0.334926
1117.000000	0.335188
1118.000000	0.335494
1119.000000	0.335535
1120.000000	0.335624
1121.000000	0.335822
1122.000000	0.335971
1123.000000	0.336171
1124.000000	0.336234
1125.000000	0.336517
1126.000000	0.336625
1127.000000	0.336748
1128.000000	0.336964
1129.000000	0.337608
1130.000000	0.337815
1131.000000	0.337792
1132.000000	0.337828
1133.000000	0.337881
1134.000000	0.337902
1135.000000	0.337771
1136.000000	0.337767
1137.000000	0.337665
1138.000000	0.337772
1139.000000	0.338269
1140.000000	0.338552
1141.000000	0.338775
1142.000000	0.339022
1143.000000	0.339129
1144.000000	0.339297
1145.000000	0.339326
1146.000000	0.339324
1147.000000	0.339373
1148.000000	0.339204
1149.000000	0.339271
1150.000000	0.339577
1151.000000	0.339678
1152.000000	0.339650
1153.000000	0.339728
1154.000000	0.339652
1155.000000	0.339780
1156.000000	0.340197
1157.000000	0.340344
1158.000000	0.340482
1159.000000	0.340468
1160.000000	0.340044
1161.000000	0.339910
1162.000000	0.339883
1163.000000	0.340072
1164.000000	0.340236
1165.000000	0.340391
1166.000000	0.340501
1167.000000	0.340499
1168.000000	0.340468
1169.000000	0.340452
1170.000000	0.340453
1171.000000	0.340412
1172.000000	0.340489
1173.000000	0.340658
1174.000000	0.340673
1175.000000	0.340595
1176.000000	0.340559
1177.000000	0.340479
1178.000000	0.340513
1179.000000	0.340789
1180.000000	0.340791
1181.000000	0.340671
1182.000000	0.340687
1183.000000	0.340851
1184.000000	0.340903
1185.000000	0.340985
1186.000000	0.341250
1187.000000	0.341305
1188.000000	0.341181
1189.000000	0.341108
1190.000000	0.341013
1191.000000	0.341044
1192.000000	0.341235
1193.000000	0.341435
1194.000000	0.341654
1195.000000	0.341778
1196.000000	0.341680
1197.000000	0.341732
1198.000000	0.341943
1199.000000	0.342001
1200.000000	0.342022
1201.000000	0.342052
1202.000000	0.341854
1203.000000	0.341765
1204.000000	0.341750
1205.000000	0.341682
1206.000000	0.341688
1207.000000	0.341877
1208.000000	0.341877
1209.000000	0.341978
1210.000000	0.341951
1211.000000	0.341734
1212.000000	0.341683
1213.000000	0.341633
1214.000000	0.341685
1215.000000	0.341891
1216.000000	0.342024
1217.000000	0.342205
1218.000000	0.342261
1219.000000	0.342327
1220.000000	0.342224
1221.000000	0.342161
1222.000000	0.342213
1223.000000	0.342137
1224.000000	0.342086
1225.000000	0.341952
1226.000000	0.341748
1227.000000	0.341776
1228.000000	0.341853
1229.000000	0.341806
1230.000000	0.341778
1231.000000	0.341647
1232.000000	0.341427
1233.000000	0.341480
1234.000000	0.341625
1235.000000	0.341668
1236.000000	0.341709
1237.000000	0.341771
1238.000000	0.341740
1239.000000	0.341764
1240.000000	0.341826
1241.000000	0.341878
1242.000000	0.342080
1243.000000	0.342061
1244.000000	0.342024
1245.000000	0.342177
1246.000000	0.342123
1247.000000	0.342117
1248.000000	0.342130
1249.000000	0.342086
1250.000000	0.342057
1251.000000	0.341925
1252.000000	0.341912
1253.000000	0.342084
1254.000000	0.342049
1255.000000	0.341909
1256.000000	0.341890
1257.000000	0.341810
1258.000000	0.341850
1259.000000	0.342090
1260.000000	0.342174
1261.000000	0.342064
1262.000000	0.342035
1263.000000	0.342093
1264.000000	0.341860
1265.000000	0.341763
1266.000000	0.341844
1267.000000	0.341724
1268.000000	0.341898
1269.000000	0.342216
1270.000000	0.342307
1271.000000	0.342389
1272.000000	0.342510
1273.000000	0.342434
1274.000000	0.342262
1275.000000	0.342127
1276.000000	0.341897
1277.000000	0.341927
1278.000000	0.342073
1279.000000	0.342074
1280.000000	0.342067
1281.000000	0.342001
1282.000000	0.341799
1283.000000	0.341793
1284.000000	0.341821
1285.000000	0.341894
1286.000000	0.342049
1287.000000	0.342084
1288.000000	0.342138
1289.000000	0.342215
1290.000000	0.342051
1291.000000	0.341913
1292.000000	0.341895
1293.000000	0.341869
1294.000000	0.341915
1295.000000	0.341941
1296.000000	0.341926
1297.000000	0.341857
1298.000000	0.341674
1299.000000	0.341614
1300.000000	0.341742
1301.000000	0.341790
1302.000000	0.341801
1303.000000	0.342073
1304.000000	0.342107
1305.000000	0.342096
1306.000000	0.342031
1307.000000	0.341936
1308.000000	0.341868
1309.000000	0.341658
1310.000000	0.341560
1311.000000	0.341568
1312.000000	0.341591
1313.000000	0.341505
1314.000000	0.341396
1315.000000	0.341337
1316.000000	0.341329
1317.000000	0.341412
1318.000000	0.341606
1319.000000	0.341690
1320.000000	0.341608
1321.000000	0.341421
1322.000000	0.341263
1323.000000	0.341105
1324.000000	0.341055
1325.000000	0.341000
1326.000000	0.340773
1327.000000	0.340719
1328.000000	0.340801
1329.000000	0.340652
1330.000000	0.340489
1331.000000	0.340408
1332.000000	0.340155
1333.000000	0.340019
1334.000000	0.340237
1335.000000	0.340270
1336.000000	0.340141
1337.000000	0.340117
1338.000000	0.340141
1339.000000	0.339917
1340.000000	0.339658
1341.000000	0.339530
1342.000000	0.339190
1343.000000	0.338692
1344.000000	0.338374
1345.000000	0.338183
1346.000000	0.338117
1347.000000	0.338031
1348.000000	0.337990
1349.000000	0.337716
1350.000000	0.337485
1351.000000	0.337381
1352.000000	0.337131
1353.000000	0.336946
1354.000000	0.336827
1355.000000	0.336633
1356.000000	0.336649
1357.000000	0.336728
1358.000000	0.336662
1359.000000	0.336614
1360.000000	0.336518
1361.000000	0.336358
1362.000000	0.336125
1363.000000	0.335785
1364.000000	0.335650
1365.000000	0.335480
1366.000000	0.335381
1367.000000	0.335439
1368.000000	0.335521
1369.000000	0.335383
1370.000000	0.335249
1371.000000	0.335118
1372.000000	0.334688
1373.000000	0.334335
1374.000000	0.334146
1375.000000	0.333942
1376.000000	0.333860
1377.000000	0.333688
1378.000000	0.333404
1379.000000	0.333123
1380.000000	0.332845
1381.000000	0.332525
1382.000000	0.332244
1383.000000	0.332022
1384.000000	0.331586
1385.000000	0.331119
1386.000000	0.330828
1387.000000	0.330376
1388.000000	0.329922
1389.000000	0.329728
1390.000000	0.329475
1391.000000	0.329152
1392.000000	0.328870
1393.000000	0.328442
1394.000000	0.327915
1395.000000	0.327334
1396.000000	0.326706
1397.000000	0.325959
1398.000000	0.324983
1399.000000	0.324214
1400.000000	0.323466
1401.000000	0.322694
1402.000000	0.322056
1403.000000	0.321295
1404.000000	0.320531
1405.000000	0.319795
1406.000000	0.319056
1407.000000	0.318331
1408.000000	0.317637
1409.000000	0.316850
1410.000000	0.315972
1411.000000	0.315155
1412.000000	0.314246
1413.000000	0.313341
1414.000000	0.312527
1415.000000	0.311798
1416.000000	0.311146
1417.000000	0.310443
1418.000000	0.309734
1419.000000	0.309185
1420.000000	0.308523
1421.000000	0.307882
1422.000000	0.307214
1423.000000	0.306509
1424.000000	0.305715
1425.000000	0.304944
1426.000000	0.304257
1427.000000	0.303552
1428.000000	0.302814
1429.000000	0.302137
1430.000000	0.301528
1431.000000	0.300943
1432.000000	0.300330
1433.000000	0.299737
1434.000000	0.299249
1435.000000	0.298878
1436.000000	0.298418
1437.000000	0.297985
1438.000000	0.297588
1439.000000	0.297188
1440.000000	0.296846
1441.000000	0.296645
1442.000000	0.296407
1443.000000	0.296077
1444.000000	0.295750
1445.000000	0.295521
1446.000000	0.295331
1447.000000	0.295074
1448.000000	0.294859
1449.000000	0.294701
1450.000000	0.294465
1451.000000	0.294347
1452.000000	0.294190
1453.000000	0.293977
1454.000000	0.293732
1455.000000	0.293430
1456.000000	0.293317
1457.000000	0.293238
1458.000000	0.293097
1459.000000	0.292991
1460.000000	0.292877
1461.000000	0.292654
1462.000000	0.292461
1463.000000	0.292378
1464.000000	0.292227
1465.000000	0.292119
1466.000000	0.292078
1467.000000	0.291930
1468.000000	0.291777
1469.000000	0.291800
1470.000000	0.291792
1471.000000	0.291836
1472.000000	0.291998
1473.000000	0.292077
1474.000000	0.292095
1475.000000	0.292324
1476.000000	0.292450
1477.000000	0.292606
1478.000000	0.292940
1479.000000	0.293157
1480.000000	0.293426
1481.000000	0.293634
1482.000000	0.293828
1483.000000	0.294070
1484.000000	0.294285
1485.000000	0.294529
1486.000000	0.294857
1487.000000	0.295112
1488.000000	0.295340
1489.000000	0.295640
1490.000000	0.295801
1491.000000	0.296059
1492.000000	0.296350
1493.000000	0.296631
1494.000000	0.296911
1495.000000	0.297209
1496.000000	0.297529
1497.000000	0.297805
1498.000000	0.298065
1499.000000	0.298353
1500.000000	0.298676
1501.000000	0.298979
1502.000000	0.299320
1503.000000	0.299570
1504.000000	0.299714
1505.000000	0.299952
1506.000000	0.300243
1507.000000	0.300440
1508.000000	0.300622
1509.000000	0.300794
1510.000000	0.300857
1511.000000	0.300991
1512.000000	0.301180
1513.000000	0.301319
1514.000000	0.301590
1515.000000	0.301804
1516.000000	0.301922
1517.000000	0.302002
1518.000000	0.301929
1519.000000	0.301887
1520.000000	0.302059
1521.000000	0.302202
1522.000000	0.302374
1523.000000	0.302508
1524.000000	0.302573
1525.000000	0.302703
1526.000000	0.302768
1527.000000	0.302939
1528.000000	0.303021
1529.000000	0.302908
1530.000000	0.302846
1531.000000	0.302783
1532.000000	0.302793
1533.000000	0.302936
1534.000000	0.303010
1535.000000	0.303064
1536.000000	0.303030
1537.000000	0.303047
1538.000000	0.303153
1539.000000	0.303189
1540.000000	0.303338
1541.000000	0.303571
1542.000000	0.303717
1543.000000	0.303808
1544.000000	0.303788
1545.000000	0.303698
1546.000000	0.303640
1547.000000	0.303629
1548.000000	0.303622
1549.000000	0.303609
1550.000000	0.303536
1551.000000	0.303466
1552.000000	0.303478
1553.000000	0.303428
1554.000000	0.303390
1555.000000	0.303393
1556.000000	0.303427
1557.000000	0.303501
1558.000000	0.303523
1559.000000	0.303493
1560.000000	0.303466
1561.000000	0.303383
1562.000000	0.303374
1563.000000	0.303501
1564.000000	0.303517
1565.000000	0.303476
1566.000000	0.303439
1567.000000	0.303449
1568.000000	0.303453
1569.000000	0.303585
1570.000000	0.303603
1571.000000	0.303515
1572.000000	0.303472
1573.000000	0.303423
1574.000000	0.303415
1575.000000	0.303457
1576.000000	0.303527
1577.000000	0.303595
1578.000000	0.303619
1579.000000	0.303703
1580.000000	0.303754
1581.000000	0.303901
1582.000000	0.303937
1583.000000	0.303903
1584.000000	0.303842
1585.000000	0.303721
1586.000000	0.303704
1587.000000	0.303802
1588.000000	0.303775
1589.000000	0.303720
1590.000000	0.303691
1591.000000	0.303563
1592.000000	0.303552
1593.000000	0.303693
1594.000000	0.303769
1595.000000	0.303954
1596.000000	0.303990
1597.000000	0.303972
1598.000000	0.303956
1599.000000	0.303837
1600.000000	0.303794
1601.000000	0.303868
1602.000000	0.303907
1603.000000	0.304016
1604.000000	0.304078
1605.000000	0.304189
1606.000000	0.304242
1607.000000	0.304213
1608.000000	0.304264
1609.000000	0.304418
1610.000000	0.304469
1611.000000	0.304605
1612.000000	0.304603
1613.000000	0.304508
1614.000000	0.304502
1615.000000	0.304520
1616.000000	0.304601
1617.000000	0.304750
1618.000000	0.304831
1619.000000	0.304875
1620.000000	0.304931
1621.000000	0.305021
1622.000000	0.305090
1623.000000	0.305124
1624.000000	0.305112
1625.000000	0.304857
1626.000000	0.304807
1627.000000	0.304820
1628.000000	0.304945
1629.000000	0.305276
1630.000000	0.305445
1631.000000	0.305434
1632.000000	0.305630
1633.000000	0.305927
1634.000000	0.306116
1635.000000	0.306484
1636.000000	0.306673
1637.000000	0.306625
1638.000000	0.306772
1639.000000	0.307062
1640.000000	0.307270
1641.000000	0.307638
1642.000000	0.307804
1643.000000	0.307833
1644.000000	0.307949
1645.000000	0.307992
1646.000000	0.308024
1647.000000	0.308149
1648.000000	0.308225
1649.000000	0.308353
1650.000000	0.308433
1651.000000	0.308555
1652.000000	0.308627
1653.000000	0.308541
1654.000000	0.308581
1655.000000	0.308609
1656.000000	0.308608
1657.000000	0.308681
1658.000000	0.308767
1659.000000	0.308960
1660.000000	0.309127
1661.000000	0.309272
1662.000000	0.309363
1663.000000	0.309320
1664.000000	0.309483
1665.000000	0.309728
1666.000000	0.309967
1667.000000	0.310266
1668.000000	0.310439
1669.000000	0.310501
1670.000000	0.310527
1671.000000	0.310570
1672.000000	0.310724
1673.000000	0.310855
1674.000000	0.310991
1675.000000	0.311232
1676.000000	0.311346
1677.000000	0.311368
1678.000000	0.311505
1679.000000	0.311672
1680.000000	0.311719
1681.000000	0.311756
1682.000000	0.311743
1683.000000	0.311857
1684.000000	0.311982
1685.000000	0.312118
1686.000000	0.312352
1687.000000	0.312405
1688.000000	0.312333
1689.000000	0.312385
1690.000000	0.312450
1691.000000	0.312525
1692.000000	0.312653
1693.000000	0.312881
1694.000000	0.312898
1695.000000	0.312838
1696.000000	0.312953
1697.000000	0.313007
1698.000000	0.313236
1699.000000	0.313344
1700.000000	0.313330
1701.000000	0.313368
1702.000000	0.313048
1703.000000	0.312989
1704.000000	0.313222
1705.000000	0.313345
1706.000000	0.313677
1707.000000	0.313855
1708.000000	0.313825
1709.000000	0.313779
1710.000000	0.313733
1711.000000	0.313775
1712.000000	0.313910
1713.000000	0.313950
1714.000000	0.313989
1715.000000	0.314100
1716.000000	0.314236
1717.000000	0.314301
1718.000000	0.314428
1719.000000	0.314447
1720.000000	0.314305
1721.000000	0.314298
1722.000000	0.314295
1723.000000	0.314435
1724.000000	0.314792
1725.000000	0.314990
1726.000000	0.315191
1727.000000	0.315219
1728.000000	0.314960
1729.000000	0.314809
1730.000000	0.314718
1731.000000	0.314697
1732.000000	0.314784
1733.000000	0.314840
1734.000000	0.314710
1735.000000	0.314845
1736.000000	0.315112
1737.000000	0.315189
1738.000000	0.315353
1739.000000	0.315464
1740.000000	0.315345
1741.000000	0.315417
1742.000000	0.315686
1743.000000	0.315842
1744.000000	0.315941
1745.000000	0.315984
1746.000000	0.315988
1747.000000	0.315995
1748.000000	0.315999
1749.000000	0.316190
1750.000000	0.316167
1751.000000	0.315955
1752.000000	0.316094
1753.000000	0.316293
1754.000000	0.316342
1755.000000	0.316494
1756.000000	0.316571
1757.000000	0.316369
1758.000000	0.316317
1759.000000	0.316381
1760.000000	0.316431
1761.000000	0.316408
1762.000000	0.316453
1763.000000	0.316655
1764.000000	0.316726
1765.000000	0.316679
1766.000000	0.316727
1767.000000	0.316664
1768.000000	0.316632
1769.000000	0.316779
1770.000000	0.316916
1771.000000	0.317016
1772.000000	0.317065
1773.000000	0.317091
1774.000000	0.317062
1775.000000	0.316994
1776.000000	0.316935
1777.000000	0.316821
1778.000000	0.316753
1779.000000	0.316617
1780.000000	0.316660
1781.000000	0.316804
1782.000000	0.316844
1783.000000	0.317016
1784.000000	0.317107
1785.000000	0.316877
1786.000000	0.316943
1787.000000	0.317104
1788.000000	0.317202
1789.000000	0.317434
1790.000000	0.317559
1791.000000	0.317683
1792.000000	0.318083
1793.000000	0.318203
1794.000000	0.318065
1795.000000	0.318160
1796.000000	0.318232
1797.000000	0.318256
1798.000000	0.318415
1799.000000	0.318494
1800.000000	0.318354
1801.000000	0.318572
1802.000000	0.318478
1803.000000	0.318213
1804.000000	0.318405
1805.000000	0.319265
1806.000000	0.319695
1807.000000	0.320380
1808.000000	0.320446
1809.000000	0.320176
1810.000000	0.319523
1811.000000	0.319214
1812.000000	0.318368
1813.000000	0.318590
1814.000000	0.319951
1815.000000	0.320236
1816.000000	0.320606
1817.000000	0.320641
1818.000000	0.320222
1819.000000	0.319424
1820.000000	0.319716
1821.000000	0.319596
1822.000000	0.319165
1823.000000	0.318059
1824.000000	0.317946
1825.000000	0.317677
1826.000000	0.317894
1827.000000	0.318879
1828.000000	0.319943
1829.000000	0.320318
1830.000000	0.320973
1831.000000	0.320794
1832.000000	0.319926
1833.000000	0.319338
1834.000000	0.318136
1835.000000	0.317418
1836.000000	0.316695
1837.000000	0.316545
1838.000000	0.316738
1839.000000	0.316759
1840.000000	0.317522
1841.000000	0.317740
1842.000000	0.317963
1843.000000	0.318173
1844.000000	0.318308
1845.000000	0.318363
1846.000000	0.318183
1847.000000	0.317863
1848.000000	0.316846
1849.000000	0.315788
1850.000000	0.315130
1851.000000	0.314598
1852.000000	0.314009
1853.000000	0.313791
1854.000000	0.313708
1855.000000	0.313641
1856.000000	0.313853
1857.000000	0.314059
1858.000000	0.313408
1859.000000	0.312286
1860.000000	0.310999
1861.000000	0.310252
1862.000000	0.309432
1863.000000	0.309221
1864.000000	0.308428
1865.000000	0.307017
1866.000000	0.305956
1867.000000	0.304497
1868.000000	0.304080
1869.000000	0.303907
1870.000000	0.303801
1871.000000	0.303328
1872.000000	0.302406
1873.000000	0.301284
1874.000000	0.299205
1875.000000	0.297768
1876.000000	0.296291
1877.000000	0.294918
1878.000000	0.293010
1879.000000	0.290871
1880.000000	0.289224
1881.000000	0.287229
1882.000000	0.285368
1883.000000	0.284504
1884.000000	0.282715
1885.000000	0.280130
1886.000000	0.277755
1887.000000	0.275267
1888.000000	0.271872
1889.000000	0.269532
1890.000000	0.267230
1891.000000	0.264799
1892.000000	0.262635
1893.000000	0.259705
1894.000000	0.256994
1895.000000	0.254004
1896.000000	0.250810
1897.000000	0.247686
1898.000000	0.244924
1899.000000	0.242224
1900.000000	0.239313
1901.000000	0.236032
1902.000000	0.233003
1903.000000	0.230078
1904.000000	0.227523
1905.000000	0.225068
1906.000000	0.222466
1907.000000	0.219791
1908.000000	0.217288
1909.000000	0.214746
1910.000000	0.212909
1911.000000	0.211481
1912.000000	0.209237
1913.000000	0.207298
1914.000000	0.205789
1915.000000	0.204082
1916.000000	0.202147
1917.000000	0.200662
1918.000000	0.199640
1919.000000	0.198312
1920.000000	0.196332
1921.000000	0.195692
1922.000000	0.194705
1923.000000	0.193416
1924.000000	0.193194
1925.000000	0.192613
1926.000000	0.192153
1927.000000	0.192006
1928.000000	0.191668
1929.000000	0.191307
1930.000000	0.191388
1931.000000	0.190940
1932.000000	0.190279
1933.000000	0.190174
1934.000000	0.190068
1935.000000	0.190409
1936.000000	0.191003
1937.000000	0.191484
1938.000000	0.191588
1939.000000	0.191590
1940.000000	0.191344
1941.000000	0.191175
1942.000000	0.191176
1943.000000	0.190927
1944.000000	0.190581
1945.000000	0.190582
1946.000000	0.190072
1947.000000	0.189680
1948.000000	0.189187
1949.000000	0.188419
1950.000000	0.188368
1951.000000	0.188144
1952.000000	0.188061
1953.000000	0.188201
1954.000000	0.188364
1955.000000	0.187399
1956.000000	0.186798
1957.000000	0.186551
1958.000000	0.185711
1959.000000	0.185589
1960.000000	0.185547
1961.000000	0.185215
1962.000000	0.184990
1963.000000	0.185114
1964.000000	0.184997
1965.000000	0.184334
1966.000000	0.183558
1967.000000	0.183226
1968.000000	0.183094
1969.000000	0.183253
1970.000000	0.183666
1971.000000	0.184033
1972.000000	0.184393
1973.000000	0.184460
1974.000000	0.184275
1975.000000	0.184701
1976.000000	0.185290
1977.000000	0.185577
1978.000000	0.186723
1979.000000	0.187673
1980.000000	0.187995
1981.000000	0.188776
1982.000000	0.188711
1983.000000	0.188709
1984.000000	0.189003
1985.000000	0.189251
1986.000000	0.189318
1987.000000	0.189688
1988.000000	0.190083
1989.000000	0.189645
1990.000000	0.189818
1991.000000	0.190131
1992.000000	0.190399
1993.000000	0.191035
1994.000000	0.191699
1995.000000	0.192436
1996.000000	0.192851
1997.000000	0.193266
1998.000000	0.193353
1999.000000	0.194094
2000.000000	0.195051
2001.000000	0.196147
2002.000000	0.197455
2003.000000	0.198703
2004.000000	0.199100
2005.000000	0.199306
2006.000000	0.200186
2007.000000	0.201167
2008.000000	0.201885
2009.000000	0.202698
2010.000000	0.203581
2011.000000	0.203903
2012.000000	0.204624
2013.000000	0.205639
2014.000000	0.206787
2015.000000	0.207724
2016.000000	0.209021
2017.000000	0.210197
2018.000000	0.211353
2019.000000	0.212469
2020.000000	0.213131
2021.000000	0.213999
2022.000000	0.215028
2023.000000	0.215615
2024.000000	0.215816
2025.000000	0.216460
2026.000000	0.216892
2027.000000	0.217375
2028.000000	0.218301
2029.000000	0.219213
2030.000000	0.220067
2031.000000	0.220432
2032.000000	0.220993
2033.000000	0.222142
2034.000000	0.223023
2035.000000	0.224137
2036.000000	0.224818
2037.000000	0.225492
2038.000000	0.225880
2039.000000	0.225820
2040.000000	0.226161
2041.000000	0.226479
2042.000000	0.226706
2043.000000	0.227202
2044.000000	0.227783
2045.000000	0.228363
2046.000000	0.229336
2047.000000	0.230361
2048.000000	0.231628
2049.000000	0.232715
2050.000000	0.233742
2051.000000	0.234376
2052.000000	0.234653
2053.000000	0.235179
2054.000000	0.235711
2055.000000	0.236272
2056.000000	0.237195
2057.000000	0.237553
2058.000000	0.238298
2059.000000	0.239086
2060.000000	0.239474
2061.000000	0.239870
2062.000000	0.240077
2063.000000	0.239383
2064.000000	0.239634
2065.000000	0.240904
2066.000000	0.241389
2067.000000	0.241869
2068.000000	0.243018
2069.000000	0.243311
2070.000000	0.243560
2071.000000	0.244220
2072.000000	0.244653
2073.000000	0.245165
2074.000000	0.245692
2075.000000	0.246047
2076.000000	0.246229
2077.000000	0.246640
2078.000000	0.246958
2079.000000	0.247245
2080.000000	0.247818
2081.000000	0.248281
2082.000000	0.248367
2083.000000	0.248984
2084.000000	0.249857
2085.000000	0.251043
2086.000000	0.252319
2087.000000	0.253671
2088.000000	0.254510
2089.000000	0.254948
2090.000000	0.255474
2091.000000	0.255559
2092.000000	0.256037
2093.000000	0.256989
2094.000000	0.257463
2095.000000	0.257841
2096.000000	0.258271
2097.000000	0.258305
2098.000000	0.258553
2099.000000	0.258950
2100.000000	0.259530
2101.000000	0.260236
2102.000000	0.259984
2103.000000	0.260008
2104.000000	0.260449
2105.000000	0.260802
2106.000000	0.261250
2107.000000	0.261978
2108.000000	0.262741
2109.000000	0.263691
2110.000000	0.265077
2111.000000	0.265882
2112.000000	0.266581
2113.000000	0.266924
2114.000000	0.266635
2115.000000	0.266081
2116.000000	0.265716
2117.000000	0.265126
2118.000000	0.264529
2119.000000	0.264977
2120.000000	0.265590
2121.000000	0.266840
2122.000000	0.267456
2123.000000	0.268273
2124.000000	0.268894
2125.000000	0.268971
2126.000000	0.269377
2127.000000	0.270815
2128.000000	0.270776
2129.000000	0.269566
2130.000000	0.268709
2131.000000	0.267066
2132.000000	0.266656
2133.000000	0.267669
2134.000000	0.268484
2135.000000	0.270244
2136.000000	0.271205
2137.000000	0.271977
2138.000000	0.272780
2139.000000	0.273139
2140.000000	0.272895
2141.000000	0.272885
2142.000000	0.272997
2143.000000	0.272492
2144.000000	0.271278
2145.000000	0.270726
2146.000000	0.270369
2147.000000	0.269655
2148.000000	0.270318
2149.000000	0.271645
2150.000000	0.272000
2151.000000	0.272703
2152.000000	0.272082
2153.000000	0.270552
2154.000000	0.270198
2155.000000	0.269901
2156.000000	0.270092
2157.000000	0.271369
2158.000000	0.272260
2159.000000	0.273396
2160.000000	0.274132
2161.000000	0.274466
2162.000000	0.275032
2163.000000	0.276003
2164.000000	0.275951
2165.000000	0.274930
2166.000000	0.275326
2167.000000	0.274071
2168.000000	0.272638
2169.000000	0.272684
2170.000000	0.272427
2171.000000	0.272348
2172.000000	0.272710
2173.000000	0.272793
2174.000000	0.272389
2175.000000	0.272810
2176.000000	0.274447
2177.000000	0.274544
2178.000000	0.274325
2179.000000	0.274244
2180.000000	0.272501
2181.000000	0.272272
2182.000000	0.272753
2183.000000	0.272876
2184.000000	0.273716
2185.000000	0.274071
2186.000000	0.273767
2187.000000	0.273818
2188.000000	0.272294
2189.000000	0.270441
2190.000000	0.269443
2191.000000	0.269518
2192.000000	0.269063
2193.000000	0.269099
2194.000000	0.269111
2195.000000	0.268712
2196.000000	0.268684
2197.000000	0.270068
2198.000000	0.270551
2199.000000	0.269503
2200.000000	0.270114
2201.000000	0.271974
2202.000000	0.272662
2203.000000	0.274079
2204.000000	0.274990
2205.000000	0.272065
2206.000000	0.268935
2207.000000	0.268140
2208.000000	0.270183
2209.000000	0.273975
2210.000000	0.277164
2211.000000	0.278864
2212.000000	0.278663
2213.000000	0.278521
2214.000000	0.277505
2215.000000	0.277091
2216.000000	0.276149
2217.000000	0.275659
2218.000000	0.274805
2219.000000	0.275593
2220.000000	0.278086
2221.000000	0.279404
2222.000000	0.282702
2223.000000	0.282783
2224.000000	0.281165
2225.000000	0.277408
2226.000000	0.273588
2227.000000	0.269879
2228.000000	0.268561
2229.000000	0.268129
2230.000000	0.268500
2231.000000	0.269278
2232.000000	0.269799
2233.000000	0.271328
2234.000000	0.269669
2235.000000	0.268615
2236.000000	0.268606
2237.000000	0.267614
2238.000000	0.267419
2239.000000	0.269725
2240.000000	0.270189
2241.000000	0.269488
2242.000000	0.269377
2243.000000	0.268504
2244.000000	0.269568
2245.000000	0.271760
2246.000000	0.273492
2247.000000	0.276942
2248.000000	0.278166
2249.000000	0.277986
2250.000000	0.277736
2251.000000	0.276532
2252.000000	0.277375
2253.000000	0.277335
2254.000000	0.276092
2255.000000	0.274160
2256.000000	0.272118
2257.000000	0.270716
2258.000000	0.271510
2259.000000	0.274582
2260.000000	0.277325
2261.000000	0.277931
2262.000000	0.277504
2263.000000	0.277577
2264.000000	0.275904
2265.000000	0.275508
2266.000000	0.276563
2267.000000	0.276801
2268.000000	0.276888
2269.000000	0.276427
2270.000000	0.275877
2271.000000	0.275147
2272.000000	0.274070
2273.000000	0.272164
2274.000000	0.269882
2275.000000	0.267257
2276.000000	0.264002
2277.000000	0.259355
2278.000000	0.256133
2279.000000	0.255435
2280.000000	0.254588
2281.000000	0.256058
2282.000000	0.256936
2283.000000	0.256493
2284.000000	0.256647
2285.000000	0.255851
2286.000000	0.256626
2287.000000	0.257048
2288.000000	0.257959
2289.000000	0.259344
2290.000000	0.258585
2291.000000	0.259279
2292.000000	0.259463
2293.000000	0.258608
2294.000000	0.259549
2295.000000	0.262473
2296.000000	0.263107
2297.000000	0.264435
2298.000000	0.264551
2299.000000	0.261878
2300.000000	0.260514
2301.000000	0.258992
2302.000000	0.257287
2303.000000	0.256361
2304.000000	0.255026
2305.000000	0.252437
2306.000000	0.252500
2307.000000	0.254076
2308.000000	0.254360
2309.000000	0.256028
2310.000000	0.257222
2311.000000	0.255371
2312.000000	0.254103
2313.000000	0.252898
2314.000000	0.250117
2315.000000	0.248499
2316.000000	0.247833
2317.000000	0.247139
2318.000000	0.247479
2319.000000	0.247805
2320.000000	0.247187
2321.000000	0.247828
2322.000000	0.249665
2323.000000	0.251741
2324.000000	0.252009
2325.000000	0.251288
2326.000000	0.251342
2327.000000	0.250109
2328.000000	0.250207
2329.000000	0.249445
2330.000000	0.246173
2331.000000	0.243252
2332.000000	0.241246
2333.000000	0.239673
2334.000000	0.237259
2335.000000	0.236612
2336.000000	0.236587
2337.000000	0.235839
2338.000000	0.236524
2339.000000	0.236205
2340.000000	0.235260
2341.000000	0.234412
2342.000000	0.232176
2343.000000	0.232371
2344.000000	0.233182
2345.000000	0.232546
2346.000000	0.234034
2347.000000	0.234554
2348.000000	0.233078
2349.000000	0.233376
2350.000000	0.233651
2351.000000	0.230647
2352.000000	0.226508
2353.000000	0.224409
2354.000000	0.223261
2355.000000	0.222237
2356.000000	0.222935
2357.000000	0.221670
2358.000000	0.219876
2359.000000	0.218940
2360.000000	0.215110
2361.000000	0.214116
2362.000000	0.214937
2363.000000	0.212439
2364.000000	0.212035
2365.000000	0.214423
2366.000000	0.213977
2367.000000	0.214918
2368.000000	0.216690
2369.000000	0.213548
2370.000000	0.209646
2371.000000	0.206805
2372.000000	0.209377
2373.000000	0.213177
2374.000000	0.211933
2375.000000	0.211431
2376.000000	0.203868
2377.000000	0.196142
2378.000000	0.198427
2379.000000	0.197871
2380.000000	0.198762
2381.000000	0.199769
2382.000000	0.193234
2383.000000	0.192536
2384.000000	0.197260
2385.000000	0.196967
2386.000000	0.197142
2387.000000	0.199494
2388.000000	0.199405
2389.000000	0.199757
2390.000000	0.201682
2391.000000	0.201309
2392.000000	0.193700
2393.000000	0.190210
2394.000000	0.191601
2395.000000	0.191570
2396.000000	0.195044
2397.000000	0.196245
2398.000000	0.195014
2399.000000	0.194427
2400.000000	0.195777
2401.000000	0.200830
2402.000000	0.209394
2403.000000	0.212766
2404.000000	0.212357
2405.000000	0.207944
2406.000000	0.199409
2407.000000	0.196004
2408.000000	0.190138
2409.000000	0.189458
2410.000000	0.187913
2411.000000	0.179276
2412.000000	0.178791
2413.000000	0.176252
2414.000000	0.172627
2415.000000	0.175389
2416.000000	0.180895
2417.000000	0.184265
2418.000000	0.183819
2419.000000	0.191377
2420.000000	0.192333
2421.000000	0.189181
2422.000000	0.194252
2423.000000	0.185465
2424.000000	0.176549
2425.000000	0.176559
2426.000000	0.170793
2427.000000	0.174353
2428.000000	0.184368
2429.000000	0.189134
2430.000000	0.197037
2431.000000	0.200243
2432.000000	0.194725
2433.000000	0.192163
2434.000000	0.186876
2435.000000	0.175764
2436.000000	0.163843
2437.000000	0.144621
2438.000000	0.134840
2439.000000	0.132513
2440.000000	0.137595
2441.000000	0.159545
2442.000000	0.169797
2443.000000	0.178160
2444.000000	0.185156
2445.000000	0.182883
2446.000000	0.177498
2447.000000	0.165735
2448.000000	0.158788
2449.000000	0.153984
2450.000000	0.153505
2451.000000	0.161569
2452.000000	0.166109
2453.000000	0.161110
2454.000000	0.152132
2455.000000	0.136961
2456.000000	0.127417
2457.000000	0.134897
2458.000000	0.147797
2459.000000	0.147278
2460.000000	0.139367
2461.000000	0.138756
2462.000000	0.123945
2463.000000	0.124208
2464.000000	0.138758
2465.000000	0.136004
2466.000000	0.152360
2467.000000	0.167420
2468.000000	0.173314
2469.000000	0.193103
2470.000000	0.187792
2471.000000	0.163416
2472.000000	0.154404
2473.000000	0.131300
2474.000000	0.122533
2475.000000	0.150085
2476.000000	0.151737
2477.000000	0.151386
2478.000000	0.130776
2479.000000	0.109936
2480.000000	0.136006
2481.000000	0.165277
2482.000000	0.195158
2483.000000	0.194015
2484.000000	0.159754
2485.000000	0.118818
2486.000000	0.095731
2487.000000	0.094720
2488.000000	0.103387
2489.000000	0.081212
2490.000000	0.038087
2491.000000	-0.045801
2492.000000	-0.061416
2493.000000	0.007176
2494.000000	0.018499
2495.000000	0.040155
2496.000000	0.048989
2497.000000	-0.005841
2498.000000	-0.029970
2499.000000	-0.029868
2500.000000	-0.026180
