# Wavelength	Nau-1_30_FV7_70_00000.asd.rts.txt
350.000000	0.164667
351.000000	0.177363
352.000000	0.181789
353.000000	0.176877
354.000000	0.168311
355.000000	0.164523
356.000000	0.169609
357.000000	0.179150
358.000000	0.179683
359.000000	0.175055
360.000000	0.170923
361.000000	0.171292
362.000000	0.166182
363.000000	0.164579
364.000000	0.170074
365.000000	0.173202
366.000000	0.173391
367.000000	0.171383
368.000000	0.169768
369.000000	0.167300
370.000000	0.167484
371.000000	0.173449
372.000000	0.175216
373.000000	0.174029
374.000000	0.172818
375.000000	0.173936
376.000000	0.177063
377.000000	0.181689
378.000000	0.187804
379.000000	0.185928
380.000000	0.181685
381.000000	0.184809
382.000000	0.187644
383.000000	0.187581
384.000000	0.185330
385.000000	0.187921
386.000000	0.190772
387.000000	0.191340
388.000000	0.188115
389.000000	0.188056
390.000000	0.189550
391.000000	0.188370
392.000000	0.191746
393.000000	0.193708
394.000000	0.190922
395.000000	0.194125
396.000000	0.197527
397.000000	0.198352
398.000000	0.197316
399.000000	0.196983
400.000000	0.198445
401.000000	0.201713
402.000000	0.201575
403.000000	0.200851
404.000000	0.202513
405.000000	0.203543
406.000000	0.204341
407.000000	0.205248
408.000000	0.206207
409.000000	0.206707
410.000000	0.207211
411.000000	0.208713
412.000000	0.209834
413.000000	0.210106
414.000000	0.209675
415.000000	0.210595
416.000000	0.211435
417.000000	0.211504
418.000000	0.212257
419.000000	0.212983
420.000000	0.213442
421.000000	0.213723
422.000000	0.213802
423.000000	0.213921
424.000000	0.214415
425.000000	0.214988
426.000000	0.215187
427.000000	0.214903
428.000000	0.215182
429.000000	0.215199
430.000000	0.214870
431.000000	0.215110
432.000000	0.215114
433.000000	0.214976
434.000000	0.215241
435.000000	0.215507
436.000000	0.215582
437.000000	0.215428
438.000000	0.215605
439.000000	0.215840
440.000000	0.215950
441.000000	0.215632
442.000000	0.215448
443.000000	0.215499
444.000000	0.215724
445.000000	0.215807
446.000000	0.215852
447.000000	0.215957
448.000000	0.216400
449.000000	0.216991
450.000000	0.217659
451.000000	0.218798
452.000000	0.220036
453.000000	0.221057
454.000000	0.221722
455.000000	0.222883
456.000000	0.224530
457.000000	0.226102
458.000000	0.227397
459.000000	0.228555
460.000000	0.229717
461.000000	0.230425
462.000000	0.231262
463.000000	0.232295
464.000000	0.233114
465.000000	0.233759
466.000000	0.234326
467.000000	0.235099
468.000000	0.235765
469.000000	0.236176
470.000000	0.236449
471.000000	0.236915
472.000000	0.237319
473.000000	0.237575
474.000000	0.238126
475.000000	0.238364
476.000000	0.238492
477.000000	0.239336
478.000000	0.239786
479.000000	0.240079
480.000000	0.240615
481.000000	0.240862
482.000000	0.241228
483.000000	0.241838
484.000000	0.242147
485.000000	0.242462
486.000000	0.243000
487.000000	0.243185
488.000000	0.243485
489.000000	0.243931
490.000000	0.244263
491.000000	0.244744
492.000000	0.245270
493.000000	0.245566
494.000000	0.245972
495.000000	0.246401
496.000000	0.246756
497.000000	0.247208
498.000000	0.247764
499.000000	0.248366
500.000000	0.248664
501.000000	0.249039
502.000000	0.249544
503.000000	0.250001
504.000000	0.250321
505.000000	0.250726
506.000000	0.251381
507.000000	0.251877
508.000000	0.252291
509.000000	0.252699
510.000000	0.253257
511.000000	0.253879
512.000000	0.254501
513.000000	0.255004
514.000000	0.255577
515.000000	0.256163
516.000000	0.256588
517.000000	0.257035
518.000000	0.257574
519.000000	0.258142
520.000000	0.258697
521.000000	0.259250
522.000000	0.259803
523.000000	0.260317
524.000000	0.260917
525.000000	0.261498
526.000000	0.261885
527.000000	0.262611
528.000000	0.263403
529.000000	0.263937
530.000000	0.264445
531.000000	0.264976
532.000000	0.265501
533.000000	0.266216
534.000000	0.266866
535.000000	0.267409
536.000000	0.268057
537.000000	0.268631
538.000000	0.269196
539.000000	0.269876
540.000000	0.270409
541.000000	0.270922
542.000000	0.271578
543.000000	0.272243
544.000000	0.272871
545.000000	0.273408
546.000000	0.274010
547.000000	0.274607
548.000000	0.275221
549.000000	0.275842
550.000000	0.276478
551.000000	0.277126
552.000000	0.277740
553.000000	0.278398
554.000000	0.279044
555.000000	0.279653
556.000000	0.280334
557.000000	0.280889
558.000000	0.281420
559.000000	0.282073
560.000000	0.282635
561.000000	0.283176
562.000000	0.283749
563.000000	0.284312
564.000000	0.284878
565.000000	0.285370
566.000000	0.285894
567.000000	0.286391
568.000000	0.286839
569.000000	0.287413
570.000000	0.287950
571.000000	0.288388
572.000000	0.288762
573.000000	0.289203
574.000000	0.289622
575.000000	0.289929
576.000000	0.290337
577.000000	0.290743
578.000000	0.291115
579.000000	0.291517
580.000000	0.291914
581.000000	0.292272
582.000000	0.292549
583.000000	0.292844
584.000000	0.293166
585.000000	0.293475
586.000000	0.293793
587.000000	0.294112
588.000000	0.294413
589.000000	0.294651
590.000000	0.294879
591.000000	0.295146
592.000000	0.295504
593.000000	0.295767
594.000000	0.295935
595.000000	0.296215
596.000000	0.296466
597.000000	0.296667
598.000000	0.296746
599.000000	0.296767
600.000000	0.296802
601.000000	0.296844
602.000000	0.297019
603.000000	0.297174
604.000000	0.297284
605.000000	0.297542
606.000000	0.297782
607.000000	0.297984
608.000000	0.298207
609.000000	0.298467
610.000000	0.298754
611.000000	0.299040
612.000000	0.299326
613.000000	0.299485
614.000000	0.299511
615.000000	0.299547
616.000000	0.299575
617.000000	0.299567
618.000000	0.299581
619.000000	0.299569
620.000000	0.299528
621.000000	0.299527
622.000000	0.299525
623.000000	0.299533
624.000000	0.299568
625.000000	0.299670
626.000000	0.299752
627.000000	0.299799
628.000000	0.299898
629.000000	0.300129
630.000000	0.300327
631.000000	0.300471
632.000000	0.300626
633.000000	0.300800
634.000000	0.300964
635.000000	0.301100
636.000000	0.301259
637.000000	0.301445
638.000000	0.301647
639.000000	0.301797
640.000000	0.301924
641.000000	0.301980
642.000000	0.302106
643.000000	0.302260
644.000000	0.302359
645.000000	0.302502
646.000000	0.302653
647.000000	0.302754
648.000000	0.302853
649.000000	0.302970
650.000000	0.303082
651.000000	0.303155
652.000000	0.303361
653.000000	0.303632
654.000000	0.303722
655.000000	0.303907
656.000000	0.304155
657.000000	0.304337
658.000000	0.304491
659.000000	0.304687
660.000000	0.304903
661.000000	0.304987
662.000000	0.305109
663.000000	0.305317
664.000000	0.305486
665.000000	0.305692
666.000000	0.305897
667.000000	0.306039
668.000000	0.306282
669.000000	0.306530
670.000000	0.306729
671.000000	0.306930
672.000000	0.307137
673.000000	0.307357
674.000000	0.307619
675.000000	0.307830
676.000000	0.308032
677.000000	0.308306
678.000000	0.308533
679.000000	0.308758
680.000000	0.309012
681.000000	0.309188
682.000000	0.309442
683.000000	0.309710
684.000000	0.309932
685.000000	0.310093
686.000000	0.310278
687.000000	0.310537
688.000000	0.310810
689.000000	0.311055
690.000000	0.311289
691.000000	0.311563
692.000000	0.311803
693.000000	0.312053
694.000000	0.312320
695.000000	0.312607
696.000000	0.312872
697.000000	0.313063
698.000000	0.313261
699.000000	0.313512
700.000000	0.313822
701.000000	0.314035
702.000000	0.314324
703.000000	0.314691
704.000000	0.314965
705.000000	0.315288
706.000000	0.315629
707.000000	0.315971
708.000000	0.316238
709.000000	0.316501
710.000000	0.316820
711.000000	0.317005
712.000000	0.317147
713.000000	0.317340
714.000000	0.317623
715.000000	0.317919
716.000000	0.318168
717.000000	0.318305
718.000000	0.318526
719.000000	0.318796
720.000000	0.319067
721.000000	0.319347
722.000000	0.319598
723.000000	0.319877
724.000000	0.320181
725.000000	0.320450
726.000000	0.320744
727.000000	0.320999
728.000000	0.321172
729.000000	0.321351
730.000000	0.321561
731.000000	0.321824
732.000000	0.322050
733.000000	0.322237
734.000000	0.322368
735.000000	0.322547
736.000000	0.322854
737.000000	0.323083
738.000000	0.323174
739.000000	0.323319
740.000000	0.323472
741.000000	0.323581
742.000000	0.323740
743.000000	0.323917
744.000000	0.324026
745.000000	0.324114
746.000000	0.324250
747.000000	0.324394
748.000000	0.324518
749.000000	0.324649
750.000000	0.324738
751.000000	0.324636
752.000000	0.324636
753.000000	0.324809
754.000000	0.325016
755.000000	0.325235
756.000000	0.325441
757.000000	0.325567
758.000000	0.325625
759.000000	0.325663
760.000000	0.325657
761.000000	0.325721
762.000000	0.325817
763.000000	0.325898
764.000000	0.325988
765.000000	0.326077
766.000000	0.326191
767.000000	0.326326
768.000000	0.326347
769.000000	0.326345
770.000000	0.326379
771.000000	0.326444
772.000000	0.326494
773.000000	0.326484
774.000000	0.326508
775.000000	0.326485
776.000000	0.326512
777.000000	0.326622
778.000000	0.326678
779.000000	0.326628
780.000000	0.326544
781.000000	0.326598
782.000000	0.326523
783.000000	0.326469
784.000000	0.326469
785.000000	0.326456
786.000000	0.326374
787.000000	0.326235
788.000000	0.326204
789.000000	0.326164
790.000000	0.326077
791.000000	0.325991
792.000000	0.326018
793.000000	0.326011
794.000000	0.325893
795.000000	0.325957
796.000000	0.325972
797.000000	0.325868
798.000000	0.325752
799.000000	0.325669
800.000000	0.325627
801.000000	0.325609
802.000000	0.325533
803.000000	0.325428
804.000000	0.325347
805.000000	0.325240
806.000000	0.325038
807.000000	0.324879
808.000000	0.324829
809.000000	0.324740
810.000000	0.324705
811.000000	0.324741
812.000000	0.324575
813.000000	0.324402
814.000000	0.324265
815.000000	0.324100
816.000000	0.324031
817.000000	0.323998
818.000000	0.323839
819.000000	0.323716
820.000000	0.323656
821.000000	0.323569
822.000000	0.323351
823.000000	0.323184
824.000000	0.323050
825.000000	0.322976
826.000000	0.322835
827.000000	0.322669
828.000000	0.322564
829.000000	0.322506
830.000000	0.322390
831.000000	0.322244
832.000000	0.322008
833.000000	0.321920
834.000000	0.321896
835.000000	0.321875
836.000000	0.321890
837.000000	0.321821
838.000000	0.321686
839.000000	0.321564
840.000000	0.321416
841.000000	0.321326
842.000000	0.321274
843.000000	0.320971
844.000000	0.320646
845.000000	0.320359
846.000000	0.320060
847.000000	0.320021
848.000000	0.320072
849.000000	0.320002
850.000000	0.319863
851.000000	0.319620
852.000000	0.319367
853.000000	0.319268
854.000000	0.319115
855.000000	0.319065
856.000000	0.319135
857.000000	0.319063
858.000000	0.318937
859.000000	0.318776
860.000000	0.318701
861.000000	0.318513
862.000000	0.318310
863.000000	0.318177
864.000000	0.317847
865.000000	0.317510
866.000000	0.317291
867.000000	0.317037
868.000000	0.316997
869.000000	0.316978
870.000000	0.316781
871.000000	0.316763
872.000000	0.316718
873.000000	0.316512
874.000000	0.316493
875.000000	0.316316
876.000000	0.316001
877.000000	0.315671
878.000000	0.315535
879.000000	0.315415
880.000000	0.315096
881.000000	0.314899
882.000000	0.314720
883.000000	0.314465
884.000000	0.314015
885.000000	0.313713
886.000000	0.313609
887.000000	0.313611
888.000000	0.313340
889.000000	0.313055
890.000000	0.312860
891.000000	0.312946
892.000000	0.312740
893.000000	0.312467
894.000000	0.312353
895.000000	0.312106
896.000000	0.311798
897.000000	0.311476
898.000000	0.311181
899.000000	0.310910
900.000000	0.310652
901.000000	0.310425
902.000000	0.310426
903.000000	0.310334
904.000000	0.310149
905.000000	0.309906
906.000000	0.309982
907.000000	0.309918
908.000000	0.309652
909.000000	0.309398
910.000000	0.309162
911.000000	0.308980
912.000000	0.308861
913.000000	0.308642
914.000000	0.308364
915.000000	0.308147
916.000000	0.307995
917.000000	0.307901
918.000000	0.307849
919.000000	0.307788
920.000000	0.307684
921.000000	0.307490
922.000000	0.307196
923.000000	0.306818
924.000000	0.306643
925.000000	0.306509
926.000000	0.306323
927.000000	0.306092
928.000000	0.305770
929.000000	0.305513
930.000000	0.305431
931.000000	0.305005
932.000000	0.304575
933.000000	0.304308
934.000000	0.304030
935.000000	0.303792
936.000000	0.303671
937.000000	0.303593
938.000000	0.303465
939.000000	0.303351
940.000000	0.303230
941.000000	0.303187
942.000000	0.303088
943.000000	0.302932
944.000000	0.302648
945.000000	0.302428
946.000000	0.302096
947.000000	0.301819
948.000000	0.301714
949.000000	0.301477
950.000000	0.301268
951.000000	0.301100
952.000000	0.300945
953.000000	0.300781
954.000000	0.300503
955.000000	0.300058
956.000000	0.299831
957.000000	0.299720
958.000000	0.299594
959.000000	0.299435
960.000000	0.299174
961.000000	0.299088
962.000000	0.299064
963.000000	0.298600
964.000000	0.298487
965.000000	0.298484
966.000000	0.298228
967.000000	0.298292
968.000000	0.297932
969.000000	0.297343
970.000000	0.297233
971.000000	0.297210
972.000000	0.297161
973.000000	0.297057
974.000000	0.297136
975.000000	0.297184
976.000000	0.296992
977.000000	0.296522
978.000000	0.296173
979.000000	0.296201
980.000000	0.296113
981.000000	0.295709
982.000000	0.295702
983.000000	0.295664
984.000000	0.295468
985.000000	0.295243
986.000000	0.295204
987.000000	0.295179
988.000000	0.295012
989.000000	0.295202
990.000000	0.295225
991.000000	0.294999
992.000000	0.294718
993.000000	0.294753
994.000000	0.294562
995.000000	0.294270
996.000000	0.294114
997.000000	0.294118
998.000000	0.293934
999.000000	0.293721
1000.000000	0.294171
1001.000000	0.293703
1002.000000	0.293989
1003.000000	0.294134
1004.000000	0.293865
1005.000000	0.293152
1006.000000	0.292636
1007.000000	0.291875
1008.000000	0.291330
1009.000000	0.291456
1010.000000	0.291179
1011.000000	0.291471
1012.000000	0.291813
1013.000000	0.291110
1014.000000	0.290419
1015.000000	0.289817
1016.000000	0.289763
1017.000000	0.290045
1018.000000	0.290315
1019.000000	0.290580
1020.000000	0.290916
1021.000000	0.290877
1022.000000	0.291024
1023.000000	0.291374
1024.000000	0.291790
1025.000000	0.291623
1026.000000	0.291440
1027.000000	0.291090
1028.000000	0.291069
1029.000000	0.291407
1030.000000	0.291863
1031.000000	0.291966
1032.000000	0.291629
1033.000000	0.291743
1034.000000	0.291927
1035.000000	0.292397
1036.000000	0.292723
1037.000000	0.293271
1038.000000	0.293245
1039.000000	0.292986
1040.000000	0.292789
1041.000000	0.292306
1042.000000	0.292066
1043.000000	0.292433
1044.000000	0.292762
1045.000000	0.292968
1046.000000	0.293265
1047.000000	0.293461
1048.000000	0.293300
1049.000000	0.293513
1050.000000	0.293807
1051.000000	0.294205
1052.000000	0.294955
1053.000000	0.295242
1054.000000	0.295673
1055.000000	0.295966
1056.000000	0.295947
1057.000000	0.295821
1058.000000	0.296427
1059.000000	0.296990
1060.000000	0.296910
1061.000000	0.297078
1062.000000	0.297489
1063.000000	0.297533
1064.000000	0.297767
1065.000000	0.298640
1066.000000	0.298928
1067.000000	0.298545
1068.000000	0.298659
1069.000000	0.298887
1070.000000	0.299111
1071.000000	0.299528
1072.000000	0.299827
1073.000000	0.299980
1074.000000	0.300593
1075.000000	0.301167
1076.000000	0.301337
1077.000000	0.301411
1078.000000	0.301591
1079.000000	0.301641
1080.000000	0.301292
1081.000000	0.301626
1082.000000	0.302597
1083.000000	0.302917
1084.000000	0.303348
1085.000000	0.303642
1086.000000	0.303195
1087.000000	0.303368
1088.000000	0.304110
1089.000000	0.304408
1090.000000	0.304497
1091.000000	0.304721
1092.000000	0.304940
1093.000000	0.305162
1094.000000	0.305615
1095.000000	0.306395
1096.000000	0.306884
1097.000000	0.307292
1098.000000	0.307811
1099.000000	0.308359
1100.000000	0.308798
1101.000000	0.309271
1102.000000	0.309496
1103.000000	0.309426
1104.000000	0.309501
1105.000000	0.309450
1106.000000	0.309512
1107.000000	0.309569
1108.000000	0.309672
1109.000000	0.309862
1110.000000	0.310067
1111.000000	0.310465
1112.000000	0.311149
1113.000000	0.311413
1114.000000	0.311632
1115.000000	0.311851
1116.000000	0.311718
1117.000000	0.311918
1118.000000	0.312433
1119.000000	0.312652
1120.000000	0.312826
1121.000000	0.312968
1122.000000	0.312965
1123.000000	0.313305
1124.000000	0.313562
1125.000000	0.313886
1126.000000	0.314395
1127.000000	0.314698
1128.000000	0.314915
1129.000000	0.315026
1130.000000	0.315329
1131.000000	0.315663
1132.000000	0.315882
1133.000000	0.316349
1134.000000	0.316471
1135.000000	0.316086
1136.000000	0.316148
1137.000000	0.316190
1138.000000	0.316409
1139.000000	0.317131
1140.000000	0.317608
1141.000000	0.318067
1142.000000	0.318392
1143.000000	0.318404
1144.000000	0.318663
1145.000000	0.318883
1146.000000	0.318910
1147.000000	0.318978
1148.000000	0.318970
1149.000000	0.319062
1150.000000	0.319121
1151.000000	0.319272
1152.000000	0.319537
1153.000000	0.319669
1154.000000	0.319662
1155.000000	0.319750
1156.000000	0.319887
1157.000000	0.319971
1158.000000	0.319992
1159.000000	0.320054
1160.000000	0.319983
1161.000000	0.320065
1162.000000	0.320356
1163.000000	0.320762
1164.000000	0.320925
1165.000000	0.321024
1166.000000	0.321192
1167.000000	0.321263
1168.000000	0.321237
1169.000000	0.321247
1170.000000	0.321293
1171.000000	0.321214
1172.000000	0.321268
1173.000000	0.321469
1174.000000	0.321568
1175.000000	0.321572
1176.000000	0.321611
1177.000000	0.321727
1178.000000	0.321835
1179.000000	0.321951
1180.000000	0.321994
1181.000000	0.322019
1182.000000	0.322193
1183.000000	0.322469
1184.000000	0.322739
1185.000000	0.322879
1186.000000	0.323032
1187.000000	0.323157
1188.000000	0.323120
1189.000000	0.323156
1190.000000	0.323362
1191.000000	0.323418
1192.000000	0.323453
1193.000000	0.323595
1194.000000	0.323623
1195.000000	0.323684
1196.000000	0.323725
1197.000000	0.323784
1198.000000	0.323950
1199.000000	0.323960
1200.000000	0.323829
1201.000000	0.323765
1202.000000	0.323729
1203.000000	0.323807
1204.000000	0.323941
1205.000000	0.323969
1206.000000	0.323966
1207.000000	0.323934
1208.000000	0.323899
1209.000000	0.323893
1210.000000	0.323985
1211.000000	0.324137
1212.000000	0.324189
1213.000000	0.324340
1214.000000	0.324449
1215.000000	0.324387
1216.000000	0.324441
1217.000000	0.324642
1218.000000	0.324661
1219.000000	0.324586
1220.000000	0.324614
1221.000000	0.324616
1222.000000	0.324558
1223.000000	0.324738
1224.000000	0.324778
1225.000000	0.324653
1226.000000	0.324707
1227.000000	0.324669
1228.000000	0.324660
1229.000000	0.324626
1230.000000	0.324577
1231.000000	0.324498
1232.000000	0.324469
1233.000000	0.324611
1234.000000	0.324904
1235.000000	0.324981
1236.000000	0.324963
1237.000000	0.324973
1238.000000	0.324787
1239.000000	0.324657
1240.000000	0.324564
1241.000000	0.324525
1242.000000	0.324325
1243.000000	0.324261
1244.000000	0.324403
1245.000000	0.324600
1246.000000	0.324802
1247.000000	0.324831
1248.000000	0.324663
1249.000000	0.324670
1250.000000	0.324773
1251.000000	0.324828
1252.000000	0.324853
1253.000000	0.324971
1254.000000	0.324936
1255.000000	0.324716
1256.000000	0.324693
1257.000000	0.324769
1258.000000	0.324780
1259.000000	0.324765
1260.000000	0.324805
1261.000000	0.324691
1262.000000	0.324762
1263.000000	0.325029
1264.000000	0.325172
1265.000000	0.325365
1266.000000	0.325387
1267.000000	0.325232
1268.000000	0.325115
1269.000000	0.324939
1270.000000	0.324984
1271.000000	0.325107
1272.000000	0.325090
1273.000000	0.325185
1274.000000	0.325201
1275.000000	0.325214
1276.000000	0.325245
1277.000000	0.325376
1278.000000	0.325431
1279.000000	0.325463
1280.000000	0.325458
1281.000000	0.325463
1282.000000	0.325513
1283.000000	0.325588
1284.000000	0.325669
1285.000000	0.325626
1286.000000	0.325387
1287.000000	0.325345
1288.000000	0.325461
1289.000000	0.325473
1290.000000	0.325466
1291.000000	0.325431
1292.000000	0.325163
1293.000000	0.324951
1294.000000	0.324857
1295.000000	0.324843
1296.000000	0.324966
1297.000000	0.325007
1298.000000	0.324985
1299.000000	0.324886
1300.000000	0.324785
1301.000000	0.324624
1302.000000	0.324524
1303.000000	0.324661
1304.000000	0.324648
1305.000000	0.324748
1306.000000	0.324743
1307.000000	0.324712
1308.000000	0.324668
1309.000000	0.324488
1310.000000	0.324359
1311.000000	0.324248
1312.000000	0.324191
1313.000000	0.324115
1314.000000	0.324028
1315.000000	0.323906
1316.000000	0.323824
1317.000000	0.323754
1318.000000	0.323787
1319.000000	0.323880
1320.000000	0.323883
1321.000000	0.323837
1322.000000	0.323776
1323.000000	0.323675
1324.000000	0.323722
1325.000000	0.323756
1326.000000	0.323717
1327.000000	0.323759
1328.000000	0.323787
1329.000000	0.323638
1330.000000	0.323345
1331.000000	0.323193
1332.000000	0.322981
1333.000000	0.322900
1334.000000	0.323034
1335.000000	0.323100
1336.000000	0.323161
1337.000000	0.323247
1338.000000	0.323270
1339.000000	0.323396
1340.000000	0.323457
1341.000000	0.323410
1342.000000	0.323258
1343.000000	0.323103
1344.000000	0.323058
1345.000000	0.323049
1346.000000	0.323224
1347.000000	0.323283
1348.000000	0.323257
1349.000000	0.323139
1350.000000	0.322987
1351.000000	0.322900
1352.000000	0.322789
1353.000000	0.322717
1354.000000	0.322791
1355.000000	0.322811
1356.000000	0.322798
1357.000000	0.322747
1358.000000	0.322681
1359.000000	0.322637
1360.000000	0.322648
1361.000000	0.322847
1362.000000	0.322887
1363.000000	0.322829
1364.000000	0.322852
1365.000000	0.322904
1366.000000	0.322880
1367.000000	0.322860
1368.000000	0.322738
1369.000000	0.322727
1370.000000	0.322607
1371.000000	0.322499
1372.000000	0.322487
1373.000000	0.322338
1374.000000	0.322166
1375.000000	0.322067
1376.000000	0.321972
1377.000000	0.321865
1378.000000	0.321651
1379.000000	0.321413
1380.000000	0.321429
1381.000000	0.321363
1382.000000	0.321188
1383.000000	0.320921
1384.000000	0.320311
1385.000000	0.319856
1386.000000	0.319738
1387.000000	0.319725
1388.000000	0.319657
1389.000000	0.319388
1390.000000	0.319033
1391.000000	0.318626
1392.000000	0.318285
1393.000000	0.317972
1394.000000	0.317811
1395.000000	0.317499
1396.000000	0.317102
1397.000000	0.316785
1398.000000	0.316436
1399.000000	0.316060
1400.000000	0.315656
1401.000000	0.315295
1402.000000	0.314943
1403.000000	0.314624
1404.000000	0.314440
1405.000000	0.314210
1406.000000	0.313928
1407.000000	0.313601
1408.000000	0.313181
1409.000000	0.312914
1410.000000	0.312669
1411.000000	0.312393
1412.000000	0.312199
1413.000000	0.311950
1414.000000	0.311658
1415.000000	0.311505
1416.000000	0.311446
1417.000000	0.311516
1418.000000	0.311640
1419.000000	0.311716
1420.000000	0.311603
1421.000000	0.311437
1422.000000	0.311284
1423.000000	0.311296
1424.000000	0.311201
1425.000000	0.311093
1426.000000	0.311076
1427.000000	0.310972
1428.000000	0.310839
1429.000000	0.310826
1430.000000	0.310747
1431.000000	0.310586
1432.000000	0.310552
1433.000000	0.310656
1434.000000	0.310706
1435.000000	0.310895
1436.000000	0.311087
1437.000000	0.311205
1438.000000	0.311432
1439.000000	0.311816
1440.000000	0.312164
1441.000000	0.312549
1442.000000	0.313053
1443.000000	0.313604
1444.000000	0.314028
1445.000000	0.314470
1446.000000	0.314776
1447.000000	0.314946
1448.000000	0.315208
1449.000000	0.315474
1450.000000	0.315704
1451.000000	0.315907
1452.000000	0.315926
1453.000000	0.315936
1454.000000	0.316000
1455.000000	0.316033
1456.000000	0.316183
1457.000000	0.316321
1458.000000	0.316242
1459.000000	0.316271
1460.000000	0.316466
1461.000000	0.316534
1462.000000	0.316675
1463.000000	0.316798
1464.000000	0.316701
1465.000000	0.316682
1466.000000	0.316767
1467.000000	0.316763
1468.000000	0.316705
1469.000000	0.316774
1470.000000	0.316826
1471.000000	0.316978
1472.000000	0.317241
1473.000000	0.317520
1474.000000	0.317675
1475.000000	0.317770
1476.000000	0.317768
1477.000000	0.317768
1478.000000	0.317799
1479.000000	0.317784
1480.000000	0.317834
1481.000000	0.317881
1482.000000	0.317962
1483.000000	0.318054
1484.000000	0.318175
1485.000000	0.318282
1486.000000	0.318352
1487.000000	0.318416
1488.000000	0.318540
1489.000000	0.318652
1490.000000	0.318594
1491.000000	0.318656
1492.000000	0.318741
1493.000000	0.318809
1494.000000	0.318826
1495.000000	0.318881
1496.000000	0.318956
1497.000000	0.318995
1498.000000	0.319077
1499.000000	0.319128
1500.000000	0.319076
1501.000000	0.319155
1502.000000	0.319232
1503.000000	0.319364
1504.000000	0.319622
1505.000000	0.319730
1506.000000	0.319877
1507.000000	0.320050
1508.000000	0.320112
1509.000000	0.320089
1510.000000	0.320044
1511.000000	0.320077
1512.000000	0.320007
1513.000000	0.319935
1514.000000	0.319938
1515.000000	0.319790
1516.000000	0.319848
1517.000000	0.320059
1518.000000	0.320105
1519.000000	0.320161
1520.000000	0.320185
1521.000000	0.320061
1522.000000	0.320106
1523.000000	0.320127
1524.000000	0.319979
1525.000000	0.320025
1526.000000	0.320061
1527.000000	0.319990
1528.000000	0.320070
1529.000000	0.320070
1530.000000	0.319867
1531.000000	0.319906
1532.000000	0.319989
1533.000000	0.319935
1534.000000	0.320096
1535.000000	0.320234
1536.000000	0.320166
1537.000000	0.320340
1538.000000	0.320434
1539.000000	0.320227
1540.000000	0.320204
1541.000000	0.320236
1542.000000	0.320185
1543.000000	0.320281
1544.000000	0.320296
1545.000000	0.320243
1546.000000	0.320262
1547.000000	0.320218
1548.000000	0.320226
1549.000000	0.320220
1550.000000	0.320091
1551.000000	0.320032
1552.000000	0.320063
1553.000000	0.320122
1554.000000	0.320194
1555.000000	0.320321
1556.000000	0.320374
1557.000000	0.320357
1558.000000	0.320430
1559.000000	0.320463
1560.000000	0.320562
1561.000000	0.320817
1562.000000	0.320853
1563.000000	0.320856
1564.000000	0.320911
1565.000000	0.320897
1566.000000	0.320810
1567.000000	0.320866
1568.000000	0.320816
1569.000000	0.320630
1570.000000	0.320618
1571.000000	0.320708
1572.000000	0.320738
1573.000000	0.320811
1574.000000	0.320829
1575.000000	0.320848
1576.000000	0.320819
1577.000000	0.320716
1578.000000	0.320678
1579.000000	0.320698
1580.000000	0.320661
1581.000000	0.320702
1582.000000	0.320648
1583.000000	0.320496
1584.000000	0.320386
1585.000000	0.320415
1586.000000	0.320372
1587.000000	0.320245
1588.000000	0.320162
1589.000000	0.320055
1590.000000	0.319996
1591.000000	0.320007
1592.000000	0.320062
1593.000000	0.320198
1594.000000	0.320233
1595.000000	0.320343
1596.000000	0.320405
1597.000000	0.320423
1598.000000	0.320438
1599.000000	0.320482
1600.000000	0.320451
1601.000000	0.320403
1602.000000	0.320396
1603.000000	0.320466
1604.000000	0.320456
1605.000000	0.320434
1606.000000	0.320428
1607.000000	0.320404
1608.000000	0.320411
1609.000000	0.320574
1610.000000	0.320592
1611.000000	0.320550
1612.000000	0.320544
1613.000000	0.320602
1614.000000	0.320591
1615.000000	0.320678
1616.000000	0.320707
1617.000000	0.320579
1618.000000	0.320521
1619.000000	0.320416
1620.000000	0.320386
1621.000000	0.320467
1622.000000	0.320522
1623.000000	0.320599
1624.000000	0.320617
1625.000000	0.320410
1626.000000	0.320269
1627.000000	0.320173
1628.000000	0.320145
1629.000000	0.320143
1630.000000	0.320141
1631.000000	0.320112
1632.000000	0.320018
1633.000000	0.319890
1634.000000	0.319825
1635.000000	0.319797
1636.000000	0.319742
1637.000000	0.319667
1638.000000	0.319682
1639.000000	0.319879
1640.000000	0.319873
1641.000000	0.319907
1642.000000	0.319887
1643.000000	0.319683
1644.000000	0.319676
1645.000000	0.319851
1646.000000	0.319826
1647.000000	0.319794
1648.000000	0.319718
1649.000000	0.319633
1650.000000	0.319528
1651.000000	0.319469
1652.000000	0.319400
1653.000000	0.319198
1654.000000	0.319128
1655.000000	0.319065
1656.000000	0.318949
1657.000000	0.318939
1658.000000	0.318852
1659.000000	0.318766
1660.000000	0.318857
1661.000000	0.318952
1662.000000	0.318981
1663.000000	0.319121
1664.000000	0.319125
1665.000000	0.318916
1666.000000	0.318976
1667.000000	0.319062
1668.000000	0.319145
1669.000000	0.319282
1670.000000	0.319314
1671.000000	0.319448
1672.000000	0.319476
1673.000000	0.319376
1674.000000	0.319546
1675.000000	0.319607
1676.000000	0.319693
1677.000000	0.319669
1678.000000	0.319590
1679.000000	0.319448
1680.000000	0.319422
1681.000000	0.319642
1682.000000	0.319629
1683.000000	0.319545
1684.000000	0.319423
1685.000000	0.319176
1686.000000	0.319090
1687.000000	0.319096
1688.000000	0.318949
1689.000000	0.318787
1690.000000	0.318617
1691.000000	0.318639
1692.000000	0.318716
1693.000000	0.318797
1694.000000	0.318868
1695.000000	0.318779
1696.000000	0.318701
1697.000000	0.318594
1698.000000	0.318409
1699.000000	0.318395
1700.000000	0.318494
1701.000000	0.318641
1702.000000	0.318812
1703.000000	0.318817
1704.000000	0.318743
1705.000000	0.318762
1706.000000	0.318812
1707.000000	0.318836
1708.000000	0.318876
1709.000000	0.318866
1710.000000	0.318915
1711.000000	0.318930
1712.000000	0.318929
1713.000000	0.318966
1714.000000	0.319051
1715.000000	0.319082
1716.000000	0.319159
1717.000000	0.319204
1718.000000	0.319141
1719.000000	0.319080
1720.000000	0.319090
1721.000000	0.319074
1722.000000	0.318993
1723.000000	0.318988
1724.000000	0.319092
1725.000000	0.319110
1726.000000	0.319027
1727.000000	0.318973
1728.000000	0.318849
1729.000000	0.318633
1730.000000	0.318514
1731.000000	0.318354
1732.000000	0.318053
1733.000000	0.318027
1734.000000	0.318038
1735.000000	0.317975
1736.000000	0.317983
1737.000000	0.317876
1738.000000	0.317628
1739.000000	0.317566
1740.000000	0.317534
1741.000000	0.317544
1742.000000	0.317664
1743.000000	0.317772
1744.000000	0.317899
1745.000000	0.317911
1746.000000	0.317867
1747.000000	0.317868
1748.000000	0.317870
1749.000000	0.318122
1750.000000	0.318115
1751.000000	0.317956
1752.000000	0.318023
1753.000000	0.317986
1754.000000	0.317894
1755.000000	0.317864
1756.000000	0.317782
1757.000000	0.317500
1758.000000	0.317366
1759.000000	0.317345
1760.000000	0.317290
1761.000000	0.317129
1762.000000	0.317140
1763.000000	0.317359
1764.000000	0.317405
1765.000000	0.317445
1766.000000	0.317485
1767.000000	0.317306
1768.000000	0.317185
1769.000000	0.317236
1770.000000	0.317261
1771.000000	0.317176
1772.000000	0.317164
1773.000000	0.317154
1774.000000	0.317185
1775.000000	0.317301
1776.000000	0.317383
1777.000000	0.317429
1778.000000	0.317568
1779.000000	0.317769
1780.000000	0.317856
1781.000000	0.317970
1782.000000	0.317921
1783.000000	0.317713
1784.000000	0.317741
1785.000000	0.317657
1786.000000	0.317554
1787.000000	0.317480
1788.000000	0.317279
1789.000000	0.317145
1790.000000	0.317128
1791.000000	0.317042
1792.000000	0.316966
1793.000000	0.317010
1794.000000	0.317195
1795.000000	0.317322
1796.000000	0.317514
1797.000000	0.317663
1798.000000	0.317714
1799.000000	0.317805
1800.000000	0.318011
1801.000000	0.317817
1802.000000	0.317699
1803.000000	0.318015
1804.000000	0.318062
1805.000000	0.318356
1806.000000	0.318638
1807.000000	0.318739
1808.000000	0.318856
1809.000000	0.319137
1810.000000	0.319517
1811.000000	0.319440
1812.000000	0.318914
1813.000000	0.319133
1814.000000	0.319838
1815.000000	0.319741
1816.000000	0.319545
1817.000000	0.319242
1818.000000	0.318180
1819.000000	0.317544
1820.000000	0.317757
1821.000000	0.318522
1822.000000	0.318783
1823.000000	0.319138
1824.000000	0.319251
1825.000000	0.319060
1826.000000	0.318945
1827.000000	0.318877
1828.000000	0.318448
1829.000000	0.317654
1830.000000	0.317090
1831.000000	0.316929
1832.000000	0.316691
1833.000000	0.317163
1834.000000	0.318949
1835.000000	0.319236
1836.000000	0.319022
1837.000000	0.318946
1838.000000	0.317790
1839.000000	0.317414
1840.000000	0.317280
1841.000000	0.317012
1842.000000	0.317007
1843.000000	0.316939
1844.000000	0.317058
1845.000000	0.317639
1846.000000	0.317910
1847.000000	0.318158
1848.000000	0.317891
1849.000000	0.317459
1850.000000	0.316668
1851.000000	0.316528
1852.000000	0.316267
1853.000000	0.316552
1854.000000	0.317683
1855.000000	0.318098
1856.000000	0.318416
1857.000000	0.318485
1858.000000	0.318148
1859.000000	0.317311
1860.000000	0.316787
1861.000000	0.316202
1862.000000	0.315325
1863.000000	0.313957
1864.000000	0.313786
1865.000000	0.313980
1866.000000	0.313910
1867.000000	0.314656
1868.000000	0.314961
1869.000000	0.314130
1870.000000	0.313883
1871.000000	0.314157
1872.000000	0.314580
1873.000000	0.314590
1874.000000	0.314667
1875.000000	0.314459
1876.000000	0.313683
1877.000000	0.312390
1878.000000	0.311756
1879.000000	0.310820
1880.000000	0.310521
1881.000000	0.309882
1882.000000	0.308571
1883.000000	0.307776
1884.000000	0.307025
1885.000000	0.305983
1886.000000	0.305212
1887.000000	0.304887
1888.000000	0.303833
1889.000000	0.303239
1890.000000	0.302515
1891.000000	0.301963
1892.000000	0.301482
1893.000000	0.300432
1894.000000	0.298785
1895.000000	0.297038
1896.000000	0.294921
1897.000000	0.293341
1898.000000	0.291645
1899.000000	0.289947
1900.000000	0.288615
1901.000000	0.287111
1902.000000	0.285684
1903.000000	0.285127
1904.000000	0.284853
1905.000000	0.284282
1906.000000	0.283841
1907.000000	0.283498
1908.000000	0.283370
1909.000000	0.283454
1910.000000	0.283232
1911.000000	0.283386
1912.000000	0.283166
1913.000000	0.282591
1914.000000	0.283193
1915.000000	0.283580
1916.000000	0.283874
1917.000000	0.284111
1918.000000	0.284555
1919.000000	0.284578
1920.000000	0.284382
1921.000000	0.284631
1922.000000	0.285224
1923.000000	0.286179
1924.000000	0.287120
1925.000000	0.287639
1926.000000	0.288718
1927.000000	0.288729
1928.000000	0.288725
1929.000000	0.288654
1930.000000	0.289215
1931.000000	0.288532
1932.000000	0.288716
1933.000000	0.289074
1934.000000	0.289105
1935.000000	0.289844
1936.000000	0.290174
1937.000000	0.290998
1938.000000	0.291580
1939.000000	0.291705
1940.000000	0.291382
1941.000000	0.291456
1942.000000	0.290839
1943.000000	0.290608
1944.000000	0.291166
1945.000000	0.291282
1946.000000	0.292036
1947.000000	0.292561
1948.000000	0.292645
1949.000000	0.293278
1950.000000	0.293573
1951.000000	0.293597
1952.000000	0.293511
1953.000000	0.293327
1954.000000	0.293237
1955.000000	0.293418
1956.000000	0.294166
1957.000000	0.294820
1958.000000	0.294971
1959.000000	0.295383
1960.000000	0.295289
1961.000000	0.295493
1962.000000	0.295763
1963.000000	0.296370
1964.000000	0.296516
1965.000000	0.296963
1966.000000	0.296969
1967.000000	0.296870
1968.000000	0.297014
1969.000000	0.296794
1970.000000	0.296631
1971.000000	0.296610
1972.000000	0.296460
1973.000000	0.296167
1974.000000	0.295784
1975.000000	0.296014
1976.000000	0.296661
1977.000000	0.296727
1978.000000	0.297003
1979.000000	0.297251
1980.000000	0.297029
1981.000000	0.297124
1982.000000	0.297660
1983.000000	0.298334
1984.000000	0.298476
1985.000000	0.298332
1986.000000	0.298016
1987.000000	0.297414
1988.000000	0.296767
1989.000000	0.296540
1990.000000	0.297134
1991.000000	0.298186
1992.000000	0.299223
1993.000000	0.299980
1994.000000	0.300197
1995.000000	0.300588
1996.000000	0.301006
1997.000000	0.301151
1998.000000	0.301252
1999.000000	0.301576
2000.000000	0.301805
2001.000000	0.301849
2002.000000	0.302419
2003.000000	0.302771
2004.000000	0.302160
2005.000000	0.301062
2006.000000	0.300699
2007.000000	0.300514
2008.000000	0.300767
2009.000000	0.302278
2010.000000	0.302952
2011.000000	0.303142
2012.000000	0.303530
2013.000000	0.304007
2014.000000	0.303811
2015.000000	0.303719
2016.000000	0.303402
2017.000000	0.302772
2018.000000	0.302687
2019.000000	0.302748
2020.000000	0.303086
2021.000000	0.303329
2022.000000	0.303528
2023.000000	0.303630
2024.000000	0.303865
2025.000000	0.304029
2026.000000	0.303879
2027.000000	0.303838
2028.000000	0.304231
2029.000000	0.304483
2030.000000	0.304724
2031.000000	0.305208
2032.000000	0.305401
2033.000000	0.305261
2034.000000	0.305065
2035.000000	0.304409
2036.000000	0.304233
2037.000000	0.304424
2038.000000	0.304755
2039.000000	0.305155
2040.000000	0.306662
2041.000000	0.307533
2042.000000	0.307452
2043.000000	0.307449
2044.000000	0.306923
2045.000000	0.306784
2046.000000	0.306433
2047.000000	0.305809
2048.000000	0.304687
2049.000000	0.304336
2050.000000	0.303481
2051.000000	0.303236
2052.000000	0.303871
2053.000000	0.304025
2054.000000	0.304368
2055.000000	0.304667
2056.000000	0.304640
2057.000000	0.304862
2058.000000	0.305236
2059.000000	0.305551
2060.000000	0.305766
2061.000000	0.306229
2062.000000	0.306208
2063.000000	0.305578
2064.000000	0.305353
2065.000000	0.305416
2066.000000	0.305380
2067.000000	0.305783
2068.000000	0.306407
2069.000000	0.305930
2070.000000	0.305239
2071.000000	0.304593
2072.000000	0.304113
2073.000000	0.304796
2074.000000	0.305674
2075.000000	0.306054
2076.000000	0.306677
2077.000000	0.306573
2078.000000	0.305544
2079.000000	0.305167
2080.000000	0.304804
2081.000000	0.304598
2082.000000	0.304923
2083.000000	0.304584
2084.000000	0.304428
2085.000000	0.303729
2086.000000	0.303388
2087.000000	0.304332
2088.000000	0.305319
2089.000000	0.306487
2090.000000	0.307020
2091.000000	0.307007
2092.000000	0.307327
2093.000000	0.307668
2094.000000	0.307646
2095.000000	0.307917
2096.000000	0.307857
2097.000000	0.307003
2098.000000	0.306196
2099.000000	0.306467
2100.000000	0.306209
2101.000000	0.306352
2102.000000	0.306908
2103.000000	0.306605
2104.000000	0.306641
2105.000000	0.306413
2106.000000	0.305798
2107.000000	0.305483
2108.000000	0.304964
2109.000000	0.304923
2110.000000	0.305155
2111.000000	0.305313
2112.000000	0.305592
2113.000000	0.305869
2114.000000	0.305942
2115.000000	0.306356
2116.000000	0.306634
2117.000000	0.306461
2118.000000	0.305936
2119.000000	0.305172
2120.000000	0.305055
2121.000000	0.305200
2122.000000	0.305151
2123.000000	0.305686
2124.000000	0.305786
2125.000000	0.305231
2126.000000	0.305237
2127.000000	0.305992
2128.000000	0.305676
2129.000000	0.304801
2130.000000	0.303876
2131.000000	0.302650
2132.000000	0.302383
2133.000000	0.303230
2134.000000	0.304824
2135.000000	0.305646
2136.000000	0.305875
2137.000000	0.306168
2138.000000	0.305887
2139.000000	0.306004
2140.000000	0.306487
2141.000000	0.306686
2142.000000	0.306759
2143.000000	0.306382
2144.000000	0.305727
2145.000000	0.305283
2146.000000	0.304399
2147.000000	0.304870
2148.000000	0.304684
2149.000000	0.304788
2150.000000	0.305282
2151.000000	0.305110
2152.000000	0.304931
2153.000000	0.304888
2154.000000	0.304654
2155.000000	0.303704
2156.000000	0.303825
2157.000000	0.304456
2158.000000	0.305090
2159.000000	0.306884
2160.000000	0.307601
2161.000000	0.307959
2162.000000	0.308081
2163.000000	0.307108
2164.000000	0.306607
2165.000000	0.306163
2166.000000	0.305772
2167.000000	0.305358
2168.000000	0.304938
2169.000000	0.303951
2170.000000	0.303126
2171.000000	0.302497
2172.000000	0.301959
2173.000000	0.301339
2174.000000	0.300606
2175.000000	0.300293
2176.000000	0.299947
2177.000000	0.300454
2178.000000	0.302182
2179.000000	0.303241
2180.000000	0.304539
2181.000000	0.305533
2182.000000	0.306062
2183.000000	0.305649
2184.000000	0.303726
2185.000000	0.302835
2186.000000	0.300826
2187.000000	0.300379
2188.000000	0.303220
2189.000000	0.304410
2190.000000	0.304546
2191.000000	0.305192
2192.000000	0.304600
2193.000000	0.301093
2194.000000	0.300237
2195.000000	0.300691
2196.000000	0.300057
2197.000000	0.300067
2198.000000	0.299742
2199.000000	0.298188
2200.000000	0.298050
2201.000000	0.299148
2202.000000	0.299604
2203.000000	0.300340
2204.000000	0.300704
2205.000000	0.300715
2206.000000	0.299624
2207.000000	0.298853
2208.000000	0.298188
2209.000000	0.298677
2210.000000	0.298924
2211.000000	0.296350
2212.000000	0.297737
2213.000000	0.297733
2214.000000	0.296393
2215.000000	0.295919
2216.000000	0.296166
2217.000000	0.295960
2218.000000	0.294680
2219.000000	0.296067
2220.000000	0.300518
2221.000000	0.302223
2222.000000	0.304165
2223.000000	0.304820
2224.000000	0.303277
2225.000000	0.302123
2226.000000	0.301802
2227.000000	0.300030
2228.000000	0.297693
2229.000000	0.295933
2230.000000	0.293758
2231.000000	0.292402
2232.000000	0.293752
2233.000000	0.294258
2234.000000	0.295661
2235.000000	0.297102
2236.000000	0.297720
2237.000000	0.297423
2238.000000	0.298488
2239.000000	0.299546
2240.000000	0.301254
2241.000000	0.304454
2242.000000	0.305307
2243.000000	0.304845
2244.000000	0.304957
2245.000000	0.304393
2246.000000	0.304153
2247.000000	0.305055
2248.000000	0.304687
2249.000000	0.303845
2250.000000	0.301616
2251.000000	0.299342
2252.000000	0.297834
2253.000000	0.297227
2254.000000	0.296001
2255.000000	0.294813
2256.000000	0.295034
2257.000000	0.295816
2258.000000	0.297576
2259.000000	0.299160
2260.000000	0.300841
2261.000000	0.301598
2262.000000	0.301424
2263.000000	0.300800
2264.000000	0.298753
2265.000000	0.299116
2266.000000	0.301547
2267.000000	0.301285
2268.000000	0.300673
2269.000000	0.300251
2270.000000	0.297575
2271.000000	0.295549
2272.000000	0.295505
2273.000000	0.294611
2274.000000	0.291884
2275.000000	0.289931
2276.000000	0.288555
2277.000000	0.286732
2278.000000	0.286251
2279.000000	0.287166
2280.000000	0.287837
2281.000000	0.288865
2282.000000	0.288067
2283.000000	0.287110
2284.000000	0.286548
2285.000000	0.284857
2286.000000	0.284894
2287.000000	0.285492
2288.000000	0.284768
2289.000000	0.286729
2290.000000	0.288740
2291.000000	0.287532
2292.000000	0.286459
2293.000000	0.285224
2294.000000	0.285262
2295.000000	0.285618
2296.000000	0.286074
2297.000000	0.288244
2298.000000	0.288354
2299.000000	0.285860
2300.000000	0.285144
2301.000000	0.285227
2302.000000	0.285718
2303.000000	0.287008
2304.000000	0.288230
2305.000000	0.289562
2306.000000	0.290520
2307.000000	0.291127
2308.000000	0.292640
2309.000000	0.293902
2310.000000	0.295421
2311.000000	0.298646
2312.000000	0.299085
2313.000000	0.296848
2314.000000	0.294079
2315.000000	0.289806
2316.000000	0.287246
2317.000000	0.288133
2318.000000	0.290587
2319.000000	0.293785
2320.000000	0.296310
2321.000000	0.297331
2322.000000	0.298660
2323.000000	0.297267
2324.000000	0.295945
2325.000000	0.297471
2326.000000	0.298112
2327.000000	0.301218
2328.000000	0.302983
2329.000000	0.301098
2330.000000	0.298435
2331.000000	0.294038
2332.000000	0.292760
2333.000000	0.293856
2334.000000	0.293665
2335.000000	0.294291
2336.000000	0.295549
2337.000000	0.295760
2338.000000	0.296335
2339.000000	0.295966
2340.000000	0.295419
2341.000000	0.293548
2342.000000	0.288460
2343.000000	0.285998
2344.000000	0.283176
2345.000000	0.281472
2346.000000	0.282609
2347.000000	0.284021
2348.000000	0.285224
2349.000000	0.288978
2350.000000	0.293100
2351.000000	0.292936
2352.000000	0.291852
2353.000000	0.288326
2354.000000	0.283115
2355.000000	0.281209
2356.000000	0.280869
2357.000000	0.284656
2358.000000	0.289939
2359.000000	0.291283
2360.000000	0.290552
2361.000000	0.288545
2362.000000	0.285383
2363.000000	0.285352
2364.000000	0.289133
2365.000000	0.291522
2366.000000	0.292025
2367.000000	0.291240
2368.000000	0.289828
2369.000000	0.287698
2370.000000	0.284796
2371.000000	0.283206
2372.000000	0.283956
2373.000000	0.285917
2374.000000	0.286136
2375.000000	0.285515
2376.000000	0.281710
2377.000000	0.276239
2378.000000	0.277029
2379.000000	0.280354
2380.000000	0.283381
2381.000000	0.284084
2382.000000	0.279618
2383.000000	0.279752
2384.000000	0.278162
2385.000000	0.275467
2386.000000	0.276913
2387.000000	0.273502
2388.000000	0.274990
2389.000000	0.277824
2390.000000	0.278821
2391.000000	0.280224
2392.000000	0.276973
2393.000000	0.273850
2394.000000	0.271448
2395.000000	0.272547
2396.000000	0.273145
2397.000000	0.270489
2398.000000	0.272462
2399.000000	0.274548
2400.000000	0.275118
2401.000000	0.277774
2402.000000	0.277276
2403.000000	0.275820
2404.000000	0.275240
2405.000000	0.275753
2406.000000	0.272555
2407.000000	0.267034
2408.000000	0.263940
2409.000000	0.257769
2410.000000	0.259591
2411.000000	0.258804
2412.000000	0.252925
2413.000000	0.256215
2414.000000	0.254762
2415.000000	0.255268
2416.000000	0.265707
2417.000000	0.268477
2418.000000	0.271047
2419.000000	0.278754
2420.000000	0.279268
2421.000000	0.280863
2422.000000	0.281419
2423.000000	0.275919
2424.000000	0.273276
2425.000000	0.270157
2426.000000	0.262213
2427.000000	0.259589
2428.000000	0.255638
2429.000000	0.249928
2430.000000	0.256429
2431.000000	0.256659
2432.000000	0.250201
2433.000000	0.246454
2434.000000	0.242088
2435.000000	0.238979
2436.000000	0.234120
2437.000000	0.236581
2438.000000	0.231945
2439.000000	0.225982
2440.000000	0.235141
2441.000000	0.234812
2442.000000	0.241968
2443.000000	0.251703
2444.000000	0.254363
2445.000000	0.256861
2446.000000	0.243333
2447.000000	0.234772
2448.000000	0.228374
2449.000000	0.227227
2450.000000	0.233074
2451.000000	0.233585
2452.000000	0.227802
2453.000000	0.207149
2454.000000	0.198463
2455.000000	0.200631
2456.000000	0.203322
2457.000000	0.235194
2458.000000	0.261958
2459.000000	0.254485
2460.000000	0.254350
2461.000000	0.239454
2462.000000	0.216256
2463.000000	0.220592
2464.000000	0.224236
2465.000000	0.230161
2466.000000	0.231943
2467.000000	0.224799
2468.000000	0.222206
2469.000000	0.211171
2470.000000	0.202439
2471.000000	0.200075
2472.000000	0.210797
2473.000000	0.214148
2474.000000	0.195270
2475.000000	0.189569
2476.000000	0.152105
2477.000000	0.124734
2478.000000	0.155259
2479.000000	0.161680
2480.000000	0.165301
2481.000000	0.181960
2482.000000	0.178805
2483.000000	0.201528
2484.000000	0.243370
2485.000000	0.246309
2486.000000	0.206019
2487.000000	0.171561
2488.000000	0.136427
2489.000000	0.112737
2490.000000	0.129295
2491.000000	0.136031
2492.000000	0.138291
2493.000000	0.149296
2494.000000	0.139023
2495.000000	0.098757
2496.000000	0.079846
2497.000000	0.073186
2498.000000	0.072925
2499.000000	0.103703
2500.000000	0.105028
