# Wavelength	NAu-1-50_HEX-10_FV7-40_00001.asd.rts.txt
350.000000	0.129980
351.000000	0.135156
352.000000	0.127982
353.000000	0.134392
354.000000	0.156591
355.000000	0.138611
356.000000	0.133719
357.000000	0.143575
358.000000	0.132487
359.000000	0.129938
360.000000	0.132418
361.000000	0.131037
362.000000	0.138773
363.000000	0.142883
364.000000	0.137255
365.000000	0.136110
366.000000	0.135618
367.000000	0.135405
368.000000	0.138517
369.000000	0.133733
370.000000	0.129589
371.000000	0.137159
372.000000	0.136475
373.000000	0.135392
374.000000	0.138765
375.000000	0.134273
376.000000	0.131537
377.000000	0.135588
378.000000	0.148413
379.000000	0.149829
380.000000	0.144308
381.000000	0.143965
382.000000	0.143704
383.000000	0.143916
384.000000	0.145208
385.000000	0.146902
386.000000	0.148193
387.000000	0.149330
388.000000	0.151532
389.000000	0.152870
390.000000	0.153247
391.000000	0.153280
392.000000	0.156592
393.000000	0.159495
394.000000	0.159560
395.000000	0.161705
396.000000	0.162512
397.000000	0.161591
398.000000	0.162660
399.000000	0.164520
400.000000	0.166327
401.000000	0.167268
402.000000	0.169811
403.000000	0.171907
404.000000	0.172016
405.000000	0.173163
406.000000	0.174526
407.000000	0.175456
408.000000	0.175380
409.000000	0.176767
410.000000	0.178940
411.000000	0.179387
412.000000	0.180072
413.000000	0.181159
414.000000	0.182388
415.000000	0.183345
416.000000	0.184353
417.000000	0.185386
418.000000	0.185493
419.000000	0.185351
420.000000	0.185339
421.000000	0.185637
422.000000	0.186461
423.000000	0.187102
424.000000	0.186802
425.000000	0.186796
426.000000	0.187008
427.000000	0.187226
428.000000	0.187462
429.000000	0.187720
430.000000	0.187848
431.000000	0.187343
432.000000	0.187585
433.000000	0.188021
434.000000	0.187358
435.000000	0.187108
436.000000	0.187275
437.000000	0.187485
438.000000	0.187195
439.000000	0.186899
440.000000	0.186789
441.000000	0.186071
442.000000	0.185512
443.000000	0.185322
444.000000	0.185481
445.000000	0.185643
446.000000	0.185858
447.000000	0.186140
448.000000	0.186398
449.000000	0.187073
450.000000	0.188354
451.000000	0.189556
452.000000	0.191129
453.000000	0.193074
454.000000	0.195042
455.000000	0.197331
456.000000	0.199799
457.000000	0.202021
458.000000	0.204323
459.000000	0.206625
460.000000	0.208750
461.000000	0.210105
462.000000	0.211600
463.000000	0.213325
464.000000	0.214220
465.000000	0.215352
466.000000	0.216613
467.000000	0.217296
468.000000	0.218332
469.000000	0.219325
470.000000	0.219866
471.000000	0.220899
472.000000	0.221630
473.000000	0.221772
474.000000	0.222698
475.000000	0.223496
476.000000	0.224013
477.000000	0.224568
478.000000	0.225057
479.000000	0.225671
480.000000	0.226363
481.000000	0.226672
482.000000	0.227018
483.000000	0.227580
484.000000	0.227979
485.000000	0.228358
486.000000	0.228922
487.000000	0.229465
488.000000	0.229868
489.000000	0.230283
490.000000	0.231044
491.000000	0.231743
492.000000	0.232380
493.000000	0.232936
494.000000	0.233425
495.000000	0.233977
496.000000	0.234603
497.000000	0.235109
498.000000	0.235803
499.000000	0.236690
500.000000	0.237218
501.000000	0.237715
502.000000	0.238346
503.000000	0.239133
504.000000	0.239870
505.000000	0.240465
506.000000	0.240914
507.000000	0.241399
508.000000	0.242069
509.000000	0.242897
510.000000	0.243685
511.000000	0.244373
512.000000	0.245029
513.000000	0.245786
514.000000	0.246672
515.000000	0.247514
516.000000	0.248073
517.000000	0.248892
518.000000	0.249857
519.000000	0.250723
520.000000	0.251474
521.000000	0.252218
522.000000	0.253000
523.000000	0.253743
524.000000	0.254683
525.000000	0.255700
526.000000	0.256524
527.000000	0.257460
528.000000	0.258416
529.000000	0.259296
530.000000	0.260169
531.000000	0.261166
532.000000	0.262223
533.000000	0.263102
534.000000	0.264072
535.000000	0.265135
536.000000	0.266057
537.000000	0.267054
538.000000	0.268080
539.000000	0.268996
540.000000	0.269928
541.000000	0.270895
542.000000	0.271919
543.000000	0.272916
544.000000	0.273927
545.000000	0.274904
546.000000	0.275874
547.000000	0.276868
548.000000	0.277887
549.000000	0.278810
550.000000	0.279747
551.000000	0.280717
552.000000	0.281661
553.000000	0.282600
554.000000	0.283552
555.000000	0.284534
556.000000	0.285545
557.000000	0.286425
558.000000	0.287273
559.000000	0.288142
560.000000	0.288990
561.000000	0.289849
562.000000	0.290628
563.000000	0.291415
564.000000	0.292226
565.000000	0.292965
566.000000	0.293757
567.000000	0.294514
568.000000	0.295185
569.000000	0.295928
570.000000	0.296588
571.000000	0.297167
572.000000	0.297835
573.000000	0.298431
574.000000	0.298942
575.000000	0.299472
576.000000	0.300079
577.000000	0.300619
578.000000	0.301059
579.000000	0.301538
580.000000	0.302053
581.000000	0.302568
582.000000	0.302999
583.000000	0.303393
584.000000	0.303783
585.000000	0.304200
586.000000	0.304432
587.000000	0.304631
588.000000	0.304988
589.000000	0.305322
590.000000	0.305608
591.000000	0.305841
592.000000	0.306016
593.000000	0.306253
594.000000	0.306533
595.000000	0.306691
596.000000	0.306876
597.000000	0.307065
598.000000	0.307091
599.000000	0.307199
600.000000	0.307375
601.000000	0.307494
602.000000	0.307632
603.000000	0.307769
604.000000	0.307881
605.000000	0.307876
606.000000	0.307947
607.000000	0.308088
608.000000	0.308168
609.000000	0.308188
610.000000	0.308231
611.000000	0.308367
612.000000	0.308434
613.000000	0.308510
614.000000	0.308665
615.000000	0.308741
616.000000	0.308749
617.000000	0.308714
618.000000	0.308799
619.000000	0.308914
620.000000	0.308993
621.000000	0.309044
622.000000	0.309068
623.000000	0.309036
624.000000	0.308960
625.000000	0.309041
626.000000	0.309156
627.000000	0.309233
628.000000	0.309266
629.000000	0.309417
630.000000	0.309543
631.000000	0.309633
632.000000	0.309821
633.000000	0.310046
634.000000	0.310202
635.000000	0.310342
636.000000	0.310455
637.000000	0.310546
638.000000	0.310746
639.000000	0.310880
640.000000	0.310991
641.000000	0.311127
642.000000	0.311294
643.000000	0.311455
644.000000	0.311567
645.000000	0.311632
646.000000	0.311728
647.000000	0.311852
648.000000	0.311866
649.000000	0.311952
650.000000	0.312125
651.000000	0.312239
652.000000	0.312420
653.000000	0.312689
654.000000	0.312931
655.000000	0.313119
656.000000	0.313299
657.000000	0.313467
658.000000	0.313672
659.000000	0.313921
660.000000	0.314186
661.000000	0.314451
662.000000	0.314670
663.000000	0.314913
664.000000	0.315209
665.000000	0.315408
666.000000	0.315600
667.000000	0.315871
668.000000	0.316180
669.000000	0.316478
670.000000	0.316754
671.000000	0.317060
672.000000	0.317366
673.000000	0.317641
674.000000	0.317875
675.000000	0.318058
676.000000	0.318251
677.000000	0.318533
678.000000	0.318819
679.000000	0.319109
680.000000	0.319405
681.000000	0.319650
682.000000	0.319972
683.000000	0.320330
684.000000	0.320756
685.000000	0.321156
686.000000	0.321560
687.000000	0.321979
688.000000	0.322358
689.000000	0.322693
690.000000	0.323030
691.000000	0.323343
692.000000	0.323734
693.000000	0.324233
694.000000	0.324576
695.000000	0.324967
696.000000	0.325398
697.000000	0.325786
698.000000	0.326133
699.000000	0.326505
700.000000	0.326930
701.000000	0.327247
702.000000	0.327609
703.000000	0.328041
704.000000	0.328454
705.000000	0.328892
706.000000	0.329307
707.000000	0.329725
708.000000	0.330178
709.000000	0.330606
710.000000	0.330990
711.000000	0.331407
712.000000	0.331824
713.000000	0.332233
714.000000	0.332588
715.000000	0.333007
716.000000	0.333494
717.000000	0.333969
718.000000	0.334375
719.000000	0.334759
720.000000	0.335180
721.000000	0.335606
722.000000	0.335980
723.000000	0.336346
724.000000	0.336692
725.000000	0.337009
726.000000	0.337382
727.000000	0.337746
728.000000	0.338083
729.000000	0.338458
730.000000	0.338856
731.000000	0.339253
732.000000	0.339632
733.000000	0.340011
734.000000	0.340321
735.000000	0.340628
736.000000	0.340992
737.000000	0.341203
738.000000	0.341388
739.000000	0.341719
740.000000	0.342072
741.000000	0.342300
742.000000	0.342510
743.000000	0.342737
744.000000	0.343041
745.000000	0.343262
746.000000	0.343470
747.000000	0.343695
748.000000	0.343955
749.000000	0.344149
750.000000	0.344212
751.000000	0.344337
752.000000	0.344537
753.000000	0.344774
754.000000	0.344933
755.000000	0.345053
756.000000	0.345159
757.000000	0.345224
758.000000	0.345321
759.000000	0.345435
760.000000	0.345506
761.000000	0.345706
762.000000	0.345919
763.000000	0.346087
764.000000	0.346264
765.000000	0.346326
766.000000	0.346328
767.000000	0.346345
768.000000	0.346391
769.000000	0.346426
770.000000	0.346416
771.000000	0.346319
772.000000	0.346351
773.000000	0.346381
774.000000	0.346305
775.000000	0.346290
776.000000	0.346245
777.000000	0.346103
778.000000	0.346060
779.000000	0.346065
780.000000	0.346035
781.000000	0.345826
782.000000	0.345702
783.000000	0.345705
784.000000	0.345612
785.000000	0.345529
786.000000	0.345361
787.000000	0.345107
788.000000	0.344965
789.000000	0.344903
790.000000	0.344831
791.000000	0.344685
792.000000	0.344627
793.000000	0.344574
794.000000	0.344445
795.000000	0.344259
796.000000	0.344094
797.000000	0.343945
798.000000	0.343721
799.000000	0.343517
800.000000	0.343329
801.000000	0.343131
802.000000	0.342919
803.000000	0.342711
804.000000	0.342537
805.000000	0.342300
806.000000	0.342073
807.000000	0.341916
808.000000	0.341718
809.000000	0.341572
810.000000	0.341334
811.000000	0.340931
812.000000	0.340646
813.000000	0.340426
814.000000	0.340216
815.000000	0.339980
816.000000	0.339731
817.000000	0.339502
818.000000	0.339229
819.000000	0.338928
820.000000	0.338665
821.000000	0.338408
822.000000	0.338152
823.000000	0.337975
824.000000	0.337786
825.000000	0.337575
826.000000	0.337356
827.000000	0.337142
828.000000	0.336983
829.000000	0.336865
830.000000	0.336546
831.000000	0.336170
832.000000	0.335904
833.000000	0.335632
834.000000	0.335352
835.000000	0.335094
836.000000	0.334737
837.000000	0.334428
838.000000	0.334185
839.000000	0.333886
840.000000	0.333667
841.000000	0.333484
842.000000	0.333238
843.000000	0.333004
844.000000	0.332768
845.000000	0.332523
846.000000	0.332352
847.000000	0.332264
848.000000	0.332158
849.000000	0.331966
850.000000	0.331734
851.000000	0.331422
852.000000	0.331095
853.000000	0.330851
854.000000	0.330601
855.000000	0.330381
856.000000	0.330070
857.000000	0.329766
858.000000	0.329567
859.000000	0.329362
860.000000	0.328955
861.000000	0.328624
862.000000	0.328444
863.000000	0.328304
864.000000	0.328095
865.000000	0.327867
866.000000	0.327669
867.000000	0.327423
868.000000	0.327131
869.000000	0.326753
870.000000	0.326377
871.000000	0.326069
872.000000	0.325810
873.000000	0.325525
874.000000	0.325278
875.000000	0.325019
876.000000	0.324795
877.000000	0.324611
878.000000	0.324465
879.000000	0.324290
880.000000	0.323964
881.000000	0.323807
882.000000	0.323538
883.000000	0.323226
884.000000	0.322994
885.000000	0.322801
886.000000	0.322573
887.000000	0.322329
888.000000	0.322164
889.000000	0.322064
890.000000	0.321849
891.000000	0.321552
892.000000	0.321303
893.000000	0.321062
894.000000	0.320879
895.000000	0.320536
896.000000	0.320199
897.000000	0.319923
898.000000	0.319710
899.000000	0.319455
900.000000	0.319242
901.000000	0.319077
902.000000	0.318989
903.000000	0.318831
904.000000	0.318680
905.000000	0.318532
906.000000	0.318326
907.000000	0.318094
908.000000	0.317923
909.000000	0.317763
910.000000	0.317638
911.000000	0.317527
912.000000	0.317385
913.000000	0.317008
914.000000	0.316686
915.000000	0.316534
916.000000	0.316349
917.000000	0.316163
918.000000	0.315996
919.000000	0.315839
920.000000	0.315673
921.000000	0.315601
922.000000	0.315533
923.000000	0.315284
924.000000	0.315105
925.000000	0.314961
926.000000	0.314831
927.000000	0.314651
928.000000	0.314514
929.000000	0.314385
930.000000	0.314224
931.000000	0.314208
932.000000	0.314088
933.000000	0.313845
934.000000	0.313619
935.000000	0.313317
936.000000	0.313087
937.000000	0.312917
938.000000	0.312587
939.000000	0.312496
940.000000	0.312492
941.000000	0.312299
942.000000	0.312182
943.000000	0.312185
944.000000	0.312155
945.000000	0.312083
946.000000	0.311939
947.000000	0.311775
948.000000	0.311589
949.000000	0.311410
950.000000	0.311336
951.000000	0.311303
952.000000	0.311216
953.000000	0.311181
954.000000	0.311084
955.000000	0.310829
956.000000	0.310776
957.000000	0.310677
958.000000	0.310549
959.000000	0.310594
960.000000	0.310475
961.000000	0.310446
962.000000	0.310421
963.000000	0.309961
964.000000	0.309793
965.000000	0.309745
966.000000	0.309506
967.000000	0.309531
968.000000	0.309495
969.000000	0.309371
970.000000	0.309378
971.000000	0.309253
972.000000	0.309256
973.000000	0.309341
974.000000	0.309243
975.000000	0.308877
976.000000	0.308614
977.000000	0.308689
978.000000	0.308694
979.000000	0.308775
980.000000	0.308618
981.000000	0.308325
982.000000	0.308306
983.000000	0.308286
984.000000	0.308238
985.000000	0.308291
986.000000	0.308611
987.000000	0.308852
988.000000	0.308714
989.000000	0.308653
990.000000	0.308737
991.000000	0.308853
992.000000	0.308886
993.000000	0.308882
994.000000	0.308883
995.000000	0.309045
996.000000	0.309157
997.000000	0.309065
998.000000	0.308932
999.000000	0.308979
1000.000000	0.309160
1001.000000	0.308635
1002.000000	0.309104
1003.000000	0.309331
1004.000000	0.309068
1005.000000	0.307798
1006.000000	0.307938
1007.000000	0.308576
1008.000000	0.308904
1009.000000	0.309696
1010.000000	0.310134
1011.000000	0.309668
1012.000000	0.309700
1013.000000	0.309878
1014.000000	0.309681
1015.000000	0.309605
1016.000000	0.309799
1017.000000	0.310024
1018.000000	0.310563
1019.000000	0.310676
1020.000000	0.310427
1021.000000	0.310149
1022.000000	0.309904
1023.000000	0.310011
1024.000000	0.310007
1025.000000	0.310916
1026.000000	0.311184
1027.000000	0.310523
1028.000000	0.310664
1029.000000	0.310742
1030.000000	0.311022
1031.000000	0.311616
1032.000000	0.311932
1033.000000	0.312110
1034.000000	0.312364
1035.000000	0.312515
1036.000000	0.312900
1037.000000	0.313586
1038.000000	0.313874
1039.000000	0.314127
1040.000000	0.314553
1041.000000	0.314635
1042.000000	0.314687
1043.000000	0.315091
1044.000000	0.315001
1045.000000	0.314688
1046.000000	0.315082
1047.000000	0.315598
1048.000000	0.316434
1049.000000	0.316768
1050.000000	0.317227
1051.000000	0.317444
1052.000000	0.316850
1053.000000	0.316876
1054.000000	0.317592
1055.000000	0.318046
1056.000000	0.318459
1057.000000	0.319170
1058.000000	0.319356
1059.000000	0.319332
1060.000000	0.320064
1061.000000	0.320709
1062.000000	0.320944
1063.000000	0.321386
1064.000000	0.321684
1065.000000	0.321268
1066.000000	0.321446
1067.000000	0.322041
1068.000000	0.322442
1069.000000	0.322784
1070.000000	0.323113
1071.000000	0.323610
1072.000000	0.324011
1073.000000	0.324451
1074.000000	0.324652
1075.000000	0.324797
1076.000000	0.325421
1077.000000	0.325893
1078.000000	0.326189
1079.000000	0.326618
1080.000000	0.327061
1081.000000	0.327566
1082.000000	0.328354
1083.000000	0.328927
1084.000000	0.329574
1085.000000	0.330036
1086.000000	0.330178
1087.000000	0.330486
1088.000000	0.330718
1089.000000	0.330985
1090.000000	0.331298
1091.000000	0.331599
1092.000000	0.331656
1093.000000	0.331755
1094.000000	0.331999
1095.000000	0.332101
1096.000000	0.332442
1097.000000	0.333099
1098.000000	0.333593
1099.000000	0.333963
1100.000000	0.334500
1101.000000	0.335129
1102.000000	0.335567
1103.000000	0.335906
1104.000000	0.336397
1105.000000	0.336860
1106.000000	0.337308
1107.000000	0.337872
1108.000000	0.338293
1109.000000	0.338698
1110.000000	0.338892
1111.000000	0.339245
1112.000000	0.339607
1113.000000	0.339999
1114.000000	0.340511
1115.000000	0.340821
1116.000000	0.340943
1117.000000	0.341329
1118.000000	0.341715
1119.000000	0.342085
1120.000000	0.342685
1121.000000	0.343126
1122.000000	0.343554
1123.000000	0.344101
1124.000000	0.344467
1125.000000	0.344819
1126.000000	0.344959
1127.000000	0.345179
1128.000000	0.345413
1129.000000	0.345621
1130.000000	0.346052
1131.000000	0.346750
1132.000000	0.347055
1133.000000	0.347344
1134.000000	0.347676
1135.000000	0.347800
1136.000000	0.347929
1137.000000	0.347965
1138.000000	0.348260
1139.000000	0.348780
1140.000000	0.349178
1141.000000	0.349661
1142.000000	0.350155
1143.000000	0.350451
1144.000000	0.350841
1145.000000	0.351189
1146.000000	0.351513
1147.000000	0.351707
1148.000000	0.351551
1149.000000	0.351720
1150.000000	0.351990
1151.000000	0.352287
1152.000000	0.352706
1153.000000	0.352963
1154.000000	0.353076
1155.000000	0.353269
1156.000000	0.353437
1157.000000	0.353610
1158.000000	0.353800
1159.000000	0.353965
1160.000000	0.354003
1161.000000	0.354153
1162.000000	0.354433
1163.000000	0.354829
1164.000000	0.355144
1165.000000	0.355418
1166.000000	0.355656
1167.000000	0.355723
1168.000000	0.355934
1169.000000	0.356216
1170.000000	0.356513
1171.000000	0.356922
1172.000000	0.357293
1173.000000	0.357733
1174.000000	0.357940
1175.000000	0.357861
1176.000000	0.358006
1177.000000	0.358205
1178.000000	0.358417
1179.000000	0.358897
1180.000000	0.359146
1181.000000	0.359382
1182.000000	0.359419
1183.000000	0.359596
1184.000000	0.359806
1185.000000	0.359986
1186.000000	0.360216
1187.000000	0.360312
1188.000000	0.360315
1189.000000	0.360359
1190.000000	0.360391
1191.000000	0.360457
1192.000000	0.360693
1193.000000	0.360953
1194.000000	0.361083
1195.000000	0.361240
1196.000000	0.361347
1197.000000	0.361468
1198.000000	0.361625
1199.000000	0.361773
1200.000000	0.361877
1201.000000	0.362068
1202.000000	0.362265
1203.000000	0.362459
1204.000000	0.362608
1205.000000	0.362685
1206.000000	0.362793
1207.000000	0.362912
1208.000000	0.363026
1209.000000	0.363331
1210.000000	0.363464
1211.000000	0.363460
1212.000000	0.363567
1213.000000	0.363725
1214.000000	0.363846
1215.000000	0.363941
1216.000000	0.364081
1217.000000	0.364171
1218.000000	0.364292
1219.000000	0.364496
1220.000000	0.364768
1221.000000	0.364982
1222.000000	0.365056
1223.000000	0.365113
1224.000000	0.365195
1225.000000	0.365185
1226.000000	0.365303
1227.000000	0.365339
1228.000000	0.365307
1229.000000	0.365277
1230.000000	0.365153
1231.000000	0.365061
1232.000000	0.365111
1233.000000	0.365238
1234.000000	0.365404
1235.000000	0.365475
1236.000000	0.365457
1237.000000	0.365523
1238.000000	0.365463
1239.000000	0.365512
1240.000000	0.365651
1241.000000	0.365798
1242.000000	0.366038
1243.000000	0.366223
1244.000000	0.366292
1245.000000	0.366412
1246.000000	0.366479
1247.000000	0.366583
1248.000000	0.366745
1249.000000	0.366910
1250.000000	0.366952
1251.000000	0.366864
1252.000000	0.366846
1253.000000	0.366862
1254.000000	0.366862
1255.000000	0.366851
1256.000000	0.366895
1257.000000	0.366969
1258.000000	0.367027
1259.000000	0.367024
1260.000000	0.367128
1261.000000	0.367214
1262.000000	0.367261
1263.000000	0.367351
1264.000000	0.367500
1265.000000	0.367533
1266.000000	0.367411
1267.000000	0.367441
1268.000000	0.367441
1269.000000	0.367195
1270.000000	0.367241
1271.000000	0.367346
1272.000000	0.367386
1273.000000	0.367671
1274.000000	0.367864
1275.000000	0.367928
1276.000000	0.367891
1277.000000	0.367922
1278.000000	0.367779
1279.000000	0.367788
1280.000000	0.367799
1281.000000	0.367751
1282.000000	0.367758
1283.000000	0.367824
1284.000000	0.367828
1285.000000	0.367864
1286.000000	0.367947
1287.000000	0.367977
1288.000000	0.367983
1289.000000	0.367891
1290.000000	0.367800
1291.000000	0.367762
1292.000000	0.367655
1293.000000	0.367677
1294.000000	0.367787
1295.000000	0.367786
1296.000000	0.367832
1297.000000	0.367876
1298.000000	0.367746
1299.000000	0.367695
1300.000000	0.367810
1301.000000	0.367848
1302.000000	0.367870
1303.000000	0.368176
1304.000000	0.368149
1305.000000	0.368035
1306.000000	0.367921
1307.000000	0.367640
1308.000000	0.367614
1309.000000	0.367806
1310.000000	0.367804
1311.000000	0.367852
1312.000000	0.367772
1313.000000	0.367717
1314.000000	0.367568
1315.000000	0.367331
1316.000000	0.367352
1317.000000	0.367347
1318.000000	0.367200
1319.000000	0.367101
1320.000000	0.367034
1321.000000	0.367038
1322.000000	0.367011
1323.000000	0.367022
1324.000000	0.367224
1325.000000	0.367136
1326.000000	0.366961
1327.000000	0.366912
1328.000000	0.366794
1329.000000	0.366685
1330.000000	0.366624
1331.000000	0.366480
1332.000000	0.366350
1333.000000	0.366295
1334.000000	0.366291
1335.000000	0.366289
1336.000000	0.366367
1337.000000	0.366355
1338.000000	0.366195
1339.000000	0.366068
1340.000000	0.366053
1341.000000	0.365991
1342.000000	0.365942
1343.000000	0.365879
1344.000000	0.365732
1345.000000	0.365613
1346.000000	0.365506
1347.000000	0.365313
1348.000000	0.365258
1349.000000	0.365170
1350.000000	0.365181
1351.000000	0.365179
1352.000000	0.365054
1353.000000	0.364976
1354.000000	0.365029
1355.000000	0.364970
1356.000000	0.364864
1357.000000	0.364677
1358.000000	0.364412
1359.000000	0.364211
1360.000000	0.364024
1361.000000	0.363895
1362.000000	0.363859
1363.000000	0.363892
1364.000000	0.363865
1365.000000	0.363895
1366.000000	0.363889
1367.000000	0.363842
1368.000000	0.363631
1369.000000	0.363619
1370.000000	0.363563
1371.000000	0.363345
1372.000000	0.363043
1373.000000	0.362776
1374.000000	0.362539
1375.000000	0.362251
1376.000000	0.362217
1377.000000	0.362119
1378.000000	0.361671
1379.000000	0.361098
1380.000000	0.360555
1381.000000	0.360019
1382.000000	0.359570
1383.000000	0.359219
1384.000000	0.358636
1385.000000	0.357999
1386.000000	0.357553
1387.000000	0.356947
1388.000000	0.356217
1389.000000	0.355454
1390.000000	0.354472
1391.000000	0.353478
1392.000000	0.352692
1393.000000	0.351897
1394.000000	0.351273
1395.000000	0.350483
1396.000000	0.349681
1397.000000	0.348713
1398.000000	0.347470
1399.000000	0.346431
1400.000000	0.345431
1401.000000	0.344401
1402.000000	0.343467
1403.000000	0.342475
1404.000000	0.341551
1405.000000	0.340576
1406.000000	0.339654
1407.000000	0.338800
1408.000000	0.337819
1409.000000	0.336852
1410.000000	0.336025
1411.000000	0.335215
1412.000000	0.334476
1413.000000	0.333932
1414.000000	0.333447
1415.000000	0.333058
1416.000000	0.332606
1417.000000	0.332241
1418.000000	0.331988
1419.000000	0.331822
1420.000000	0.331676
1421.000000	0.331624
1422.000000	0.331625
1423.000000	0.331455
1424.000000	0.331209
1425.000000	0.331051
1426.000000	0.330562
1427.000000	0.330105
1428.000000	0.329857
1429.000000	0.329495
1430.000000	0.329234
1431.000000	0.329094
1432.000000	0.328926
1433.000000	0.328716
1434.000000	0.328647
1435.000000	0.328718
1436.000000	0.328889
1437.000000	0.329114
1438.000000	0.329474
1439.000000	0.330012
1440.000000	0.330643
1441.000000	0.331386
1442.000000	0.332292
1443.000000	0.333306
1444.000000	0.334382
1445.000000	0.335399
1446.000000	0.336216
1447.000000	0.336958
1448.000000	0.337662
1449.000000	0.338352
1450.000000	0.339092
1451.000000	0.339673
1452.000000	0.339992
1453.000000	0.340182
1454.000000	0.340285
1455.000000	0.340443
1456.000000	0.340654
1457.000000	0.340872
1458.000000	0.341048
1459.000000	0.341105
1460.000000	0.341040
1461.000000	0.340946
1462.000000	0.341012
1463.000000	0.341051
1464.000000	0.341076
1465.000000	0.341216
1466.000000	0.341301
1467.000000	0.341476
1468.000000	0.341704
1469.000000	0.341841
1470.000000	0.341883
1471.000000	0.341978
1472.000000	0.342149
1473.000000	0.342485
1474.000000	0.342746
1475.000000	0.342920
1476.000000	0.343225
1477.000000	0.343626
1478.000000	0.343964
1479.000000	0.344318
1480.000000	0.344678
1481.000000	0.344966
1482.000000	0.345215
1483.000000	0.345487
1484.000000	0.345730
1485.000000	0.346005
1486.000000	0.346197
1487.000000	0.346535
1488.000000	0.347126
1489.000000	0.347442
1490.000000	0.347502
1491.000000	0.347767
1492.000000	0.347892
1493.000000	0.348088
1494.000000	0.348394
1495.000000	0.348659
1496.000000	0.348865
1497.000000	0.349116
1498.000000	0.349489
1499.000000	0.349735
1500.000000	0.349927
1501.000000	0.350183
1502.000000	0.350419
1503.000000	0.350670
1504.000000	0.350922
1505.000000	0.351138
1506.000000	0.351349
1507.000000	0.351574
1508.000000	0.351818
1509.000000	0.351955
1510.000000	0.351966
1511.000000	0.352064
1512.000000	0.352249
1513.000000	0.352425
1514.000000	0.352621
1515.000000	0.352771
1516.000000	0.352876
1517.000000	0.352915
1518.000000	0.352948
1519.000000	0.352877
1520.000000	0.352744
1521.000000	0.352648
1522.000000	0.352759
1523.000000	0.352990
1524.000000	0.353147
1525.000000	0.353261
1526.000000	0.353238
1527.000000	0.353199
1528.000000	0.353350
1529.000000	0.353467
1530.000000	0.353459
1531.000000	0.353666
1532.000000	0.353770
1533.000000	0.353760
1534.000000	0.353980
1535.000000	0.354090
1536.000000	0.354130
1537.000000	0.354315
1538.000000	0.354309
1539.000000	0.354342
1540.000000	0.354476
1541.000000	0.354594
1542.000000	0.354782
1543.000000	0.354882
1544.000000	0.354940
1545.000000	0.355057
1546.000000	0.355220
1547.000000	0.355411
1548.000000	0.355565
1549.000000	0.355614
1550.000000	0.355601
1551.000000	0.355608
1552.000000	0.355501
1553.000000	0.355468
1554.000000	0.355574
1555.000000	0.355520
1556.000000	0.355549
1557.000000	0.355704
1558.000000	0.355816
1559.000000	0.355853
1560.000000	0.355871
1561.000000	0.355926
1562.000000	0.355961
1563.000000	0.355973
1564.000000	0.356050
1565.000000	0.356205
1566.000000	0.356182
1567.000000	0.356207
1568.000000	0.356148
1569.000000	0.356014
1570.000000	0.356059
1571.000000	0.356122
1572.000000	0.356170
1573.000000	0.356420
1574.000000	0.356453
1575.000000	0.356326
1576.000000	0.356344
1577.000000	0.356311
1578.000000	0.356323
1579.000000	0.356519
1580.000000	0.356595
1581.000000	0.356734
1582.000000	0.356739
1583.000000	0.356564
1584.000000	0.356493
1585.000000	0.356501
1586.000000	0.356558
1587.000000	0.356729
1588.000000	0.356838
1589.000000	0.356921
1590.000000	0.356975
1591.000000	0.356989
1592.000000	0.357127
1593.000000	0.357438
1594.000000	0.357542
1595.000000	0.357729
1596.000000	0.357752
1597.000000	0.357506
1598.000000	0.357427
1599.000000	0.357398
1600.000000	0.357366
1601.000000	0.357501
1602.000000	0.357516
1603.000000	0.357630
1604.000000	0.357520
1605.000000	0.357190
1606.000000	0.357011
1607.000000	0.356787
1608.000000	0.356684
1609.000000	0.356829
1610.000000	0.356832
1611.000000	0.356802
1612.000000	0.356832
1613.000000	0.357008
1614.000000	0.357068
1615.000000	0.357216
1616.000000	0.357287
1617.000000	0.357230
1618.000000	0.357137
1619.000000	0.356887
1620.000000	0.356836
1621.000000	0.356856
1622.000000	0.356933
1623.000000	0.357197
1624.000000	0.357297
1625.000000	0.357127
1626.000000	0.357041
1627.000000	0.356945
1628.000000	0.356941
1629.000000	0.356991
1630.000000	0.357021
1631.000000	0.357015
1632.000000	0.356995
1633.000000	0.356945
1634.000000	0.356974
1635.000000	0.357107
1636.000000	0.357153
1637.000000	0.357257
1638.000000	0.357239
1639.000000	0.357161
1640.000000	0.357126
1641.000000	0.357160
1642.000000	0.357125
1643.000000	0.357095
1644.000000	0.357097
1645.000000	0.357011
1646.000000	0.357019
1647.000000	0.357195
1648.000000	0.357255
1649.000000	0.357415
1650.000000	0.357512
1651.000000	0.357601
1652.000000	0.357704
1653.000000	0.357703
1654.000000	0.357801
1655.000000	0.357915
1656.000000	0.357861
1657.000000	0.357870
1658.000000	0.357822
1659.000000	0.357759
1660.000000	0.357745
1661.000000	0.357668
1662.000000	0.357568
1663.000000	0.357347
1664.000000	0.357309
1665.000000	0.357338
1666.000000	0.357466
1667.000000	0.357671
1668.000000	0.357807
1669.000000	0.357902
1670.000000	0.357926
1671.000000	0.358060
1672.000000	0.358126
1673.000000	0.358084
1674.000000	0.358150
1675.000000	0.358222
1676.000000	0.358284
1677.000000	0.358254
1678.000000	0.358260
1679.000000	0.358267
1680.000000	0.358256
1681.000000	0.358373
1682.000000	0.358542
1683.000000	0.358620
1684.000000	0.358583
1685.000000	0.358580
1686.000000	0.358546
1687.000000	0.358599
1688.000000	0.358814
1689.000000	0.359003
1690.000000	0.358924
1691.000000	0.358853
1692.000000	0.358777
1693.000000	0.358673
1694.000000	0.358729
1695.000000	0.358907
1696.000000	0.358741
1697.000000	0.358605
1698.000000	0.358365
1699.000000	0.358296
1700.000000	0.358439
1701.000000	0.358588
1702.000000	0.358592
1703.000000	0.358590
1704.000000	0.358695
1705.000000	0.358722
1706.000000	0.358760
1707.000000	0.358786
1708.000000	0.358723
1709.000000	0.358609
1710.000000	0.358615
1711.000000	0.358576
1712.000000	0.358452
1713.000000	0.358395
1714.000000	0.358410
1715.000000	0.358438
1716.000000	0.358566
1717.000000	0.358588
1718.000000	0.358533
1719.000000	0.358472
1720.000000	0.358368
1721.000000	0.358363
1722.000000	0.358429
1723.000000	0.358468
1724.000000	0.358624
1725.000000	0.358674
1726.000000	0.358537
1727.000000	0.358480
1728.000000	0.358344
1729.000000	0.358164
1730.000000	0.358093
1731.000000	0.358092
1732.000000	0.358107
1733.000000	0.358215
1734.000000	0.358350
1735.000000	0.358346
1736.000000	0.358279
1737.000000	0.358119
1738.000000	0.357808
1739.000000	0.357718
1740.000000	0.357671
1741.000000	0.357504
1742.000000	0.357402
1743.000000	0.357359
1744.000000	0.357182
1745.000000	0.357100
1746.000000	0.357164
1747.000000	0.357149
1748.000000	0.357055
1749.000000	0.357019
1750.000000	0.356920
1751.000000	0.356878
1752.000000	0.356874
1753.000000	0.356642
1754.000000	0.356570
1755.000000	0.356484
1756.000000	0.356438
1757.000000	0.356688
1758.000000	0.356660
1759.000000	0.356285
1760.000000	0.356213
1761.000000	0.356132
1762.000000	0.356049
1763.000000	0.356301
1764.000000	0.356297
1765.000000	0.355943
1766.000000	0.355843
1767.000000	0.355729
1768.000000	0.355595
1769.000000	0.355625
1770.000000	0.355718
1771.000000	0.355800
1772.000000	0.355834
1773.000000	0.355887
1774.000000	0.355904
1775.000000	0.355900
1776.000000	0.355912
1777.000000	0.355895
1778.000000	0.355901
1779.000000	0.355939
1780.000000	0.355825
1781.000000	0.355623
1782.000000	0.355453
1783.000000	0.355156
1784.000000	0.355171
1785.000000	0.355240
1786.000000	0.355427
1787.000000	0.355685
1788.000000	0.355745
1789.000000	0.355570
1790.000000	0.355346
1791.000000	0.355180
1792.000000	0.355192
1793.000000	0.355243
1794.000000	0.355360
1795.000000	0.355485
1796.000000	0.355776
1797.000000	0.355805
1798.000000	0.355584
1799.000000	0.355518
1800.000000	0.355423
1801.000000	0.355593
1802.000000	0.355501
1803.000000	0.355431
1804.000000	0.355260
1805.000000	0.354919
1806.000000	0.354787
1807.000000	0.354923
1808.000000	0.354705
1809.000000	0.354187
1810.000000	0.353815
1811.000000	0.353962
1812.000000	0.353936
1813.000000	0.354393
1814.000000	0.356116
1815.000000	0.356775
1816.000000	0.357419
1817.000000	0.357294
1818.000000	0.356533
1819.000000	0.355784
1820.000000	0.354454
1821.000000	0.353372
1822.000000	0.353145
1823.000000	0.353588
1824.000000	0.353572
1825.000000	0.354011
1826.000000	0.354342
1827.000000	0.354675
1828.000000	0.354234
1829.000000	0.354213
1830.000000	0.354070
1831.000000	0.353761
1832.000000	0.352546
1833.000000	0.352996
1834.000000	0.354761
1835.000000	0.355197
1836.000000	0.356033
1837.000000	0.356153
1838.000000	0.354961
1839.000000	0.353667
1840.000000	0.353343
1841.000000	0.353136
1842.000000	0.352851
1843.000000	0.352759
1844.000000	0.352752
1845.000000	0.352840
1846.000000	0.352516
1847.000000	0.352007
1848.000000	0.351128
1849.000000	0.350518
1850.000000	0.350151
1851.000000	0.350012
1852.000000	0.350479
1853.000000	0.350857
1854.000000	0.351015
1855.000000	0.351135
1856.000000	0.351528
1857.000000	0.351645
1858.000000	0.351068
1859.000000	0.350134
1860.000000	0.349204
1861.000000	0.348632
1862.000000	0.347972
1863.000000	0.347415
1864.000000	0.347068
1865.000000	0.346771
1866.000000	0.346402
1867.000000	0.346150
1868.000000	0.346186
1869.000000	0.345515
1870.000000	0.344709
1871.000000	0.342932
1872.000000	0.341290
1873.000000	0.340357
1874.000000	0.339770
1875.000000	0.338885
1876.000000	0.338320
1877.000000	0.337250
1878.000000	0.335518
1879.000000	0.333684
1880.000000	0.331495
1881.000000	0.329752
1882.000000	0.327741
1883.000000	0.325297
1884.000000	0.323340
1885.000000	0.321805
1886.000000	0.319393
1887.000000	0.316652
1888.000000	0.314016
1889.000000	0.310576
1890.000000	0.307247
1891.000000	0.304058
1892.000000	0.300452
1893.000000	0.297035
1894.000000	0.293219
1895.000000	0.289431
1896.000000	0.285596
1897.000000	0.282262
1898.000000	0.278411
1899.000000	0.275241
1900.000000	0.272776
1901.000000	0.270276
1902.000000	0.268808
1903.000000	0.267132
1904.000000	0.264734
1905.000000	0.262562
1906.000000	0.260700
1907.000000	0.258615
1908.000000	0.257379
1909.000000	0.256808
1910.000000	0.256226
1911.000000	0.255645
1912.000000	0.255040
1913.000000	0.254916
1914.000000	0.255488
1915.000000	0.256330
1916.000000	0.257243
1917.000000	0.257888
1918.000000	0.258729
1919.000000	0.259040
1920.000000	0.258835
1921.000000	0.259142
1922.000000	0.259471
1923.000000	0.259801
1924.000000	0.260943
1925.000000	0.261654
1926.000000	0.261656
1927.000000	0.261968
1928.000000	0.262201
1929.000000	0.262119
1930.000000	0.262249
1931.000000	0.262939
1932.000000	0.263280
1933.000000	0.264165
1934.000000	0.264956
1935.000000	0.265283
1936.000000	0.266150
1937.000000	0.266666
1938.000000	0.267301
1939.000000	0.267551
1940.000000	0.267750
1941.000000	0.267524
1942.000000	0.267542
1943.000000	0.267104
1944.000000	0.267355
1945.000000	0.268185
1946.000000	0.268833
1947.000000	0.269646
1948.000000	0.270519
1949.000000	0.271429
1950.000000	0.271993
1951.000000	0.272326
1952.000000	0.272428
1953.000000	0.272432
1954.000000	0.272810
1955.000000	0.273550
1956.000000	0.274529
1957.000000	0.275475
1958.000000	0.275470
1959.000000	0.274967
1960.000000	0.274213
1961.000000	0.273738
1962.000000	0.273836
1963.000000	0.274534
1964.000000	0.275488
1965.000000	0.276316
1966.000000	0.276594
1967.000000	0.276646
1968.000000	0.276533
1969.000000	0.276276
1970.000000	0.276577
1971.000000	0.276790
1972.000000	0.277051
1973.000000	0.277383
1974.000000	0.278380
1975.000000	0.278798
1976.000000	0.279072
1977.000000	0.279030
1978.000000	0.279029
1979.000000	0.279190
1980.000000	0.279559
1981.000000	0.280394
1982.000000	0.281174
1983.000000	0.281802
1984.000000	0.282643
1985.000000	0.283806
1986.000000	0.284350
1987.000000	0.284781
1988.000000	0.285610
1989.000000	0.285299
1990.000000	0.285519
1991.000000	0.285896
1992.000000	0.285926
1993.000000	0.286358
1994.000000	0.286417
1995.000000	0.286996
1996.000000	0.287753
1997.000000	0.288487
1998.000000	0.289594
1999.000000	0.290652
2000.000000	0.291976
2001.000000	0.292614
2002.000000	0.292655
2003.000000	0.292996
2004.000000	0.292998
2005.000000	0.292881
2006.000000	0.293794
2007.000000	0.294621
2008.000000	0.295030
2009.000000	0.294989
2010.000000	0.295492
2011.000000	0.295963
2012.000000	0.296274
2013.000000	0.296679
2014.000000	0.297081
2015.000000	0.297177
2016.000000	0.297079
2017.000000	0.297641
2018.000000	0.298645
2019.000000	0.299172
2020.000000	0.299927
2021.000000	0.300765
2022.000000	0.301419
2023.000000	0.302103
2024.000000	0.303435
2025.000000	0.304033
2026.000000	0.304026
2027.000000	0.303935
2028.000000	0.303871
2029.000000	0.303937
2030.000000	0.304720
2031.000000	0.305496
2032.000000	0.306126
2033.000000	0.306761
2034.000000	0.307226
2035.000000	0.307522
2036.000000	0.307854
2037.000000	0.308198
2038.000000	0.308696
2039.000000	0.309386
2040.000000	0.309991
2041.000000	0.310335
2042.000000	0.310663
2043.000000	0.310220
2044.000000	0.309397
2045.000000	0.309043
2046.000000	0.308959
2047.000000	0.309320
2048.000000	0.310289
2049.000000	0.311282
2050.000000	0.312284
2051.000000	0.313069
2052.000000	0.314142
2053.000000	0.314628
2054.000000	0.314826
2055.000000	0.315240
2056.000000	0.315559
2057.000000	0.315516
2058.000000	0.316058
2059.000000	0.316764
2060.000000	0.316953
2061.000000	0.317125
2062.000000	0.317099
2063.000000	0.316234
2064.000000	0.316064
2065.000000	0.316559
2066.000000	0.316610
2067.000000	0.316763
2068.000000	0.317790
2069.000000	0.317801
2070.000000	0.317797
2071.000000	0.318057
2072.000000	0.317871
2073.000000	0.318188
2074.000000	0.318499
2075.000000	0.318773
2076.000000	0.319182
2077.000000	0.319421
2078.000000	0.319489
2079.000000	0.319601
2080.000000	0.319784
2081.000000	0.319801
2082.000000	0.319552
2083.000000	0.319659
2084.000000	0.320172
2085.000000	0.320294
2086.000000	0.320835
2087.000000	0.321518
2088.000000	0.321917
2089.000000	0.322179
2090.000000	0.322397
2091.000000	0.322563
2092.000000	0.322949
2093.000000	0.323347
2094.000000	0.323718
2095.000000	0.324675
2096.000000	0.324980
2097.000000	0.324673
2098.000000	0.324326
2099.000000	0.324597
2100.000000	0.324339
2101.000000	0.324709
2102.000000	0.325592
2103.000000	0.325648
2104.000000	0.325368
2105.000000	0.325444
2106.000000	0.325292
2107.000000	0.325603
2108.000000	0.326376
2109.000000	0.327137
2110.000000	0.328051
2111.000000	0.328469
2112.000000	0.328868
2113.000000	0.328799
2114.000000	0.327411
2115.000000	0.326671
2116.000000	0.326757
2117.000000	0.326228
2118.000000	0.326920
2119.000000	0.327867
2120.000000	0.327974
2121.000000	0.327179
2122.000000	0.327387
2123.000000	0.327834
2124.000000	0.328098
2125.000000	0.329273
2126.000000	0.329162
2127.000000	0.327846
2128.000000	0.327117
2129.000000	0.325923
2130.000000	0.324856
2131.000000	0.324589
2132.000000	0.324581
2133.000000	0.324536
2134.000000	0.325677
2135.000000	0.326831
2136.000000	0.327448
2137.000000	0.328031
2138.000000	0.328584
2139.000000	0.328788
2140.000000	0.328764
2141.000000	0.328682
2142.000000	0.328190
2143.000000	0.327801
2144.000000	0.327523
2145.000000	0.327224
2146.000000	0.326968
2147.000000	0.327219
2148.000000	0.327106
2149.000000	0.327257
2150.000000	0.327150
2151.000000	0.327196
2152.000000	0.326525
2153.000000	0.325394
2154.000000	0.325082
2155.000000	0.324754
2156.000000	0.324879
2157.000000	0.326530
2158.000000	0.326687
2159.000000	0.326385
2160.000000	0.325841
2161.000000	0.323733
2162.000000	0.322937
2163.000000	0.322896
2164.000000	0.322532
2165.000000	0.321928
2166.000000	0.322746
2167.000000	0.323409
2168.000000	0.322650
2169.000000	0.323482
2170.000000	0.323636
2171.000000	0.324040
2172.000000	0.324291
2173.000000	0.324987
2174.000000	0.326706
2175.000000	0.326971
2176.000000	0.327007
2177.000000	0.326648
2178.000000	0.323980
2179.000000	0.323502
2180.000000	0.323858
2181.000000	0.324563
2182.000000	0.325654
2183.000000	0.328016
2184.000000	0.328843
2185.000000	0.328571
2186.000000	0.327683
2187.000000	0.325135
2188.000000	0.323072
2189.000000	0.322059
2190.000000	0.321355
2191.000000	0.322662
2192.000000	0.323309
2193.000000	0.324942
2194.000000	0.325248
2195.000000	0.325246
2196.000000	0.324744
2197.000000	0.322648
2198.000000	0.321449
2199.000000	0.320764
2200.000000	0.319496
2201.000000	0.318603
2202.000000	0.317393
2203.000000	0.315331
2204.000000	0.312206
2205.000000	0.311836
2206.000000	0.309713
2207.000000	0.309837
2208.000000	0.312881
2209.000000	0.314928
2210.000000	0.318043
2211.000000	0.319413
2212.000000	0.319186
2213.000000	0.318597
2214.000000	0.316132
2215.000000	0.314805
2216.000000	0.312598
2217.000000	0.313086
2218.000000	0.314776
2219.000000	0.316190
2220.000000	0.320415
2221.000000	0.322129
2222.000000	0.322672
2223.000000	0.323170
2224.000000	0.323640
2225.000000	0.321627
2226.000000	0.320467
2227.000000	0.319974
2228.000000	0.320356
2229.000000	0.319430
2230.000000	0.317531
2231.000000	0.316945
2232.000000	0.316110
2233.000000	0.316430
2234.000000	0.319494
2235.000000	0.320401
2236.000000	0.319584
2237.000000	0.317552
2238.000000	0.315788
2239.000000	0.310619
2240.000000	0.309924
2241.000000	0.311406
2242.000000	0.312366
2243.000000	0.315497
2244.000000	0.317541
2245.000000	0.319620
2246.000000	0.320762
2247.000000	0.321510
2248.000000	0.321541
2249.000000	0.320526
2250.000000	0.320016
2251.000000	0.316568
2252.000000	0.314253
2253.000000	0.311047
2254.000000	0.307899
2255.000000	0.308502
2256.000000	0.310640
2257.000000	0.313625
2258.000000	0.316313
2259.000000	0.317155
2260.000000	0.314758
2261.000000	0.313221
2262.000000	0.310506
2263.000000	0.307983
2264.000000	0.305475
2265.000000	0.303927
2266.000000	0.301814
2267.000000	0.300464
2268.000000	0.300184
2269.000000	0.299847
2270.000000	0.300140
2271.000000	0.299539
2272.000000	0.299359
2273.000000	0.298032
2274.000000	0.294400
2275.000000	0.292554
2276.000000	0.291263
2277.000000	0.290292
2278.000000	0.288119
2279.000000	0.287345
2280.000000	0.285769
2281.000000	0.282309
2282.000000	0.280526
2283.000000	0.280570
2284.000000	0.280329
2285.000000	0.280206
2286.000000	0.280713
2287.000000	0.279221
2288.000000	0.277748
2289.000000	0.278708
2290.000000	0.280576
2291.000000	0.283163
2292.000000	0.284661
2293.000000	0.283249
2294.000000	0.283215
2295.000000	0.281789
2296.000000	0.282460
2297.000000	0.285465
2298.000000	0.287422
2299.000000	0.289183
2300.000000	0.289991
2301.000000	0.290229
2302.000000	0.290620
2303.000000	0.290309
2304.000000	0.291240
2305.000000	0.292693
2306.000000	0.293880
2307.000000	0.294891
2308.000000	0.297560
2309.000000	0.300330
2310.000000	0.301045
2311.000000	0.303740
2312.000000	0.305864
2313.000000	0.302965
2314.000000	0.302811
2315.000000	0.302015
2316.000000	0.299685
2317.000000	0.301569
2318.000000	0.303015
2319.000000	0.304510
2320.000000	0.304700
2321.000000	0.304271
2322.000000	0.305686
2323.000000	0.304993
2324.000000	0.304503
2325.000000	0.303486
2326.000000	0.301699
2327.000000	0.300570
2328.000000	0.300168
2329.000000	0.301586
2330.000000	0.301361
2331.000000	0.301082
2332.000000	0.300518
2333.000000	0.298136
2334.000000	0.296836
2335.000000	0.296162
2336.000000	0.295489
2337.000000	0.295219
2338.000000	0.296064
2339.000000	0.296072
2340.000000	0.294912
2341.000000	0.294788
2342.000000	0.294612
2343.000000	0.295239
2344.000000	0.298173
2345.000000	0.299533
2346.000000	0.302452
2347.000000	0.301368
2348.000000	0.298136
2349.000000	0.291793
2350.000000	0.283359
2351.000000	0.277769
2352.000000	0.276705
2353.000000	0.281436
2354.000000	0.287463
2355.000000	0.291207
2356.000000	0.290548
2357.000000	0.284182
2358.000000	0.279451
2359.000000	0.273055
2360.000000	0.270164
2361.000000	0.272624
2362.000000	0.273550
2363.000000	0.278416
2364.000000	0.278992
2365.000000	0.276537
2366.000000	0.275799
2367.000000	0.273325
2368.000000	0.272672
2369.000000	0.270486
2370.000000	0.265213
2371.000000	0.262631
2372.000000	0.265133
2373.000000	0.268132
2374.000000	0.271097
2375.000000	0.276817
2376.000000	0.278527
2377.000000	0.277162
2378.000000	0.277290
2379.000000	0.273610
2380.000000	0.267423
2381.000000	0.264518
2382.000000	0.263074
2383.000000	0.260302
2384.000000	0.261749
2385.000000	0.264650
2386.000000	0.266547
2387.000000	0.267995
2388.000000	0.262967
2389.000000	0.258256
2390.000000	0.255185
2391.000000	0.248001
2392.000000	0.247890
2393.000000	0.250672
2394.000000	0.248459
2395.000000	0.254272
2396.000000	0.261331
2397.000000	0.261591
2398.000000	0.262980
2399.000000	0.268706
2400.000000	0.270546
2401.000000	0.268201
2402.000000	0.267723
2403.000000	0.263622
2404.000000	0.257579
2405.000000	0.255885
2406.000000	0.255437
2407.000000	0.249029
2408.000000	0.245853
2409.000000	0.244207
2410.000000	0.245081
2411.000000	0.251780
2412.000000	0.245768
2413.000000	0.239253
2414.000000	0.240415
2415.000000	0.237536
2416.000000	0.243154
2417.000000	0.255693
2418.000000	0.255670
2419.000000	0.252754
2420.000000	0.254406
2421.000000	0.252658
2422.000000	0.255294
2423.000000	0.255739
2424.000000	0.248431
2425.000000	0.245372
2426.000000	0.243511
2427.000000	0.245543
2428.000000	0.250678
2429.000000	0.251165
2430.000000	0.255248
2431.000000	0.260445
2432.000000	0.261332
2433.000000	0.263604
2434.000000	0.265090
2435.000000	0.267452
2436.000000	0.270199
2437.000000	0.264121
2438.000000	0.257403
2439.000000	0.242999
2440.000000	0.223681
2441.000000	0.223118
2442.000000	0.224637
2443.000000	0.224011
2444.000000	0.229841
2445.000000	0.234709
2446.000000	0.227281
2447.000000	0.216372
2448.000000	0.220472
2449.000000	0.219843
2450.000000	0.229178
2451.000000	0.251239
2452.000000	0.255402
2453.000000	0.257691
2454.000000	0.250640
2455.000000	0.231208
2456.000000	0.227398
2457.000000	0.223225
2458.000000	0.223956
2459.000000	0.238357
2460.000000	0.242994
2461.000000	0.251761
2462.000000	0.257455
2463.000000	0.244318
2464.000000	0.232668
2465.000000	0.216893
2466.000000	0.195367
2467.000000	0.177045
2468.000000	0.157840
2469.000000	0.157026
2470.000000	0.173007
2471.000000	0.189014
2472.000000	0.207346
2473.000000	0.199701
2474.000000	0.178011
2475.000000	0.170960
2476.000000	0.166576
2477.000000	0.177525
2478.000000	0.209142
2479.000000	0.226460
2480.000000	0.214808
2481.000000	0.202962
2482.000000	0.158796
2483.000000	0.095700
2484.000000	0.086199
2485.000000	0.093805
2486.000000	0.094419
2487.000000	0.115224
2488.000000	0.165595
2489.000000	0.184466
2490.000000	0.188573
2491.000000	0.184970
2492.000000	0.178330
2493.000000	0.191957
2494.000000	0.182238
2495.000000	0.127217
2496.000000	0.114736
2497.000000	0.104845
2498.000000	0.092882
2499.000000	0.126712
2500.000000	0.138704
