# Wavelength	Nau-1_70_FV7_30_00001.asd.rts.txt
350.000000	0.106177
351.000000	0.081996
352.000000	0.101288
353.000000	0.116214
354.000000	0.106494
355.000000	0.107117
356.000000	0.111647
357.000000	0.113223
358.000000	0.101220
359.000000	0.108751
360.000000	0.119391
361.000000	0.110822
362.000000	0.108309
363.000000	0.105679
364.000000	0.100699
365.000000	0.110894
366.000000	0.111471
367.000000	0.102195
368.000000	0.103824
369.000000	0.110267
370.000000	0.114807
371.000000	0.111947
372.000000	0.110341
373.000000	0.109941
374.000000	0.110152
375.000000	0.110904
376.000000	0.112558
377.000000	0.115013
378.000000	0.118111
379.000000	0.115722
380.000000	0.111975
381.000000	0.113902
382.000000	0.117556
383.000000	0.119451
384.000000	0.118547
385.000000	0.119442
386.000000	0.118994
387.000000	0.118015
388.000000	0.121737
389.000000	0.124143
390.000000	0.125282
391.000000	0.126988
392.000000	0.128195
393.000000	0.130165
394.000000	0.133348
395.000000	0.134903
396.000000	0.135498
397.000000	0.136121
398.000000	0.138544
399.000000	0.139532
400.000000	0.140005
401.000000	0.142381
402.000000	0.144219
403.000000	0.145378
404.000000	0.146476
405.000000	0.149199
406.000000	0.150786
407.000000	0.150494
408.000000	0.150561
409.000000	0.152620
410.000000	0.155788
411.000000	0.157591
412.000000	0.158510
413.000000	0.159437
414.000000	0.161010
415.000000	0.161390
416.000000	0.161579
417.000000	0.162222
418.000000	0.162736
419.000000	0.163588
420.000000	0.164469
421.000000	0.164357
422.000000	0.164896
423.000000	0.165524
424.000000	0.165208
425.000000	0.164888
426.000000	0.165020
427.000000	0.165517
428.000000	0.164782
429.000000	0.164713
430.000000	0.165463
431.000000	0.164785
432.000000	0.164577
433.000000	0.164871
434.000000	0.164996
435.000000	0.165201
436.000000	0.165087
437.000000	0.164354
438.000000	0.163596
439.000000	0.163103
440.000000	0.162944
441.000000	0.162602
442.000000	0.162531
443.000000	0.162378
444.000000	0.161321
445.000000	0.160999
446.000000	0.161244
447.000000	0.161413
448.000000	0.162576
449.000000	0.163672
450.000000	0.164213
451.000000	0.165764
452.000000	0.167730
453.000000	0.169882
454.000000	0.172538
455.000000	0.175485
456.000000	0.178595
457.000000	0.181634
458.000000	0.184430
459.000000	0.187180
460.000000	0.189992
461.000000	0.192052
462.000000	0.194027
463.000000	0.196069
464.000000	0.197753
465.000000	0.199209
466.000000	0.200385
467.000000	0.201246
468.000000	0.202503
469.000000	0.203753
470.000000	0.204550
471.000000	0.205320
472.000000	0.206063
473.000000	0.206811
474.000000	0.207715
475.000000	0.208523
476.000000	0.209256
477.000000	0.209944
478.000000	0.210386
479.000000	0.210843
480.000000	0.211468
481.000000	0.212216
482.000000	0.212969
483.000000	0.213509
484.000000	0.214301
485.000000	0.214905
486.000000	0.215278
487.000000	0.215567
488.000000	0.216240
489.000000	0.217172
490.000000	0.217792
491.000000	0.218520
492.000000	0.219274
493.000000	0.219792
494.000000	0.220490
495.000000	0.221180
496.000000	0.221734
497.000000	0.222536
498.000000	0.223267
499.000000	0.223960
500.000000	0.224953
501.000000	0.225565
502.000000	0.225994
503.000000	0.226744
504.000000	0.227540
505.000000	0.228345
506.000000	0.229174
507.000000	0.230014
508.000000	0.230933
509.000000	0.231874
510.000000	0.232612
511.000000	0.233468
512.000000	0.234468
513.000000	0.235349
514.000000	0.236321
515.000000	0.237387
516.000000	0.238414
517.000000	0.239220
518.000000	0.240080
519.000000	0.241101
520.000000	0.242013
521.000000	0.242970
522.000000	0.244035
523.000000	0.245120
524.000000	0.246191
525.000000	0.247246
526.000000	0.248346
527.000000	0.249491
528.000000	0.250618
529.000000	0.251728
530.000000	0.252918
531.000000	0.254189
532.000000	0.255438
533.000000	0.256636
534.000000	0.257879
535.000000	0.259157
536.000000	0.260393
537.000000	0.261642
538.000000	0.262891
539.000000	0.264107
540.000000	0.265455
541.000000	0.266765
542.000000	0.267938
543.000000	0.269239
544.000000	0.270482
545.000000	0.271578
546.000000	0.272889
547.000000	0.274186
548.000000	0.275418
549.000000	0.276534
550.000000	0.277728
551.000000	0.278983
552.000000	0.280180
553.000000	0.281445
554.000000	0.282678
555.000000	0.283836
556.000000	0.285125
557.000000	0.286239
558.000000	0.287243
559.000000	0.288294
560.000000	0.289383
561.000000	0.290522
562.000000	0.291561
563.000000	0.292512
564.000000	0.293496
565.000000	0.294505
566.000000	0.295520
567.000000	0.296448
568.000000	0.297254
569.000000	0.298144
570.000000	0.298975
571.000000	0.299728
572.000000	0.300510
573.000000	0.301213
574.000000	0.301863
575.000000	0.302581
576.000000	0.303283
577.000000	0.303868
578.000000	0.304353
579.000000	0.304828
580.000000	0.305322
581.000000	0.305835
582.000000	0.306347
583.000000	0.306748
584.000000	0.307091
585.000000	0.307528
586.000000	0.307841
587.000000	0.308106
588.000000	0.308442
589.000000	0.308762
590.000000	0.309025
591.000000	0.309224
592.000000	0.309417
593.000000	0.309618
594.000000	0.309850
595.000000	0.310170
596.000000	0.310318
597.000000	0.310419
598.000000	0.310626
599.000000	0.310737
600.000000	0.310811
601.000000	0.310858
602.000000	0.310975
603.000000	0.311086
604.000000	0.311156
605.000000	0.311175
606.000000	0.311163
607.000000	0.311156
608.000000	0.311200
609.000000	0.311229
610.000000	0.311232
611.000000	0.311213
612.000000	0.311149
613.000000	0.311120
614.000000	0.311194
615.000000	0.311245
616.000000	0.311268
617.000000	0.311265
618.000000	0.311349
619.000000	0.311479
620.000000	0.311552
621.000000	0.311526
622.000000	0.311554
623.000000	0.311604
624.000000	0.311636
625.000000	0.311717
626.000000	0.311795
627.000000	0.311850
628.000000	0.311908
629.000000	0.312042
630.000000	0.312105
631.000000	0.312125
632.000000	0.312171
633.000000	0.312245
634.000000	0.312310
635.000000	0.312349
636.000000	0.312377
637.000000	0.312406
638.000000	0.312512
639.000000	0.312591
640.000000	0.312688
641.000000	0.312809
642.000000	0.312924
643.000000	0.313027
644.000000	0.313129
645.000000	0.313265
646.000000	0.313443
647.000000	0.313632
648.000000	0.313838
649.000000	0.314070
650.000000	0.314294
651.000000	0.314481
652.000000	0.314584
653.000000	0.314714
654.000000	0.314957
655.000000	0.315179
656.000000	0.315405
657.000000	0.315619
658.000000	0.315864
659.000000	0.316082
660.000000	0.316251
661.000000	0.316480
662.000000	0.316728
663.000000	0.317005
664.000000	0.317234
665.000000	0.317522
666.000000	0.317827
667.000000	0.318072
668.000000	0.318416
669.000000	0.318752
670.000000	0.319027
671.000000	0.319309
672.000000	0.319630
673.000000	0.319977
674.000000	0.320317
675.000000	0.320642
676.000000	0.320980
677.000000	0.321374
678.000000	0.321686
679.000000	0.322000
680.000000	0.322380
681.000000	0.322729
682.000000	0.323139
683.000000	0.323552
684.000000	0.324004
685.000000	0.324472
686.000000	0.324947
687.000000	0.325367
688.000000	0.325763
689.000000	0.326157
690.000000	0.326602
691.000000	0.327087
692.000000	0.327561
693.000000	0.328066
694.000000	0.328561
695.000000	0.329049
696.000000	0.329536
697.000000	0.330028
698.000000	0.330504
699.000000	0.331006
700.000000	0.331561
701.000000	0.332059
702.000000	0.332572
703.000000	0.333090
704.000000	0.333551
705.000000	0.334082
706.000000	0.334651
707.000000	0.335251
708.000000	0.335764
709.000000	0.336246
710.000000	0.336776
711.000000	0.337268
712.000000	0.337754
713.000000	0.338268
714.000000	0.338773
715.000000	0.339259
716.000000	0.339783
717.000000	0.340391
718.000000	0.340918
719.000000	0.341423
720.000000	0.341989
721.000000	0.342559
722.000000	0.343046
723.000000	0.343509
724.000000	0.344001
725.000000	0.344460
726.000000	0.344963
727.000000	0.345448
728.000000	0.345887
729.000000	0.346334
730.000000	0.346782
731.000000	0.347266
732.000000	0.347737
733.000000	0.348203
734.000000	0.348611
735.000000	0.348958
736.000000	0.349365
737.000000	0.349720
738.000000	0.350142
739.000000	0.350627
740.000000	0.350981
741.000000	0.351409
742.000000	0.351850
743.000000	0.352221
744.000000	0.352505
745.000000	0.352752
746.000000	0.353055
747.000000	0.353386
748.000000	0.353694
749.000000	0.353989
750.000000	0.354250
751.000000	0.354507
752.000000	0.354702
753.000000	0.354854
754.000000	0.355025
755.000000	0.355228
756.000000	0.355430
757.000000	0.355550
758.000000	0.355733
759.000000	0.355915
760.000000	0.355993
761.000000	0.356138
762.000000	0.356220
763.000000	0.356224
764.000000	0.356296
765.000000	0.356343
766.000000	0.356359
767.000000	0.356360
768.000000	0.356438
769.000000	0.356476
770.000000	0.356429
771.000000	0.356337
772.000000	0.356293
773.000000	0.356231
774.000000	0.356177
775.000000	0.356152
776.000000	0.356104
777.000000	0.355974
778.000000	0.355777
779.000000	0.355619
780.000000	0.355508
781.000000	0.355334
782.000000	0.355199
783.000000	0.355172
784.000000	0.355082
785.000000	0.354905
786.000000	0.354706
787.000000	0.354536
788.000000	0.354438
789.000000	0.354361
790.000000	0.354204
791.000000	0.353908
792.000000	0.353679
793.000000	0.353416
794.000000	0.353050
795.000000	0.352786
796.000000	0.352514
797.000000	0.352203
798.000000	0.351918
799.000000	0.351666
800.000000	0.351438
801.000000	0.351222
802.000000	0.351013
803.000000	0.350728
804.000000	0.350380
805.000000	0.350010
806.000000	0.349624
807.000000	0.349343
808.000000	0.349148
809.000000	0.348845
810.000000	0.348495
811.000000	0.348141
812.000000	0.347718
813.000000	0.347329
814.000000	0.346967
815.000000	0.346556
816.000000	0.346119
817.000000	0.345752
818.000000	0.345439
819.000000	0.345160
820.000000	0.344876
821.000000	0.344539
822.000000	0.344256
823.000000	0.343948
824.000000	0.343551
825.000000	0.343159
826.000000	0.342838
827.000000	0.342528
828.000000	0.342228
829.000000	0.341921
830.000000	0.341513
831.000000	0.341097
832.000000	0.340680
833.000000	0.340250
834.000000	0.339823
835.000000	0.339439
836.000000	0.339057
837.000000	0.338659
838.000000	0.338257
839.000000	0.337837
840.000000	0.337447
841.000000	0.337100
842.000000	0.336738
843.000000	0.336329
844.000000	0.335973
845.000000	0.335640
846.000000	0.335239
847.000000	0.334921
848.000000	0.334619
849.000000	0.334275
850.000000	0.333951
851.000000	0.333590
852.000000	0.333227
853.000000	0.332910
854.000000	0.332524
855.000000	0.332238
856.000000	0.332049
857.000000	0.331732
858.000000	0.331392
859.000000	0.331039
860.000000	0.330771
861.000000	0.330419
862.000000	0.330090
863.000000	0.329869
864.000000	0.329597
865.000000	0.329286
866.000000	0.328949
867.000000	0.328452
868.000000	0.328135
869.000000	0.327806
870.000000	0.327259
871.000000	0.327003
872.000000	0.326796
873.000000	0.326443
874.000000	0.326226
875.000000	0.325917
876.000000	0.325550
877.000000	0.325204
878.000000	0.325057
879.000000	0.325019
880.000000	0.324834
881.000000	0.324519
882.000000	0.324203
883.000000	0.323938
884.000000	0.323671
885.000000	0.323470
886.000000	0.323201
887.000000	0.322865
888.000000	0.322636
889.000000	0.322357
890.000000	0.322024
891.000000	0.321898
892.000000	0.321716
893.000000	0.321486
894.000000	0.321308
895.000000	0.320962
896.000000	0.320662
897.000000	0.320419
898.000000	0.320170
899.000000	0.319898
900.000000	0.319661
901.000000	0.319436
902.000000	0.319234
903.000000	0.319040
904.000000	0.318899
905.000000	0.318740
906.000000	0.318575
907.000000	0.318442
908.000000	0.318399
909.000000	0.318333
910.000000	0.318260
911.000000	0.318133
912.000000	0.317931
913.000000	0.317693
914.000000	0.317477
915.000000	0.317406
916.000000	0.317444
917.000000	0.317200
918.000000	0.316888
919.000000	0.316705
920.000000	0.316605
921.000000	0.316482
922.000000	0.316334
923.000000	0.316188
924.000000	0.316043
925.000000	0.315926
926.000000	0.315851
927.000000	0.315694
928.000000	0.315364
929.000000	0.315105
930.000000	0.315157
931.000000	0.315058
932.000000	0.314881
933.000000	0.314751
934.000000	0.314690
935.000000	0.314321
936.000000	0.314038
937.000000	0.314046
938.000000	0.313859
939.000000	0.313737
940.000000	0.313725
941.000000	0.313848
942.000000	0.313513
943.000000	0.313334
944.000000	0.313475
945.000000	0.313472
946.000000	0.313273
947.000000	0.313058
948.000000	0.312948
949.000000	0.312710
950.000000	0.312685
951.000000	0.312777
952.000000	0.312616
953.000000	0.312763
954.000000	0.312813
955.000000	0.312455
956.000000	0.312378
957.000000	0.312488
958.000000	0.312533
959.000000	0.312393
960.000000	0.312422
961.000000	0.312405
962.000000	0.312319
963.000000	0.312458
964.000000	0.312365
965.000000	0.312276
966.000000	0.312275
967.000000	0.312080
968.000000	0.312080
969.000000	0.312101
970.000000	0.311937
971.000000	0.312201
972.000000	0.312466
973.000000	0.312427
974.000000	0.312254
975.000000	0.311938
976.000000	0.311809
977.000000	0.311990
978.000000	0.311876
979.000000	0.311910
980.000000	0.311866
981.000000	0.311804
982.000000	0.311916
983.000000	0.312094
984.000000	0.312288
985.000000	0.312376
986.000000	0.312674
987.000000	0.312776
988.000000	0.312443
989.000000	0.312530
990.000000	0.312829
991.000000	0.313026
992.000000	0.312994
993.000000	0.313499
994.000000	0.313778
995.000000	0.313805
996.000000	0.313741
997.000000	0.313845
998.000000	0.314038
999.000000	0.314325
1000.000000	0.314628
1001.000000	0.314549
1002.000000	0.314079
1003.000000	0.314363
1004.000000	0.314481
1005.000000	0.314853
1006.000000	0.315139
1007.000000	0.315517
1008.000000	0.315464
1009.000000	0.315821
1010.000000	0.316190
1011.000000	0.316475
1012.000000	0.316581
1013.000000	0.316374
1014.000000	0.316198
1015.000000	0.316244
1016.000000	0.316331
1017.000000	0.316638
1018.000000	0.316905
1019.000000	0.317238
1020.000000	0.317974
1021.000000	0.318091
1022.000000	0.318099
1023.000000	0.318454
1024.000000	0.318561
1025.000000	0.318488
1026.000000	0.319122
1027.000000	0.319522
1028.000000	0.320152
1029.000000	0.321331
1030.000000	0.321583
1031.000000	0.321656
1032.000000	0.321771
1033.000000	0.321098
1034.000000	0.320968
1035.000000	0.321139
1036.000000	0.321490
1037.000000	0.322095
1038.000000	0.322441
1039.000000	0.323008
1040.000000	0.323631
1041.000000	0.323483
1042.000000	0.323827
1043.000000	0.324721
1044.000000	0.325110
1045.000000	0.325138
1046.000000	0.325113
1047.000000	0.325408
1048.000000	0.325389
1049.000000	0.325512
1050.000000	0.326089
1051.000000	0.326591
1052.000000	0.326840
1053.000000	0.327068
1054.000000	0.327683
1055.000000	0.328232
1056.000000	0.328528
1057.000000	0.329083
1058.000000	0.329584
1059.000000	0.330004
1060.000000	0.330582
1061.000000	0.331174
1062.000000	0.331614
1063.000000	0.331857
1064.000000	0.332411
1065.000000	0.332804
1066.000000	0.333313
1067.000000	0.334377
1068.000000	0.334867
1069.000000	0.334611
1070.000000	0.334856
1071.000000	0.335210
1072.000000	0.335627
1073.000000	0.336117
1074.000000	0.337260
1075.000000	0.338067
1076.000000	0.338699
1077.000000	0.338756
1078.000000	0.338637
1079.000000	0.339080
1080.000000	0.339535
1081.000000	0.340046
1082.000000	0.341328
1083.000000	0.341981
1084.000000	0.342081
1085.000000	0.342563
1086.000000	0.343132
1087.000000	0.343672
1088.000000	0.344159
1089.000000	0.344722
1090.000000	0.345144
1091.000000	0.345859
1092.000000	0.346798
1093.000000	0.347265
1094.000000	0.347651
1095.000000	0.347675
1096.000000	0.348148
1097.000000	0.348694
1098.000000	0.349160
1099.000000	0.349821
1100.000000	0.350352
1101.000000	0.350468
1102.000000	0.350900
1103.000000	0.351556
1104.000000	0.352119
1105.000000	0.352841
1106.000000	0.353332
1107.000000	0.353408
1108.000000	0.353835
1109.000000	0.354333
1110.000000	0.354929
1111.000000	0.355608
1112.000000	0.356669
1113.000000	0.357290
1114.000000	0.357844
1115.000000	0.358178
1116.000000	0.358169
1117.000000	0.358469
1118.000000	0.358533
1119.000000	0.358981
1120.000000	0.359961
1121.000000	0.360545
1122.000000	0.361231
1123.000000	0.362013
1124.000000	0.362277
1125.000000	0.362799
1126.000000	0.363523
1127.000000	0.364043
1128.000000	0.364499
1129.000000	0.365004
1130.000000	0.365367
1131.000000	0.365551
1132.000000	0.365835
1133.000000	0.366110
1134.000000	0.366525
1135.000000	0.367006
1136.000000	0.367378
1137.000000	0.367884
1138.000000	0.368112
1139.000000	0.368032
1140.000000	0.368383
1141.000000	0.368740
1142.000000	0.369177
1143.000000	0.370001
1144.000000	0.370616
1145.000000	0.370928
1146.000000	0.371010
1147.000000	0.371335
1148.000000	0.371465
1149.000000	0.371809
1150.000000	0.372455
1151.000000	0.372836
1152.000000	0.372976
1153.000000	0.373353
1154.000000	0.373752
1155.000000	0.374069
1156.000000	0.374443
1157.000000	0.374841
1158.000000	0.375105
1159.000000	0.375435
1160.000000	0.375910
1161.000000	0.376257
1162.000000	0.376631
1163.000000	0.376995
1164.000000	0.377330
1165.000000	0.377601
1166.000000	0.377980
1167.000000	0.378305
1168.000000	0.378749
1169.000000	0.379366
1170.000000	0.379846
1171.000000	0.380519
1172.000000	0.380887
1173.000000	0.380947
1174.000000	0.381142
1175.000000	0.381071
1176.000000	0.381258
1177.000000	0.381844
1178.000000	0.382181
1179.000000	0.382469
1180.000000	0.382732
1181.000000	0.383014
1182.000000	0.383176
1183.000000	0.383488
1184.000000	0.383939
1185.000000	0.384213
1186.000000	0.384427
1187.000000	0.384563
1188.000000	0.384536
1189.000000	0.384696
1190.000000	0.384934
1191.000000	0.385156
1192.000000	0.385632
1193.000000	0.386063
1194.000000	0.386295
1195.000000	0.386583
1196.000000	0.386845
1197.000000	0.387089
1198.000000	0.387335
1199.000000	0.387564
1200.000000	0.387720
1201.000000	0.387972
1202.000000	0.388277
1203.000000	0.388480
1204.000000	0.388721
1205.000000	0.388883
1206.000000	0.388957
1207.000000	0.388990
1208.000000	0.389101
1209.000000	0.389267
1210.000000	0.389464
1211.000000	0.389825
1212.000000	0.389909
1213.000000	0.389839
1214.000000	0.389943
1215.000000	0.389891
1216.000000	0.390024
1217.000000	0.390470
1218.000000	0.390622
1219.000000	0.390624
1220.000000	0.390816
1221.000000	0.390928
1222.000000	0.390947
1223.000000	0.391343
1224.000000	0.391616
1225.000000	0.391652
1226.000000	0.391947
1227.000000	0.392133
1228.000000	0.392292
1229.000000	0.392451
1230.000000	0.392674
1231.000000	0.392715
1232.000000	0.392779
1233.000000	0.393003
1234.000000	0.393222
1235.000000	0.393329
1236.000000	0.393336
1237.000000	0.393412
1238.000000	0.393318
1239.000000	0.393380
1240.000000	0.393592
1241.000000	0.393762
1242.000000	0.393912
1243.000000	0.394041
1244.000000	0.394122
1245.000000	0.394319
1246.000000	0.394369
1247.000000	0.394383
1248.000000	0.394580
1249.000000	0.394707
1250.000000	0.394885
1251.000000	0.395169
1252.000000	0.395326
1253.000000	0.395434
1254.000000	0.395554
1255.000000	0.395661
1256.000000	0.395708
1257.000000	0.395696
1258.000000	0.395830
1259.000000	0.395954
1260.000000	0.396087
1261.000000	0.396238
1262.000000	0.396334
1263.000000	0.396420
1264.000000	0.396333
1265.000000	0.396460
1266.000000	0.396610
1267.000000	0.396598
1268.000000	0.396637
1269.000000	0.396667
1270.000000	0.396754
1271.000000	0.396838
1272.000000	0.397016
1273.000000	0.397131
1274.000000	0.396950
1275.000000	0.396860
1276.000000	0.396808
1277.000000	0.396783
1278.000000	0.396588
1279.000000	0.396558
1280.000000	0.396529
1281.000000	0.396465
1282.000000	0.396567
1283.000000	0.396603
1284.000000	0.396470
1285.000000	0.396425
1286.000000	0.396285
1287.000000	0.396328
1288.000000	0.396539
1289.000000	0.396556
1290.000000	0.396591
1291.000000	0.396614
1292.000000	0.396408
1293.000000	0.396307
1294.000000	0.396264
1295.000000	0.396292
1296.000000	0.396546
1297.000000	0.396694
1298.000000	0.396795
1299.000000	0.396842
1300.000000	0.396829
1301.000000	0.396781
1302.000000	0.396737
1303.000000	0.396916
1304.000000	0.396917
1305.000000	0.396992
1306.000000	0.396961
1307.000000	0.396794
1308.000000	0.396732
1309.000000	0.396706
1310.000000	0.396670
1311.000000	0.396720
1312.000000	0.396731
1313.000000	0.396561
1314.000000	0.396275
1315.000000	0.396053
1316.000000	0.395900
1317.000000	0.395928
1318.000000	0.396071
1319.000000	0.395975
1320.000000	0.396094
1321.000000	0.396295
1322.000000	0.396172
1323.000000	0.396178
1324.000000	0.396308
1325.000000	0.396173
1326.000000	0.396077
1327.000000	0.396190
1328.000000	0.396230
1329.000000	0.396066
1330.000000	0.395779
1331.000000	0.395703
1332.000000	0.395563
1333.000000	0.395480
1334.000000	0.395739
1335.000000	0.395826
1336.000000	0.395796
1337.000000	0.395775
1338.000000	0.395746
1339.000000	0.395511
1340.000000	0.395222
1341.000000	0.394989
1342.000000	0.394802
1343.000000	0.394762
1344.000000	0.394818
1345.000000	0.394734
1346.000000	0.394603
1347.000000	0.394412
1348.000000	0.394240
1349.000000	0.394005
1350.000000	0.393907
1351.000000	0.393730
1352.000000	0.393492
1353.000000	0.393395
1354.000000	0.393280
1355.000000	0.393209
1356.000000	0.393419
1357.000000	0.393414
1358.000000	0.393199
1359.000000	0.393017
1360.000000	0.392933
1361.000000	0.392846
1362.000000	0.392755
1363.000000	0.392831
1364.000000	0.392784
1365.000000	0.392469
1366.000000	0.392345
1367.000000	0.392355
1368.000000	0.392248
1369.000000	0.392159
1370.000000	0.391903
1371.000000	0.391436
1372.000000	0.390955
1373.000000	0.390460
1374.000000	0.390062
1375.000000	0.389682
1376.000000	0.389341
1377.000000	0.389034
1378.000000	0.388587
1379.000000	0.388134
1380.000000	0.387669
1381.000000	0.386844
1382.000000	0.386029
1383.000000	0.385248
1384.000000	0.384292
1385.000000	0.383527
1386.000000	0.382803
1387.000000	0.381848
1388.000000	0.380712
1389.000000	0.379581
1390.000000	0.378440
1391.000000	0.377270
1392.000000	0.376140
1393.000000	0.374902
1394.000000	0.373653
1395.000000	0.372440
1396.000000	0.371170
1397.000000	0.369848
1398.000000	0.368434
1399.000000	0.367062
1400.000000	0.365660
1401.000000	0.364288
1402.000000	0.362991
1403.000000	0.361759
1404.000000	0.360541
1405.000000	0.359143
1406.000000	0.357770
1407.000000	0.356519
1408.000000	0.355182
1409.000000	0.354051
1410.000000	0.353164
1411.000000	0.352168
1412.000000	0.351184
1413.000000	0.350323
1414.000000	0.349562
1415.000000	0.349133
1416.000000	0.348902
1417.000000	0.348771
1418.000000	0.348703
1419.000000	0.348693
1420.000000	0.348671
1421.000000	0.348843
1422.000000	0.349005
1423.000000	0.349075
1424.000000	0.349048
1425.000000	0.348933
1426.000000	0.348620
1427.000000	0.348357
1428.000000	0.348109
1429.000000	0.347733
1430.000000	0.347499
1431.000000	0.347321
1432.000000	0.347190
1433.000000	0.347045
1434.000000	0.347204
1435.000000	0.347569
1436.000000	0.348175
1437.000000	0.348997
1438.000000	0.349989
1439.000000	0.351325
1440.000000	0.352640
1441.000000	0.354119
1442.000000	0.355712
1443.000000	0.357382
1444.000000	0.358958
1445.000000	0.360545
1446.000000	0.362088
1447.000000	0.363476
1448.000000	0.364619
1449.000000	0.365641
1450.000000	0.366487
1451.000000	0.367092
1452.000000	0.367620
1453.000000	0.368146
1454.000000	0.368494
1455.000000	0.368767
1456.000000	0.369116
1457.000000	0.369403
1458.000000	0.369658
1459.000000	0.369896
1460.000000	0.370074
1461.000000	0.370253
1462.000000	0.370479
1463.000000	0.370597
1464.000000	0.370743
1465.000000	0.370937
1466.000000	0.371104
1467.000000	0.371506
1468.000000	0.372005
1469.000000	0.372423
1470.000000	0.372666
1471.000000	0.372949
1472.000000	0.373112
1473.000000	0.373325
1474.000000	0.373658
1475.000000	0.374022
1476.000000	0.374468
1477.000000	0.374843
1478.000000	0.375200
1479.000000	0.375458
1480.000000	0.375642
1481.000000	0.375916
1482.000000	0.376284
1483.000000	0.376663
1484.000000	0.377158
1485.000000	0.377560
1486.000000	0.377887
1487.000000	0.378296
1488.000000	0.378761
1489.000000	0.379196
1490.000000	0.379477
1491.000000	0.379893
1492.000000	0.380303
1493.000000	0.380676
1494.000000	0.381081
1495.000000	0.381386
1496.000000	0.381602
1497.000000	0.381819
1498.000000	0.381981
1499.000000	0.382226
1500.000000	0.382501
1501.000000	0.382632
1502.000000	0.382877
1503.000000	0.383139
1504.000000	0.383146
1505.000000	0.383225
1506.000000	0.383424
1507.000000	0.383503
1508.000000	0.383796
1509.000000	0.384190
1510.000000	0.384355
1511.000000	0.384483
1512.000000	0.384570
1513.000000	0.384715
1514.000000	0.384983
1515.000000	0.385187
1516.000000	0.385437
1517.000000	0.385660
1518.000000	0.385822
1519.000000	0.385886
1520.000000	0.386034
1521.000000	0.386236
1522.000000	0.386407
1523.000000	0.386622
1524.000000	0.386865
1525.000000	0.387145
1526.000000	0.387334
1527.000000	0.387598
1528.000000	0.387969
1529.000000	0.388102
1530.000000	0.388143
1531.000000	0.388359
1532.000000	0.388494
1533.000000	0.388622
1534.000000	0.388895
1535.000000	0.388999
1536.000000	0.388902
1537.000000	0.389075
1538.000000	0.389268
1539.000000	0.389341
1540.000000	0.389474
1541.000000	0.389572
1542.000000	0.389593
1543.000000	0.389622
1544.000000	0.389730
1545.000000	0.389932
1546.000000	0.390125
1547.000000	0.390227
1548.000000	0.390354
1549.000000	0.390456
1550.000000	0.390465
1551.000000	0.390526
1552.000000	0.390633
1553.000000	0.390647
1554.000000	0.390633
1555.000000	0.390761
1556.000000	0.390866
1557.000000	0.390846
1558.000000	0.390928
1559.000000	0.390966
1560.000000	0.390996
1561.000000	0.391128
1562.000000	0.391213
1563.000000	0.391323
1564.000000	0.391396
1565.000000	0.391430
1566.000000	0.391382
1567.000000	0.391409
1568.000000	0.391434
1569.000000	0.391488
1570.000000	0.391560
1571.000000	0.391623
1572.000000	0.391678
1573.000000	0.391800
1574.000000	0.391846
1575.000000	0.391857
1576.000000	0.391933
1577.000000	0.391995
1578.000000	0.392024
1579.000000	0.392149
1580.000000	0.392217
1581.000000	0.392256
1582.000000	0.392352
1583.000000	0.392569
1584.000000	0.392576
1585.000000	0.392608
1586.000000	0.392657
1587.000000	0.392493
1588.000000	0.392490
1589.000000	0.392656
1590.000000	0.392760
1591.000000	0.392942
1592.000000	0.393104
1593.000000	0.393289
1594.000000	0.393362
1595.000000	0.393494
1596.000000	0.393511
1597.000000	0.393435
1598.000000	0.393388
1599.000000	0.393281
1600.000000	0.393172
1601.000000	0.393239
1602.000000	0.393154
1603.000000	0.393028
1604.000000	0.392903
1605.000000	0.392699
1606.000000	0.392543
1607.000000	0.392442
1608.000000	0.392368
1609.000000	0.392420
1610.000000	0.392384
1611.000000	0.392390
1612.000000	0.392369
1613.000000	0.392430
1614.000000	0.392418
1615.000000	0.392417
1616.000000	0.392500
1617.000000	0.392470
1618.000000	0.392508
1619.000000	0.392652
1620.000000	0.392752
1621.000000	0.392906
1622.000000	0.393113
1623.000000	0.393307
1624.000000	0.393436
1625.000000	0.393384
1626.000000	0.393365
1627.000000	0.393369
1628.000000	0.393327
1629.000000	0.393200
1630.000000	0.393204
1631.000000	0.393121
1632.000000	0.393118
1633.000000	0.393307
1634.000000	0.393339
1635.000000	0.393328
1636.000000	0.393318
1637.000000	0.393337
1638.000000	0.393261
1639.000000	0.393206
1640.000000	0.393132
1641.000000	0.393061
1642.000000	0.392958
1643.000000	0.392854
1644.000000	0.392778
1645.000000	0.392686
1646.000000	0.392579
1647.000000	0.392591
1648.000000	0.392476
1649.000000	0.392303
1650.000000	0.392304
1651.000000	0.392442
1652.000000	0.392492
1653.000000	0.392485
1654.000000	0.392645
1655.000000	0.392763
1656.000000	0.392816
1657.000000	0.393143
1658.000000	0.393204
1659.000000	0.393154
1660.000000	0.393153
1661.000000	0.393030
1662.000000	0.392985
1663.000000	0.392921
1664.000000	0.392822
1665.000000	0.392693
1666.000000	0.392682
1667.000000	0.392536
1668.000000	0.392540
1669.000000	0.392730
1670.000000	0.392643
1671.000000	0.392608
1672.000000	0.392589
1673.000000	0.392381
1674.000000	0.392355
1675.000000	0.392477
1676.000000	0.392569
1677.000000	0.392557
1678.000000	0.392431
1679.000000	0.392327
1680.000000	0.392271
1681.000000	0.392256
1682.000000	0.392284
1683.000000	0.392276
1684.000000	0.392195
1685.000000	0.392186
1686.000000	0.392196
1687.000000	0.392220
1688.000000	0.392092
1689.000000	0.392039
1690.000000	0.392008
1691.000000	0.391857
1692.000000	0.391800
1693.000000	0.391754
1694.000000	0.391502
1695.000000	0.391561
1696.000000	0.391630
1697.000000	0.391576
1698.000000	0.391681
1699.000000	0.391736
1700.000000	0.391606
1701.000000	0.391700
1702.000000	0.391776
1703.000000	0.391689
1704.000000	0.391599
1705.000000	0.391639
1706.000000	0.391707
1707.000000	0.391773
1708.000000	0.392087
1709.000000	0.392043
1710.000000	0.391771
1711.000000	0.391706
1712.000000	0.391573
1713.000000	0.391533
1714.000000	0.391765
1715.000000	0.391852
1716.000000	0.391969
1717.000000	0.391928
1718.000000	0.391689
1719.000000	0.391557
1720.000000	0.391400
1721.000000	0.391304
1722.000000	0.391354
1723.000000	0.391266
1724.000000	0.391060
1725.000000	0.391073
1726.000000	0.391134
1727.000000	0.391029
1728.000000	0.390909
1729.000000	0.390647
1730.000000	0.390257
1731.000000	0.390057
1732.000000	0.389922
1733.000000	0.389959
1734.000000	0.390003
1735.000000	0.389972
1736.000000	0.390028
1737.000000	0.389900
1738.000000	0.389581
1739.000000	0.389468
1740.000000	0.389361
1741.000000	0.389264
1742.000000	0.389253
1743.000000	0.389307
1744.000000	0.389372
1745.000000	0.389322
1746.000000	0.389297
1747.000000	0.389104
1748.000000	0.388991
1749.000000	0.389126
1750.000000	0.389067
1751.000000	0.389103
1752.000000	0.389176
1753.000000	0.388981
1754.000000	0.388815
1755.000000	0.388543
1756.000000	0.388370
1757.000000	0.388234
1758.000000	0.388115
1759.000000	0.388038
1760.000000	0.388007
1761.000000	0.387969
1762.000000	0.387888
1763.000000	0.387944
1764.000000	0.387844
1765.000000	0.387414
1766.000000	0.387336
1767.000000	0.387332
1768.000000	0.387231
1769.000000	0.387415
1770.000000	0.387505
1771.000000	0.387396
1772.000000	0.387345
1773.000000	0.387328
1774.000000	0.387220
1775.000000	0.387057
1776.000000	0.386983
1777.000000	0.386917
1778.000000	0.386758
1779.000000	0.386570
1780.000000	0.386422
1781.000000	0.386137
1782.000000	0.385993
1783.000000	0.386019
1784.000000	0.385988
1785.000000	0.385920
1786.000000	0.386000
1787.000000	0.386070
1788.000000	0.385973
1789.000000	0.385934
1790.000000	0.385912
1791.000000	0.385879
1792.000000	0.386171
1793.000000	0.386255
1794.000000	0.386178
1795.000000	0.386182
1796.000000	0.386117
1797.000000	0.386075
1798.000000	0.386103
1799.000000	0.386071
1800.000000	0.386066
1801.000000	0.386619
1802.000000	0.386347
1803.000000	0.385273
1804.000000	0.384752
1805.000000	0.385167
1806.000000	0.384750
1807.000000	0.383495
1808.000000	0.382711
1809.000000	0.381521
1810.000000	0.381271
1811.000000	0.380965
1812.000000	0.380700
1813.000000	0.380880
1814.000000	0.381702
1815.000000	0.382176
1816.000000	0.383068
1817.000000	0.383363
1818.000000	0.383511
1819.000000	0.383544
1820.000000	0.383058
1821.000000	0.382510
1822.000000	0.381946
1823.000000	0.380377
1824.000000	0.380221
1825.000000	0.380767
1826.000000	0.381346
1827.000000	0.382551
1828.000000	0.383875
1829.000000	0.384424
1830.000000	0.384329
1831.000000	0.384201
1832.000000	0.383230
1833.000000	0.383243
1834.000000	0.383784
1835.000000	0.383690
1836.000000	0.383716
1837.000000	0.383559
1838.000000	0.382619
1839.000000	0.381952
1840.000000	0.381501
1841.000000	0.381114
1842.000000	0.380977
1843.000000	0.380747
1844.000000	0.380772
1845.000000	0.381495
1846.000000	0.381733
1847.000000	0.381261
1848.000000	0.381594
1849.000000	0.382686
1850.000000	0.381846
1851.000000	0.381419
1852.000000	0.381226
1853.000000	0.380752
1854.000000	0.378998
1855.000000	0.378462
1856.000000	0.378501
1857.000000	0.378135
1858.000000	0.378511
1859.000000	0.378712
1860.000000	0.378408
1861.000000	0.377945
1862.000000	0.377072
1863.000000	0.375452
1864.000000	0.374579
1865.000000	0.373885
1866.000000	0.373092
1867.000000	0.372528
1868.000000	0.371682
1869.000000	0.370733
1870.000000	0.369601
1871.000000	0.368489
1872.000000	0.367748
1873.000000	0.366801
1874.000000	0.365923
1875.000000	0.364491
1876.000000	0.362448
1877.000000	0.360412
1878.000000	0.358237
1879.000000	0.355875
1880.000000	0.353956
1881.000000	0.351350
1882.000000	0.347769
1883.000000	0.344403
1884.000000	0.341512
1885.000000	0.338586
1886.000000	0.335521
1887.000000	0.332746
1888.000000	0.330100
1889.000000	0.326520
1890.000000	0.322000
1891.000000	0.317098
1892.000000	0.311697
1893.000000	0.307004
1894.000000	0.303294
1895.000000	0.299133
1896.000000	0.295615
1897.000000	0.292043
1898.000000	0.288110
1899.000000	0.283415
1900.000000	0.278996
1901.000000	0.275310
1902.000000	0.270978
1903.000000	0.267385
1904.000000	0.264883
1905.000000	0.262930
1906.000000	0.261506
1907.000000	0.260941
1908.000000	0.260651
1909.000000	0.260883
1910.000000	0.261057
1911.000000	0.261345
1912.000000	0.261908
1913.000000	0.262478
1914.000000	0.262791
1915.000000	0.262608
1916.000000	0.263124
1917.000000	0.263911
1918.000000	0.265006
1919.000000	0.266379
1920.000000	0.268034
1921.000000	0.269701
1922.000000	0.271046
1923.000000	0.271986
1924.000000	0.272743
1925.000000	0.273653
1926.000000	0.275034
1927.000000	0.276080
1928.000000	0.277051
1929.000000	0.278390
1930.000000	0.279393
1931.000000	0.279785
1932.000000	0.280944
1933.000000	0.282322
1934.000000	0.283459
1935.000000	0.284693
1936.000000	0.285460
1937.000000	0.285862
1938.000000	0.286372
1939.000000	0.286873
1940.000000	0.287008
1941.000000	0.287793
1942.000000	0.289131
1943.000000	0.290266
1944.000000	0.291496
1945.000000	0.292323
1946.000000	0.292585
1947.000000	0.292432
1948.000000	0.292332
1949.000000	0.292279
1950.000000	0.292472
1951.000000	0.292698
1952.000000	0.293247
1953.000000	0.293695
1954.000000	0.294480
1955.000000	0.294786
1956.000000	0.295174
1957.000000	0.296394
1958.000000	0.297273
1959.000000	0.298315
1960.000000	0.299202
1961.000000	0.299633
1962.000000	0.300399
1963.000000	0.301217
1964.000000	0.302153
1965.000000	0.303193
1966.000000	0.303756
1967.000000	0.304123
1968.000000	0.304747
1969.000000	0.304972
1970.000000	0.305839
1971.000000	0.306605
1972.000000	0.306863
1973.000000	0.307469
1974.000000	0.308563
1975.000000	0.309288
1976.000000	0.310049
1977.000000	0.311018
1978.000000	0.311130
1979.000000	0.311586
1980.000000	0.311461
1981.000000	0.311394
1982.000000	0.312202
1983.000000	0.312883
1984.000000	0.313708
1985.000000	0.315326
1986.000000	0.316148
1987.000000	0.316547
1988.000000	0.317347
1989.000000	0.318030
1990.000000	0.318846
1991.000000	0.319736
1992.000000	0.320161
1993.000000	0.320770
1994.000000	0.321633
1995.000000	0.322255
1996.000000	0.323237
1997.000000	0.323940
1998.000000	0.324371
1999.000000	0.325021
2000.000000	0.325928
2001.000000	0.326255
2002.000000	0.326524
2003.000000	0.327243
2004.000000	0.327603
2005.000000	0.327902
2006.000000	0.328479
2007.000000	0.328912
2008.000000	0.329615
2009.000000	0.330245
2010.000000	0.330994
2011.000000	0.332343
2012.000000	0.332840
2013.000000	0.332357
2014.000000	0.333038
2015.000000	0.333582
2016.000000	0.333178
2017.000000	0.333347
2018.000000	0.333826
2019.000000	0.334351
2020.000000	0.334970
2021.000000	0.335564
2022.000000	0.336451
2023.000000	0.336912
2024.000000	0.336831
2025.000000	0.337504
2026.000000	0.338358
2027.000000	0.339149
2028.000000	0.340476
2029.000000	0.341255
2030.000000	0.341236
2031.000000	0.341529
2032.000000	0.341213
2033.000000	0.341134
2034.000000	0.341162
2035.000000	0.341282
2036.000000	0.341441
2037.000000	0.342336
2038.000000	0.342515
2039.000000	0.342504
2040.000000	0.342665
2041.000000	0.342378
2042.000000	0.341695
2043.000000	0.341691
2044.000000	0.342187
2045.000000	0.343038
2046.000000	0.343724
2047.000000	0.344569
2048.000000	0.345633
2049.000000	0.346843
2050.000000	0.347888
2051.000000	0.348592
2052.000000	0.349358
2053.000000	0.349622
2054.000000	0.349368
2055.000000	0.349682
2056.000000	0.349955
2057.000000	0.349905
2058.000000	0.349783
2059.000000	0.349783
2060.000000	0.349575
2061.000000	0.349161
2062.000000	0.348975
2063.000000	0.348663
2064.000000	0.348532
2065.000000	0.348890
2066.000000	0.348847
2067.000000	0.349055
2068.000000	0.349595
2069.000000	0.349297
2070.000000	0.349600
2071.000000	0.349419
2072.000000	0.349148
2073.000000	0.349159
2074.000000	0.349214
2075.000000	0.349738
2076.000000	0.351084
2077.000000	0.351564
2078.000000	0.352036
2079.000000	0.352015
2080.000000	0.350889
2081.000000	0.350774
2082.000000	0.350814
2083.000000	0.351686
2084.000000	0.351782
2085.000000	0.351944
2086.000000	0.351887
2087.000000	0.352067
2088.000000	0.353101
2089.000000	0.353502
2090.000000	0.353861
2091.000000	0.354159
2092.000000	0.353991
2093.000000	0.353238
2094.000000	0.353167
2095.000000	0.353128
2096.000000	0.353028
2097.000000	0.352963
2098.000000	0.353352
2099.000000	0.353579
2100.000000	0.353671
2101.000000	0.354649
2102.000000	0.355486
2103.000000	0.355502
2104.000000	0.355555
2105.000000	0.355335
2106.000000	0.354149
2107.000000	0.354166
2108.000000	0.354570
2109.000000	0.355163
2110.000000	0.356399
2111.000000	0.357070
2112.000000	0.357737
2113.000000	0.357777
2114.000000	0.357517
2115.000000	0.357618
2116.000000	0.357109
2117.000000	0.356556
2118.000000	0.356881
2119.000000	0.356910
2120.000000	0.356512
2121.000000	0.356069
2122.000000	0.355733
2123.000000	0.354463
2124.000000	0.354243
2125.000000	0.355303
2126.000000	0.355473
2127.000000	0.355004
2128.000000	0.355472
2129.000000	0.356264
2130.000000	0.356825
2131.000000	0.357393
2132.000000	0.358210
2133.000000	0.358453
2134.000000	0.357718
2135.000000	0.357550
2136.000000	0.357554
2137.000000	0.357416
2138.000000	0.357453
2139.000000	0.357151
2140.000000	0.356743
2141.000000	0.356112
2142.000000	0.354772
2143.000000	0.353602
2144.000000	0.352209
2145.000000	0.351823
2146.000000	0.352085
2147.000000	0.352905
2148.000000	0.353956
2149.000000	0.354675
2150.000000	0.354433
2151.000000	0.353674
2152.000000	0.352923
2153.000000	0.352196
2154.000000	0.351921
2155.000000	0.352193
2156.000000	0.352115
2157.000000	0.352497
2158.000000	0.352229
2159.000000	0.351240
2160.000000	0.350842
2161.000000	0.350312
2162.000000	0.350265
2163.000000	0.350583
2164.000000	0.350972
2165.000000	0.352286
2166.000000	0.352065
2167.000000	0.352097
2168.000000	0.352118
2169.000000	0.351307
2170.000000	0.351344
2171.000000	0.351318
2172.000000	0.351530
2173.000000	0.351512
2174.000000	0.351839
2175.000000	0.351215
2176.000000	0.349989
2177.000000	0.349195
2178.000000	0.347450
2179.000000	0.347144
2180.000000	0.347976
2181.000000	0.348337
2182.000000	0.348607
2183.000000	0.348699
2184.000000	0.348893
2185.000000	0.348503
2186.000000	0.347490
2187.000000	0.347660
2188.000000	0.346514
2189.000000	0.345114
2190.000000	0.344278
2191.000000	0.344648
2192.000000	0.344897
2193.000000	0.346070
2194.000000	0.346121
2195.000000	0.346214
2196.000000	0.345241
2197.000000	0.342420
2198.000000	0.341208
2199.000000	0.339996
2200.000000	0.339593
2201.000000	0.340994
2202.000000	0.341545
2203.000000	0.342111
2204.000000	0.341920
2205.000000	0.341384
2206.000000	0.341302
2207.000000	0.341183
2208.000000	0.342509
2209.000000	0.343665
2210.000000	0.344230
2211.000000	0.343639
2212.000000	0.342046
2213.000000	0.341907
2214.000000	0.341426
2215.000000	0.341872
2216.000000	0.343968
2217.000000	0.345519
2218.000000	0.348415
2219.000000	0.349106
2220.000000	0.347958
2221.000000	0.348447
2222.000000	0.349032
2223.000000	0.348055
2224.000000	0.347932
2225.000000	0.346306
2226.000000	0.341442
2227.000000	0.338213
2228.000000	0.338787
2229.000000	0.340433
2230.000000	0.343411
2231.000000	0.346584
2232.000000	0.344730
2233.000000	0.343298
2234.000000	0.342635
2235.000000	0.341442
2236.000000	0.341090
2237.000000	0.342657
2238.000000	0.341806
2239.000000	0.339649
2240.000000	0.337753
2241.000000	0.334994
2242.000000	0.334483
2243.000000	0.335094
2244.000000	0.335267
2245.000000	0.335856
2246.000000	0.335960
2247.000000	0.334857
2248.000000	0.335296
2249.000000	0.336613
2250.000000	0.339668
2251.000000	0.341136
2252.000000	0.340761
2253.000000	0.339258
2254.000000	0.336889
2255.000000	0.336329
2256.000000	0.338454
2257.000000	0.339255
2258.000000	0.339888
2259.000000	0.339613
2260.000000	0.337073
2261.000000	0.335634
2262.000000	0.334701
2263.000000	0.333282
2264.000000	0.331819
2265.000000	0.329761
2266.000000	0.326952
2267.000000	0.324661
2268.000000	0.322101
2269.000000	0.319987
2270.000000	0.318545
2271.000000	0.316443
2272.000000	0.314578
2273.000000	0.311973
2274.000000	0.308988
2275.000000	0.305965
2276.000000	0.301877
2277.000000	0.297754
2278.000000	0.297020
2279.000000	0.295332
2280.000000	0.296669
2281.000000	0.298570
2282.000000	0.295316
2283.000000	0.293411
2284.000000	0.292553
2285.000000	0.289807
2286.000000	0.291181
2287.000000	0.293360
2288.000000	0.293679
2289.000000	0.294788
2290.000000	0.294708
2291.000000	0.294687
2292.000000	0.294446
2293.000000	0.293339
2294.000000	0.293867
2295.000000	0.295279
2296.000000	0.296991
2297.000000	0.300099
2298.000000	0.302312
2299.000000	0.304446
2300.000000	0.306862
2301.000000	0.309302
2302.000000	0.311078
2303.000000	0.312564
2304.000000	0.313786
2305.000000	0.314550
2306.000000	0.315226
2307.000000	0.315206
2308.000000	0.317226
2309.000000	0.318575
2310.000000	0.319521
2311.000000	0.323326
2312.000000	0.325462
2313.000000	0.326755
2314.000000	0.329038
2315.000000	0.329101
2316.000000	0.328523
2317.000000	0.327400
2318.000000	0.325909
2319.000000	0.325913
2320.000000	0.325573
2321.000000	0.326097
2322.000000	0.327870
2323.000000	0.327238
2324.000000	0.326373
2325.000000	0.325594
2326.000000	0.323800
2327.000000	0.322873
2328.000000	0.322340
2329.000000	0.321067
2330.000000	0.319247
2331.000000	0.318304
2332.000000	0.319426
2333.000000	0.320827
2334.000000	0.320739
2335.000000	0.320890
2336.000000	0.319297
2337.000000	0.318174
2338.000000	0.316906
2339.000000	0.317250
2340.000000	0.318220
2341.000000	0.319669
2342.000000	0.324126
2343.000000	0.324336
2344.000000	0.322095
2345.000000	0.320058
2346.000000	0.315342
2347.000000	0.312263
2348.000000	0.309196
2349.000000	0.308897
2350.000000	0.309931
2351.000000	0.306787
2352.000000	0.303529
2353.000000	0.301093
2354.000000	0.295131
2355.000000	0.294718
2356.000000	0.299083
2357.000000	0.301710
2358.000000	0.306614
2359.000000	0.310571
2360.000000	0.312157
2361.000000	0.314338
2362.000000	0.312986
2363.000000	0.312921
2364.000000	0.311995
2365.000000	0.308214
2366.000000	0.308859
2367.000000	0.307017
2368.000000	0.305546
2369.000000	0.305244
2370.000000	0.300581
2371.000000	0.298402
2372.000000	0.296461
2373.000000	0.294653
2374.000000	0.295890
2375.000000	0.296068
2376.000000	0.297099
2377.000000	0.299991
2378.000000	0.299218
2379.000000	0.296743
2380.000000	0.294470
2381.000000	0.291070
2382.000000	0.286789
2383.000000	0.288691
2384.000000	0.293091
2385.000000	0.293216
2386.000000	0.298387
2387.000000	0.293985
2388.000000	0.283846
2389.000000	0.277723
2390.000000	0.265799
2391.000000	0.262634
2392.000000	0.262489
2393.000000	0.258587
2394.000000	0.263943
2395.000000	0.268398
2396.000000	0.268929
2397.000000	0.270629
2398.000000	0.272425
2399.000000	0.278274
2400.000000	0.279381
2401.000000	0.281817
2402.000000	0.284312
2403.000000	0.276900
2404.000000	0.280135
2405.000000	0.283767
2406.000000	0.281045
2407.000000	0.287224
2408.000000	0.291062
2409.000000	0.291565
2410.000000	0.290537
2411.000000	0.284065
2412.000000	0.275421
2413.000000	0.269670
2414.000000	0.270530
2415.000000	0.271888
2416.000000	0.275864
2417.000000	0.274875
2418.000000	0.272963
2419.000000	0.275828
2420.000000	0.266526
2421.000000	0.261207
2422.000000	0.266054
2423.000000	0.268790
2424.000000	0.274483
2425.000000	0.278845
2426.000000	0.267304
2427.000000	0.247641
2428.000000	0.236244
2429.000000	0.233368
2430.000000	0.239540
2431.000000	0.249649
2432.000000	0.251009
2433.000000	0.250341
2434.000000	0.254942
2435.000000	0.257879
2436.000000	0.264389
2437.000000	0.269916
2438.000000	0.264885
2439.000000	0.251224
2440.000000	0.240514
2441.000000	0.241467
2442.000000	0.253169
2443.000000	0.277919
2444.000000	0.290578
2445.000000	0.282260
2446.000000	0.272649
2447.000000	0.252871
2448.000000	0.248235
2449.000000	0.266220
2450.000000	0.265324
2451.000000	0.261929
2452.000000	0.255687
2453.000000	0.240250
2454.000000	0.240369
2455.000000	0.247817
2456.000000	0.258868
2457.000000	0.271113
2458.000000	0.270004
2459.000000	0.250488
2460.000000	0.246387
2461.000000	0.248563
2462.000000	0.247170
2463.000000	0.257961
2464.000000	0.248538
2465.000000	0.228151
2466.000000	0.222965
2467.000000	0.231454
2468.000000	0.244083
2469.000000	0.260637
2470.000000	0.262326
2471.000000	0.254223
2472.000000	0.251697
2473.000000	0.237616
2474.000000	0.233522
2475.000000	0.234298
2476.000000	0.224330
2477.000000	0.241642
2478.000000	0.268654
2479.000000	0.265885
2480.000000	0.266522
2481.000000	0.253243
2482.000000	0.230284
2483.000000	0.227461
2484.000000	0.216054
2485.000000	0.202920
2486.000000	0.171803
2487.000000	0.154778
2488.000000	0.182190
2489.000000	0.198831
2490.000000	0.224816
2491.000000	0.227454
2492.000000	0.225423
2493.000000	0.253088
2494.000000	0.250719
2495.000000	0.206807
2496.000000	0.191346
2497.000000	0.164269
2498.000000	0.144947
2499.000000	0.152165
2500.000000	0.158610
