# Wavelength	NAu-1-40_HEX-50_FV7-10_00000.asd.rts.txt
350.000000	0.161273
351.000000	0.158898
352.000000	0.153639
353.000000	0.142766
354.000000	0.133244
355.000000	0.147705
356.000000	0.153304
357.000000	0.147511
358.000000	0.145005
359.000000	0.146116
360.000000	0.150147
361.000000	0.154838
362.000000	0.153540
363.000000	0.152948
364.000000	0.155506
365.000000	0.151963
366.000000	0.151557
367.000000	0.153408
368.000000	0.148259
369.000000	0.147287
370.000000	0.149632
371.000000	0.151230
372.000000	0.154860
373.000000	0.154959
374.000000	0.150531
375.000000	0.153303
376.000000	0.155508
377.000000	0.155688
378.000000	0.158685
379.000000	0.158655
380.000000	0.157528
381.000000	0.159437
382.000000	0.158573
383.000000	0.158579
384.000000	0.161189
385.000000	0.158977
386.000000	0.159348
387.000000	0.163355
388.000000	0.165252
389.000000	0.167357
390.000000	0.169788
391.000000	0.171869
392.000000	0.173710
393.000000	0.174317
394.000000	0.173802
395.000000	0.176347
396.000000	0.178781
397.000000	0.179881
398.000000	0.180907
399.000000	0.182384
400.000000	0.184236
401.000000	0.185927
402.000000	0.187259
403.000000	0.188883
404.000000	0.191271
405.000000	0.193007
406.000000	0.194357
407.000000	0.195733
408.000000	0.197659
409.000000	0.199227
410.000000	0.200419
411.000000	0.201678
412.000000	0.202504
413.000000	0.203290
414.000000	0.204473
415.000000	0.205456
416.000000	0.206264
417.000000	0.206943
418.000000	0.207476
419.000000	0.207789
420.000000	0.207965
421.000000	0.208191
422.000000	0.209354
423.000000	0.210264
424.000000	0.209506
425.000000	0.209575
426.000000	0.210041
427.000000	0.210214
428.000000	0.209802
429.000000	0.209728
430.000000	0.210089
431.000000	0.209878
432.000000	0.209573
433.000000	0.209384
434.000000	0.209519
435.000000	0.209789
436.000000	0.209783
437.000000	0.209261
438.000000	0.208977
439.000000	0.208671
440.000000	0.208272
441.000000	0.207929
442.000000	0.207200
443.000000	0.206331
444.000000	0.206222
445.000000	0.206491
446.000000	0.206780
447.000000	0.206735
448.000000	0.207350
449.000000	0.208598
450.000000	0.210246
451.000000	0.211765
452.000000	0.213773
453.000000	0.216292
454.000000	0.218898
455.000000	0.221700
456.000000	0.224750
457.000000	0.227911
458.000000	0.230710
459.000000	0.233427
460.000000	0.236347
461.000000	0.238993
462.000000	0.241353
463.000000	0.243316
464.000000	0.245043
465.000000	0.246467
466.000000	0.247645
467.000000	0.248844
468.000000	0.250208
469.000000	0.251390
470.000000	0.252206
471.000000	0.253232
472.000000	0.254090
473.000000	0.254626
474.000000	0.255346
475.000000	0.256123
476.000000	0.256954
477.000000	0.257600
478.000000	0.258275
479.000000	0.259085
480.000000	0.259744
481.000000	0.260350
482.000000	0.260993
483.000000	0.261563
484.000000	0.262386
485.000000	0.263164
486.000000	0.263896
487.000000	0.264533
488.000000	0.265072
489.000000	0.265655
490.000000	0.266512
491.000000	0.267195
492.000000	0.267854
493.000000	0.268613
494.000000	0.269280
495.000000	0.270016
496.000000	0.270850
497.000000	0.271554
498.000000	0.272249
499.000000	0.273047
500.000000	0.273861
501.000000	0.274768
502.000000	0.275732
503.000000	0.276581
504.000000	0.277532
505.000000	0.278398
506.000000	0.279047
507.000000	0.279911
508.000000	0.280820
509.000000	0.281673
510.000000	0.282739
511.000000	0.283760
512.000000	0.284721
513.000000	0.285732
514.000000	0.286638
515.000000	0.287596
516.000000	0.288740
517.000000	0.289689
518.000000	0.290677
519.000000	0.291822
520.000000	0.293083
521.000000	0.294139
522.000000	0.295021
523.000000	0.296289
524.000000	0.297516
525.000000	0.298664
526.000000	0.299925
527.000000	0.301188
528.000000	0.302446
529.000000	0.303751
530.000000	0.304952
531.000000	0.306222
532.000000	0.307564
533.000000	0.308899
534.000000	0.310277
535.000000	0.311674
536.000000	0.313033
537.000000	0.314473
538.000000	0.315926
539.000000	0.317247
540.000000	0.318577
541.000000	0.319965
542.000000	0.321442
543.000000	0.322796
544.000000	0.324189
545.000000	0.325611
546.000000	0.327008
547.000000	0.328425
548.000000	0.329853
549.000000	0.331127
550.000000	0.332508
551.000000	0.333964
552.000000	0.335328
553.000000	0.336679
554.000000	0.338046
555.000000	0.339442
556.000000	0.340837
557.000000	0.342143
558.000000	0.343473
559.000000	0.344756
560.000000	0.345960
561.000000	0.347163
562.000000	0.348309
563.000000	0.349405
564.000000	0.350541
565.000000	0.351651
566.000000	0.352674
567.000000	0.353734
568.000000	0.354825
569.000000	0.355717
570.000000	0.356587
571.000000	0.357472
572.000000	0.358336
573.000000	0.359158
574.000000	0.359899
575.000000	0.360591
576.000000	0.361295
577.000000	0.361945
578.000000	0.362575
579.000000	0.363249
580.000000	0.363876
581.000000	0.364422
582.000000	0.364956
583.000000	0.365438
584.000000	0.365892
585.000000	0.366381
586.000000	0.366764
587.000000	0.367091
588.000000	0.367447
589.000000	0.367802
590.000000	0.368128
591.000000	0.368407
592.000000	0.368631
593.000000	0.368831
594.000000	0.369043
595.000000	0.369326
596.000000	0.369506
597.000000	0.369648
598.000000	0.369780
599.000000	0.369884
600.000000	0.369988
601.000000	0.370034
602.000000	0.370148
603.000000	0.370226
604.000000	0.370232
605.000000	0.370210
606.000000	0.370224
607.000000	0.370300
608.000000	0.370429
609.000000	0.370481
610.000000	0.370544
611.000000	0.370719
612.000000	0.370777
613.000000	0.370808
614.000000	0.370915
615.000000	0.370964
616.000000	0.370983
617.000000	0.370970
618.000000	0.371026
619.000000	0.371089
620.000000	0.371088
621.000000	0.371032
622.000000	0.371016
623.000000	0.371033
624.000000	0.371069
625.000000	0.371155
626.000000	0.371226
627.000000	0.371284
628.000000	0.371452
629.000000	0.371644
630.000000	0.371679
631.000000	0.371679
632.000000	0.371729
633.000000	0.371815
634.000000	0.371890
635.000000	0.372069
636.000000	0.372189
637.000000	0.372185
638.000000	0.372313
639.000000	0.372455
640.000000	0.372636
641.000000	0.372784
642.000000	0.372905
643.000000	0.373031
644.000000	0.373200
645.000000	0.373377
646.000000	0.373563
647.000000	0.373724
648.000000	0.373842
649.000000	0.374057
650.000000	0.374330
651.000000	0.374459
652.000000	0.374643
653.000000	0.374905
654.000000	0.375095
655.000000	0.375317
656.000000	0.375594
657.000000	0.375850
658.000000	0.376084
659.000000	0.376361
660.000000	0.376674
661.000000	0.376950
662.000000	0.377214
663.000000	0.377523
664.000000	0.377831
665.000000	0.378220
666.000000	0.378613
667.000000	0.378890
668.000000	0.379212
669.000000	0.379559
670.000000	0.379907
671.000000	0.380231
672.000000	0.380618
673.000000	0.381048
674.000000	0.381438
675.000000	0.381773
676.000000	0.382099
677.000000	0.382493
678.000000	0.382869
679.000000	0.383267
680.000000	0.383704
681.000000	0.384044
682.000000	0.384475
683.000000	0.384952
684.000000	0.385489
685.000000	0.385937
686.000000	0.386403
687.000000	0.386988
688.000000	0.387485
689.000000	0.387956
690.000000	0.388498
691.000000	0.388999
692.000000	0.389473
693.000000	0.390005
694.000000	0.390531
695.000000	0.391115
696.000000	0.391742
697.000000	0.392362
698.000000	0.392902
699.000000	0.393436
700.000000	0.394036
701.000000	0.394623
702.000000	0.395226
703.000000	0.395815
704.000000	0.396347
705.000000	0.396932
706.000000	0.397540
707.000000	0.398201
708.000000	0.398811
709.000000	0.399372
710.000000	0.399943
711.000000	0.400573
712.000000	0.401234
713.000000	0.401912
714.000000	0.402533
715.000000	0.403135
716.000000	0.403735
717.000000	0.404303
718.000000	0.404879
719.000000	0.405454
720.000000	0.406033
721.000000	0.406587
722.000000	0.407124
723.000000	0.407715
724.000000	0.408275
725.000000	0.408799
726.000000	0.409366
727.000000	0.409877
728.000000	0.410426
729.000000	0.410984
730.000000	0.411459
731.000000	0.411964
732.000000	0.412438
733.000000	0.412933
734.000000	0.413496
735.000000	0.413987
736.000000	0.414547
737.000000	0.415071
738.000000	0.415514
739.000000	0.415976
740.000000	0.416328
741.000000	0.416748
742.000000	0.417147
743.000000	0.417487
744.000000	0.417903
745.000000	0.418213
746.000000	0.418527
747.000000	0.418897
748.000000	0.419297
749.000000	0.419701
750.000000	0.420030
751.000000	0.420222
752.000000	0.420422
753.000000	0.420674
754.000000	0.420895
755.000000	0.421160
756.000000	0.421447
757.000000	0.421650
758.000000	0.421799
759.000000	0.421980
760.000000	0.422138
761.000000	0.422302
762.000000	0.422437
763.000000	0.422528
764.000000	0.422675
765.000000	0.422730
766.000000	0.422747
767.000000	0.422789
768.000000	0.422790
769.000000	0.422802
770.000000	0.422840
771.000000	0.422848
772.000000	0.422874
773.000000	0.422825
774.000000	0.422744
775.000000	0.422640
776.000000	0.422586
777.000000	0.422573
778.000000	0.422438
779.000000	0.422256
780.000000	0.422091
781.000000	0.421964
782.000000	0.421827
783.000000	0.421779
784.000000	0.421677
785.000000	0.421437
786.000000	0.421190
787.000000	0.421001
788.000000	0.420814
789.000000	0.420576
790.000000	0.420267
791.000000	0.419959
792.000000	0.419678
793.000000	0.419415
794.000000	0.419165
795.000000	0.418934
796.000000	0.418667
797.000000	0.418359
798.000000	0.418076
799.000000	0.417721
800.000000	0.417344
801.000000	0.417020
802.000000	0.416667
803.000000	0.416286
804.000000	0.415936
805.000000	0.415599
806.000000	0.415242
807.000000	0.414942
808.000000	0.414616
809.000000	0.414222
810.000000	0.413812
811.000000	0.413408
812.000000	0.412951
813.000000	0.412569
814.000000	0.412238
815.000000	0.411826
816.000000	0.411438
817.000000	0.411019
818.000000	0.410438
819.000000	0.410109
820.000000	0.409805
821.000000	0.409392
822.000000	0.409108
823.000000	0.408750
824.000000	0.408260
825.000000	0.407807
826.000000	0.407412
827.000000	0.407049
828.000000	0.406725
829.000000	0.406322
830.000000	0.405806
831.000000	0.405295
832.000000	0.404780
833.000000	0.404366
834.000000	0.404014
835.000000	0.403710
836.000000	0.403412
837.000000	0.403063
838.000000	0.402667
839.000000	0.402219
840.000000	0.401828
841.000000	0.401490
842.000000	0.401120
843.000000	0.400710
844.000000	0.400353
845.000000	0.400034
846.000000	0.399726
847.000000	0.399408
848.000000	0.399066
849.000000	0.398714
850.000000	0.398201
851.000000	0.397705
852.000000	0.397352
853.000000	0.397035
854.000000	0.396669
855.000000	0.396361
856.000000	0.396011
857.000000	0.395504
858.000000	0.395136
859.000000	0.394908
860.000000	0.394625
861.000000	0.394328
862.000000	0.394040
863.000000	0.393684
864.000000	0.393327
865.000000	0.392926
866.000000	0.392539
867.000000	0.392349
868.000000	0.392084
869.000000	0.391705
870.000000	0.391405
871.000000	0.391041
872.000000	0.390757
873.000000	0.390543
874.000000	0.390318
875.000000	0.390020
876.000000	0.389707
877.000000	0.389399
878.000000	0.389057
879.000000	0.388793
880.000000	0.388488
881.000000	0.388192
882.000000	0.387847
883.000000	0.387508
884.000000	0.387194
885.000000	0.386972
886.000000	0.386721
887.000000	0.386442
888.000000	0.386284
889.000000	0.386116
890.000000	0.385818
891.000000	0.385574
892.000000	0.385358
893.000000	0.385110
894.000000	0.384950
895.000000	0.384800
896.000000	0.384543
897.000000	0.384291
898.000000	0.384190
899.000000	0.384045
900.000000	0.383883
901.000000	0.383694
902.000000	0.383580
903.000000	0.383423
904.000000	0.383281
905.000000	0.383105
906.000000	0.382921
907.000000	0.382754
908.000000	0.382643
909.000000	0.382417
910.000000	0.382222
911.000000	0.382093
912.000000	0.382025
913.000000	0.381863
914.000000	0.381656
915.000000	0.381515
916.000000	0.381382
917.000000	0.381299
918.000000	0.381193
919.000000	0.381018
920.000000	0.380961
921.000000	0.380825
922.000000	0.380715
923.000000	0.380790
924.000000	0.380623
925.000000	0.380458
926.000000	0.380455
927.000000	0.380344
928.000000	0.380312
929.000000	0.380315
930.000000	0.380247
931.000000	0.380119
932.000000	0.379913
933.000000	0.379712
934.000000	0.379568
935.000000	0.379486
936.000000	0.379490
937.000000	0.379435
938.000000	0.379183
939.000000	0.379127
940.000000	0.379169
941.000000	0.379141
942.000000	0.379280
943.000000	0.379334
944.000000	0.379140
945.000000	0.379354
946.000000	0.379395
947.000000	0.379383
948.000000	0.379468
949.000000	0.379294
950.000000	0.379032
951.000000	0.378814
952.000000	0.378838
953.000000	0.378731
954.000000	0.378626
955.000000	0.378560
956.000000	0.378424
957.000000	0.378424
958.000000	0.378533
959.000000	0.378732
960.000000	0.378582
961.000000	0.378487
962.000000	0.378575
963.000000	0.378656
964.000000	0.378824
965.000000	0.378917
966.000000	0.378769
967.000000	0.379056
968.000000	0.379130
969.000000	0.378911
970.000000	0.378786
971.000000	0.378921
972.000000	0.379091
973.000000	0.379124
974.000000	0.379208
975.000000	0.379240
976.000000	0.379250
977.000000	0.379302
978.000000	0.379546
979.000000	0.379554
980.000000	0.379278
981.000000	0.379442
982.000000	0.379871
983.000000	0.380073
984.000000	0.380101
985.000000	0.380386
986.000000	0.380515
987.000000	0.380563
988.000000	0.380518
989.000000	0.380517
990.000000	0.380539
991.000000	0.380862
992.000000	0.381624
993.000000	0.381591
994.000000	0.381555
995.000000	0.381886
996.000000	0.382070
997.000000	0.382302
998.000000	0.382497
999.000000	0.382681
1000.000000	0.382758
1001.000000	0.382675
1002.000000	0.382283
1003.000000	0.382977
1004.000000	0.383130
1005.000000	0.382251
1006.000000	0.382365
1007.000000	0.383175
1008.000000	0.383722
1009.000000	0.384159
1010.000000	0.384866
1011.000000	0.384998
1012.000000	0.385127
1013.000000	0.384844
1014.000000	0.385003
1015.000000	0.385696
1016.000000	0.385570
1017.000000	0.385418
1018.000000	0.385933
1019.000000	0.386426
1020.000000	0.387068
1021.000000	0.387367
1022.000000	0.388332
1023.000000	0.388627
1024.000000	0.387966
1025.000000	0.388095
1026.000000	0.388094
1027.000000	0.388205
1028.000000	0.389257
1029.000000	0.390061
1030.000000	0.390544
1031.000000	0.391341
1032.000000	0.391541
1033.000000	0.391370
1034.000000	0.391662
1035.000000	0.391966
1036.000000	0.392398
1037.000000	0.393297
1038.000000	0.393873
1039.000000	0.394591
1040.000000	0.395123
1041.000000	0.394996
1042.000000	0.394871
1043.000000	0.395280
1044.000000	0.395912
1045.000000	0.396450
1046.000000	0.396904
1047.000000	0.397530
1048.000000	0.397753
1049.000000	0.398053
1050.000000	0.398768
1051.000000	0.399389
1052.000000	0.399666
1053.000000	0.399937
1054.000000	0.400586
1055.000000	0.401214
1056.000000	0.401718
1057.000000	0.402247
1058.000000	0.402867
1059.000000	0.403446
1060.000000	0.404035
1061.000000	0.404594
1062.000000	0.404987
1063.000000	0.405621
1064.000000	0.406188
1065.000000	0.406505
1066.000000	0.406984
1067.000000	0.407752
1068.000000	0.408144
1069.000000	0.407970
1070.000000	0.408400
1071.000000	0.409262
1072.000000	0.409749
1073.000000	0.410132
1074.000000	0.411185
1075.000000	0.411903
1076.000000	0.412287
1077.000000	0.412799
1078.000000	0.413137
1079.000000	0.413620
1080.000000	0.413996
1081.000000	0.414358
1082.000000	0.414991
1083.000000	0.415542
1084.000000	0.415883
1085.000000	0.416387
1086.000000	0.416976
1087.000000	0.417727
1088.000000	0.418489
1089.000000	0.419189
1090.000000	0.420139
1091.000000	0.420741
1092.000000	0.421244
1093.000000	0.422130
1094.000000	0.422408
1095.000000	0.422168
1096.000000	0.422657
1097.000000	0.423065
1098.000000	0.423662
1099.000000	0.424848
1100.000000	0.425727
1101.000000	0.426400
1102.000000	0.426948
1103.000000	0.427436
1104.000000	0.427974
1105.000000	0.428196
1106.000000	0.428650
1107.000000	0.429247
1108.000000	0.429815
1109.000000	0.430255
1110.000000	0.431127
1111.000000	0.431983
1112.000000	0.433081
1113.000000	0.433840
1114.000000	0.434686
1115.000000	0.435257
1116.000000	0.435461
1117.000000	0.435874
1118.000000	0.436187
1119.000000	0.436607
1120.000000	0.437165
1121.000000	0.437618
1122.000000	0.438155
1123.000000	0.438950
1124.000000	0.439571
1125.000000	0.440129
1126.000000	0.440671
1127.000000	0.441104
1128.000000	0.441434
1129.000000	0.441519
1130.000000	0.442019
1131.000000	0.442776
1132.000000	0.443165
1133.000000	0.443531
1134.000000	0.444131
1135.000000	0.444611
1136.000000	0.445040
1137.000000	0.445757
1138.000000	0.446176
1139.000000	0.446291
1140.000000	0.446719
1141.000000	0.447156
1142.000000	0.447687
1143.000000	0.448395
1144.000000	0.449013
1145.000000	0.449452
1146.000000	0.449603
1147.000000	0.449996
1148.000000	0.450205
1149.000000	0.450455
1150.000000	0.450895
1151.000000	0.451188
1152.000000	0.451090
1153.000000	0.451421
1154.000000	0.452020
1155.000000	0.452333
1156.000000	0.452743
1157.000000	0.452979
1158.000000	0.452686
1159.000000	0.452856
1160.000000	0.453226
1161.000000	0.453561
1162.000000	0.454230
1163.000000	0.454935
1164.000000	0.455274
1165.000000	0.455557
1166.000000	0.455875
1167.000000	0.455999
1168.000000	0.456253
1169.000000	0.456573
1170.000000	0.456982
1171.000000	0.457583
1172.000000	0.458053
1173.000000	0.458585
1174.000000	0.458914
1175.000000	0.458884
1176.000000	0.459103
1177.000000	0.459522
1178.000000	0.459847
1179.000000	0.460311
1180.000000	0.460551
1181.000000	0.460714
1182.000000	0.460784
1183.000000	0.461143
1184.000000	0.461731
1185.000000	0.462145
1186.000000	0.462769
1187.000000	0.463053
1188.000000	0.462980
1189.000000	0.463185
1190.000000	0.463541
1191.000000	0.463743
1192.000000	0.464108
1193.000000	0.464582
1194.000000	0.464812
1195.000000	0.465094
1196.000000	0.465436
1197.000000	0.465738
1198.000000	0.465993
1199.000000	0.466262
1200.000000	0.466587
1201.000000	0.466816
1202.000000	0.466982
1203.000000	0.467272
1204.000000	0.467572
1205.000000	0.467868
1206.000000	0.468173
1207.000000	0.468708
1208.000000	0.468945
1209.000000	0.469132
1210.000000	0.469392
1211.000000	0.469607
1212.000000	0.469651
1213.000000	0.469680
1214.000000	0.469901
1215.000000	0.469996
1216.000000	0.470163
1217.000000	0.470502
1218.000000	0.470779
1219.000000	0.471017
1220.000000	0.471298
1221.000000	0.471624
1222.000000	0.471941
1223.000000	0.472157
1224.000000	0.472416
1225.000000	0.472532
1226.000000	0.472639
1227.000000	0.472712
1228.000000	0.472663
1229.000000	0.472710
1230.000000	0.472847
1231.000000	0.472866
1232.000000	0.473016
1233.000000	0.473235
1234.000000	0.473429
1235.000000	0.473595
1236.000000	0.473665
1237.000000	0.473837
1238.000000	0.473873
1239.000000	0.474040
1240.000000	0.474382
1241.000000	0.474556
1242.000000	0.474753
1243.000000	0.474980
1244.000000	0.475048
1245.000000	0.475261
1246.000000	0.475408
1247.000000	0.475633
1248.000000	0.475871
1249.000000	0.476087
1250.000000	0.476412
1251.000000	0.476653
1252.000000	0.476828
1253.000000	0.477026
1254.000000	0.477154
1255.000000	0.477103
1256.000000	0.477238
1257.000000	0.477502
1258.000000	0.477745
1259.000000	0.477966
1260.000000	0.478233
1261.000000	0.478404
1262.000000	0.478523
1263.000000	0.478651
1264.000000	0.478795
1265.000000	0.478906
1266.000000	0.479004
1267.000000	0.479100
1268.000000	0.479061
1269.000000	0.478949
1270.000000	0.479098
1271.000000	0.479332
1272.000000	0.479658
1273.000000	0.479926
1274.000000	0.479908
1275.000000	0.479927
1276.000000	0.479824
1277.000000	0.479940
1278.000000	0.479996
1279.000000	0.480077
1280.000000	0.480170
1281.000000	0.480155
1282.000000	0.480197
1283.000000	0.480333
1284.000000	0.480352
1285.000000	0.480349
1286.000000	0.480294
1287.000000	0.480245
1288.000000	0.480441
1289.000000	0.480534
1290.000000	0.480607
1291.000000	0.480719
1292.000000	0.480498
1293.000000	0.480279
1294.000000	0.480155
1295.000000	0.480107
1296.000000	0.480276
1297.000000	0.480395
1298.000000	0.480436
1299.000000	0.480637
1300.000000	0.480796
1301.000000	0.480699
1302.000000	0.480578
1303.000000	0.480569
1304.000000	0.480453
1305.000000	0.480363
1306.000000	0.480388
1307.000000	0.480606
1308.000000	0.480653
1309.000000	0.480636
1310.000000	0.480545
1311.000000	0.480342
1312.000000	0.480228
1313.000000	0.480149
1314.000000	0.479968
1315.000000	0.479685
1316.000000	0.479547
1317.000000	0.479282
1318.000000	0.479018
1319.000000	0.478824
1320.000000	0.478454
1321.000000	0.478139
1322.000000	0.477889
1323.000000	0.477659
1324.000000	0.477580
1325.000000	0.477482
1326.000000	0.477403
1327.000000	0.477182
1328.000000	0.477118
1329.000000	0.476864
1330.000000	0.476391
1331.000000	0.476058
1332.000000	0.475880
1333.000000	0.475562
1334.000000	0.475311
1335.000000	0.475155
1336.000000	0.474937
1337.000000	0.474716
1338.000000	0.474482
1339.000000	0.474251
1340.000000	0.473941
1341.000000	0.473671
1342.000000	0.473382
1343.000000	0.473097
1344.000000	0.472800
1345.000000	0.472437
1346.000000	0.472181
1347.000000	0.471714
1348.000000	0.471331
1349.000000	0.470930
1350.000000	0.470383
1351.000000	0.469924
1352.000000	0.469592
1353.000000	0.469147
1354.000000	0.468718
1355.000000	0.468402
1356.000000	0.468186
1357.000000	0.467805
1358.000000	0.467389
1359.000000	0.467088
1360.000000	0.466744
1361.000000	0.466276
1362.000000	0.465936
1363.000000	0.465776
1364.000000	0.465395
1365.000000	0.464911
1366.000000	0.464513
1367.000000	0.464049
1368.000000	0.463524
1369.000000	0.463326
1370.000000	0.462791
1371.000000	0.462089
1372.000000	0.461473
1373.000000	0.460729
1374.000000	0.460008
1375.000000	0.459344
1376.000000	0.458702
1377.000000	0.457867
1378.000000	0.456903
1379.000000	0.455929
1380.000000	0.454757
1381.000000	0.453398
1382.000000	0.452029
1383.000000	0.450600
1384.000000	0.448989
1385.000000	0.447489
1386.000000	0.446036
1387.000000	0.444326
1388.000000	0.442555
1389.000000	0.440830
1390.000000	0.439024
1391.000000	0.437065
1392.000000	0.435150
1393.000000	0.433084
1394.000000	0.430813
1395.000000	0.428717
1396.000000	0.426736
1397.000000	0.424453
1398.000000	0.422102
1399.000000	0.419712
1400.000000	0.417003
1401.000000	0.414496
1402.000000	0.412155
1403.000000	0.409711
1404.000000	0.407418
1405.000000	0.405083
1406.000000	0.402572
1407.000000	0.399994
1408.000000	0.397372
1409.000000	0.394958
1410.000000	0.392694
1411.000000	0.390504
1412.000000	0.388373
1413.000000	0.386293
1414.000000	0.384360
1415.000000	0.382656
1416.000000	0.380994
1417.000000	0.379429
1418.000000	0.378014
1419.000000	0.376717
1420.000000	0.375388
1421.000000	0.374168
1422.000000	0.372974
1423.000000	0.371766
1424.000000	0.370468
1425.000000	0.369258
1426.000000	0.367822
1427.000000	0.366216
1428.000000	0.364879
1429.000000	0.363503
1430.000000	0.362143
1431.000000	0.361104
1432.000000	0.360057
1433.000000	0.358936
1434.000000	0.358148
1435.000000	0.357644
1436.000000	0.357291
1437.000000	0.357149
1438.000000	0.357157
1439.000000	0.357433
1440.000000	0.357721
1441.000000	0.358214
1442.000000	0.358712
1443.000000	0.359183
1444.000000	0.359711
1445.000000	0.360254
1446.000000	0.360741
1447.000000	0.361203
1448.000000	0.361595
1449.000000	0.361893
1450.000000	0.362061
1451.000000	0.362173
1452.000000	0.362188
1453.000000	0.362173
1454.000000	0.362116
1455.000000	0.362071
1456.000000	0.362024
1457.000000	0.361823
1458.000000	0.361617
1459.000000	0.361339
1460.000000	0.361052
1461.000000	0.360955
1462.000000	0.360882
1463.000000	0.360745
1464.000000	0.360711
1465.000000	0.360648
1466.000000	0.360549
1467.000000	0.360660
1468.000000	0.360753
1469.000000	0.360895
1470.000000	0.361081
1471.000000	0.361308
1472.000000	0.361556
1473.000000	0.361936
1474.000000	0.362405
1475.000000	0.362889
1476.000000	0.363444
1477.000000	0.364014
1478.000000	0.364516
1479.000000	0.365120
1480.000000	0.365908
1481.000000	0.366666
1482.000000	0.367631
1483.000000	0.368466
1484.000000	0.369212
1485.000000	0.369967
1486.000000	0.370702
1487.000000	0.371418
1488.000000	0.372164
1489.000000	0.372955
1490.000000	0.373511
1491.000000	0.374227
1492.000000	0.375051
1493.000000	0.375829
1494.000000	0.376630
1495.000000	0.377357
1496.000000	0.377969
1497.000000	0.378626
1498.000000	0.379290
1499.000000	0.379925
1500.000000	0.380555
1501.000000	0.381189
1502.000000	0.381769
1503.000000	0.382437
1504.000000	0.383127
1505.000000	0.383808
1506.000000	0.384381
1507.000000	0.384769
1508.000000	0.385369
1509.000000	0.385948
1510.000000	0.386366
1511.000000	0.386956
1512.000000	0.387321
1513.000000	0.387585
1514.000000	0.388104
1515.000000	0.388476
1516.000000	0.388859
1517.000000	0.389285
1518.000000	0.389604
1519.000000	0.389922
1520.000000	0.390233
1521.000000	0.390454
1522.000000	0.390849
1523.000000	0.391249
1524.000000	0.391567
1525.000000	0.391998
1526.000000	0.392332
1527.000000	0.392665
1528.000000	0.392991
1529.000000	0.393187
1530.000000	0.393274
1531.000000	0.393443
1532.000000	0.393747
1533.000000	0.394081
1534.000000	0.394369
1535.000000	0.394673
1536.000000	0.394862
1537.000000	0.394986
1538.000000	0.395182
1539.000000	0.395262
1540.000000	0.395341
1541.000000	0.395627
1542.000000	0.395927
1543.000000	0.396138
1544.000000	0.396213
1545.000000	0.396292
1546.000000	0.396458
1547.000000	0.396629
1548.000000	0.396810
1549.000000	0.396969
1550.000000	0.396984
1551.000000	0.396934
1552.000000	0.397024
1553.000000	0.397133
1554.000000	0.397216
1555.000000	0.397266
1556.000000	0.397282
1557.000000	0.397342
1558.000000	0.397434
1559.000000	0.397501
1560.000000	0.397579
1561.000000	0.397727
1562.000000	0.397780
1563.000000	0.397845
1564.000000	0.397910
1565.000000	0.397940
1566.000000	0.397897
1567.000000	0.397918
1568.000000	0.397994
1569.000000	0.398196
1570.000000	0.398302
1571.000000	0.398415
1572.000000	0.398461
1573.000000	0.398359
1574.000000	0.398381
1575.000000	0.398470
1576.000000	0.398584
1577.000000	0.398806
1578.000000	0.398895
1579.000000	0.399017
1580.000000	0.399087
1581.000000	0.399132
1582.000000	0.399131
1583.000000	0.399048
1584.000000	0.399035
1585.000000	0.399199
1586.000000	0.399187
1587.000000	0.399116
1588.000000	0.399143
1589.000000	0.399093
1590.000000	0.399071
1591.000000	0.399199
1592.000000	0.399231
1593.000000	0.399198
1594.000000	0.399224
1595.000000	0.399334
1596.000000	0.399494
1597.000000	0.399717
1598.000000	0.399850
1599.000000	0.400122
1600.000000	0.400243
1601.000000	0.400231
1602.000000	0.400359
1603.000000	0.400616
1604.000000	0.400664
1605.000000	0.400762
1606.000000	0.400812
1607.000000	0.400698
1608.000000	0.400756
1609.000000	0.401034
1610.000000	0.401049
1611.000000	0.400979
1612.000000	0.401007
1613.000000	0.401015
1614.000000	0.401146
1615.000000	0.401584
1616.000000	0.401889
1617.000000	0.402123
1618.000000	0.402310
1619.000000	0.402406
1620.000000	0.402529
1621.000000	0.402606
1622.000000	0.402845
1623.000000	0.403181
1624.000000	0.403447
1625.000000	0.403554
1626.000000	0.403722
1627.000000	0.403864
1628.000000	0.404095
1629.000000	0.404442
1630.000000	0.404760
1631.000000	0.405013
1632.000000	0.405199
1633.000000	0.405375
1634.000000	0.405541
1635.000000	0.405658
1636.000000	0.405895
1637.000000	0.406228
1638.000000	0.406447
1639.000000	0.406769
1640.000000	0.407028
1641.000000	0.407315
1642.000000	0.407573
1643.000000	0.407841
1644.000000	0.408104
1645.000000	0.408316
1646.000000	0.408467
1647.000000	0.408672
1648.000000	0.408866
1649.000000	0.409116
1650.000000	0.409350
1651.000000	0.409631
1652.000000	0.409952
1653.000000	0.410232
1654.000000	0.410529
1655.000000	0.410808
1656.000000	0.410987
1657.000000	0.411156
1658.000000	0.411338
1659.000000	0.411685
1660.000000	0.411984
1661.000000	0.412097
1662.000000	0.412396
1663.000000	0.412704
1664.000000	0.413109
1665.000000	0.413708
1666.000000	0.414163
1667.000000	0.414474
1668.000000	0.414834
1669.000000	0.415116
1670.000000	0.415337
1671.000000	0.415723
1672.000000	0.416048
1673.000000	0.416175
1674.000000	0.416586
1675.000000	0.417040
1676.000000	0.417330
1677.000000	0.417579
1678.000000	0.417624
1679.000000	0.417715
1680.000000	0.417866
1681.000000	0.418090
1682.000000	0.418573
1683.000000	0.418874
1684.000000	0.418983
1685.000000	0.419225
1686.000000	0.419228
1687.000000	0.419152
1688.000000	0.419312
1689.000000	0.419443
1690.000000	0.419370
1691.000000	0.419539
1692.000000	0.419628
1693.000000	0.419653
1694.000000	0.419891
1695.000000	0.420089
1696.000000	0.419986
1697.000000	0.420000
1698.000000	0.420084
1699.000000	0.420198
1700.000000	0.420472
1701.000000	0.420752
1702.000000	0.420714
1703.000000	0.420760
1704.000000	0.421023
1705.000000	0.421158
1706.000000	0.421315
1707.000000	0.421458
1708.000000	0.421429
1709.000000	0.421460
1710.000000	0.421725
1711.000000	0.421865
1712.000000	0.421999
1713.000000	0.422109
1714.000000	0.422107
1715.000000	0.422294
1716.000000	0.422687
1717.000000	0.422903
1718.000000	0.423152
1719.000000	0.423239
1720.000000	0.423047
1721.000000	0.423195
1722.000000	0.423526
1723.000000	0.423741
1724.000000	0.424169
1725.000000	0.424417
1726.000000	0.424301
1727.000000	0.424419
1728.000000	0.424548
1729.000000	0.424598
1730.000000	0.424870
1731.000000	0.424992
1732.000000	0.425042
1733.000000	0.425192
1734.000000	0.425150
1735.000000	0.425200
1736.000000	0.425241
1737.000000	0.425329
1738.000000	0.425461
1739.000000	0.425612
1740.000000	0.425816
1741.000000	0.425909
1742.000000	0.425965
1743.000000	0.426147
1744.000000	0.426298
1745.000000	0.426448
1746.000000	0.426685
1747.000000	0.426737
1748.000000	0.426757
1749.000000	0.426713
1750.000000	0.426706
1751.000000	0.426983
1752.000000	0.427195
1753.000000	0.427200
1754.000000	0.427223
1755.000000	0.427033
1756.000000	0.426952
1757.000000	0.426970
1758.000000	0.426983
1759.000000	0.427041
1760.000000	0.427032
1761.000000	0.426862
1762.000000	0.426845
1763.000000	0.426917
1764.000000	0.426967
1765.000000	0.427048
1766.000000	0.427165
1767.000000	0.427162
1768.000000	0.427162
1769.000000	0.427347
1770.000000	0.427529
1771.000000	0.427697
1772.000000	0.427704
1773.000000	0.427447
1774.000000	0.427581
1775.000000	0.427879
1776.000000	0.428088
1777.000000	0.428622
1778.000000	0.428683
1779.000000	0.428327
1780.000000	0.428194
1781.000000	0.427893
1782.000000	0.427923
1783.000000	0.428176
1784.000000	0.428547
1785.000000	0.428676
1786.000000	0.428699
1787.000000	0.428958
1788.000000	0.429105
1789.000000	0.429227
1790.000000	0.429271
1791.000000	0.429255
1792.000000	0.429289
1793.000000	0.429320
1794.000000	0.429373
1795.000000	0.429424
1796.000000	0.429357
1797.000000	0.429495
1798.000000	0.429721
1799.000000	0.429984
1800.000000	0.430574
1801.000000	0.429891
1802.000000	0.430082
1803.000000	0.430307
1804.000000	0.430676
1805.000000	0.431949
1806.000000	0.432495
1807.000000	0.433005
1808.000000	0.432793
1809.000000	0.432194
1810.000000	0.430773
1811.000000	0.430400
1812.000000	0.429675
1813.000000	0.429899
1814.000000	0.431605
1815.000000	0.432158
1816.000000	0.432245
1817.000000	0.432492
1818.000000	0.432233
1819.000000	0.433131
1820.000000	0.433376
1821.000000	0.433839
1822.000000	0.433993
1823.000000	0.433313
1824.000000	0.433115
1825.000000	0.433345
1826.000000	0.433264
1827.000000	0.432712
1828.000000	0.432724
1829.000000	0.432431
1830.000000	0.431995
1831.000000	0.431528
1832.000000	0.431048
1833.000000	0.430444
1834.000000	0.429286
1835.000000	0.428772
1836.000000	0.428378
1837.000000	0.428264
1838.000000	0.428652
1839.000000	0.428913
1840.000000	0.428785
1841.000000	0.428275
1842.000000	0.427667
1843.000000	0.426409
1844.000000	0.425832
1845.000000	0.425192
1846.000000	0.424894
1847.000000	0.424859
1848.000000	0.424624
1849.000000	0.424855
1850.000000	0.424619
1851.000000	0.423748
1852.000000	0.422132
1853.000000	0.421110
1854.000000	0.419231
1855.000000	0.417892
1856.000000	0.416758
1857.000000	0.416232
1858.000000	0.415497
1859.000000	0.414584
1860.000000	0.413401
1861.000000	0.412141
1862.000000	0.410207
1863.000000	0.407211
1864.000000	0.405194
1865.000000	0.403383
1866.000000	0.401213
1867.000000	0.399157
1868.000000	0.397136
1869.000000	0.394615
1870.000000	0.391783
1871.000000	0.388610
1872.000000	0.385503
1873.000000	0.382334
1874.000000	0.378702
1875.000000	0.375363
1876.000000	0.372164
1877.000000	0.368330
1878.000000	0.364159
1879.000000	0.360006
1880.000000	0.355569
1881.000000	0.351187
1882.000000	0.346016
1883.000000	0.340883
1884.000000	0.335665
1885.000000	0.329624
1886.000000	0.323815
1887.000000	0.318433
1888.000000	0.312007
1889.000000	0.305693
1890.000000	0.299622
1891.000000	0.292313
1892.000000	0.285888
1893.000000	0.279780
1894.000000	0.273202
1895.000000	0.267104
1896.000000	0.261902
1897.000000	0.256503
1898.000000	0.250320
1899.000000	0.244581
1900.000000	0.238678
1901.000000	0.233038
1902.000000	0.227827
1903.000000	0.222796
1904.000000	0.218450
1905.000000	0.214391
1906.000000	0.210817
1907.000000	0.207777
1908.000000	0.205231
1909.000000	0.203022
1910.000000	0.200711
1911.000000	0.197975
1912.000000	0.195125
1913.000000	0.192453
1914.000000	0.190321
1915.000000	0.188482
1916.000000	0.187333
1917.000000	0.186109
1918.000000	0.185200
1919.000000	0.184106
1920.000000	0.183414
1921.000000	0.182894
1922.000000	0.182105
1923.000000	0.181726
1924.000000	0.181372
1925.000000	0.180441
1926.000000	0.180157
1927.000000	0.180431
1928.000000	0.180680
1929.000000	0.181197
1930.000000	0.181789
1931.000000	0.182178
1932.000000	0.182272
1933.000000	0.181930
1934.000000	0.182079
1935.000000	0.182593
1936.000000	0.183209
1937.000000	0.183949
1938.000000	0.184389
1939.000000	0.184672
1940.000000	0.184889
1941.000000	0.184547
1942.000000	0.184140
1943.000000	0.183986
1944.000000	0.183242
1945.000000	0.182838
1946.000000	0.183058
1947.000000	0.182748
1948.000000	0.182701
1949.000000	0.182712
1950.000000	0.181920
1951.000000	0.181365
1952.000000	0.180763
1953.000000	0.180289
1954.000000	0.180272
1955.000000	0.180756
1956.000000	0.181138
1957.000000	0.181356
1958.000000	0.180673
1959.000000	0.180141
1960.000000	0.180223
1961.000000	0.179812
1962.000000	0.179817
1963.000000	0.180528
1964.000000	0.180920
1965.000000	0.180612
1966.000000	0.181141
1967.000000	0.180969
1968.000000	0.180986
1969.000000	0.181373
1970.000000	0.181253
1971.000000	0.181720
1972.000000	0.181967
1973.000000	0.182111
1974.000000	0.182289
1975.000000	0.182481
1976.000000	0.182503
1977.000000	0.182862
1978.000000	0.182983
1979.000000	0.183132
1980.000000	0.184153
1981.000000	0.185012
1982.000000	0.186443
1983.000000	0.188276
1984.000000	0.189423
1985.000000	0.190268
1986.000000	0.190941
1987.000000	0.191104
1988.000000	0.191683
1989.000000	0.192652
1990.000000	0.194040
1991.000000	0.195216
1992.000000	0.195618
1993.000000	0.195812
1994.000000	0.196235
1995.000000	0.197004
1996.000000	0.198035
1997.000000	0.198935
1998.000000	0.199698
1999.000000	0.200637
2000.000000	0.201409
2001.000000	0.202873
2002.000000	0.204881
2003.000000	0.206596
2004.000000	0.208399
2005.000000	0.209620
2006.000000	0.209944
2007.000000	0.210623
2008.000000	0.211423
2009.000000	0.212029
2010.000000	0.213058
2011.000000	0.214239
2012.000000	0.215645
2013.000000	0.217373
2014.000000	0.218946
2015.000000	0.220703
2016.000000	0.221928
2017.000000	0.223095
2018.000000	0.224756
2019.000000	0.225632
2020.000000	0.226732
2021.000000	0.228105
2022.000000	0.229287
2023.000000	0.230493
2024.000000	0.232149
2025.000000	0.233874
2026.000000	0.235409
2027.000000	0.236970
2028.000000	0.238758
2029.000000	0.240059
2030.000000	0.241223
2031.000000	0.241802
2032.000000	0.242079
2033.000000	0.243155
2034.000000	0.244419
2035.000000	0.245918
2036.000000	0.247265
2037.000000	0.249488
2038.000000	0.250796
2039.000000	0.251414
2040.000000	0.252544
2041.000000	0.253223
2042.000000	0.254025
2043.000000	0.255214
2044.000000	0.256055
2045.000000	0.256954
2046.000000	0.258313
2047.000000	0.259555
2048.000000	0.260961
2049.000000	0.261968
2050.000000	0.262445
2051.000000	0.263041
2052.000000	0.263013
2053.000000	0.263501
2054.000000	0.264433
2055.000000	0.265803
2056.000000	0.267065
2057.000000	0.268112
2058.000000	0.269430
2059.000000	0.270864
2060.000000	0.272452
2061.000000	0.274583
2062.000000	0.276084
2063.000000	0.277864
2064.000000	0.278559
2065.000000	0.278216
2066.000000	0.278585
2067.000000	0.278931
2068.000000	0.279316
2069.000000	0.280735
2070.000000	0.282147
2071.000000	0.282924
2072.000000	0.284346
2073.000000	0.285701
2074.000000	0.286640
2075.000000	0.287836
2076.000000	0.289414
2077.000000	0.290351
2078.000000	0.291003
2079.000000	0.291751
2080.000000	0.291967
2081.000000	0.292704
2082.000000	0.293729
2083.000000	0.294905
2084.000000	0.295815
2085.000000	0.297094
2086.000000	0.298443
2087.000000	0.299153
2088.000000	0.300259
2089.000000	0.301440
2090.000000	0.302337
2091.000000	0.303053
2092.000000	0.304033
2093.000000	0.304942
2094.000000	0.305980
2095.000000	0.307249
2096.000000	0.308303
2097.000000	0.309433
2098.000000	0.310125
2099.000000	0.310666
2100.000000	0.311235
2101.000000	0.311233
2102.000000	0.311459
2103.000000	0.312207
2104.000000	0.313430
2105.000000	0.314444
2106.000000	0.316000
2107.000000	0.317083
2108.000000	0.317574
2109.000000	0.318424
2110.000000	0.319039
2111.000000	0.320206
2112.000000	0.321732
2113.000000	0.323049
2114.000000	0.324270
2115.000000	0.325210
2116.000000	0.325441
2117.000000	0.325205
2118.000000	0.325596
2119.000000	0.325779
2120.000000	0.326067
2121.000000	0.326539
2122.000000	0.326797
2123.000000	0.327091
2124.000000	0.327074
2125.000000	0.326377
2126.000000	0.326507
2127.000000	0.327035
2128.000000	0.327390
2129.000000	0.327972
2130.000000	0.328863
2131.000000	0.328779
2132.000000	0.328395
2133.000000	0.328183
2134.000000	0.328213
2135.000000	0.328787
2136.000000	0.329365
2137.000000	0.329730
2138.000000	0.330352
2139.000000	0.330624
2140.000000	0.330318
2141.000000	0.330421
2142.000000	0.330690
2143.000000	0.330681
2144.000000	0.330830
2145.000000	0.331026
2146.000000	0.331381
2147.000000	0.331852
2148.000000	0.331496
2149.000000	0.331971
2150.000000	0.331599
2151.000000	0.330802
2152.000000	0.330984
2153.000000	0.330338
2154.000000	0.330531
2155.000000	0.331641
2156.000000	0.332066
2157.000000	0.332753
2158.000000	0.332867
2159.000000	0.332190
2160.000000	0.332127
2161.000000	0.331894
2162.000000	0.332317
2163.000000	0.333755
2164.000000	0.334053
2165.000000	0.334332
2166.000000	0.333831
2167.000000	0.332582
2168.000000	0.331514
2169.000000	0.331176
2170.000000	0.331086
2171.000000	0.331327
2172.000000	0.332417
2173.000000	0.332996
2174.000000	0.333800
2175.000000	0.333957
2176.000000	0.333342
2177.000000	0.333314
2178.000000	0.333166
2179.000000	0.333479
2180.000000	0.335037
2181.000000	0.335557
2182.000000	0.335201
2183.000000	0.334497
2184.000000	0.332123
2185.000000	0.329562
2186.000000	0.327973
2187.000000	0.326364
2188.000000	0.327083
2189.000000	0.327604
2190.000000	0.327461
2191.000000	0.328277
2192.000000	0.328668
2193.000000	0.328475
2194.000000	0.328956
2195.000000	0.330709
2196.000000	0.330971
2197.000000	0.330606
2198.000000	0.330122
2199.000000	0.327847
2200.000000	0.327187
2201.000000	0.327426
2202.000000	0.327781
2203.000000	0.329141
2204.000000	0.329877
2205.000000	0.330472
2206.000000	0.330788
2207.000000	0.329337
2208.000000	0.328667
2209.000000	0.328866
2210.000000	0.329287
2211.000000	0.329567
2212.000000	0.330054
2213.000000	0.331021
2214.000000	0.331746
2215.000000	0.331903
2216.000000	0.332832
2217.000000	0.333273
2218.000000	0.332488
2219.000000	0.332080
2220.000000	0.331856
2221.000000	0.332184
2222.000000	0.332548
2223.000000	0.332894
2224.000000	0.333839
2225.000000	0.334861
2226.000000	0.334045
2227.000000	0.333740
2228.000000	0.334725
2229.000000	0.333199
2230.000000	0.330125
2231.000000	0.327895
2232.000000	0.325457
2233.000000	0.324187
2234.000000	0.326171
2235.000000	0.328052
2236.000000	0.329601
2237.000000	0.332017
2238.000000	0.332557
2239.000000	0.332191
2240.000000	0.331489
2241.000000	0.328036
2242.000000	0.327654
2243.000000	0.329460
2244.000000	0.330159
2245.000000	0.331827
2246.000000	0.332862
2247.000000	0.332452
2248.000000	0.332012
2249.000000	0.331903
2250.000000	0.331994
2251.000000	0.331066
2252.000000	0.329786
2253.000000	0.326310
2254.000000	0.325681
2255.000000	0.326749
2256.000000	0.328032
2257.000000	0.329867
2258.000000	0.329737
2259.000000	0.327538
2260.000000	0.326223
2261.000000	0.324660
2262.000000	0.323752
2263.000000	0.322030
2264.000000	0.318257
2265.000000	0.317291
2266.000000	0.318685
2267.000000	0.318003
2268.000000	0.319237
2269.000000	0.317716
2270.000000	0.312451
2271.000000	0.309370
2272.000000	0.304585
2273.000000	0.302303
2274.000000	0.302954
2275.000000	0.301789
2276.000000	0.300477
2277.000000	0.301832
2278.000000	0.297654
2279.000000	0.293969
2280.000000	0.292710
2281.000000	0.289153
2282.000000	0.289504
2283.000000	0.291583
2284.000000	0.291807
2285.000000	0.291897
2286.000000	0.290030
2287.000000	0.287289
2288.000000	0.283981
2289.000000	0.281947
2290.000000	0.281679
2291.000000	0.281220
2292.000000	0.282091
2293.000000	0.283090
2294.000000	0.283732
2295.000000	0.284427
2296.000000	0.283927
2297.000000	0.282429
2298.000000	0.282382
2299.000000	0.281317
2300.000000	0.282630
2301.000000	0.287379
2302.000000	0.288490
2303.000000	0.288702
2304.000000	0.288773
2305.000000	0.286957
2306.000000	0.286279
2307.000000	0.286011
2308.000000	0.285865
2309.000000	0.285638
2310.000000	0.285657
2311.000000	0.287665
2312.000000	0.289922
2313.000000	0.291940
2314.000000	0.292075
2315.000000	0.288783
2316.000000	0.286448
2317.000000	0.286366
2318.000000	0.285366
2319.000000	0.285366
2320.000000	0.284252
2321.000000	0.280286
2322.000000	0.276887
2323.000000	0.275144
2324.000000	0.275558
2325.000000	0.276651
2326.000000	0.278637
2327.000000	0.279858
2328.000000	0.279320
2329.000000	0.278346
2330.000000	0.274585
2331.000000	0.269069
2332.000000	0.264965
2333.000000	0.262848
2334.000000	0.261779
2335.000000	0.261270
2336.000000	0.262787
2337.000000	0.261539
2338.000000	0.259536
2339.000000	0.258485
2340.000000	0.255920
2341.000000	0.255709
2342.000000	0.257252
2343.000000	0.256522
2344.000000	0.256732
2345.000000	0.255333
2346.000000	0.252356
2347.000000	0.250107
2348.000000	0.246694
2349.000000	0.244318
2350.000000	0.244914
2351.000000	0.241932
2352.000000	0.240968
2353.000000	0.239817
2354.000000	0.238026
2355.000000	0.240444
2356.000000	0.239165
2357.000000	0.239372
2358.000000	0.239689
2359.000000	0.233627
2360.000000	0.229391
2361.000000	0.226985
2362.000000	0.222475
2363.000000	0.219580
2364.000000	0.219922
2365.000000	0.220467
2366.000000	0.219760
2367.000000	0.221327
2368.000000	0.223306
2369.000000	0.222699
2370.000000	0.223010
2371.000000	0.223260
2372.000000	0.222644
2373.000000	0.220534
2374.000000	0.217591
2375.000000	0.213934
2376.000000	0.208274
2377.000000	0.204790
2378.000000	0.198246
2379.000000	0.192704
2380.000000	0.195031
2381.000000	0.195603
2382.000000	0.197979
2383.000000	0.199234
2384.000000	0.195079
2385.000000	0.191643
2386.000000	0.188526
2387.000000	0.190350
2388.000000	0.191839
2389.000000	0.190811
2390.000000	0.192407
2391.000000	0.187610
2392.000000	0.180137
2393.000000	0.176714
2394.000000	0.173049
2395.000000	0.171178
2396.000000	0.171858
2397.000000	0.173224
2398.000000	0.176767
2399.000000	0.180829
2400.000000	0.185956
2401.000000	0.187593
2402.000000	0.181564
2403.000000	0.180673
2404.000000	0.181795
2405.000000	0.178867
2406.000000	0.176269
2407.000000	0.173622
2408.000000	0.174113
2409.000000	0.175619
2410.000000	0.183146
2411.000000	0.193884
2412.000000	0.191916
2413.000000	0.187732
2414.000000	0.183844
2415.000000	0.175227
2416.000000	0.179570
2417.000000	0.181528
2418.000000	0.182805
2419.000000	0.185308
2420.000000	0.172411
2421.000000	0.171553
2422.000000	0.167493
2423.000000	0.161544
2424.000000	0.167032
2425.000000	0.161644
2426.000000	0.164337
2427.000000	0.173463
2428.000000	0.177133
2429.000000	0.192988
2430.000000	0.207925
2431.000000	0.209915
2432.000000	0.210045
2433.000000	0.203420
2434.000000	0.185192
2435.000000	0.174585
2436.000000	0.172651
2437.000000	0.168532
2438.000000	0.166382
2439.000000	0.155830
2440.000000	0.151299
2441.000000	0.154365
2442.000000	0.163905
2443.000000	0.177141
2444.000000	0.170809
2445.000000	0.162940
2446.000000	0.149965
2447.000000	0.150714
2448.000000	0.173820
2449.000000	0.179020
2450.000000	0.187626
2451.000000	0.194962
2452.000000	0.177885
2453.000000	0.177668
2454.000000	0.186296
2455.000000	0.179957
2456.000000	0.182438
2457.000000	0.182030
2458.000000	0.170177
2459.000000	0.160434
2460.000000	0.152280
2461.000000	0.141619
2462.000000	0.124678
2463.000000	0.115736
2464.000000	0.112062
2465.000000	0.106858
2466.000000	0.121701
2467.000000	0.134892
2468.000000	0.140477
2469.000000	0.152745
2470.000000	0.152405
2471.000000	0.153549
2472.000000	0.143571
2473.000000	0.121899
2474.000000	0.111164
2475.000000	0.078724
2476.000000	0.065567
2477.000000	0.089402
2478.000000	0.095083
2479.000000	0.143983
2480.000000	0.195765
2481.000000	0.191054
2482.000000	0.210834
2483.000000	0.199582
2484.000000	0.182006
2485.000000	0.221990
2486.000000	0.215292
2487.000000	0.205235
2488.000000	0.192680
2489.000000	0.136328
2490.000000	0.123261
2491.000000	0.092277
2492.000000	0.065898
2493.000000	0.012022
2494.000000	0.009168
2495.000000	0.064228
2496.000000	0.104227
2497.000000	0.174628
2498.000000	0.222023
2499.000000	0.259868
2500.000000	0.283470
