# Wavelength	NAu-1-30_HEX-50_FV7-20_00002.asd.rts.txt
350.000000	0.186777
351.000000	0.181044
352.000000	0.177956
353.000000	0.171210
354.000000	0.162065
355.000000	0.159298
356.000000	0.175727
357.000000	0.196711
358.000000	0.183701
359.000000	0.177008
360.000000	0.177823
361.000000	0.177824
362.000000	0.177923
363.000000	0.180147
364.000000	0.184062
365.000000	0.184938
366.000000	0.182210
367.000000	0.178370
368.000000	0.179433
369.000000	0.175627
370.000000	0.173522
371.000000	0.181435
372.000000	0.177954
373.000000	0.175152
374.000000	0.180890
375.000000	0.182724
376.000000	0.182205
377.000000	0.181533
378.000000	0.184019
379.000000	0.189786
380.000000	0.192313
381.000000	0.186407
382.000000	0.190961
383.000000	0.194426
384.000000	0.190027
385.000000	0.192840
386.000000	0.194876
387.000000	0.194215
388.000000	0.194855
389.000000	0.195217
390.000000	0.196396
391.000000	0.199584
392.000000	0.200375
393.000000	0.199895
394.000000	0.200004
395.000000	0.202502
396.000000	0.204840
397.000000	0.206086
398.000000	0.207188
399.000000	0.209630
400.000000	0.212521
401.000000	0.213843
402.000000	0.214898
403.000000	0.215260
404.000000	0.215026
405.000000	0.216913
406.000000	0.219128
407.000000	0.220793
408.000000	0.222751
409.000000	0.223104
410.000000	0.222766
411.000000	0.224248
412.000000	0.226116
413.000000	0.227167
414.000000	0.226808
415.000000	0.227225
416.000000	0.228437
417.000000	0.229983
418.000000	0.230841
419.000000	0.231162
420.000000	0.231272
421.000000	0.231711
422.000000	0.231986
423.000000	0.232247
424.000000	0.232811
425.000000	0.232847
426.000000	0.232807
427.000000	0.233092
428.000000	0.233663
429.000000	0.233511
430.000000	0.232775
431.000000	0.233159
432.000000	0.233313
433.000000	0.233314
434.000000	0.233873
435.000000	0.233982
436.000000	0.233612
437.000000	0.233024
438.000000	0.232898
439.000000	0.232906
440.000000	0.232768
441.000000	0.231890
442.000000	0.231709
443.000000	0.232068
444.000000	0.231830
445.000000	0.231689
446.000000	0.231825
447.000000	0.232159
448.000000	0.233038
449.000000	0.234088
450.000000	0.235126
451.000000	0.236696
452.000000	0.238100
453.000000	0.239441
454.000000	0.242019
455.000000	0.244588
456.000000	0.246938
457.000000	0.249095
458.000000	0.251243
459.000000	0.253446
460.000000	0.255693
461.000000	0.257564
462.000000	0.259063
463.000000	0.260264
464.000000	0.261985
465.000000	0.263173
466.000000	0.263859
467.000000	0.264896
468.000000	0.266207
469.000000	0.267292
470.000000	0.267857
471.000000	0.268541
472.000000	0.269173
473.000000	0.269704
474.000000	0.270535
475.000000	0.271182
476.000000	0.271674
477.000000	0.272208
478.000000	0.272763
479.000000	0.273446
480.000000	0.274021
481.000000	0.274450
482.000000	0.274981
483.000000	0.275580
484.000000	0.276139
485.000000	0.276764
486.000000	0.277554
487.000000	0.277942
488.000000	0.278255
489.000000	0.278707
490.000000	0.279450
491.000000	0.280120
492.000000	0.280731
493.000000	0.281257
494.000000	0.281797
495.000000	0.282257
496.000000	0.282677
497.000000	0.283818
498.000000	0.284710
499.000000	0.285183
500.000000	0.285785
501.000000	0.286492
502.000000	0.287270
503.000000	0.287957
504.000000	0.288561
505.000000	0.289182
506.000000	0.289888
507.000000	0.290471
508.000000	0.291172
509.000000	0.292019
510.000000	0.292710
511.000000	0.293401
512.000000	0.294141
513.000000	0.294838
514.000000	0.295679
515.000000	0.296588
516.000000	0.297356
517.000000	0.298189
518.000000	0.299038
519.000000	0.299798
520.000000	0.300747
521.000000	0.301695
522.000000	0.302569
523.000000	0.303445
524.000000	0.304384
525.000000	0.305329
526.000000	0.306214
527.000000	0.307216
528.000000	0.308185
529.000000	0.309024
530.000000	0.309967
531.000000	0.311026
532.000000	0.312066
533.000000	0.313041
534.000000	0.314013
535.000000	0.315001
536.000000	0.316045
537.000000	0.317080
538.000000	0.318093
539.000000	0.319081
540.000000	0.320100
541.000000	0.321088
542.000000	0.322041
543.000000	0.323052
544.000000	0.324057
545.000000	0.324975
546.000000	0.325991
547.000000	0.327038
548.000000	0.328110
549.000000	0.329123
550.000000	0.330056
551.000000	0.331038
552.000000	0.332132
553.000000	0.333072
554.000000	0.334000
555.000000	0.335026
556.000000	0.335999
557.000000	0.336890
558.000000	0.337832
559.000000	0.338728
560.000000	0.339582
561.000000	0.340493
562.000000	0.341412
563.000000	0.342214
564.000000	0.343011
565.000000	0.343806
566.000000	0.344610
567.000000	0.345436
568.000000	0.346244
569.000000	0.346963
570.000000	0.347615
571.000000	0.348210
572.000000	0.348786
573.000000	0.349415
574.000000	0.350036
575.000000	0.350621
576.000000	0.351259
577.000000	0.351857
578.000000	0.352417
579.000000	0.352973
580.000000	0.353486
581.000000	0.353933
582.000000	0.354306
583.000000	0.354722
584.000000	0.355148
585.000000	0.355466
586.000000	0.355789
587.000000	0.356172
588.000000	0.356622
589.000000	0.356947
590.000000	0.357221
591.000000	0.357498
592.000000	0.357724
593.000000	0.357951
594.000000	0.358197
595.000000	0.358465
596.000000	0.358647
597.000000	0.358820
598.000000	0.359007
599.000000	0.359182
600.000000	0.359303
601.000000	0.359289
602.000000	0.359439
603.000000	0.359629
604.000000	0.359785
605.000000	0.359876
606.000000	0.360012
607.000000	0.360171
608.000000	0.360237
609.000000	0.360412
610.000000	0.360610
611.000000	0.360692
612.000000	0.360700
613.000000	0.360721
614.000000	0.360820
615.000000	0.360815
616.000000	0.360850
617.000000	0.360911
618.000000	0.360951
619.000000	0.361036
620.000000	0.361165
621.000000	0.361363
622.000000	0.361316
623.000000	0.361223
624.000000	0.361271
625.000000	0.361287
626.000000	0.361328
627.000000	0.361434
628.000000	0.361606
629.000000	0.361820
630.000000	0.361924
631.000000	0.362046
632.000000	0.362161
633.000000	0.362316
634.000000	0.362527
635.000000	0.362757
636.000000	0.362947
637.000000	0.363071
638.000000	0.363242
639.000000	0.363405
640.000000	0.363573
641.000000	0.363613
642.000000	0.363701
643.000000	0.363869
644.000000	0.364094
645.000000	0.364276
646.000000	0.364463
647.000000	0.364652
648.000000	0.364778
649.000000	0.364923
650.000000	0.365082
651.000000	0.365218
652.000000	0.365440
653.000000	0.365726
654.000000	0.365902
655.000000	0.366168
656.000000	0.366467
657.000000	0.366668
658.000000	0.366907
659.000000	0.367135
660.000000	0.367325
661.000000	0.367576
662.000000	0.367761
663.000000	0.367951
664.000000	0.368202
665.000000	0.368421
666.000000	0.368676
667.000000	0.368998
668.000000	0.369293
669.000000	0.369591
670.000000	0.369913
671.000000	0.370190
672.000000	0.370519
673.000000	0.370881
674.000000	0.371191
675.000000	0.371518
676.000000	0.371844
677.000000	0.372152
678.000000	0.372473
679.000000	0.372776
680.000000	0.373062
681.000000	0.373391
682.000000	0.373773
683.000000	0.374123
684.000000	0.374530
685.000000	0.374865
686.000000	0.375195
687.000000	0.375572
688.000000	0.375900
689.000000	0.376223
690.000000	0.376619
691.000000	0.377032
692.000000	0.377416
693.000000	0.377837
694.000000	0.378277
695.000000	0.378687
696.000000	0.379065
697.000000	0.379430
698.000000	0.379818
699.000000	0.380246
700.000000	0.380714
701.000000	0.381127
702.000000	0.381513
703.000000	0.381879
704.000000	0.382275
705.000000	0.382735
706.000000	0.383195
707.000000	0.383660
708.000000	0.384051
709.000000	0.384395
710.000000	0.384776
711.000000	0.385306
712.000000	0.385764
713.000000	0.386124
714.000000	0.386561
715.000000	0.387041
716.000000	0.387517
717.000000	0.387902
718.000000	0.388376
719.000000	0.388829
720.000000	0.389198
721.000000	0.389700
722.000000	0.390045
723.000000	0.390286
724.000000	0.390740
725.000000	0.391135
726.000000	0.391529
727.000000	0.391902
728.000000	0.392322
729.000000	0.392753
730.000000	0.393104
731.000000	0.393487
732.000000	0.393828
733.000000	0.394152
734.000000	0.394452
735.000000	0.394761
736.000000	0.395164
737.000000	0.395441
738.000000	0.395600
739.000000	0.395881
740.000000	0.396218
741.000000	0.396555
742.000000	0.396860
743.000000	0.397128
744.000000	0.397506
745.000000	0.397696
746.000000	0.397837
747.000000	0.398071
748.000000	0.398385
749.000000	0.398685
750.000000	0.398879
751.000000	0.399100
752.000000	0.399286
753.000000	0.399449
754.000000	0.399632
755.000000	0.399811
756.000000	0.399996
757.000000	0.400140
758.000000	0.400265
759.000000	0.400429
760.000000	0.400569
761.000000	0.400711
762.000000	0.400854
763.000000	0.400936
764.000000	0.400968
765.000000	0.401049
766.000000	0.401107
767.000000	0.401085
768.000000	0.401210
769.000000	0.401316
770.000000	0.401327
771.000000	0.401276
772.000000	0.401378
773.000000	0.401461
774.000000	0.401391
775.000000	0.401404
776.000000	0.401431
777.000000	0.401381
778.000000	0.401318
779.000000	0.401276
780.000000	0.401243
781.000000	0.401135
782.000000	0.401067
783.000000	0.401102
784.000000	0.401051
785.000000	0.401000
786.000000	0.400895
787.000000	0.400727
788.000000	0.400605
789.000000	0.400503
790.000000	0.400388
791.000000	0.400282
792.000000	0.400190
793.000000	0.400052
794.000000	0.399848
795.000000	0.399667
796.000000	0.399547
797.000000	0.399457
798.000000	0.399311
799.000000	0.399059
800.000000	0.398790
801.000000	0.398627
802.000000	0.398562
803.000000	0.398418
804.000000	0.398170
805.000000	0.397933
806.000000	0.397643
807.000000	0.397394
808.000000	0.397150
809.000000	0.396950
810.000000	0.396804
811.000000	0.396649
812.000000	0.396296
813.000000	0.395990
814.000000	0.395788
815.000000	0.395612
816.000000	0.395378
817.000000	0.395103
818.000000	0.394759
819.000000	0.394652
820.000000	0.394554
821.000000	0.394289
822.000000	0.393960
823.000000	0.393730
824.000000	0.393523
825.000000	0.393328
826.000000	0.393110
827.000000	0.392839
828.000000	0.392565
829.000000	0.392285
830.000000	0.392002
831.000000	0.391733
832.000000	0.391308
833.000000	0.391003
834.000000	0.390715
835.000000	0.390398
836.000000	0.390179
837.000000	0.389992
838.000000	0.389779
839.000000	0.389433
840.000000	0.389185
841.000000	0.388955
842.000000	0.388624
843.000000	0.388482
844.000000	0.388337
845.000000	0.388101
846.000000	0.387902
847.000000	0.387619
848.000000	0.387342
849.000000	0.387209
850.000000	0.387006
851.000000	0.386697
852.000000	0.386376
853.000000	0.386161
854.000000	0.385892
855.000000	0.385689
856.000000	0.385493
857.000000	0.385200
858.000000	0.384957
859.000000	0.384753
860.000000	0.384606
861.000000	0.384446
862.000000	0.384252
863.000000	0.383947
864.000000	0.383729
865.000000	0.383489
866.000000	0.383234
867.000000	0.383143
868.000000	0.382948
869.000000	0.382623
870.000000	0.382366
871.000000	0.381990
872.000000	0.381717
873.000000	0.381566
874.000000	0.381343
875.000000	0.381179
876.000000	0.381048
877.000000	0.380782
878.000000	0.380390
879.000000	0.380086
880.000000	0.379815
881.000000	0.379598
882.000000	0.379339
883.000000	0.379076
884.000000	0.378814
885.000000	0.378583
886.000000	0.378354
887.000000	0.378169
888.000000	0.378120
889.000000	0.378064
890.000000	0.377832
891.000000	0.377555
892.000000	0.377333
893.000000	0.377062
894.000000	0.376817
895.000000	0.376506
896.000000	0.376270
897.000000	0.376077
898.000000	0.375856
899.000000	0.375715
900.000000	0.375576
901.000000	0.375398
902.000000	0.375373
903.000000	0.375142
904.000000	0.374879
905.000000	0.374713
906.000000	0.374552
907.000000	0.374409
908.000000	0.374322
909.000000	0.374137
910.000000	0.374024
911.000000	0.373930
912.000000	0.373792
913.000000	0.373617
914.000000	0.373328
915.000000	0.373061
916.000000	0.372899
917.000000	0.372731
918.000000	0.372599
919.000000	0.372517
920.000000	0.372482
921.000000	0.372342
922.000000	0.372154
923.000000	0.372033
924.000000	0.371889
925.000000	0.371700
926.000000	0.371521
927.000000	0.371389
928.000000	0.371142
929.000000	0.370931
930.000000	0.370936
931.000000	0.370850
932.000000	0.370685
933.000000	0.370543
934.000000	0.370477
935.000000	0.370255
936.000000	0.370096
937.000000	0.370046
938.000000	0.369830
939.000000	0.369738
940.000000	0.369656
941.000000	0.369461
942.000000	0.369406
943.000000	0.369333
944.000000	0.369128
945.000000	0.369417
946.000000	0.369289
947.000000	0.369078
948.000000	0.369225
949.000000	0.368975
950.000000	0.368736
951.000000	0.368563
952.000000	0.368294
953.000000	0.368222
954.000000	0.368129
955.000000	0.367793
956.000000	0.367588
957.000000	0.367438
958.000000	0.367324
959.000000	0.367353
960.000000	0.367197
961.000000	0.367124
962.000000	0.367147
963.000000	0.367022
964.000000	0.366963
965.000000	0.366890
966.000000	0.366632
967.000000	0.366592
968.000000	0.366455
969.000000	0.366370
970.000000	0.366699
971.000000	0.366338
972.000000	0.366104
973.000000	0.366223
974.000000	0.366247
975.000000	0.366164
976.000000	0.366133
977.000000	0.366200
978.000000	0.365961
979.000000	0.365992
980.000000	0.365958
981.000000	0.365808
982.000000	0.365925
983.000000	0.365891
984.000000	0.365760
985.000000	0.365904
986.000000	0.365611
987.000000	0.365452
988.000000	0.365659
989.000000	0.365702
990.000000	0.365592
991.000000	0.365663
992.000000	0.366179
993.000000	0.366141
994.000000	0.366051
995.000000	0.366134
996.000000	0.365953
997.000000	0.366262
998.000000	0.366412
999.000000	0.366282
1000.000000	0.366450
1001.000000	0.366632
1002.000000	0.366389
1003.000000	0.366123
1004.000000	0.366081
1005.000000	0.365302
1006.000000	0.365190
1007.000000	0.365954
1008.000000	0.366288
1009.000000	0.365989
1010.000000	0.366491
1011.000000	0.366993
1012.000000	0.367355
1013.000000	0.367629
1014.000000	0.367399
1015.000000	0.366504
1016.000000	0.366218
1017.000000	0.366423
1018.000000	0.366675
1019.000000	0.367244
1020.000000	0.368720
1021.000000	0.369015
1022.000000	0.369450
1023.000000	0.369640
1024.000000	0.369096
1025.000000	0.368525
1026.000000	0.368213
1027.000000	0.368212
1028.000000	0.368365
1029.000000	0.368704
1030.000000	0.369141
1031.000000	0.369448
1032.000000	0.369815
1033.000000	0.370026
1034.000000	0.370292
1035.000000	0.370392
1036.000000	0.370679
1037.000000	0.371404
1038.000000	0.371651
1039.000000	0.371925
1040.000000	0.371898
1041.000000	0.372014
1042.000000	0.371798
1043.000000	0.371586
1044.000000	0.372229
1045.000000	0.372979
1046.000000	0.373405
1047.000000	0.374183
1048.000000	0.375601
1049.000000	0.375947
1050.000000	0.375878
1051.000000	0.376080
1052.000000	0.375675
1053.000000	0.375584
1054.000000	0.376094
1055.000000	0.376375
1056.000000	0.376337
1057.000000	0.376853
1058.000000	0.377430
1059.000000	0.377600
1060.000000	0.378343
1061.000000	0.378818
1062.000000	0.379136
1063.000000	0.379687
1064.000000	0.380062
1065.000000	0.380222
1066.000000	0.380553
1067.000000	0.380815
1068.000000	0.381061
1069.000000	0.381155
1070.000000	0.381381
1071.000000	0.381799
1072.000000	0.382307
1073.000000	0.383011
1074.000000	0.383707
1075.000000	0.384474
1076.000000	0.384678
1077.000000	0.384885
1078.000000	0.385246
1079.000000	0.385519
1080.000000	0.385734
1081.000000	0.386171
1082.000000	0.386810
1083.000000	0.387355
1084.000000	0.388198
1085.000000	0.388676
1086.000000	0.388918
1087.000000	0.389201
1088.000000	0.389161
1089.000000	0.389269
1090.000000	0.389487
1091.000000	0.389362
1092.000000	0.389678
1093.000000	0.390457
1094.000000	0.390914
1095.000000	0.391392
1096.000000	0.392071
1097.000000	0.392821
1098.000000	0.393247
1099.000000	0.393614
1100.000000	0.394186
1101.000000	0.394368
1102.000000	0.394855
1103.000000	0.395913
1104.000000	0.396581
1105.000000	0.397097
1106.000000	0.397460
1107.000000	0.397442
1108.000000	0.397663
1109.000000	0.397965
1110.000000	0.398181
1111.000000	0.398550
1112.000000	0.399155
1113.000000	0.399655
1114.000000	0.400217
1115.000000	0.400564
1116.000000	0.400852
1117.000000	0.401156
1118.000000	0.401202
1119.000000	0.401401
1120.000000	0.401695
1121.000000	0.402048
1122.000000	0.402619
1123.000000	0.403258
1124.000000	0.403801
1125.000000	0.404240
1126.000000	0.404441
1127.000000	0.404632
1128.000000	0.404775
1129.000000	0.404794
1130.000000	0.405143
1131.000000	0.405712
1132.000000	0.405966
1133.000000	0.406290
1134.000000	0.406667
1135.000000	0.406777
1136.000000	0.407035
1137.000000	0.407599
1138.000000	0.407845
1139.000000	0.407924
1140.000000	0.408225
1141.000000	0.408483
1142.000000	0.408747
1143.000000	0.408982
1144.000000	0.409408
1145.000000	0.409679
1146.000000	0.409901
1147.000000	0.410148
1148.000000	0.410373
1149.000000	0.410500
1150.000000	0.410529
1151.000000	0.410711
1152.000000	0.410771
1153.000000	0.411019
1154.000000	0.411488
1155.000000	0.411661
1156.000000	0.411723
1157.000000	0.411879
1158.000000	0.411897
1159.000000	0.411949
1160.000000	0.412031
1161.000000	0.412150
1162.000000	0.412437
1163.000000	0.412637
1164.000000	0.412571
1165.000000	0.412692
1166.000000	0.412903
1167.000000	0.412938
1168.000000	0.413142
1169.000000	0.413715
1170.000000	0.414041
1171.000000	0.414380
1172.000000	0.414567
1173.000000	0.414580
1174.000000	0.414647
1175.000000	0.414506
1176.000000	0.414508
1177.000000	0.414722
1178.000000	0.414854
1179.000000	0.415038
1180.000000	0.415075
1181.000000	0.414983
1182.000000	0.415213
1183.000000	0.415479
1184.000000	0.415469
1185.000000	0.415691
1186.000000	0.416108
1187.000000	0.416279
1188.000000	0.416380
1189.000000	0.416503
1190.000000	0.416611
1191.000000	0.416664
1192.000000	0.416827
1193.000000	0.417119
1194.000000	0.417237
1195.000000	0.417384
1196.000000	0.417620
1197.000000	0.417741
1198.000000	0.417797
1199.000000	0.417826
1200.000000	0.417707
1201.000000	0.417723
1202.000000	0.417841
1203.000000	0.418056
1204.000000	0.418396
1205.000000	0.418629
1206.000000	0.418755
1207.000000	0.418867
1208.000000	0.418911
1209.000000	0.418921
1210.000000	0.419027
1211.000000	0.419173
1212.000000	0.419184
1213.000000	0.419230
1214.000000	0.419329
1215.000000	0.419262
1216.000000	0.419339
1217.000000	0.419588
1218.000000	0.419688
1219.000000	0.419761
1220.000000	0.419897
1221.000000	0.419945
1222.000000	0.419986
1223.000000	0.420130
1224.000000	0.420191
1225.000000	0.420262
1226.000000	0.420431
1227.000000	0.420508
1228.000000	0.420700
1229.000000	0.420781
1230.000000	0.420795
1231.000000	0.420792
1232.000000	0.420888
1233.000000	0.421038
1234.000000	0.421217
1235.000000	0.421306
1236.000000	0.421177
1237.000000	0.421312
1238.000000	0.421551
1239.000000	0.421635
1240.000000	0.421811
1241.000000	0.421816
1242.000000	0.421701
1243.000000	0.421702
1244.000000	0.421814
1245.000000	0.422063
1246.000000	0.422210
1247.000000	0.422170
1248.000000	0.422170
1249.000000	0.422386
1250.000000	0.422569
1251.000000	0.422690
1252.000000	0.422805
1253.000000	0.422942
1254.000000	0.422944
1255.000000	0.422834
1256.000000	0.422857
1257.000000	0.422925
1258.000000	0.422982
1259.000000	0.423069
1260.000000	0.423136
1261.000000	0.422917
1262.000000	0.422830
1263.000000	0.422840
1264.000000	0.422936
1265.000000	0.422806
1266.000000	0.422917
1267.000000	0.423033
1268.000000	0.422959
1269.000000	0.422976
1270.000000	0.423138
1271.000000	0.423133
1272.000000	0.423106
1273.000000	0.423269
1274.000000	0.423327
1275.000000	0.423321
1276.000000	0.423330
1277.000000	0.423424
1278.000000	0.423334
1279.000000	0.423353
1280.000000	0.423381
1281.000000	0.423411
1282.000000	0.423517
1283.000000	0.423665
1284.000000	0.423849
1285.000000	0.423935
1286.000000	0.423906
1287.000000	0.423903
1288.000000	0.424004
1289.000000	0.423915
1290.000000	0.423954
1291.000000	0.424072
1292.000000	0.423902
1293.000000	0.423899
1294.000000	0.423887
1295.000000	0.423765
1296.000000	0.423885
1297.000000	0.423959
1298.000000	0.424001
1299.000000	0.424067
1300.000000	0.424000
1301.000000	0.423900
1302.000000	0.423822
1303.000000	0.423940
1304.000000	0.423822
1305.000000	0.423754
1306.000000	0.423689
1307.000000	0.423492
1308.000000	0.423460
1309.000000	0.423674
1310.000000	0.423656
1311.000000	0.423573
1312.000000	0.423495
1313.000000	0.423350
1314.000000	0.423101
1315.000000	0.422933
1316.000000	0.422830
1317.000000	0.422684
1318.000000	0.422609
1319.000000	0.422439
1320.000000	0.422366
1321.000000	0.422287
1322.000000	0.421937
1323.000000	0.421763
1324.000000	0.421678
1325.000000	0.421439
1326.000000	0.421307
1327.000000	0.421154
1328.000000	0.421065
1329.000000	0.420857
1330.000000	0.420610
1331.000000	0.420431
1332.000000	0.420313
1333.000000	0.420053
1334.000000	0.419832
1335.000000	0.419746
1336.000000	0.419698
1337.000000	0.419503
1338.000000	0.419294
1339.000000	0.418958
1340.000000	0.418495
1341.000000	0.418139
1342.000000	0.417995
1343.000000	0.417874
1344.000000	0.417717
1345.000000	0.417440
1346.000000	0.417217
1347.000000	0.416966
1348.000000	0.416741
1349.000000	0.416459
1350.000000	0.416361
1351.000000	0.416197
1352.000000	0.415830
1353.000000	0.415609
1354.000000	0.415298
1355.000000	0.414851
1356.000000	0.414669
1357.000000	0.414393
1358.000000	0.413955
1359.000000	0.413594
1360.000000	0.413360
1361.000000	0.413302
1362.000000	0.413086
1363.000000	0.412929
1364.000000	0.412674
1365.000000	0.412128
1366.000000	0.411803
1367.000000	0.411561
1368.000000	0.411364
1369.000000	0.411205
1370.000000	0.410901
1371.000000	0.410309
1372.000000	0.409661
1373.000000	0.409197
1374.000000	0.408692
1375.000000	0.408255
1376.000000	0.408070
1377.000000	0.407557
1378.000000	0.406972
1379.000000	0.406400
1380.000000	0.405656
1381.000000	0.404963
1382.000000	0.404267
1383.000000	0.403685
1384.000000	0.403064
1385.000000	0.402202
1386.000000	0.401391
1387.000000	0.400489
1388.000000	0.399169
1389.000000	0.397884
1390.000000	0.396786
1391.000000	0.395568
1392.000000	0.394341
1393.000000	0.392993
1394.000000	0.391589
1395.000000	0.390254
1396.000000	0.388908
1397.000000	0.387451
1398.000000	0.385998
1399.000000	0.384483
1400.000000	0.382772
1401.000000	0.381082
1402.000000	0.379499
1403.000000	0.377782
1404.000000	0.376080
1405.000000	0.374420
1406.000000	0.372824
1407.000000	0.371260
1408.000000	0.369542
1409.000000	0.367859
1410.000000	0.366201
1411.000000	0.364535
1412.000000	0.362923
1413.000000	0.361381
1414.000000	0.359954
1415.000000	0.358599
1416.000000	0.357399
1417.000000	0.356447
1418.000000	0.355397
1419.000000	0.354421
1420.000000	0.353439
1421.000000	0.352319
1422.000000	0.351259
1423.000000	0.350349
1424.000000	0.349211
1425.000000	0.348088
1426.000000	0.346971
1427.000000	0.345732
1428.000000	0.344508
1429.000000	0.343320
1430.000000	0.342154
1431.000000	0.341001
1432.000000	0.340043
1433.000000	0.339344
1434.000000	0.338662
1435.000000	0.338144
1436.000000	0.337693
1437.000000	0.337245
1438.000000	0.336938
1439.000000	0.336829
1440.000000	0.336856
1441.000000	0.337147
1442.000000	0.337334
1443.000000	0.337536
1444.000000	0.337625
1445.000000	0.337676
1446.000000	0.337713
1447.000000	0.337791
1448.000000	0.337901
1449.000000	0.337990
1450.000000	0.337997
1451.000000	0.337922
1452.000000	0.337763
1453.000000	0.337581
1454.000000	0.337295
1455.000000	0.337019
1456.000000	0.336903
1457.000000	0.336756
1458.000000	0.336569
1459.000000	0.336387
1460.000000	0.336139
1461.000000	0.335866
1462.000000	0.335732
1463.000000	0.335698
1464.000000	0.335617
1465.000000	0.335614
1466.000000	0.335624
1467.000000	0.335507
1468.000000	0.335505
1469.000000	0.335621
1470.000000	0.335526
1471.000000	0.335565
1472.000000	0.335766
1473.000000	0.335992
1474.000000	0.336322
1475.000000	0.336792
1476.000000	0.337222
1477.000000	0.337682
1478.000000	0.338121
1479.000000	0.338530
1480.000000	0.339057
1481.000000	0.339494
1482.000000	0.339889
1483.000000	0.340450
1484.000000	0.341102
1485.000000	0.341670
1486.000000	0.342279
1487.000000	0.342850
1488.000000	0.343390
1489.000000	0.343929
1490.000000	0.344351
1491.000000	0.344853
1492.000000	0.345271
1493.000000	0.345741
1494.000000	0.346259
1495.000000	0.346685
1496.000000	0.347030
1497.000000	0.347477
1498.000000	0.347905
1499.000000	0.348433
1500.000000	0.349093
1501.000000	0.349582
1502.000000	0.349967
1503.000000	0.350444
1504.000000	0.350918
1505.000000	0.351384
1506.000000	0.351952
1507.000000	0.352462
1508.000000	0.352881
1509.000000	0.353331
1510.000000	0.353647
1511.000000	0.353895
1512.000000	0.354177
1513.000000	0.354487
1514.000000	0.354845
1515.000000	0.355045
1516.000000	0.355227
1517.000000	0.355372
1518.000000	0.355586
1519.000000	0.355876
1520.000000	0.356126
1521.000000	0.356294
1522.000000	0.356484
1523.000000	0.356745
1524.000000	0.356904
1525.000000	0.357171
1526.000000	0.357400
1527.000000	0.357423
1528.000000	0.357617
1529.000000	0.357806
1530.000000	0.357763
1531.000000	0.357871
1532.000000	0.358114
1533.000000	0.358259
1534.000000	0.358383
1535.000000	0.358578
1536.000000	0.358657
1537.000000	0.358791
1538.000000	0.358953
1539.000000	0.359093
1540.000000	0.359265
1541.000000	0.359404
1542.000000	0.359650
1543.000000	0.359922
1544.000000	0.360059
1545.000000	0.360137
1546.000000	0.360259
1547.000000	0.360377
1548.000000	0.360519
1549.000000	0.360777
1550.000000	0.360912
1551.000000	0.360918
1552.000000	0.360926
1553.000000	0.360907
1554.000000	0.360914
1555.000000	0.360993
1556.000000	0.361124
1557.000000	0.361224
1558.000000	0.361303
1559.000000	0.361303
1560.000000	0.361262
1561.000000	0.361208
1562.000000	0.361189
1563.000000	0.361214
1564.000000	0.361204
1565.000000	0.361183
1566.000000	0.361097
1567.000000	0.361041
1568.000000	0.361034
1569.000000	0.361144
1570.000000	0.361171
1571.000000	0.361185
1572.000000	0.361196
1573.000000	0.361188
1574.000000	0.361195
1575.000000	0.361232
1576.000000	0.361232
1577.000000	0.361209
1578.000000	0.361152
1579.000000	0.361081
1580.000000	0.361106
1581.000000	0.361235
1582.000000	0.361293
1583.000000	0.361438
1584.000000	0.361418
1585.000000	0.361359
1586.000000	0.361351
1587.000000	0.361271
1588.000000	0.361291
1589.000000	0.361400
1590.000000	0.361437
1591.000000	0.361539
1592.000000	0.361583
1593.000000	0.361584
1594.000000	0.361591
1595.000000	0.361635
1596.000000	0.361660
1597.000000	0.361707
1598.000000	0.361745
1599.000000	0.361832
1600.000000	0.361824
1601.000000	0.361909
1602.000000	0.361863
1603.000000	0.361655
1604.000000	0.361641
1605.000000	0.361654
1606.000000	0.361708
1607.000000	0.362035
1608.000000	0.362150
1609.000000	0.362204
1610.000000	0.362275
1611.000000	0.362336
1612.000000	0.362378
1613.000000	0.362518
1614.000000	0.362600
1615.000000	0.362660
1616.000000	0.362826
1617.000000	0.363071
1618.000000	0.363180
1619.000000	0.363265
1620.000000	0.363266
1621.000000	0.363066
1622.000000	0.363191
1623.000000	0.363368
1624.000000	0.363592
1625.000000	0.363877
1626.000000	0.364070
1627.000000	0.364293
1628.000000	0.364538
1629.000000	0.364777
1630.000000	0.364999
1631.000000	0.365095
1632.000000	0.365224
1633.000000	0.365371
1634.000000	0.365519
1635.000000	0.365750
1636.000000	0.365924
1637.000000	0.366059
1638.000000	0.366251
1639.000000	0.366510
1640.000000	0.366745
1641.000000	0.367129
1642.000000	0.367359
1643.000000	0.367538
1644.000000	0.367709
1645.000000	0.367799
1646.000000	0.367953
1647.000000	0.368145
1648.000000	0.368359
1649.000000	0.368716
1650.000000	0.369040
1651.000000	0.369461
1652.000000	0.369826
1653.000000	0.370112
1654.000000	0.370422
1655.000000	0.370687
1656.000000	0.370779
1657.000000	0.370840
1658.000000	0.370947
1659.000000	0.371069
1660.000000	0.371254
1661.000000	0.371500
1662.000000	0.371603
1663.000000	0.371505
1664.000000	0.371665
1665.000000	0.371879
1666.000000	0.372180
1667.000000	0.372584
1668.000000	0.372886
1669.000000	0.373075
1670.000000	0.373346
1671.000000	0.373840
1672.000000	0.374165
1673.000000	0.374424
1674.000000	0.374675
1675.000000	0.374812
1676.000000	0.375046
1677.000000	0.375263
1678.000000	0.375240
1679.000000	0.375340
1680.000000	0.375358
1681.000000	0.375391
1682.000000	0.375661
1683.000000	0.375865
1684.000000	0.375930
1685.000000	0.376015
1686.000000	0.376050
1687.000000	0.376052
1688.000000	0.376117
1689.000000	0.376235
1690.000000	0.376248
1691.000000	0.376460
1692.000000	0.376664
1693.000000	0.376806
1694.000000	0.377008
1695.000000	0.377194
1696.000000	0.377416
1697.000000	0.377443
1698.000000	0.377311
1699.000000	0.377322
1700.000000	0.377224
1701.000000	0.377383
1702.000000	0.377631
1703.000000	0.377743
1704.000000	0.378051
1705.000000	0.378147
1706.000000	0.378014
1707.000000	0.378074
1708.000000	0.378127
1709.000000	0.378111
1710.000000	0.378284
1711.000000	0.378430
1712.000000	0.378482
1713.000000	0.378601
1714.000000	0.378923
1715.000000	0.379131
1716.000000	0.379313
1717.000000	0.379439
1718.000000	0.379425
1719.000000	0.379465
1720.000000	0.379594
1721.000000	0.379636
1722.000000	0.379602
1723.000000	0.379712
1724.000000	0.379822
1725.000000	0.380060
1726.000000	0.380509
1727.000000	0.380627
1728.000000	0.380498
1729.000000	0.380432
1730.000000	0.380357
1731.000000	0.380347
1732.000000	0.380491
1733.000000	0.380569
1734.000000	0.380333
1735.000000	0.380444
1736.000000	0.380717
1737.000000	0.380824
1738.000000	0.381009
1739.000000	0.381234
1740.000000	0.381355
1741.000000	0.381477
1742.000000	0.381766
1743.000000	0.381936
1744.000000	0.381907
1745.000000	0.382002
1746.000000	0.382203
1747.000000	0.382064
1748.000000	0.382016
1749.000000	0.382036
1750.000000	0.381926
1751.000000	0.381948
1752.000000	0.382091
1753.000000	0.381979
1754.000000	0.381970
1755.000000	0.382084
1756.000000	0.382133
1757.000000	0.382150
1758.000000	0.382190
1759.000000	0.382202
1760.000000	0.382246
1761.000000	0.382285
1762.000000	0.382272
1763.000000	0.382193
1764.000000	0.382272
1765.000000	0.382396
1766.000000	0.382487
1767.000000	0.382621
1768.000000	0.382631
1769.000000	0.382587
1770.000000	0.382669
1771.000000	0.382744
1772.000000	0.382822
1773.000000	0.382900
1774.000000	0.382931
1775.000000	0.382912
1776.000000	0.383124
1777.000000	0.383440
1778.000000	0.383607
1779.000000	0.383897
1780.000000	0.384000
1781.000000	0.383806
1782.000000	0.383801
1783.000000	0.383934
1784.000000	0.383970
1785.000000	0.383866
1786.000000	0.384024
1787.000000	0.384214
1788.000000	0.384352
1789.000000	0.384647
1790.000000	0.384480
1791.000000	0.384472
1792.000000	0.384623
1793.000000	0.384778
1794.000000	0.385132
1795.000000	0.385451
1796.000000	0.385769
1797.000000	0.385994
1798.000000	0.386144
1799.000000	0.386292
1800.000000	0.386436
1801.000000	0.386080
1802.000000	0.386424
1803.000000	0.386367
1804.000000	0.386721
1805.000000	0.386824
1806.000000	0.386944
1807.000000	0.387305
1808.000000	0.387756
1809.000000	0.388656
1810.000000	0.388096
1811.000000	0.388364
1812.000000	0.389368
1813.000000	0.389420
1814.000000	0.388809
1815.000000	0.388836
1816.000000	0.388593
1817.000000	0.388460
1818.000000	0.388667
1819.000000	0.389446
1820.000000	0.389399
1821.000000	0.389100
1822.000000	0.388883
1823.000000	0.388075
1824.000000	0.387873
1825.000000	0.387939
1826.000000	0.388080
1827.000000	0.388343
1828.000000	0.388891
1829.000000	0.388787
1830.000000	0.388208
1831.000000	0.387899
1832.000000	0.387323
1833.000000	0.386826
1834.000000	0.386219
1835.000000	0.386094
1836.000000	0.386348
1837.000000	0.386099
1838.000000	0.385512
1839.000000	0.385523
1840.000000	0.385186
1841.000000	0.384395
1842.000000	0.384065
1843.000000	0.384140
1844.000000	0.383866
1845.000000	0.383376
1846.000000	0.383266
1847.000000	0.382980
1848.000000	0.382983
1849.000000	0.383050
1850.000000	0.382653
1851.000000	0.382558
1852.000000	0.382417
1853.000000	0.382111
1854.000000	0.381854
1855.000000	0.381129
1856.000000	0.379787
1857.000000	0.378663
1858.000000	0.377682
1859.000000	0.376276
1860.000000	0.374623
1861.000000	0.373178
1862.000000	0.371952
1863.000000	0.371102
1864.000000	0.369870
1865.000000	0.368969
1866.000000	0.367612
1867.000000	0.365721
1868.000000	0.363600
1869.000000	0.361958
1870.000000	0.359795
1871.000000	0.357603
1872.000000	0.355200
1873.000000	0.352877
1874.000000	0.350224
1875.000000	0.347998
1876.000000	0.345920
1877.000000	0.343353
1878.000000	0.340807
1879.000000	0.337817
1880.000000	0.334195
1881.000000	0.330822
1882.000000	0.327212
1883.000000	0.323223
1884.000000	0.319333
1885.000000	0.315346
1886.000000	0.310981
1887.000000	0.306161
1888.000000	0.301412
1889.000000	0.297060
1890.000000	0.292578
1891.000000	0.288272
1892.000000	0.283843
1893.000000	0.278527
1894.000000	0.273246
1895.000000	0.268233
1896.000000	0.263461
1897.000000	0.258641
1898.000000	0.253922
1899.000000	0.249562
1900.000000	0.245157
1901.000000	0.240510
1902.000000	0.236527
1903.000000	0.232918
1904.000000	0.228519
1905.000000	0.224464
1906.000000	0.221016
1907.000000	0.217927
1908.000000	0.214914
1909.000000	0.212706
1910.000000	0.210896
1911.000000	0.208676
1912.000000	0.206038
1913.000000	0.203884
1914.000000	0.201825
1915.000000	0.199669
1916.000000	0.197845
1917.000000	0.196044
1918.000000	0.194151
1919.000000	0.192721
1920.000000	0.191821
1921.000000	0.191105
1922.000000	0.190646
1923.000000	0.189902
1924.000000	0.189482
1925.000000	0.189499
1926.000000	0.189218
1927.000000	0.188971
1928.000000	0.188586
1929.000000	0.187869
1930.000000	0.187084
1931.000000	0.187195
1932.000000	0.188078
1933.000000	0.189354
1934.000000	0.190415
1935.000000	0.191012
1936.000000	0.190903
1937.000000	0.190524
1938.000000	0.190275
1939.000000	0.190098
1940.000000	0.189845
1941.000000	0.190035
1942.000000	0.190381
1943.000000	0.190464
1944.000000	0.190509
1945.000000	0.190232
1946.000000	0.189968
1947.000000	0.189715
1948.000000	0.189335
1949.000000	0.189527
1950.000000	0.189463
1951.000000	0.189244
1952.000000	0.188957
1953.000000	0.189024
1954.000000	0.188647
1955.000000	0.188074
1956.000000	0.187596
1957.000000	0.186948
1958.000000	0.186242
1959.000000	0.186317
1960.000000	0.186762
1961.000000	0.187215
1962.000000	0.187462
1963.000000	0.188069
1964.000000	0.187828
1965.000000	0.186733
1966.000000	0.185671
1967.000000	0.185082
1968.000000	0.184811
1969.000000	0.185534
1970.000000	0.186690
1971.000000	0.186822
1972.000000	0.186785
1973.000000	0.186697
1974.000000	0.186025
1975.000000	0.186004
1976.000000	0.186340
1977.000000	0.186728
1978.000000	0.187079
1979.000000	0.187271
1980.000000	0.187647
1981.000000	0.188331
1982.000000	0.189212
1983.000000	0.190171
1984.000000	0.190913
1985.000000	0.191410
1986.000000	0.192122
1987.000000	0.192982
1988.000000	0.193643
1989.000000	0.194373
1990.000000	0.195040
1991.000000	0.195487
1992.000000	0.196446
1993.000000	0.197316
1994.000000	0.198403
1995.000000	0.199380
1996.000000	0.200004
1997.000000	0.200969
1998.000000	0.202280
1999.000000	0.203281
2000.000000	0.204373
2001.000000	0.205242
2002.000000	0.205924
2003.000000	0.206632
2004.000000	0.206735
2005.000000	0.207115
2006.000000	0.208149
2007.000000	0.209093
2008.000000	0.210359
2009.000000	0.212799
2010.000000	0.214020
2011.000000	0.214137
2012.000000	0.215205
2013.000000	0.216273
2014.000000	0.217304
2015.000000	0.219008
2016.000000	0.220405
2017.000000	0.221242
2018.000000	0.222093
2019.000000	0.222696
2020.000000	0.223262
2021.000000	0.224227
2022.000000	0.225215
2023.000000	0.226478
2024.000000	0.228619
2025.000000	0.230009
2026.000000	0.231136
2027.000000	0.231843
2028.000000	0.232799
2029.000000	0.233407
2030.000000	0.234328
2031.000000	0.235001
2032.000000	0.235478
2033.000000	0.236749
2034.000000	0.237804
2035.000000	0.239256
2036.000000	0.240545
2037.000000	0.241873
2038.000000	0.243142
2039.000000	0.244810
2040.000000	0.245659
2041.000000	0.246607
2042.000000	0.247508
2043.000000	0.247673
2044.000000	0.248393
2045.000000	0.249135
2046.000000	0.249646
2047.000000	0.250482
2048.000000	0.251584
2049.000000	0.252743
2050.000000	0.253846
2051.000000	0.254757
2052.000000	0.255508
2053.000000	0.256299
2054.000000	0.257195
2055.000000	0.258037
2056.000000	0.259142
2057.000000	0.260629
2058.000000	0.261872
2059.000000	0.262665
2060.000000	0.263494
2061.000000	0.264081
2062.000000	0.264745
2063.000000	0.265446
2064.000000	0.266100
2065.000000	0.267013
2066.000000	0.267373
2067.000000	0.267443
2068.000000	0.268160
2069.000000	0.268521
2070.000000	0.269405
2071.000000	0.270595
2072.000000	0.271653
2073.000000	0.272318
2074.000000	0.272611
2075.000000	0.273574
2076.000000	0.274764
2077.000000	0.275800
2078.000000	0.277521
2079.000000	0.278520
2080.000000	0.278855
2081.000000	0.279693
2082.000000	0.280520
2083.000000	0.281366
2084.000000	0.282608
2085.000000	0.283438
2086.000000	0.284183
2087.000000	0.285096
2088.000000	0.285968
2089.000000	0.286849
2090.000000	0.287368
2091.000000	0.287455
2092.000000	0.287997
2093.000000	0.288388
2094.000000	0.289031
2095.000000	0.290336
2096.000000	0.291313
2097.000000	0.292209
2098.000000	0.292730
2099.000000	0.293482
2100.000000	0.294477
2101.000000	0.294710
2102.000000	0.295243
2103.000000	0.295971
2104.000000	0.295589
2105.000000	0.296253
2106.000000	0.297621
2107.000000	0.298693
2108.000000	0.300088
2109.000000	0.301427
2110.000000	0.302735
2111.000000	0.303563
2112.000000	0.304335
2113.000000	0.304293
2114.000000	0.304079
2115.000000	0.304313
2116.000000	0.304735
2117.000000	0.305229
2118.000000	0.305553
2119.000000	0.305466
2120.000000	0.305560
2121.000000	0.305567
2122.000000	0.305544
2123.000000	0.305198
2124.000000	0.305483
2125.000000	0.305846
2126.000000	0.306461
2127.000000	0.308274
2128.000000	0.309324
2129.000000	0.310143
2130.000000	0.310576
2131.000000	0.310099
2132.000000	0.309701
2133.000000	0.309728
2134.000000	0.310394
2135.000000	0.312087
2136.000000	0.313334
2137.000000	0.313943
2138.000000	0.314421
2139.000000	0.314066
2140.000000	0.312288
2141.000000	0.311605
2142.000000	0.310340
2143.000000	0.309963
2144.000000	0.311421
2145.000000	0.311694
2146.000000	0.311759
2147.000000	0.312279
2148.000000	0.311950
2149.000000	0.311161
2150.000000	0.310903
2151.000000	0.311419
2152.000000	0.311822
2153.000000	0.312153
2154.000000	0.312182
2155.000000	0.311991
2156.000000	0.311780
2157.000000	0.311123
2158.000000	0.310979
2159.000000	0.311437
2160.000000	0.311719
2161.000000	0.311640
2162.000000	0.312296
2163.000000	0.313569
2164.000000	0.313913
2165.000000	0.313949
2166.000000	0.315046
2167.000000	0.314121
2168.000000	0.313170
2169.000000	0.313465
2170.000000	0.312600
2171.000000	0.312361
2172.000000	0.312575
2173.000000	0.312755
2174.000000	0.313151
2175.000000	0.313440
2176.000000	0.313841
2177.000000	0.314417
2178.000000	0.315015
2179.000000	0.315096
2180.000000	0.315588
2181.000000	0.315405
2182.000000	0.313329
2183.000000	0.312373
2184.000000	0.311037
2185.000000	0.309697
2186.000000	0.308977
2187.000000	0.308726
2188.000000	0.309304
2189.000000	0.309290
2190.000000	0.309777
2191.000000	0.310956
2192.000000	0.311606
2193.000000	0.312475
2194.000000	0.312829
2195.000000	0.312439
2196.000000	0.312430
2197.000000	0.311854
2198.000000	0.311955
2199.000000	0.313043
2200.000000	0.314226
2201.000000	0.316268
2202.000000	0.317215
2203.000000	0.318946
2204.000000	0.317620
2205.000000	0.312795
2206.000000	0.309081
2207.000000	0.305941
2208.000000	0.303054
2209.000000	0.302119
2210.000000	0.303155
2211.000000	0.303405
2212.000000	0.303691
2213.000000	0.305019
2214.000000	0.307393
2215.000000	0.309800
2216.000000	0.314019
2217.000000	0.315651
2218.000000	0.317100
2219.000000	0.317479
2220.000000	0.315282
2221.000000	0.313925
2222.000000	0.311474
2223.000000	0.310613
2224.000000	0.309912
2225.000000	0.310613
2226.000000	0.311687
2227.000000	0.315341
2228.000000	0.318042
2229.000000	0.319271
2230.000000	0.319112
2231.000000	0.316143
2232.000000	0.314854
2233.000000	0.312009
2234.000000	0.309860
2235.000000	0.313006
2236.000000	0.313867
2237.000000	0.315584
2238.000000	0.315233
2239.000000	0.313262
2240.000000	0.311959
2241.000000	0.308908
2242.000000	0.307770
2243.000000	0.308020
2244.000000	0.309058
2245.000000	0.311309
2246.000000	0.312703
2247.000000	0.315272
2248.000000	0.316114
2249.000000	0.315041
2250.000000	0.315109
2251.000000	0.315402
2252.000000	0.315838
2253.000000	0.317976
2254.000000	0.318959
2255.000000	0.318605
2256.000000	0.317001
2257.000000	0.315080
2258.000000	0.314635
2259.000000	0.315075
2260.000000	0.316353
2261.000000	0.316293
2262.000000	0.316720
2263.000000	0.314841
2264.000000	0.310983
2265.000000	0.308502
2266.000000	0.304185
2267.000000	0.301337
2268.000000	0.299790
2269.000000	0.298169
2270.000000	0.297480
2271.000000	0.296335
2272.000000	0.295862
2273.000000	0.294204
2274.000000	0.289966
2275.000000	0.288189
2276.000000	0.287681
2277.000000	0.286247
2278.000000	0.286645
2279.000000	0.287462
2280.000000	0.284108
2281.000000	0.283414
2282.000000	0.281343
2283.000000	0.278460
2284.000000	0.280340
2285.000000	0.280434
2286.000000	0.280442
2287.000000	0.282051
2288.000000	0.281311
2289.000000	0.280552
2290.000000	0.280913
2291.000000	0.281223
2292.000000	0.281709
2293.000000	0.280562
2294.000000	0.279754
2295.000000	0.278130
2296.000000	0.277763
2297.000000	0.278163
2298.000000	0.278072
2299.000000	0.277866
2300.000000	0.278014
2301.000000	0.278108
2302.000000	0.278339
2303.000000	0.279273
2304.000000	0.279876
2305.000000	0.280408
2306.000000	0.280201
2307.000000	0.279614
2308.000000	0.278820
2309.000000	0.278664
2310.000000	0.278958
2311.000000	0.282389
2312.000000	0.285419
2313.000000	0.282854
2314.000000	0.281092
2315.000000	0.278323
2316.000000	0.274375
2317.000000	0.275224
2318.000000	0.275573
2319.000000	0.273515
2320.000000	0.271921
2321.000000	0.271060
2322.000000	0.272331
2323.000000	0.274448
2324.000000	0.276008
2325.000000	0.275982
2326.000000	0.271856
2327.000000	0.267497
2328.000000	0.265801
2329.000000	0.264759
2330.000000	0.264028
2331.000000	0.263101
2332.000000	0.262724
2333.000000	0.260886
2334.000000	0.258978
2335.000000	0.258010
2336.000000	0.256469
2337.000000	0.254607
2338.000000	0.253788
2339.000000	0.252731
2340.000000	0.251977
2341.000000	0.250361
2342.000000	0.247534
2343.000000	0.246101
2344.000000	0.244358
2345.000000	0.244019
2346.000000	0.245275
2347.000000	0.244483
2348.000000	0.242934
2349.000000	0.243568
2350.000000	0.241487
2351.000000	0.243067
2352.000000	0.242707
2353.000000	0.237838
2354.000000	0.233516
2355.000000	0.233316
2356.000000	0.236947
2357.000000	0.237746
2358.000000	0.239020
2359.000000	0.237778
2360.000000	0.233693
2361.000000	0.233705
2362.000000	0.230732
2363.000000	0.226077
2364.000000	0.221069
2365.000000	0.217676
2366.000000	0.220866
2367.000000	0.223029
2368.000000	0.227314
2369.000000	0.230698
2370.000000	0.227018
2371.000000	0.227865
2372.000000	0.227461
2373.000000	0.221139
2374.000000	0.217199
2375.000000	0.213104
2376.000000	0.210332
2377.000000	0.209727
2378.000000	0.209569
2379.000000	0.208028
2380.000000	0.202449
2381.000000	0.198768
2382.000000	0.194951
2383.000000	0.195725
2384.000000	0.198029
2385.000000	0.196095
2386.000000	0.202133
2387.000000	0.202646
2388.000000	0.199450
2389.000000	0.201801
2390.000000	0.198768
2391.000000	0.195373
2392.000000	0.190568
2393.000000	0.182460
2394.000000	0.173963
2395.000000	0.169467
2396.000000	0.173503
2397.000000	0.183671
2398.000000	0.196742
2399.000000	0.201205
2400.000000	0.191243
2401.000000	0.179507
2402.000000	0.169623
2403.000000	0.162942
2404.000000	0.168879
2405.000000	0.172315
2406.000000	0.174217
2407.000000	0.179965
2408.000000	0.179969
2409.000000	0.177776
2410.000000	0.167870
2411.000000	0.161601
2412.000000	0.156577
2413.000000	0.152994
2414.000000	0.165481
2415.000000	0.169027
2416.000000	0.171799
2417.000000	0.176862
2418.000000	0.169818
2419.000000	0.171340
2420.000000	0.168038
2421.000000	0.167307
2422.000000	0.172460
2423.000000	0.162745
2424.000000	0.161157
2425.000000	0.157844
2426.000000	0.148951
2427.000000	0.151218
2428.000000	0.147023
2429.000000	0.141993
2430.000000	0.145858
2431.000000	0.152130
2432.000000	0.162019
2433.000000	0.169374
2434.000000	0.168401
2435.000000	0.166468
2436.000000	0.165284
2437.000000	0.175455
2438.000000	0.187260
2439.000000	0.190202
2440.000000	0.195616
2441.000000	0.189028
2442.000000	0.181409
2443.000000	0.187513
2444.000000	0.181826
2445.000000	0.170254
2446.000000	0.176076
2447.000000	0.168101
2448.000000	0.163997
2449.000000	0.168022
2450.000000	0.162001
2451.000000	0.169046
2452.000000	0.158373
2453.000000	0.156756
2454.000000	0.156696
2455.000000	0.147265
2456.000000	0.168050
2457.000000	0.178187
2458.000000	0.178353
2459.000000	0.173971
2460.000000	0.155408
2461.000000	0.147130
2462.000000	0.145281
2463.000000	0.157256
2464.000000	0.174094
2465.000000	0.186607
2466.000000	0.199340
2467.000000	0.190339
2468.000000	0.176552
2469.000000	0.164996
2470.000000	0.149719
2471.000000	0.136707
2472.000000	0.126128
2473.000000	0.134426
2474.000000	0.146799
2475.000000	0.149933
2476.000000	0.157307
2477.000000	0.141259
2478.000000	0.107671
2479.000000	0.115849
2480.000000	0.149388
2481.000000	0.174305
2482.000000	0.187681
2483.000000	0.190230
2484.000000	0.147390
2485.000000	0.099601
2486.000000	0.070263
2487.000000	0.034202
2488.000000	0.053264
2489.000000	0.082550
2490.000000	0.099310
2491.000000	0.160769
2492.000000	0.168152
2493.000000	0.182149
2494.000000	0.167419
2495.000000	0.044594
2496.000000	0.010479
2497.000000	-0.005620
2498.000000	0.004085
2499.000000	0.092764
2500.000000	0.150934
