# Wavelength	NAu-1-30_HEX-20_FV7-50_00001.asd.rts.txt
350.000000	0.157709
351.000000	0.159665
352.000000	0.165975
353.000000	0.160788
354.000000	0.146556
355.000000	0.156363
356.000000	0.168213
357.000000	0.172765
358.000000	0.164410
359.000000	0.159432
360.000000	0.161253
361.000000	0.167231
362.000000	0.166038
363.000000	0.160233
364.000000	0.154579
365.000000	0.158084
366.000000	0.160581
367.000000	0.161020
368.000000	0.166360
369.000000	0.164897
370.000000	0.162401
371.000000	0.167341
372.000000	0.164857
373.000000	0.163037
374.000000	0.166810
375.000000	0.165550
376.000000	0.165838
377.000000	0.168377
378.000000	0.168445
379.000000	0.170343
380.000000	0.173415
381.000000	0.175872
382.000000	0.173234
383.000000	0.170288
384.000000	0.170943
385.000000	0.173504
386.000000	0.176912
387.000000	0.179281
388.000000	0.176831
389.000000	0.175357
390.000000	0.175727
391.000000	0.176842
392.000000	0.178464
393.000000	0.179591
394.000000	0.179929
395.000000	0.181803
396.000000	0.182447
397.000000	0.181534
398.000000	0.181818
399.000000	0.184639
400.000000	0.187663
401.000000	0.187049
402.000000	0.187777
403.000000	0.188725
404.000000	0.188595
405.000000	0.189132
406.000000	0.190877
407.000000	0.193199
408.000000	0.193341
409.000000	0.193773
410.000000	0.194819
411.000000	0.195646
412.000000	0.196509
413.000000	0.197169
414.000000	0.197512
415.000000	0.198619
416.000000	0.199299
417.000000	0.199197
418.000000	0.200161
419.000000	0.200784
420.000000	0.200910
421.000000	0.201385
422.000000	0.201338
423.000000	0.201173
424.000000	0.201640
425.000000	0.202106
426.000000	0.202520
427.000000	0.202838
428.000000	0.202825
429.000000	0.202631
430.000000	0.202553
431.000000	0.203206
432.000000	0.203300
433.000000	0.203004
434.000000	0.203218
435.000000	0.203352
436.000000	0.203440
437.000000	0.203514
438.000000	0.203110
439.000000	0.202899
440.000000	0.203105
441.000000	0.202684
442.000000	0.202681
443.000000	0.203032
444.000000	0.203047
445.000000	0.202509
446.000000	0.202175
447.000000	0.202732
448.000000	0.203255
449.000000	0.203687
450.000000	0.204212
451.000000	0.205403
452.000000	0.206645
453.000000	0.207843
454.000000	0.209731
455.000000	0.211178
456.000000	0.212415
457.000000	0.214044
458.000000	0.215550
459.000000	0.217038
460.000000	0.218626
461.000000	0.219767
462.000000	0.220969
463.000000	0.222200
464.000000	0.222789
465.000000	0.223665
466.000000	0.224681
467.000000	0.225135
468.000000	0.225921
469.000000	0.226573
470.000000	0.226642
471.000000	0.227103
472.000000	0.227725
473.000000	0.228243
474.000000	0.228483
475.000000	0.228790
476.000000	0.229314
477.000000	0.229673
478.000000	0.229957
479.000000	0.230415
480.000000	0.231013
481.000000	0.231252
482.000000	0.231517
483.000000	0.232004
484.000000	0.232621
485.000000	0.232998
486.000000	0.233203
487.000000	0.233546
488.000000	0.233954
489.000000	0.234458
490.000000	0.235115
491.000000	0.235594
492.000000	0.235971
493.000000	0.236308
494.000000	0.236701
495.000000	0.237117
496.000000	0.237536
497.000000	0.238247
498.000000	0.238729
499.000000	0.239002
500.000000	0.239582
501.000000	0.240118
502.000000	0.240643
503.000000	0.241247
504.000000	0.241669
505.000000	0.242013
506.000000	0.242439
507.000000	0.242971
508.000000	0.243516
509.000000	0.244015
510.000000	0.244627
511.000000	0.245230
512.000000	0.245834
513.000000	0.246494
514.000000	0.247080
515.000000	0.247650
516.000000	0.248253
517.000000	0.248853
518.000000	0.249458
519.000000	0.250007
520.000000	0.250575
521.000000	0.251179
522.000000	0.251821
523.000000	0.252483
524.000000	0.253109
525.000000	0.253707
526.000000	0.254364
527.000000	0.254975
528.000000	0.255599
529.000000	0.256337
530.000000	0.256925
531.000000	0.257549
532.000000	0.258243
533.000000	0.258924
534.000000	0.259625
535.000000	0.260343
536.000000	0.261080
537.000000	0.261765
538.000000	0.262414
539.000000	0.263065
540.000000	0.263726
541.000000	0.264373
542.000000	0.265014
543.000000	0.265626
544.000000	0.266299
545.000000	0.267001
546.000000	0.267704
547.000000	0.268404
548.000000	0.269128
549.000000	0.269835
550.000000	0.270520
551.000000	0.271184
552.000000	0.271787
553.000000	0.272371
554.000000	0.273062
555.000000	0.273889
556.000000	0.274567
557.000000	0.275207
558.000000	0.275933
559.000000	0.276509
560.000000	0.277115
561.000000	0.277788
562.000000	0.278357
563.000000	0.278934
564.000000	0.279555
565.000000	0.280137
566.000000	0.280808
567.000000	0.281401
568.000000	0.281849
569.000000	0.282430
570.000000	0.282990
571.000000	0.283477
572.000000	0.283943
573.000000	0.284493
574.000000	0.285056
575.000000	0.285552
576.000000	0.285972
577.000000	0.286361
578.000000	0.286808
579.000000	0.287222
580.000000	0.287598
581.000000	0.287944
582.000000	0.288285
583.000000	0.288651
584.000000	0.288993
585.000000	0.289210
586.000000	0.289446
587.000000	0.289694
588.000000	0.289934
589.000000	0.290297
590.000000	0.290612
591.000000	0.290796
592.000000	0.291033
593.000000	0.291281
594.000000	0.291522
595.000000	0.291764
596.000000	0.292006
597.000000	0.292237
598.000000	0.292352
599.000000	0.292518
600.000000	0.292681
601.000000	0.292726
602.000000	0.292896
603.000000	0.293021
604.000000	0.293065
605.000000	0.293212
606.000000	0.293356
607.000000	0.293487
608.000000	0.293635
609.000000	0.293808
610.000000	0.293991
611.000000	0.294149
612.000000	0.294173
613.000000	0.294228
614.000000	0.294422
615.000000	0.294520
616.000000	0.294549
617.000000	0.294567
618.000000	0.294789
619.000000	0.294939
620.000000	0.294972
621.000000	0.294999
622.000000	0.295057
623.000000	0.295143
624.000000	0.295246
625.000000	0.295378
626.000000	0.295459
627.000000	0.295500
628.000000	0.295662
629.000000	0.295803
630.000000	0.295856
631.000000	0.296059
632.000000	0.296179
633.000000	0.296290
634.000000	0.296480
635.000000	0.296598
636.000000	0.296780
637.000000	0.297040
638.000000	0.297164
639.000000	0.297219
640.000000	0.297316
641.000000	0.297464
642.000000	0.297657
643.000000	0.297861
644.000000	0.298036
645.000000	0.298133
646.000000	0.298263
647.000000	0.298447
648.000000	0.298504
649.000000	0.298596
650.000000	0.298770
651.000000	0.298994
652.000000	0.299184
653.000000	0.299348
654.000000	0.299461
655.000000	0.299599
656.000000	0.299811
657.000000	0.300054
658.000000	0.300265
659.000000	0.300450
660.000000	0.300608
661.000000	0.300773
662.000000	0.300935
663.000000	0.301143
664.000000	0.301371
665.000000	0.301561
666.000000	0.301736
667.000000	0.301908
668.000000	0.302122
669.000000	0.302334
670.000000	0.302527
671.000000	0.302733
672.000000	0.302940
673.000000	0.303159
674.000000	0.303434
675.000000	0.303723
676.000000	0.303969
677.000000	0.304152
678.000000	0.304384
679.000000	0.304598
680.000000	0.304771
681.000000	0.305002
682.000000	0.305285
683.000000	0.305540
684.000000	0.305840
685.000000	0.306102
686.000000	0.306357
687.000000	0.306621
688.000000	0.306906
689.000000	0.307190
690.000000	0.307510
691.000000	0.307968
692.000000	0.308256
693.000000	0.308433
694.000000	0.308832
695.000000	0.309175
696.000000	0.309425
697.000000	0.309643
698.000000	0.309890
699.000000	0.310155
700.000000	0.310429
701.000000	0.310715
702.000000	0.311013
703.000000	0.311285
704.000000	0.311499
705.000000	0.311782
706.000000	0.312096
707.000000	0.312425
708.000000	0.312795
709.000000	0.313123
710.000000	0.313384
711.000000	0.313747
712.000000	0.314124
713.000000	0.314463
714.000000	0.314699
715.000000	0.314939
716.000000	0.315232
717.000000	0.315561
718.000000	0.315848
719.000000	0.316054
720.000000	0.316222
721.000000	0.316595
722.000000	0.316940
723.000000	0.317210
724.000000	0.317427
725.000000	0.317656
726.000000	0.317943
727.000000	0.318145
728.000000	0.318338
729.000000	0.318608
730.000000	0.318939
731.000000	0.319262
732.000000	0.319535
733.000000	0.319800
734.000000	0.320092
735.000000	0.320295
736.000000	0.320532
737.000000	0.320742
738.000000	0.320841
739.000000	0.321016
740.000000	0.321225
741.000000	0.321450
742.000000	0.321645
743.000000	0.321799
744.000000	0.322029
745.000000	0.322180
746.000000	0.322326
747.000000	0.322501
748.000000	0.322715
749.000000	0.322910
750.000000	0.323021
751.000000	0.323128
752.000000	0.323189
753.000000	0.323256
754.000000	0.323430
755.000000	0.323638
756.000000	0.323798
757.000000	0.323813
758.000000	0.323870
759.000000	0.323998
760.000000	0.324121
761.000000	0.324259
762.000000	0.324411
763.000000	0.324514
764.000000	0.324558
765.000000	0.324597
766.000000	0.324652
767.000000	0.324714
768.000000	0.324720
769.000000	0.324727
770.000000	0.324757
771.000000	0.324764
772.000000	0.324781
773.000000	0.324787
774.000000	0.324876
775.000000	0.324933
776.000000	0.325023
777.000000	0.325137
778.000000	0.325059
779.000000	0.325011
780.000000	0.325012
781.000000	0.324879
782.000000	0.324777
783.000000	0.324756
784.000000	0.324645
785.000000	0.324547
786.000000	0.324451
787.000000	0.324349
788.000000	0.324277
789.000000	0.324217
790.000000	0.324177
791.000000	0.324211
792.000000	0.324131
793.000000	0.324011
794.000000	0.323946
795.000000	0.323920
796.000000	0.323867
797.000000	0.323774
798.000000	0.323701
799.000000	0.323636
800.000000	0.323566
801.000000	0.323487
802.000000	0.323383
803.000000	0.323282
804.000000	0.323220
805.000000	0.323103
806.000000	0.322938
807.000000	0.322803
808.000000	0.322650
809.000000	0.322487
810.000000	0.322329
811.000000	0.322181
812.000000	0.322087
813.000000	0.321967
814.000000	0.321819
815.000000	0.321739
816.000000	0.321540
817.000000	0.321361
818.000000	0.321276
819.000000	0.321208
820.000000	0.321131
821.000000	0.321003
822.000000	0.320904
823.000000	0.320808
824.000000	0.320667
825.000000	0.320549
826.000000	0.320359
827.000000	0.320118
828.000000	0.319924
829.000000	0.319872
830.000000	0.319733
831.000000	0.319582
832.000000	0.319473
833.000000	0.319274
834.000000	0.319056
835.000000	0.318902
836.000000	0.318687
837.000000	0.318479
838.000000	0.318319
839.000000	0.318186
840.000000	0.317987
841.000000	0.317819
842.000000	0.317720
843.000000	0.317537
844.000000	0.317393
845.000000	0.317292
846.000000	0.317183
847.000000	0.317075
848.000000	0.316930
849.000000	0.316746
850.000000	0.316550
851.000000	0.316356
852.000000	0.316205
853.000000	0.316068
854.000000	0.315884
855.000000	0.315765
856.000000	0.315653
857.000000	0.315443
858.000000	0.315257
859.000000	0.315087
860.000000	0.314944
861.000000	0.314729
862.000000	0.314505
863.000000	0.314305
864.000000	0.314110
865.000000	0.313965
866.000000	0.313831
867.000000	0.313367
868.000000	0.313230
869.000000	0.313251
870.000000	0.313080
871.000000	0.312946
872.000000	0.312826
873.000000	0.312643
874.000000	0.312471
875.000000	0.312299
876.000000	0.312115
877.000000	0.311853
878.000000	0.311700
879.000000	0.311528
880.000000	0.311190
881.000000	0.311087
882.000000	0.310886
883.000000	0.310620
884.000000	0.310402
885.000000	0.310320
886.000000	0.310239
887.000000	0.310088
888.000000	0.309868
889.000000	0.309624
890.000000	0.309315
891.000000	0.309073
892.000000	0.308698
893.000000	0.308417
894.000000	0.308384
895.000000	0.308174
896.000000	0.307958
897.000000	0.307780
898.000000	0.307646
899.000000	0.307517
900.000000	0.307293
901.000000	0.306969
902.000000	0.306803
903.000000	0.306716
904.000000	0.306645
905.000000	0.306440
906.000000	0.306253
907.000000	0.305982
908.000000	0.305650
909.000000	0.305248
910.000000	0.305113
911.000000	0.305102
912.000000	0.305017
913.000000	0.304823
914.000000	0.304732
915.000000	0.304736
916.000000	0.304497
917.000000	0.304284
918.000000	0.304116
919.000000	0.303942
920.000000	0.303689
921.000000	0.303639
922.000000	0.303716
923.000000	0.303638
924.000000	0.303445
925.000000	0.303219
926.000000	0.302997
927.000000	0.302590
928.000000	0.302228
929.000000	0.302024
930.000000	0.301982
931.000000	0.301771
932.000000	0.301473
933.000000	0.301244
934.000000	0.301185
935.000000	0.301057
936.000000	0.300853
937.000000	0.300554
938.000000	0.300372
939.000000	0.300360
940.000000	0.300327
941.000000	0.300127
942.000000	0.299940
943.000000	0.299847
944.000000	0.299785
945.000000	0.299914
946.000000	0.299797
947.000000	0.299516
948.000000	0.299252
949.000000	0.299072
950.000000	0.298920
951.000000	0.298759
952.000000	0.298697
953.000000	0.298623
954.000000	0.298411
955.000000	0.297984
956.000000	0.297622
957.000000	0.297537
958.000000	0.297545
959.000000	0.297439
960.000000	0.297221
961.000000	0.297070
962.000000	0.296982
963.000000	0.296787
964.000000	0.296650
965.000000	0.296489
966.000000	0.296189
967.000000	0.296237
968.000000	0.296141
969.000000	0.295878
970.000000	0.295763
971.000000	0.295611
972.000000	0.295551
973.000000	0.295537
974.000000	0.295465
975.000000	0.295158
976.000000	0.294753
977.000000	0.294464
978.000000	0.294546
979.000000	0.294606
980.000000	0.294397
981.000000	0.294259
982.000000	0.294180
983.000000	0.294184
984.000000	0.294228
985.000000	0.294054
986.000000	0.293656
987.000000	0.293515
988.000000	0.293726
989.000000	0.293764
990.000000	0.293559
991.000000	0.293306
992.000000	0.293283
993.000000	0.293311
994.000000	0.293387
995.000000	0.293529
996.000000	0.293413
997.000000	0.293398
998.000000	0.293478
999.000000	0.293643
1000.000000	0.293701
1001.000000	0.293638
1002.000000	0.293666
1003.000000	0.293518
1004.000000	0.293032
1005.000000	0.291734
1006.000000	0.291765
1007.000000	0.292369
1008.000000	0.292676
1009.000000	0.293816
1010.000000	0.294074
1011.000000	0.293341
1012.000000	0.293296
1013.000000	0.292502
1014.000000	0.291477
1015.000000	0.291467
1016.000000	0.291549
1017.000000	0.291989
1018.000000	0.293032
1019.000000	0.293360
1020.000000	0.293493
1021.000000	0.293375
1022.000000	0.292819
1023.000000	0.292814
1024.000000	0.292938
1025.000000	0.293289
1026.000000	0.293356
1027.000000	0.293147
1028.000000	0.293658
1029.000000	0.294220
1030.000000	0.294106
1031.000000	0.294074
1032.000000	0.293819
1033.000000	0.293258
1034.000000	0.293276
1035.000000	0.294076
1036.000000	0.294459
1037.000000	0.294920
1038.000000	0.295130
1039.000000	0.295251
1040.000000	0.295314
1041.000000	0.295892
1042.000000	0.296283
1043.000000	0.296121
1044.000000	0.296133
1045.000000	0.295814
1046.000000	0.295239
1047.000000	0.295311
1048.000000	0.296090
1049.000000	0.296353
1050.000000	0.296394
1051.000000	0.296799
1052.000000	0.297525
1053.000000	0.297596
1054.000000	0.297827
1055.000000	0.297989
1056.000000	0.297472
1057.000000	0.297463
1058.000000	0.298045
1059.000000	0.297934
1060.000000	0.298485
1061.000000	0.298939
1062.000000	0.299070
1063.000000	0.299719
1064.000000	0.300141
1065.000000	0.300370
1066.000000	0.300693
1067.000000	0.301145
1068.000000	0.301403
1069.000000	0.301382
1070.000000	0.301618
1071.000000	0.302036
1072.000000	0.302230
1073.000000	0.302341
1074.000000	0.302838
1075.000000	0.302924
1076.000000	0.303141
1077.000000	0.303507
1078.000000	0.303550
1079.000000	0.303758
1080.000000	0.303919
1081.000000	0.304245
1082.000000	0.304800
1083.000000	0.305258
1084.000000	0.305829
1085.000000	0.306257
1086.000000	0.306682
1087.000000	0.307004
1088.000000	0.307071
1089.000000	0.307228
1090.000000	0.307320
1091.000000	0.307245
1092.000000	0.307865
1093.000000	0.308380
1094.000000	0.308700
1095.000000	0.309070
1096.000000	0.309409
1097.000000	0.309396
1098.000000	0.309763
1099.000000	0.310417
1100.000000	0.310904
1101.000000	0.311394
1102.000000	0.311717
1103.000000	0.311947
1104.000000	0.312148
1105.000000	0.312120
1106.000000	0.312263
1107.000000	0.312185
1108.000000	0.312463
1109.000000	0.313038
1110.000000	0.313792
1111.000000	0.314319
1112.000000	0.315163
1113.000000	0.315395
1114.000000	0.315053
1115.000000	0.315264
1116.000000	0.315570
1117.000000	0.315706
1118.000000	0.315873
1119.000000	0.316132
1120.000000	0.316147
1121.000000	0.316444
1122.000000	0.317448
1123.000000	0.318053
1124.000000	0.318162
1125.000000	0.318448
1126.000000	0.318474
1127.000000	0.318591
1128.000000	0.318767
1129.000000	0.319160
1130.000000	0.319371
1131.000000	0.319521
1132.000000	0.319694
1133.000000	0.319936
1134.000000	0.320088
1135.000000	0.320098
1136.000000	0.320241
1137.000000	0.320366
1138.000000	0.320487
1139.000000	0.320848
1140.000000	0.321100
1141.000000	0.321119
1142.000000	0.321320
1143.000000	0.321578
1144.000000	0.321855
1145.000000	0.322047
1146.000000	0.322160
1147.000000	0.322287
1148.000000	0.322140
1149.000000	0.322365
1150.000000	0.322867
1151.000000	0.323105
1152.000000	0.323352
1153.000000	0.323523
1154.000000	0.323387
1155.000000	0.323496
1156.000000	0.323770
1157.000000	0.323944
1158.000000	0.324120
1159.000000	0.324256
1160.000000	0.324305
1161.000000	0.324375
1162.000000	0.324523
1163.000000	0.324708
1164.000000	0.324790
1165.000000	0.324968
1166.000000	0.325107
1167.000000	0.325175
1168.000000	0.325261
1169.000000	0.325384
1170.000000	0.325527
1171.000000	0.325745
1172.000000	0.325915
1173.000000	0.326031
1174.000000	0.326169
1175.000000	0.326236
1176.000000	0.326327
1177.000000	0.326591
1178.000000	0.326719
1179.000000	0.326781
1180.000000	0.326799
1181.000000	0.326894
1182.000000	0.326809
1183.000000	0.326812
1184.000000	0.326851
1185.000000	0.326892
1186.000000	0.326942
1187.000000	0.326973
1188.000000	0.327007
1189.000000	0.327055
1190.000000	0.327115
1191.000000	0.327216
1192.000000	0.327529
1193.000000	0.327728
1194.000000	0.327748
1195.000000	0.327838
1196.000000	0.327813
1197.000000	0.327858
1198.000000	0.327957
1199.000000	0.328097
1200.000000	0.328324
1201.000000	0.328397
1202.000000	0.328590
1203.000000	0.328831
1204.000000	0.328795
1205.000000	0.328859
1206.000000	0.328873
1207.000000	0.328855
1208.000000	0.328901
1209.000000	0.329083
1210.000000	0.329222
1211.000000	0.329420
1212.000000	0.329481
1213.000000	0.329534
1214.000000	0.329575
1215.000000	0.329481
1216.000000	0.329443
1217.000000	0.329397
1218.000000	0.329359
1219.000000	0.329274
1220.000000	0.329343
1221.000000	0.329643
1222.000000	0.329897
1223.000000	0.329999
1224.000000	0.330130
1225.000000	0.330125
1226.000000	0.329961
1227.000000	0.330010
1228.000000	0.330200
1229.000000	0.330220
1230.000000	0.330143
1231.000000	0.330123
1232.000000	0.330180
1233.000000	0.330248
1234.000000	0.330355
1235.000000	0.330403
1236.000000	0.330302
1237.000000	0.330325
1238.000000	0.330352
1239.000000	0.330321
1240.000000	0.330269
1241.000000	0.330250
1242.000000	0.330229
1243.000000	0.330182
1244.000000	0.330246
1245.000000	0.330487
1246.000000	0.330458
1247.000000	0.330409
1248.000000	0.330543
1249.000000	0.330549
1250.000000	0.330620
1251.000000	0.330932
1252.000000	0.331027
1253.000000	0.331020
1254.000000	0.330969
1255.000000	0.330792
1256.000000	0.330714
1257.000000	0.330618
1258.000000	0.330641
1259.000000	0.330759
1260.000000	0.330820
1261.000000	0.330792
1262.000000	0.330780
1263.000000	0.330698
1264.000000	0.330815
1265.000000	0.330950
1266.000000	0.330990
1267.000000	0.331163
1268.000000	0.331170
1269.000000	0.330902
1270.000000	0.330991
1271.000000	0.331051
1272.000000	0.330910
1273.000000	0.331103
1274.000000	0.331274
1275.000000	0.331286
1276.000000	0.331247
1277.000000	0.331321
1278.000000	0.331221
1279.000000	0.331136
1280.000000	0.331014
1281.000000	0.330924
1282.000000	0.330873
1283.000000	0.330927
1284.000000	0.331009
1285.000000	0.331080
1286.000000	0.331174
1287.000000	0.331132
1288.000000	0.331213
1289.000000	0.331311
1290.000000	0.331249
1291.000000	0.331133
1292.000000	0.331015
1293.000000	0.330913
1294.000000	0.330864
1295.000000	0.330996
1296.000000	0.331129
1297.000000	0.331203
1298.000000	0.331389
1299.000000	0.331553
1300.000000	0.331602
1301.000000	0.331514
1302.000000	0.331385
1303.000000	0.331177
1304.000000	0.331067
1305.000000	0.331111
1306.000000	0.331105
1307.000000	0.331196
1308.000000	0.331245
1309.000000	0.331218
1310.000000	0.331213
1311.000000	0.331282
1312.000000	0.331236
1313.000000	0.331087
1314.000000	0.331086
1315.000000	0.331014
1316.000000	0.330884
1317.000000	0.330869
1318.000000	0.330912
1319.000000	0.330811
1320.000000	0.330789
1321.000000	0.330870
1322.000000	0.330768
1323.000000	0.330679
1324.000000	0.330636
1325.000000	0.330357
1326.000000	0.330183
1327.000000	0.330197
1328.000000	0.330192
1329.000000	0.330134
1330.000000	0.330191
1331.000000	0.330088
1332.000000	0.329893
1333.000000	0.329781
1334.000000	0.329666
1335.000000	0.329631
1336.000000	0.329723
1337.000000	0.329612
1338.000000	0.329289
1339.000000	0.329253
1340.000000	0.329236
1341.000000	0.329170
1342.000000	0.329205
1343.000000	0.329063
1344.000000	0.328776
1345.000000	0.328583
1346.000000	0.328666
1347.000000	0.328644
1348.000000	0.328556
1349.000000	0.328459
1350.000000	0.328375
1351.000000	0.328228
1352.000000	0.327933
1353.000000	0.327684
1354.000000	0.327509
1355.000000	0.327405
1356.000000	0.327626
1357.000000	0.327735
1358.000000	0.327619
1359.000000	0.327499
1360.000000	0.327399
1361.000000	0.327238
1362.000000	0.327164
1363.000000	0.327130
1364.000000	0.327151
1365.000000	0.327225
1366.000000	0.327207
1367.000000	0.327208
1368.000000	0.327145
1369.000000	0.327075
1370.000000	0.326956
1371.000000	0.326824
1372.000000	0.326652
1373.000000	0.326420
1374.000000	0.326191
1375.000000	0.325974
1376.000000	0.325882
1377.000000	0.325824
1378.000000	0.325534
1379.000000	0.325034
1380.000000	0.324623
1381.000000	0.324223
1382.000000	0.323889
1383.000000	0.323656
1384.000000	0.323285
1385.000000	0.322674
1386.000000	0.322111
1387.000000	0.321707
1388.000000	0.321242
1389.000000	0.321057
1390.000000	0.320982
1391.000000	0.320575
1392.000000	0.320066
1393.000000	0.319513
1394.000000	0.318759
1395.000000	0.318140
1396.000000	0.317624
1397.000000	0.317003
1398.000000	0.316280
1399.000000	0.315580
1400.000000	0.314743
1401.000000	0.314121
1402.000000	0.313691
1403.000000	0.313144
1404.000000	0.312649
1405.000000	0.312056
1406.000000	0.311249
1407.000000	0.310547
1408.000000	0.309922
1409.000000	0.309377
1410.000000	0.308821
1411.000000	0.308213
1412.000000	0.307641
1413.000000	0.307164
1414.000000	0.306760
1415.000000	0.306414
1416.000000	0.306082
1417.000000	0.305814
1418.000000	0.305549
1419.000000	0.305389
1420.000000	0.305185
1421.000000	0.304841
1422.000000	0.304566
1423.000000	0.304434
1424.000000	0.304028
1425.000000	0.303570
1426.000000	0.303179
1427.000000	0.302771
1428.000000	0.302461
1429.000000	0.302273
1430.000000	0.301990
1431.000000	0.301569
1432.000000	0.301271
1433.000000	0.301032
1434.000000	0.300861
1435.000000	0.300885
1436.000000	0.300908
1437.000000	0.300871
1438.000000	0.300957
1439.000000	0.301234
1440.000000	0.301433
1441.000000	0.301672
1442.000000	0.302030
1443.000000	0.302393
1444.000000	0.302672
1445.000000	0.303069
1446.000000	0.303491
1447.000000	0.303775
1448.000000	0.304072
1449.000000	0.304384
1450.000000	0.304576
1451.000000	0.304757
1452.000000	0.304856
1453.000000	0.304897
1454.000000	0.305018
1455.000000	0.305148
1456.000000	0.305256
1457.000000	0.305358
1458.000000	0.305376
1459.000000	0.305412
1460.000000	0.305455
1461.000000	0.305398
1462.000000	0.305368
1463.000000	0.305164
1464.000000	0.304988
1465.000000	0.305137
1466.000000	0.305174
1467.000000	0.305199
1468.000000	0.305324
1469.000000	0.305296
1470.000000	0.305288
1471.000000	0.305438
1472.000000	0.305567
1473.000000	0.305791
1474.000000	0.305911
1475.000000	0.306117
1476.000000	0.306313
1477.000000	0.306415
1478.000000	0.306698
1479.000000	0.306889
1480.000000	0.306948
1481.000000	0.307099
1482.000000	0.307373
1483.000000	0.307558
1484.000000	0.307725
1485.000000	0.307939
1486.000000	0.308098
1487.000000	0.308296
1488.000000	0.308578
1489.000000	0.308854
1490.000000	0.309007
1491.000000	0.309197
1492.000000	0.309383
1493.000000	0.309578
1494.000000	0.309742
1495.000000	0.309880
1496.000000	0.309967
1497.000000	0.310110
1498.000000	0.310280
1499.000000	0.310416
1500.000000	0.310583
1501.000000	0.310815
1502.000000	0.311024
1503.000000	0.311260
1504.000000	0.311560
1505.000000	0.311781
1506.000000	0.311874
1507.000000	0.311934
1508.000000	0.312043
1509.000000	0.312104
1510.000000	0.312192
1511.000000	0.312389
1512.000000	0.312523
1513.000000	0.312683
1514.000000	0.312840
1515.000000	0.312851
1516.000000	0.313002
1517.000000	0.313078
1518.000000	0.313068
1519.000000	0.313165
1520.000000	0.313164
1521.000000	0.313146
1522.000000	0.313206
1523.000000	0.313305
1524.000000	0.313476
1525.000000	0.313530
1526.000000	0.313582
1527.000000	0.313680
1528.000000	0.313678
1529.000000	0.313732
1530.000000	0.313842
1531.000000	0.313956
1532.000000	0.314060
1533.000000	0.314153
1534.000000	0.314232
1535.000000	0.314312
1536.000000	0.314251
1537.000000	0.314272
1538.000000	0.314287
1539.000000	0.314193
1540.000000	0.314299
1541.000000	0.314443
1542.000000	0.314604
1543.000000	0.314707
1544.000000	0.314706
1545.000000	0.314756
1546.000000	0.314720
1547.000000	0.314758
1548.000000	0.314787
1549.000000	0.314696
1550.000000	0.314563
1551.000000	0.314401
1552.000000	0.314439
1553.000000	0.314481
1554.000000	0.314501
1555.000000	0.314633
1556.000000	0.314551
1557.000000	0.314429
1558.000000	0.314448
1559.000000	0.314472
1560.000000	0.314468
1561.000000	0.314626
1562.000000	0.314645
1563.000000	0.314576
1564.000000	0.314609
1565.000000	0.314656
1566.000000	0.314611
1567.000000	0.314687
1568.000000	0.314715
1569.000000	0.314720
1570.000000	0.314755
1571.000000	0.314809
1572.000000	0.314814
1573.000000	0.314856
1574.000000	0.314816
1575.000000	0.314689
1576.000000	0.314657
1577.000000	0.314573
1578.000000	0.314532
1579.000000	0.314654
1580.000000	0.314713
1581.000000	0.314818
1582.000000	0.314877
1583.000000	0.314898
1584.000000	0.314881
1585.000000	0.314913
1586.000000	0.314950
1587.000000	0.314966
1588.000000	0.315018
1589.000000	0.315094
1590.000000	0.315172
1591.000000	0.315331
1592.000000	0.315414
1593.000000	0.315508
1594.000000	0.315516
1595.000000	0.315468
1596.000000	0.315482
1597.000000	0.315576
1598.000000	0.315509
1599.000000	0.315404
1600.000000	0.315277
1601.000000	0.315088
1602.000000	0.314960
1603.000000	0.314915
1604.000000	0.314826
1605.000000	0.314702
1606.000000	0.314638
1607.000000	0.314709
1608.000000	0.314702
1609.000000	0.314727
1610.000000	0.314738
1611.000000	0.314746
1612.000000	0.314728
1613.000000	0.314798
1614.000000	0.314830
1615.000000	0.314889
1616.000000	0.314924
1617.000000	0.314891
1618.000000	0.314912
1619.000000	0.314918
1620.000000	0.314913
1621.000000	0.314984
1622.000000	0.315089
1623.000000	0.315134
1624.000000	0.315163
1625.000000	0.315029
1626.000000	0.315042
1627.000000	0.315130
1628.000000	0.315203
1629.000000	0.315383
1630.000000	0.315551
1631.000000	0.315555
1632.000000	0.315649
1633.000000	0.315954
1634.000000	0.316012
1635.000000	0.315957
1636.000000	0.315977
1637.000000	0.315891
1638.000000	0.315860
1639.000000	0.315969
1640.000000	0.316032
1641.000000	0.316142
1642.000000	0.316244
1643.000000	0.316425
1644.000000	0.316511
1645.000000	0.316553
1646.000000	0.316542
1647.000000	0.316506
1648.000000	0.316445
1649.000000	0.316366
1650.000000	0.316421
1651.000000	0.316606
1652.000000	0.316657
1653.000000	0.316688
1654.000000	0.316755
1655.000000	0.316657
1656.000000	0.316589
1657.000000	0.316669
1658.000000	0.316669
1659.000000	0.316699
1660.000000	0.316796
1661.000000	0.316863
1662.000000	0.316911
1663.000000	0.316971
1664.000000	0.316911
1665.000000	0.316785
1666.000000	0.316756
1667.000000	0.316521
1668.000000	0.316585
1669.000000	0.316845
1670.000000	0.316843
1671.000000	0.316969
1672.000000	0.317100
1673.000000	0.317045
1674.000000	0.317269
1675.000000	0.317504
1676.000000	0.317662
1677.000000	0.317750
1678.000000	0.317770
1679.000000	0.317813
1680.000000	0.317843
1681.000000	0.317948
1682.000000	0.318120
1683.000000	0.318154
1684.000000	0.318066
1685.000000	0.318027
1686.000000	0.317927
1687.000000	0.317957
1688.000000	0.318054
1689.000000	0.318084
1690.000000	0.318137
1691.000000	0.318266
1692.000000	0.318262
1693.000000	0.318350
1694.000000	0.318479
1695.000000	0.318398
1696.000000	0.318325
1697.000000	0.318210
1698.000000	0.318051
1699.000000	0.317962
1700.000000	0.317890
1701.000000	0.317903
1702.000000	0.317800
1703.000000	0.317670
1704.000000	0.317621
1705.000000	0.317600
1706.000000	0.317655
1707.000000	0.317644
1708.000000	0.317576
1709.000000	0.317531
1710.000000	0.317494
1711.000000	0.317556
1712.000000	0.317854
1713.000000	0.317923
1714.000000	0.317944
1715.000000	0.317962
1716.000000	0.317815
1717.000000	0.317803
1718.000000	0.317911
1719.000000	0.317883
1720.000000	0.317819
1721.000000	0.317859
1722.000000	0.317906
1723.000000	0.317930
1724.000000	0.318123
1725.000000	0.318156
1726.000000	0.317904
1727.000000	0.317845
1728.000000	0.317799
1729.000000	0.317651
1730.000000	0.317597
1731.000000	0.317623
1732.000000	0.317672
1733.000000	0.317735
1734.000000	0.317771
1735.000000	0.317813
1736.000000	0.317770
1737.000000	0.317742
1738.000000	0.317790
1739.000000	0.317808
1740.000000	0.317738
1741.000000	0.317690
1742.000000	0.317703
1743.000000	0.317724
1744.000000	0.317675
1745.000000	0.317690
1746.000000	0.317775
1747.000000	0.317783
1748.000000	0.317708
1749.000000	0.317481
1750.000000	0.317371
1751.000000	0.317450
1752.000000	0.317566
1753.000000	0.317672
1754.000000	0.317750
1755.000000	0.317740
1756.000000	0.317721
1757.000000	0.317618
1758.000000	0.317688
1759.000000	0.317893
1760.000000	0.317962
1761.000000	0.318081
1762.000000	0.318084
1763.000000	0.317886
1764.000000	0.317797
1765.000000	0.317621
1766.000000	0.317641
1767.000000	0.317779
1768.000000	0.317733
1769.000000	0.317856
1770.000000	0.317872
1771.000000	0.317628
1772.000000	0.317507
1773.000000	0.317330
1774.000000	0.317317
1775.000000	0.317416
1776.000000	0.317564
1777.000000	0.317943
1778.000000	0.317969
1779.000000	0.317811
1780.000000	0.317757
1781.000000	0.317452
1782.000000	0.317530
1783.000000	0.317958
1784.000000	0.318098
1785.000000	0.318174
1786.000000	0.317944
1787.000000	0.317767
1788.000000	0.317818
1789.000000	0.317634
1790.000000	0.317988
1791.000000	0.318002
1792.000000	0.317922
1793.000000	0.317916
1794.000000	0.317736
1795.000000	0.317653
1796.000000	0.317664
1797.000000	0.317731
1798.000000	0.317805
1799.000000	0.317879
1800.000000	0.318157
1801.000000	0.318288
1802.000000	0.318159
1803.000000	0.317394
1804.000000	0.317680
1805.000000	0.318667
1806.000000	0.319405
1807.000000	0.321046
1808.000000	0.321695
1809.000000	0.322247
1810.000000	0.321748
1811.000000	0.321411
1812.000000	0.320484
1813.000000	0.320025
1814.000000	0.319653
1815.000000	0.319122
1816.000000	0.318234
1817.000000	0.317776
1818.000000	0.317072
1819.000000	0.317583
1820.000000	0.317784
1821.000000	0.318306
1822.000000	0.318123
1823.000000	0.316997
1824.000000	0.316557
1825.000000	0.315396
1826.000000	0.315645
1827.000000	0.316472
1828.000000	0.318509
1829.000000	0.319374
1830.000000	0.320057
1831.000000	0.320270
1832.000000	0.319141
1833.000000	0.318770
1834.000000	0.318897
1835.000000	0.318587
1836.000000	0.317702
1837.000000	0.317178
1838.000000	0.316504
1839.000000	0.316041
1840.000000	0.315529
1841.000000	0.315733
1842.000000	0.315764
1843.000000	0.315899
1844.000000	0.316027
1845.000000	0.315850
1846.000000	0.316284
1847.000000	0.316948
1848.000000	0.317620
1849.000000	0.318635
1850.000000	0.319681
1851.000000	0.319913
1852.000000	0.319685
1853.000000	0.319162
1854.000000	0.317543
1855.000000	0.316545
1856.000000	0.315439
1857.000000	0.314263
1858.000000	0.313672
1859.000000	0.313065
1860.000000	0.312423
1861.000000	0.312297
1862.000000	0.312369
1863.000000	0.313305
1864.000000	0.313435
1865.000000	0.313439
1866.000000	0.313370
1867.000000	0.313063
1868.000000	0.312255
1869.000000	0.311522
1870.000000	0.310741
1871.000000	0.309611
1872.000000	0.308213
1873.000000	0.306986
1874.000000	0.305593
1875.000000	0.304751
1876.000000	0.304096
1877.000000	0.302912
1878.000000	0.301935
1879.000000	0.300863
1880.000000	0.299395
1881.000000	0.297685
1882.000000	0.295516
1883.000000	0.293433
1884.000000	0.291810
1885.000000	0.290033
1886.000000	0.288547
1887.000000	0.287807
1888.000000	0.286350
1889.000000	0.284734
1890.000000	0.282806
1891.000000	0.280388
1892.000000	0.278354
1893.000000	0.275862
1894.000000	0.273380
1895.000000	0.270953
1896.000000	0.268844
1897.000000	0.266217
1898.000000	0.263689
1899.000000	0.261402
1900.000000	0.258451
1901.000000	0.255715
1902.000000	0.253844
1903.000000	0.251848
1904.000000	0.250274
1905.000000	0.249249
1906.000000	0.247765
1907.000000	0.245965
1908.000000	0.244398
1909.000000	0.243213
1910.000000	0.242221
1911.000000	0.241891
1912.000000	0.241171
1913.000000	0.240289
1914.000000	0.239955
1915.000000	0.239430
1916.000000	0.238906
1917.000000	0.238405
1918.000000	0.238270
1919.000000	0.237558
1920.000000	0.236836
1921.000000	0.236967
1922.000000	0.237262
1923.000000	0.237433
1924.000000	0.237258
1925.000000	0.237104
1926.000000	0.236551
1927.000000	0.235792
1928.000000	0.235667
1929.000000	0.236127
1930.000000	0.236346
1931.000000	0.236501
1932.000000	0.237264
1933.000000	0.237865
1934.000000	0.238091
1935.000000	0.238778
1936.000000	0.239239
1937.000000	0.239018
1938.000000	0.238639
1939.000000	0.238548
1940.000000	0.238230
1941.000000	0.238646
1942.000000	0.239343
1943.000000	0.240324
1944.000000	0.241167
1945.000000	0.240825
1946.000000	0.241015
1947.000000	0.241146
1948.000000	0.240420
1949.000000	0.239985
1950.000000	0.239610
1951.000000	0.239363
1952.000000	0.239061
1953.000000	0.239022
1954.000000	0.239671
1955.000000	0.240575
1956.000000	0.240600
1957.000000	0.240673
1958.000000	0.240579
1959.000000	0.240110
1960.000000	0.240013
1961.000000	0.240164
1962.000000	0.240057
1963.000000	0.240130
1964.000000	0.239581
1965.000000	0.239246
1966.000000	0.239223
1967.000000	0.239098
1968.000000	0.239601
1969.000000	0.239856
1970.000000	0.239730
1971.000000	0.240102
1972.000000	0.240902
1973.000000	0.241147
1974.000000	0.241156
1975.000000	0.241549
1976.000000	0.241941
1977.000000	0.242095
1978.000000	0.242939
1979.000000	0.244096
1980.000000	0.244901
1981.000000	0.244817
1982.000000	0.244582
1983.000000	0.244750
1984.000000	0.244761
1985.000000	0.244594
1986.000000	0.245061
1987.000000	0.246039
1988.000000	0.246491
1989.000000	0.247454
1990.000000	0.248342
1991.000000	0.248482
1992.000000	0.248470
1993.000000	0.248402
1994.000000	0.249306
1995.000000	0.250237
1996.000000	0.251119
1997.000000	0.251966
1998.000000	0.252746
1999.000000	0.253371
2000.000000	0.253760
2001.000000	0.254800
2002.000000	0.255525
2003.000000	0.256046
2004.000000	0.256571
2005.000000	0.256420
2006.000000	0.256812
2007.000000	0.257360
2008.000000	0.257618
2009.000000	0.258105
2010.000000	0.258426
2011.000000	0.257886
2012.000000	0.258014
2013.000000	0.258513
2014.000000	0.258708
2015.000000	0.259218
2016.000000	0.260189
2017.000000	0.260684
2018.000000	0.260865
2019.000000	0.260932
2020.000000	0.260649
2021.000000	0.261045
2022.000000	0.262001
2023.000000	0.262728
2024.000000	0.263804
2025.000000	0.264758
2026.000000	0.265684
2027.000000	0.265842
2028.000000	0.266566
2029.000000	0.267324
2030.000000	0.267763
2031.000000	0.268449
2032.000000	0.268507
2033.000000	0.268651
2034.000000	0.268740
2035.000000	0.268372
2036.000000	0.268521
2037.000000	0.269377
2038.000000	0.269651
2039.000000	0.269742
2040.000000	0.270457
2041.000000	0.270607
2042.000000	0.270879
2043.000000	0.271581
2044.000000	0.272271
2045.000000	0.273132
2046.000000	0.273367
2047.000000	0.273373
2048.000000	0.272919
2049.000000	0.272909
2050.000000	0.271955
2051.000000	0.272091
2052.000000	0.273005
2053.000000	0.273599
2054.000000	0.274985
2055.000000	0.275795
2056.000000	0.276313
2057.000000	0.276596
2058.000000	0.276167
2059.000000	0.276666
2060.000000	0.276694
2061.000000	0.276298
2062.000000	0.276504
2063.000000	0.276916
2064.000000	0.277105
2065.000000	0.278018
2066.000000	0.278406
2067.000000	0.278630
2068.000000	0.278961
2069.000000	0.279224
2070.000000	0.279901
2071.000000	0.280210
2072.000000	0.280226
2073.000000	0.280298
2074.000000	0.280033
2075.000000	0.280019
2076.000000	0.279948
2077.000000	0.280307
2078.000000	0.280967
2079.000000	0.281502
2080.000000	0.282434
2081.000000	0.282999
2082.000000	0.283362
2083.000000	0.283878
2084.000000	0.284010
2085.000000	0.283674
2086.000000	0.283262
2087.000000	0.282733
2088.000000	0.282210
2089.000000	0.282593
2090.000000	0.282910
2091.000000	0.283451
2092.000000	0.284123
2093.000000	0.285545
2094.000000	0.286019
2095.000000	0.286178
2096.000000	0.286576
2097.000000	0.286657
2098.000000	0.286220
2099.000000	0.286608
2100.000000	0.287093
2101.000000	0.286997
2102.000000	0.286687
2103.000000	0.286489
2104.000000	0.286103
2105.000000	0.286080
2106.000000	0.286339
2107.000000	0.286643
2108.000000	0.287303
2109.000000	0.287626
2110.000000	0.287446
2111.000000	0.287778
2112.000000	0.288165
2113.000000	0.288354
2114.000000	0.289171
2115.000000	0.289724
2116.000000	0.289543
2117.000000	0.288588
2118.000000	0.287870
2119.000000	0.287644
2120.000000	0.287565
2121.000000	0.288082
2122.000000	0.288237
2123.000000	0.288112
2124.000000	0.288422
2125.000000	0.288844
2126.000000	0.289658
2127.000000	0.291614
2128.000000	0.292454
2129.000000	0.293090
2130.000000	0.292964
2131.000000	0.292529
2132.000000	0.291651
2133.000000	0.291041
2134.000000	0.291597
2135.000000	0.292406
2136.000000	0.293293
2137.000000	0.293706
2138.000000	0.294349
2139.000000	0.294519
2140.000000	0.293759
2141.000000	0.293684
2142.000000	0.293974
2143.000000	0.293481
2144.000000	0.293117
2145.000000	0.292593
2146.000000	0.291120
2147.000000	0.291257
2148.000000	0.290696
2149.000000	0.290212
2150.000000	0.290883
2151.000000	0.290894
2152.000000	0.291560
2153.000000	0.292155
2154.000000	0.292473
2155.000000	0.292564
2156.000000	0.292682
2157.000000	0.292758
2158.000000	0.292550
2159.000000	0.291826
2160.000000	0.291708
2161.000000	0.291866
2162.000000	0.292057
2163.000000	0.292801
2164.000000	0.292843
2165.000000	0.292223
2166.000000	0.291768
2167.000000	0.291892
2168.000000	0.291374
2169.000000	0.291176
2170.000000	0.291077
2171.000000	0.290836
2172.000000	0.290078
2173.000000	0.290046
2174.000000	0.290610
2175.000000	0.290681
2176.000000	0.290735
2177.000000	0.290914
2178.000000	0.291182
2179.000000	0.291371
2180.000000	0.291724
2181.000000	0.292033
2182.000000	0.292116
2183.000000	0.290779
2184.000000	0.289948
2185.000000	0.289546
2186.000000	0.288930
2187.000000	0.289159
2188.000000	0.289752
2189.000000	0.290258
2190.000000	0.290818
2191.000000	0.292276
2192.000000	0.292781
2193.000000	0.292594
2194.000000	0.292771
2195.000000	0.293108
2196.000000	0.292615
2197.000000	0.292109
2198.000000	0.291490
2199.000000	0.288950
2200.000000	0.288120
2201.000000	0.288348
2202.000000	0.288184
2203.000000	0.288405
2204.000000	0.289626
2205.000000	0.288755
2206.000000	0.288498
2207.000000	0.288644
2208.000000	0.289586
2209.000000	0.288574
2210.000000	0.287719
2211.000000	0.287652
2212.000000	0.287065
2213.000000	0.287261
2214.000000	0.289336
2215.000000	0.291071
2216.000000	0.292479
2217.000000	0.293297
2218.000000	0.294959
2219.000000	0.295289
2220.000000	0.294436
2221.000000	0.293598
2222.000000	0.292220
2223.000000	0.291176
2224.000000	0.288439
2225.000000	0.288425
2226.000000	0.291573
2227.000000	0.293731
2228.000000	0.295709
2229.000000	0.295851
2230.000000	0.291801
2231.000000	0.288093
2232.000000	0.285053
2233.000000	0.283251
2234.000000	0.285416
2235.000000	0.287233
2236.000000	0.288542
2237.000000	0.291923
2238.000000	0.292624
2239.000000	0.290005
2240.000000	0.290715
2241.000000	0.293665
2242.000000	0.293422
2243.000000	0.292738
2244.000000	0.291833
2245.000000	0.286887
2246.000000	0.285565
2247.000000	0.288215
2248.000000	0.288656
2249.000000	0.288908
2250.000000	0.289458
2251.000000	0.288823
2252.000000	0.285423
2253.000000	0.285659
2254.000000	0.285828
2255.000000	0.285591
2256.000000	0.287326
2257.000000	0.288145
2258.000000	0.286994
2259.000000	0.286581
2260.000000	0.287330
2261.000000	0.287004
2262.000000	0.286439
2263.000000	0.286086
2264.000000	0.284931
2265.000000	0.284733
2266.000000	0.285462
2267.000000	0.284591
2268.000000	0.283160
2269.000000	0.282334
2270.000000	0.281475
2271.000000	0.280221
2272.000000	0.279283
2273.000000	0.278855
2274.000000	0.276925
2275.000000	0.275106
2276.000000	0.275125
2277.000000	0.273375
2278.000000	0.267843
2279.000000	0.267390
2280.000000	0.266969
2281.000000	0.267169
2282.000000	0.270809
2283.000000	0.273129
2284.000000	0.275397
2285.000000	0.275287
2286.000000	0.273034
2287.000000	0.272648
2288.000000	0.271667
2289.000000	0.270844
2290.000000	0.271783
2291.000000	0.272968
2292.000000	0.273210
2293.000000	0.272899
2294.000000	0.272970
2295.000000	0.272194
2296.000000	0.272489
2297.000000	0.274602
2298.000000	0.274716
2299.000000	0.274501
2300.000000	0.273912
2301.000000	0.271087
2302.000000	0.270117
2303.000000	0.269218
2304.000000	0.269140
2305.000000	0.270645
2306.000000	0.271881
2307.000000	0.273107
2308.000000	0.276222
2309.000000	0.277791
2310.000000	0.276909
2311.000000	0.276317
2312.000000	0.274574
2313.000000	0.274858
2314.000000	0.275268
2315.000000	0.274848
2316.000000	0.275044
2317.000000	0.274353
2318.000000	0.275595
2319.000000	0.276293
2320.000000	0.276899
2321.000000	0.276772
2322.000000	0.275058
2323.000000	0.274880
2324.000000	0.274854
2325.000000	0.275426
2326.000000	0.275267
2327.000000	0.273275
2328.000000	0.272251
2329.000000	0.270805
2330.000000	0.269515
2331.000000	0.271432
2332.000000	0.271405
2333.000000	0.270799
2334.000000	0.271469
2335.000000	0.271975
2336.000000	0.271894
2337.000000	0.271955
2338.000000	0.272754
2339.000000	0.272127
2340.000000	0.269551
2341.000000	0.267688
2342.000000	0.264933
2343.000000	0.263133
2344.000000	0.262614
2345.000000	0.261635
2346.000000	0.261960
2347.000000	0.261894
2348.000000	0.261071
2349.000000	0.259896
2350.000000	0.260893
2351.000000	0.259345
2352.000000	0.259274
2353.000000	0.257868
2354.000000	0.255470
2355.000000	0.255531
2356.000000	0.256590
2357.000000	0.257347
2358.000000	0.257495
2359.000000	0.257788
2360.000000	0.256292
2361.000000	0.256600
2362.000000	0.252975
2363.000000	0.249531
2364.000000	0.248537
2365.000000	0.244855
2366.000000	0.248718
2367.000000	0.252205
2368.000000	0.254337
2369.000000	0.258632
2370.000000	0.259437
2371.000000	0.260142
2372.000000	0.257449
2373.000000	0.252654
2374.000000	0.248295
2375.000000	0.243898
2376.000000	0.244368
2377.000000	0.245922
2378.000000	0.246452
2379.000000	0.247625
2380.000000	0.240346
2381.000000	0.235119
2382.000000	0.233741
2383.000000	0.228302
2384.000000	0.230803
2385.000000	0.233422
2386.000000	0.231631
2387.000000	0.232579
2388.000000	0.234025
2389.000000	0.236467
2390.000000	0.237942
2391.000000	0.239193
2392.000000	0.239372
2393.000000	0.236889
2394.000000	0.240306
2395.000000	0.244141
2396.000000	0.241924
2397.000000	0.240328
2398.000000	0.239479
2399.000000	0.235463
2400.000000	0.233708
2401.000000	0.238253
2402.000000	0.237584
2403.000000	0.237240
2404.000000	0.235848
2405.000000	0.227806
2406.000000	0.222131
2407.000000	0.215367
2408.000000	0.219292
2409.000000	0.227940
2410.000000	0.232930
2411.000000	0.235941
2412.000000	0.230360
2413.000000	0.228380
2414.000000	0.226136
2415.000000	0.224618
2416.000000	0.228005
2417.000000	0.221014
2418.000000	0.210528
2419.000000	0.208383
2420.000000	0.205379
2421.000000	0.204696
2422.000000	0.211663
2423.000000	0.218847
2424.000000	0.232452
2425.000000	0.247175
2426.000000	0.254647
2427.000000	0.253009
2428.000000	0.241171
2429.000000	0.228709
2430.000000	0.218463
2431.000000	0.210768
2432.000000	0.203335
2433.000000	0.204656
2434.000000	0.200188
2435.000000	0.188217
2436.000000	0.198437
2437.000000	0.201104
2438.000000	0.202162
2439.000000	0.216301
2440.000000	0.211349
2441.000000	0.204144
2442.000000	0.199011
2443.000000	0.189139
2444.000000	0.186664
2445.000000	0.186244
2446.000000	0.194367
2447.000000	0.202780
2448.000000	0.208361
2449.000000	0.225247
2450.000000	0.233794
2451.000000	0.229768
2452.000000	0.242584
2453.000000	0.250382
2454.000000	0.234376
2455.000000	0.237881
2456.000000	0.239428
2457.000000	0.213467
2458.000000	0.204376
2459.000000	0.191782
2460.000000	0.165327
2461.000000	0.162781
2462.000000	0.178001
2463.000000	0.210540
2464.000000	0.243960
2465.000000	0.253575
2466.000000	0.243458
2467.000000	0.227850
2468.000000	0.221015
2469.000000	0.221529
2470.000000	0.229938
2471.000000	0.234812
2472.000000	0.233671
2473.000000	0.229803
2474.000000	0.218580
2475.000000	0.220472
2476.000000	0.228174
2477.000000	0.235368
2478.000000	0.274593
2479.000000	0.296576
2480.000000	0.292227
2481.000000	0.319314
2482.000000	0.316142
2483.000000	0.261366
2484.000000	0.234431
2485.000000	0.211711
2486.000000	0.178647
2487.000000	0.195235
2488.000000	0.199350
2489.000000	0.184178
2490.000000	0.176936
2491.000000	0.189337
2492.000000	0.194654
2493.000000	0.179659
2494.000000	0.214331
2495.000000	0.294795
2496.000000	0.330227
2497.000000	0.398197
2498.000000	0.417975
2499.000000	0.379647
2500.000000	0.359981
