# Wavelength	NAu-1-50_HEX-20_FV7-30_00002.asd.rts.txt
350.000000	0.137038
351.000000	0.146276
352.000000	0.152504
353.000000	0.142476
354.000000	0.121381
355.000000	0.122915
356.000000	0.130305
357.000000	0.135302
358.000000	0.131714
359.000000	0.130646
360.000000	0.129958
361.000000	0.125504
362.000000	0.124324
363.000000	0.127740
364.000000	0.132964
365.000000	0.129461
366.000000	0.128162
367.000000	0.131512
368.000000	0.135595
369.000000	0.136933
370.000000	0.135279
371.000000	0.132250
372.000000	0.133674
373.000000	0.133292
374.000000	0.128888
375.000000	0.131374
376.000000	0.132238
377.000000	0.130270
378.000000	0.130902
379.000000	0.136425
380.000000	0.139926
381.000000	0.134493
382.000000	0.137510
383.000000	0.140559
384.000000	0.138420
385.000000	0.141992
386.000000	0.145211
387.000000	0.146345
388.000000	0.147743
389.000000	0.148201
390.000000	0.148751
391.000000	0.150776
392.000000	0.153075
393.000000	0.154816
394.000000	0.155630
395.000000	0.156009
396.000000	0.157724
397.000000	0.160386
398.000000	0.160714
399.000000	0.161469
400.000000	0.163034
401.000000	0.164706
402.000000	0.165241
403.000000	0.166144
404.000000	0.168569
405.000000	0.169965
406.000000	0.170637
407.000000	0.171327
408.000000	0.173406
409.000000	0.174987
410.000000	0.175823
411.000000	0.176539
412.000000	0.177527
413.000000	0.178731
414.000000	0.179997
415.000000	0.181483
416.000000	0.182206
417.000000	0.181969
418.000000	0.182295
419.000000	0.183156
420.000000	0.183954
421.000000	0.183418
422.000000	0.184367
423.000000	0.185640
424.000000	0.185240
425.000000	0.185525
426.000000	0.185649
427.000000	0.185004
428.000000	0.184953
429.000000	0.185133
430.000000	0.185295
431.000000	0.185325
432.000000	0.185072
433.000000	0.184749
434.000000	0.184829
435.000000	0.185348
436.000000	0.185402
437.000000	0.184442
438.000000	0.184390
439.000000	0.184403
440.000000	0.184080
441.000000	0.183843
442.000000	0.183693
443.000000	0.183463
444.000000	0.182963
445.000000	0.182914
446.000000	0.183255
447.000000	0.183591
448.000000	0.184064
449.000000	0.184718
450.000000	0.185641
451.000000	0.187005
452.000000	0.188873
453.000000	0.191061
454.000000	0.193256
455.000000	0.195310
456.000000	0.197583
457.000000	0.200458
458.000000	0.203095
459.000000	0.205345
460.000000	0.207268
461.000000	0.208879
462.000000	0.210623
463.000000	0.212454
464.000000	0.213915
465.000000	0.214902
466.000000	0.215684
467.000000	0.216929
468.000000	0.218179
469.000000	0.219235
470.000000	0.220092
471.000000	0.220429
472.000000	0.220937
473.000000	0.221938
474.000000	0.222518
475.000000	0.222918
476.000000	0.223400
477.000000	0.223972
478.000000	0.224633
479.000000	0.225258
480.000000	0.225422
481.000000	0.225992
482.000000	0.226738
483.000000	0.227215
484.000000	0.228036
485.000000	0.228797
486.000000	0.229404
487.000000	0.229806
488.000000	0.230244
489.000000	0.230761
490.000000	0.231250
491.000000	0.231722
492.000000	0.232352
493.000000	0.233170
494.000000	0.233927
495.000000	0.234414
496.000000	0.234651
497.000000	0.235410
498.000000	0.236264
499.000000	0.237035
500.000000	0.237629
501.000000	0.238365
502.000000	0.239120
503.000000	0.239526
504.000000	0.240223
505.000000	0.241083
506.000000	0.241856
507.000000	0.242430
508.000000	0.243186
509.000000	0.244154
510.000000	0.244709
511.000000	0.245373
512.000000	0.246250
513.000000	0.247092
514.000000	0.247837
515.000000	0.248597
516.000000	0.249466
517.000000	0.250330
518.000000	0.251179
519.000000	0.251955
520.000000	0.252743
521.000000	0.253669
522.000000	0.254700
523.000000	0.255525
524.000000	0.256376
525.000000	0.257321
526.000000	0.258401
527.000000	0.259416
528.000000	0.260356
529.000000	0.261321
530.000000	0.262388
531.000000	0.263464
532.000000	0.264432
533.000000	0.265499
534.000000	0.266546
535.000000	0.267550
536.000000	0.268631
537.000000	0.269683
538.000000	0.270726
539.000000	0.271811
540.000000	0.272844
541.000000	0.273881
542.000000	0.275000
543.000000	0.276055
544.000000	0.277148
545.000000	0.278247
546.000000	0.279294
547.000000	0.280409
548.000000	0.281595
549.000000	0.282670
550.000000	0.283719
551.000000	0.284791
552.000000	0.285860
553.000000	0.286824
554.000000	0.287828
555.000000	0.288944
556.000000	0.289911
557.000000	0.290831
558.000000	0.291848
559.000000	0.292779
560.000000	0.293673
561.000000	0.294593
562.000000	0.295459
563.000000	0.296318
564.000000	0.297242
565.000000	0.298164
566.000000	0.299020
567.000000	0.299810
568.000000	0.300526
569.000000	0.301199
570.000000	0.301883
571.000000	0.302577
572.000000	0.303268
573.000000	0.303904
574.000000	0.304491
575.000000	0.305111
576.000000	0.305706
577.000000	0.306273
578.000000	0.306873
579.000000	0.307413
580.000000	0.307888
581.000000	0.308318
582.000000	0.308781
583.000000	0.309131
584.000000	0.309449
585.000000	0.309948
586.000000	0.310367
587.000000	0.310668
588.000000	0.310901
589.000000	0.311273
590.000000	0.311639
591.000000	0.311909
592.000000	0.312194
593.000000	0.312437
594.000000	0.312627
595.000000	0.312807
596.000000	0.312990
597.000000	0.313217
598.000000	0.313422
599.000000	0.313561
600.000000	0.313683
601.000000	0.313767
602.000000	0.313902
603.000000	0.314004
604.000000	0.314060
605.000000	0.314148
606.000000	0.314308
607.000000	0.314482
608.000000	0.314531
609.000000	0.314577
610.000000	0.314626
611.000000	0.314662
612.000000	0.314741
613.000000	0.314826
614.000000	0.314930
615.000000	0.315062
616.000000	0.315086
617.000000	0.315003
618.000000	0.315068
619.000000	0.315160
620.000000	0.315194
621.000000	0.315169
622.000000	0.315233
623.000000	0.315315
624.000000	0.315352
625.000000	0.315478
626.000000	0.315581
627.000000	0.315631
628.000000	0.315739
629.000000	0.315940
630.000000	0.316067
631.000000	0.316140
632.000000	0.316225
633.000000	0.316339
634.000000	0.316460
635.000000	0.316553
636.000000	0.316661
637.000000	0.316793
638.000000	0.316972
639.000000	0.317051
640.000000	0.317117
641.000000	0.317281
642.000000	0.317427
643.000000	0.317552
644.000000	0.317684
645.000000	0.317773
646.000000	0.317886
647.000000	0.318045
648.000000	0.318237
649.000000	0.318437
650.000000	0.318613
651.000000	0.318787
652.000000	0.318948
653.000000	0.319129
654.000000	0.319299
655.000000	0.319561
656.000000	0.319875
657.000000	0.320130
658.000000	0.320359
659.000000	0.320605
660.000000	0.320870
661.000000	0.321164
662.000000	0.321332
663.000000	0.321484
664.000000	0.321779
665.000000	0.322103
666.000000	0.322382
667.000000	0.322558
668.000000	0.322860
669.000000	0.323172
670.000000	0.323438
671.000000	0.323762
672.000000	0.324066
673.000000	0.324350
674.000000	0.324692
675.000000	0.324991
676.000000	0.325265
677.000000	0.325584
678.000000	0.325946
679.000000	0.326296
680.000000	0.326622
681.000000	0.326995
682.000000	0.327384
683.000000	0.327708
684.000000	0.328070
685.000000	0.328384
686.000000	0.328724
687.000000	0.329143
688.000000	0.329532
689.000000	0.329920
690.000000	0.330372
691.000000	0.330860
692.000000	0.331306
693.000000	0.331747
694.000000	0.332149
695.000000	0.332607
696.000000	0.333075
697.000000	0.333459
698.000000	0.333805
699.000000	0.334203
700.000000	0.334700
701.000000	0.335125
702.000000	0.335595
703.000000	0.336089
704.000000	0.336449
705.000000	0.336894
706.000000	0.337365
707.000000	0.337796
708.000000	0.338263
709.000000	0.338693
710.000000	0.339065
711.000000	0.339516
712.000000	0.339980
713.000000	0.340452
714.000000	0.340943
715.000000	0.341498
716.000000	0.342062
717.000000	0.342512
718.000000	0.342939
719.000000	0.343380
720.000000	0.343853
721.000000	0.344261
722.000000	0.344644
723.000000	0.345077
724.000000	0.345457
725.000000	0.345802
726.000000	0.346198
727.000000	0.346579
728.000000	0.347004
729.000000	0.347424
730.000000	0.347752
731.000000	0.348104
732.000000	0.348485
733.000000	0.348928
734.000000	0.349373
735.000000	0.349731
736.000000	0.350112
737.000000	0.350419
738.000000	0.350735
739.000000	0.351099
740.000000	0.351338
741.000000	0.351581
742.000000	0.351818
743.000000	0.352052
744.000000	0.352401
745.000000	0.352620
746.000000	0.352784
747.000000	0.352961
748.000000	0.353261
749.000000	0.353613
750.000000	0.353907
751.000000	0.354141
752.000000	0.354357
753.000000	0.354566
754.000000	0.354726
755.000000	0.354956
756.000000	0.355203
757.000000	0.355329
758.000000	0.355443
759.000000	0.355591
760.000000	0.355705
761.000000	0.355811
762.000000	0.355856
763.000000	0.355890
764.000000	0.356105
765.000000	0.356181
766.000000	0.356208
767.000000	0.356290
768.000000	0.356239
769.000000	0.356187
770.000000	0.356189
771.000000	0.356155
772.000000	0.356161
773.000000	0.356148
774.000000	0.356152
775.000000	0.356111
776.000000	0.356117
777.000000	0.356188
778.000000	0.356151
779.000000	0.356112
780.000000	0.356096
781.000000	0.356027
782.000000	0.355931
783.000000	0.355903
784.000000	0.355834
785.000000	0.355756
786.000000	0.355635
787.000000	0.355468
788.000000	0.355333
789.000000	0.355178
790.000000	0.354967
791.000000	0.354731
792.000000	0.354524
793.000000	0.354356
794.000000	0.354197
795.000000	0.353897
796.000000	0.353648
797.000000	0.353485
798.000000	0.353292
799.000000	0.353117
800.000000	0.352932
801.000000	0.352721
802.000000	0.352641
803.000000	0.352552
804.000000	0.352388
805.000000	0.352096
806.000000	0.351763
807.000000	0.351492
808.000000	0.351220
809.000000	0.350952
810.000000	0.350710
811.000000	0.350466
812.000000	0.350106
813.000000	0.349780
814.000000	0.349526
815.000000	0.349308
816.000000	0.349106
817.000000	0.348914
818.000000	0.348647
819.000000	0.348438
820.000000	0.348226
821.000000	0.347935
822.000000	0.347645
823.000000	0.347378
824.000000	0.347063
825.000000	0.346744
826.000000	0.346450
827.000000	0.346215
828.000000	0.346055
829.000000	0.345776
830.000000	0.345525
831.000000	0.345307
832.000000	0.344891
833.000000	0.344639
834.000000	0.344437
835.000000	0.344200
836.000000	0.343996
837.000000	0.343759
838.000000	0.343454
839.000000	0.343030
840.000000	0.342682
841.000000	0.342411
842.000000	0.342147
843.000000	0.342014
844.000000	0.341757
845.000000	0.341341
846.000000	0.341054
847.000000	0.340771
848.000000	0.340455
849.000000	0.340132
850.000000	0.339833
851.000000	0.339529
852.000000	0.339272
853.000000	0.339097
854.000000	0.338921
855.000000	0.338766
856.000000	0.338486
857.000000	0.338133
858.000000	0.337849
859.000000	0.337583
860.000000	0.337220
861.000000	0.337039
862.000000	0.336976
863.000000	0.336752
864.000000	0.336367
865.000000	0.336016
866.000000	0.335793
867.000000	0.335486
868.000000	0.335249
869.000000	0.335011
870.000000	0.334742
871.000000	0.334424
872.000000	0.334192
873.000000	0.334014
874.000000	0.333724
875.000000	0.333574
876.000000	0.333455
877.000000	0.333068
878.000000	0.332694
879.000000	0.332413
880.000000	0.332104
881.000000	0.331847
882.000000	0.331653
883.000000	0.331487
884.000000	0.331221
885.000000	0.330870
886.000000	0.330522
887.000000	0.330296
888.000000	0.330292
889.000000	0.330218
890.000000	0.329928
891.000000	0.329623
892.000000	0.329419
893.000000	0.329273
894.000000	0.329189
895.000000	0.328840
896.000000	0.328559
897.000000	0.328424
898.000000	0.328380
899.000000	0.328180
900.000000	0.327994
901.000000	0.327844
902.000000	0.327659
903.000000	0.327378
904.000000	0.327176
905.000000	0.327094
906.000000	0.326904
907.000000	0.326626
908.000000	0.326376
909.000000	0.326176
910.000000	0.325997
911.000000	0.325844
912.000000	0.325723
913.000000	0.325524
914.000000	0.325396
915.000000	0.325373
916.000000	0.325221
917.000000	0.324964
918.000000	0.324660
919.000000	0.324358
920.000000	0.324161
921.000000	0.324082
922.000000	0.324071
923.000000	0.324009
924.000000	0.323890
925.000000	0.323726
926.000000	0.323568
927.000000	0.323394
928.000000	0.323413
929.000000	0.323411
930.000000	0.323114
931.000000	0.322738
932.000000	0.322565
933.000000	0.322608
934.000000	0.322470
935.000000	0.322160
936.000000	0.321930
937.000000	0.321861
938.000000	0.321803
939.000000	0.321701
940.000000	0.321492
941.000000	0.321301
942.000000	0.321129
943.000000	0.321064
944.000000	0.320978
945.000000	0.320799
946.000000	0.320671
947.000000	0.320675
948.000000	0.320719
949.000000	0.320456
950.000000	0.320311
951.000000	0.320338
952.000000	0.320331
953.000000	0.320339
954.000000	0.320301
955.000000	0.320096
956.000000	0.319771
957.000000	0.319629
958.000000	0.319568
959.000000	0.319480
960.000000	0.319528
961.000000	0.319574
962.000000	0.319472
963.000000	0.319167
964.000000	0.319080
965.000000	0.319161
966.000000	0.319151
967.000000	0.319117
968.000000	0.319018
969.000000	0.318888
970.000000	0.318901
971.000000	0.318794
972.000000	0.318670
973.000000	0.318520
974.000000	0.318382
975.000000	0.318521
976.000000	0.318626
977.000000	0.318426
978.000000	0.318165
979.000000	0.318184
980.000000	0.318260
981.000000	0.318419
982.000000	0.318527
983.000000	0.318491
984.000000	0.318357
985.000000	0.318171
986.000000	0.318349
987.000000	0.318564
988.000000	0.318535
989.000000	0.318919
990.000000	0.318937
991.000000	0.318651
992.000000	0.318483
993.000000	0.318688
994.000000	0.318842
995.000000	0.318966
996.000000	0.319000
997.000000	0.318964
998.000000	0.318981
999.000000	0.319192
1000.000000	0.319472
1001.000000	0.319297
1002.000000	0.319351
1003.000000	0.318997
1004.000000	0.318781
1005.000000	0.319360
1006.000000	0.319592
1007.000000	0.319584
1008.000000	0.319047
1009.000000	0.319364
1010.000000	0.319685
1011.000000	0.319439
1012.000000	0.319700
1013.000000	0.319324
1014.000000	0.318777
1015.000000	0.319229
1016.000000	0.319914
1017.000000	0.320507
1018.000000	0.321135
1019.000000	0.321477
1020.000000	0.321156
1021.000000	0.320984
1022.000000	0.321319
1023.000000	0.321385
1024.000000	0.320863
1025.000000	0.321027
1026.000000	0.321202
1027.000000	0.321838
1028.000000	0.322698
1029.000000	0.322914
1030.000000	0.323368
1031.000000	0.323508
1032.000000	0.323348
1033.000000	0.323948
1034.000000	0.324071
1035.000000	0.323517
1036.000000	0.323614
1037.000000	0.324080
1038.000000	0.324248
1039.000000	0.324551
1040.000000	0.325243
1041.000000	0.325402
1042.000000	0.325625
1043.000000	0.326150
1044.000000	0.326900
1045.000000	0.327447
1046.000000	0.327519
1047.000000	0.327808
1048.000000	0.327858
1049.000000	0.327949
1050.000000	0.328277
1051.000000	0.328371
1052.000000	0.327913
1053.000000	0.328056
1054.000000	0.328640
1055.000000	0.329128
1056.000000	0.329928
1057.000000	0.330776
1058.000000	0.331059
1059.000000	0.331337
1060.000000	0.331474
1061.000000	0.331675
1062.000000	0.332268
1063.000000	0.332878
1064.000000	0.333374
1065.000000	0.333941
1066.000000	0.334475
1067.000000	0.334792
1068.000000	0.335155
1069.000000	0.335565
1070.000000	0.335981
1071.000000	0.336377
1072.000000	0.336793
1073.000000	0.337371
1074.000000	0.337966
1075.000000	0.338161
1076.000000	0.338478
1077.000000	0.338750
1078.000000	0.338844
1079.000000	0.339213
1080.000000	0.339794
1081.000000	0.340338
1082.000000	0.341145
1083.000000	0.341748
1084.000000	0.342365
1085.000000	0.342877
1086.000000	0.343321
1087.000000	0.343643
1088.000000	0.343584
1089.000000	0.343816
1090.000000	0.344038
1091.000000	0.344295
1092.000000	0.344561
1093.000000	0.345114
1094.000000	0.345710
1095.000000	0.346273
1096.000000	0.346785
1097.000000	0.347571
1098.000000	0.348059
1099.000000	0.348175
1100.000000	0.348548
1101.000000	0.348931
1102.000000	0.349280
1103.000000	0.349564
1104.000000	0.349964
1105.000000	0.350381
1106.000000	0.350846
1107.000000	0.351401
1108.000000	0.351861
1109.000000	0.352394
1110.000000	0.352809
1111.000000	0.353269
1112.000000	0.353696
1113.000000	0.354147
1114.000000	0.354602
1115.000000	0.355104
1116.000000	0.355764
1117.000000	0.356103
1118.000000	0.356246
1119.000000	0.356491
1120.000000	0.356509
1121.000000	0.356722
1122.000000	0.357115
1123.000000	0.357838
1124.000000	0.358675
1125.000000	0.359269
1126.000000	0.359887
1127.000000	0.360362
1128.000000	0.360677
1129.000000	0.360645
1130.000000	0.360972
1131.000000	0.361551
1132.000000	0.361691
1133.000000	0.361633
1134.000000	0.361927
1135.000000	0.362017
1136.000000	0.362343
1137.000000	0.363168
1138.000000	0.363584
1139.000000	0.363860
1140.000000	0.364288
1141.000000	0.364653
1142.000000	0.365008
1143.000000	0.365365
1144.000000	0.365780
1145.000000	0.366063
1146.000000	0.366057
1147.000000	0.366306
1148.000000	0.366490
1149.000000	0.366738
1150.000000	0.367073
1151.000000	0.367461
1152.000000	0.367894
1153.000000	0.368172
1154.000000	0.368370
1155.000000	0.368607
1156.000000	0.368686
1157.000000	0.368904
1158.000000	0.369234
1159.000000	0.369513
1160.000000	0.369839
1161.000000	0.370036
1162.000000	0.370253
1163.000000	0.370523
1164.000000	0.370487
1165.000000	0.370541
1166.000000	0.370806
1167.000000	0.371157
1168.000000	0.371358
1169.000000	0.371689
1170.000000	0.372004
1171.000000	0.372249
1172.000000	0.372542
1173.000000	0.372918
1174.000000	0.373204
1175.000000	0.373393
1176.000000	0.373536
1177.000000	0.373697
1178.000000	0.373930
1179.000000	0.374220
1180.000000	0.374295
1181.000000	0.374380
1182.000000	0.374471
1183.000000	0.374753
1184.000000	0.374985
1185.000000	0.375121
1186.000000	0.375402
1187.000000	0.375566
1188.000000	0.375452
1189.000000	0.375555
1190.000000	0.375938
1191.000000	0.376071
1192.000000	0.376160
1193.000000	0.376464
1194.000000	0.376683
1195.000000	0.376900
1196.000000	0.377160
1197.000000	0.377338
1198.000000	0.377442
1199.000000	0.377597
1200.000000	0.377741
1201.000000	0.377877
1202.000000	0.378232
1203.000000	0.378511
1204.000000	0.378621
1205.000000	0.378828
1206.000000	0.378908
1207.000000	0.378888
1208.000000	0.378922
1209.000000	0.379118
1210.000000	0.379174
1211.000000	0.379027
1212.000000	0.379100
1213.000000	0.379330
1214.000000	0.379524
1215.000000	0.379892
1216.000000	0.380078
1217.000000	0.380061
1218.000000	0.380108
1219.000000	0.380177
1220.000000	0.380161
1221.000000	0.380401
1222.000000	0.380533
1223.000000	0.380557
1224.000000	0.380701
1225.000000	0.380656
1226.000000	0.380667
1227.000000	0.380766
1228.000000	0.380944
1229.000000	0.381002
1230.000000	0.380976
1231.000000	0.380988
1232.000000	0.381089
1233.000000	0.381317
1234.000000	0.381690
1235.000000	0.381864
1236.000000	0.381836
1237.000000	0.381967
1238.000000	0.382051
1239.000000	0.382135
1240.000000	0.382302
1241.000000	0.382402
1242.000000	0.382536
1243.000000	0.382543
1244.000000	0.382602
1245.000000	0.382818
1246.000000	0.382741
1247.000000	0.382777
1248.000000	0.382910
1249.000000	0.382919
1250.000000	0.383081
1251.000000	0.383310
1252.000000	0.383415
1253.000000	0.383541
1254.000000	0.383569
1255.000000	0.383392
1256.000000	0.383438
1257.000000	0.383639
1258.000000	0.383762
1259.000000	0.383836
1260.000000	0.383996
1261.000000	0.384074
1262.000000	0.384122
1263.000000	0.384193
1264.000000	0.384417
1265.000000	0.384535
1266.000000	0.384420
1267.000000	0.384386
1268.000000	0.384399
1269.000000	0.384126
1270.000000	0.384090
1271.000000	0.384324
1272.000000	0.384480
1273.000000	0.384788
1274.000000	0.384905
1275.000000	0.384892
1276.000000	0.384662
1277.000000	0.384670
1278.000000	0.384630
1279.000000	0.384574
1280.000000	0.384420
1281.000000	0.384326
1282.000000	0.384257
1283.000000	0.384292
1284.000000	0.384434
1285.000000	0.384461
1286.000000	0.384368
1287.000000	0.384378
1288.000000	0.384393
1289.000000	0.384374
1290.000000	0.384366
1291.000000	0.384375
1292.000000	0.384380
1293.000000	0.384382
1294.000000	0.384407
1295.000000	0.384433
1296.000000	0.384331
1297.000000	0.384239
1298.000000	0.384301
1299.000000	0.384180
1300.000000	0.384165
1301.000000	0.384351
1302.000000	0.384360
1303.000000	0.384498
1304.000000	0.384469
1305.000000	0.384444
1306.000000	0.384314
1307.000000	0.384044
1308.000000	0.384014
1309.000000	0.384068
1310.000000	0.384054
1311.000000	0.384164
1312.000000	0.384153
1313.000000	0.384276
1314.000000	0.384327
1315.000000	0.384168
1316.000000	0.384255
1317.000000	0.384127
1318.000000	0.383916
1319.000000	0.384000
1320.000000	0.383999
1321.000000	0.383844
1322.000000	0.383703
1323.000000	0.383619
1324.000000	0.383582
1325.000000	0.383536
1326.000000	0.383511
1327.000000	0.383289
1328.000000	0.383074
1329.000000	0.382880
1330.000000	0.382638
1331.000000	0.382488
1332.000000	0.382483
1333.000000	0.382468
1334.000000	0.382654
1335.000000	0.382705
1336.000000	0.382653
1337.000000	0.382656
1338.000000	0.382589
1339.000000	0.382423
1340.000000	0.382407
1341.000000	0.382398
1342.000000	0.382215
1343.000000	0.382014
1344.000000	0.381805
1345.000000	0.381736
1346.000000	0.381840
1347.000000	0.381631
1348.000000	0.381373
1349.000000	0.381056
1350.000000	0.380860
1351.000000	0.380828
1352.000000	0.380774
1353.000000	0.380702
1354.000000	0.380524
1355.000000	0.380351
1356.000000	0.380344
1357.000000	0.380141
1358.000000	0.379951
1359.000000	0.379864
1360.000000	0.379733
1361.000000	0.379689
1362.000000	0.379536
1363.000000	0.379231
1364.000000	0.379099
1365.000000	0.378992
1366.000000	0.378824
1367.000000	0.378743
1368.000000	0.378566
1369.000000	0.378341
1370.000000	0.378048
1371.000000	0.377851
1372.000000	0.377635
1373.000000	0.377257
1374.000000	0.377056
1375.000000	0.376730
1376.000000	0.376354
1377.000000	0.376142
1378.000000	0.375569
1379.000000	0.374820
1380.000000	0.374333
1381.000000	0.373751
1382.000000	0.373088
1383.000000	0.372569
1384.000000	0.371841
1385.000000	0.370897
1386.000000	0.369986
1387.000000	0.369098
1388.000000	0.368012
1389.000000	0.366905
1390.000000	0.366049
1391.000000	0.364951
1392.000000	0.363882
1393.000000	0.362784
1394.000000	0.361563
1395.000000	0.360484
1396.000000	0.359592
1397.000000	0.358517
1398.000000	0.357438
1399.000000	0.356277
1400.000000	0.354878
1401.000000	0.353519
1402.000000	0.352151
1403.000000	0.350935
1404.000000	0.349831
1405.000000	0.348711
1406.000000	0.347492
1407.000000	0.346320
1408.000000	0.345150
1409.000000	0.344114
1410.000000	0.343315
1411.000000	0.342465
1412.000000	0.341380
1413.000000	0.340434
1414.000000	0.339613
1415.000000	0.338897
1416.000000	0.338536
1417.000000	0.338225
1418.000000	0.337722
1419.000000	0.337400
1420.000000	0.336994
1421.000000	0.336547
1422.000000	0.336381
1423.000000	0.336215
1424.000000	0.335714
1425.000000	0.335337
1426.000000	0.334854
1427.000000	0.334245
1428.000000	0.333803
1429.000000	0.333376
1430.000000	0.332868
1431.000000	0.332371
1432.000000	0.332006
1433.000000	0.331704
1434.000000	0.331505
1435.000000	0.331509
1436.000000	0.331673
1437.000000	0.331908
1438.000000	0.332302
1439.000000	0.332980
1440.000000	0.333617
1441.000000	0.334358
1442.000000	0.335192
1443.000000	0.336047
1444.000000	0.336917
1445.000000	0.337824
1446.000000	0.338596
1447.000000	0.339246
1448.000000	0.339817
1449.000000	0.340319
1450.000000	0.340845
1451.000000	0.341419
1452.000000	0.341868
1453.000000	0.342147
1454.000000	0.342287
1455.000000	0.342382
1456.000000	0.342517
1457.000000	0.342703
1458.000000	0.342881
1459.000000	0.342895
1460.000000	0.342831
1461.000000	0.342860
1462.000000	0.342951
1463.000000	0.342978
1464.000000	0.342998
1465.000000	0.343016
1466.000000	0.343061
1467.000000	0.343284
1468.000000	0.343478
1469.000000	0.343702
1470.000000	0.343888
1471.000000	0.344057
1472.000000	0.344337
1473.000000	0.344788
1474.000000	0.345159
1475.000000	0.345449
1476.000000	0.345865
1477.000000	0.346222
1478.000000	0.346479
1479.000000	0.346810
1480.000000	0.347003
1481.000000	0.347250
1482.000000	0.347547
1483.000000	0.347942
1484.000000	0.348443
1485.000000	0.348825
1486.000000	0.349113
1487.000000	0.349499
1488.000000	0.349894
1489.000000	0.350367
1490.000000	0.350928
1491.000000	0.351350
1492.000000	0.351598
1493.000000	0.351930
1494.000000	0.352197
1495.000000	0.352438
1496.000000	0.352683
1497.000000	0.352931
1498.000000	0.353163
1499.000000	0.353388
1500.000000	0.353656
1501.000000	0.353951
1502.000000	0.354203
1503.000000	0.354529
1504.000000	0.354825
1505.000000	0.355112
1506.000000	0.355493
1507.000000	0.355718
1508.000000	0.355974
1509.000000	0.356272
1510.000000	0.356381
1511.000000	0.356625
1512.000000	0.356946
1513.000000	0.357219
1514.000000	0.357608
1515.000000	0.357859
1516.000000	0.357982
1517.000000	0.358095
1518.000000	0.358077
1519.000000	0.357991
1520.000000	0.358099
1521.000000	0.358188
1522.000000	0.358357
1523.000000	0.358647
1524.000000	0.358711
1525.000000	0.358763
1526.000000	0.358915
1527.000000	0.358950
1528.000000	0.358999
1529.000000	0.359023
1530.000000	0.358977
1531.000000	0.359146
1532.000000	0.359413
1533.000000	0.359721
1534.000000	0.359926
1535.000000	0.360081
1536.000000	0.360203
1537.000000	0.360411
1538.000000	0.360690
1539.000000	0.360778
1540.000000	0.360944
1541.000000	0.361076
1542.000000	0.361045
1543.000000	0.361198
1544.000000	0.361297
1545.000000	0.361356
1546.000000	0.361539
1547.000000	0.361677
1548.000000	0.361751
1549.000000	0.361728
1550.000000	0.361565
1551.000000	0.361380
1552.000000	0.361315
1553.000000	0.361364
1554.000000	0.361526
1555.000000	0.361674
1556.000000	0.361751
1557.000000	0.361772
1558.000000	0.361847
1559.000000	0.361881
1560.000000	0.361920
1561.000000	0.362029
1562.000000	0.362058
1563.000000	0.362012
1564.000000	0.362075
1565.000000	0.362202
1566.000000	0.362267
1567.000000	0.362489
1568.000000	0.362651
1569.000000	0.362856
1570.000000	0.362954
1571.000000	0.362987
1572.000000	0.363028
1573.000000	0.362980
1574.000000	0.363024
1575.000000	0.363176
1576.000000	0.363299
1577.000000	0.363456
1578.000000	0.363507
1579.000000	0.363556
1580.000000	0.363527
1581.000000	0.363471
1582.000000	0.363446
1583.000000	0.363368
1584.000000	0.363340
1585.000000	0.363446
1586.000000	0.363505
1587.000000	0.363643
1588.000000	0.363639
1589.000000	0.363530
1590.000000	0.363486
1591.000000	0.363337
1592.000000	0.363354
1593.000000	0.363612
1594.000000	0.363650
1595.000000	0.363761
1596.000000	0.363781
1597.000000	0.363642
1598.000000	0.363584
1599.000000	0.363541
1600.000000	0.363505
1601.000000	0.363585
1602.000000	0.363628
1603.000000	0.363734
1604.000000	0.363811
1605.000000	0.363866
1606.000000	0.363907
1607.000000	0.364049
1608.000000	0.364115
1609.000000	0.364156
1610.000000	0.364244
1611.000000	0.364394
1612.000000	0.364393
1613.000000	0.364507
1614.000000	0.364494
1615.000000	0.364377
1616.000000	0.364347
1617.000000	0.364263
1618.000000	0.364140
1619.000000	0.363918
1620.000000	0.363888
1621.000000	0.363996
1622.000000	0.364081
1623.000000	0.364244
1624.000000	0.364306
1625.000000	0.364064
1626.000000	0.363965
1627.000000	0.364023
1628.000000	0.363992
1629.000000	0.363874
1630.000000	0.363925
1631.000000	0.363903
1632.000000	0.363972
1633.000000	0.364256
1634.000000	0.364389
1635.000000	0.364504
1636.000000	0.364584
1637.000000	0.364644
1638.000000	0.364706
1639.000000	0.364859
1640.000000	0.364880
1641.000000	0.364827
1642.000000	0.364907
1643.000000	0.365092
1644.000000	0.365141
1645.000000	0.365239
1646.000000	0.365232
1647.000000	0.365000
1648.000000	0.365017
1649.000000	0.365288
1650.000000	0.365487
1651.000000	0.365846
1652.000000	0.366031
1653.000000	0.366041
1654.000000	0.366169
1655.000000	0.366212
1656.000000	0.366191
1657.000000	0.366270
1658.000000	0.366368
1659.000000	0.366514
1660.000000	0.366686
1661.000000	0.366860
1662.000000	0.367011
1663.000000	0.367108
1664.000000	0.367180
1665.000000	0.367291
1666.000000	0.367331
1667.000000	0.367100
1668.000000	0.367180
1669.000000	0.367341
1670.000000	0.367421
1671.000000	0.367797
1672.000000	0.367925
1673.000000	0.367822
1674.000000	0.367813
1675.000000	0.367885
1676.000000	0.368025
1677.000000	0.368143
1678.000000	0.368182
1679.000000	0.368223
1680.000000	0.368106
1681.000000	0.367985
1682.000000	0.368098
1683.000000	0.368164
1684.000000	0.368056
1685.000000	0.368094
1686.000000	0.368043
1687.000000	0.367962
1688.000000	0.368034
1689.000000	0.368074
1690.000000	0.367999
1691.000000	0.367918
1692.000000	0.367726
1693.000000	0.367778
1694.000000	0.367872
1695.000000	0.367860
1696.000000	0.368041
1697.000000	0.368073
1698.000000	0.368158
1699.000000	0.368188
1700.000000	0.367951
1701.000000	0.368083
1702.000000	0.368246
1703.000000	0.368281
1704.000000	0.368684
1705.000000	0.368777
1706.000000	0.368474
1707.000000	0.368449
1708.000000	0.368429
1709.000000	0.368388
1710.000000	0.368669
1711.000000	0.368763
1712.000000	0.368713
1713.000000	0.368712
1714.000000	0.368710
1715.000000	0.368762
1716.000000	0.368920
1717.000000	0.368980
1718.000000	0.368992
1719.000000	0.368949
1720.000000	0.368863
1721.000000	0.368819
1722.000000	0.368789
1723.000000	0.368732
1724.000000	0.368729
1725.000000	0.368677
1726.000000	0.368433
1727.000000	0.368327
1728.000000	0.368181
1729.000000	0.368022
1730.000000	0.368026
1731.000000	0.368084
1732.000000	0.368192
1733.000000	0.368361
1734.000000	0.368494
1735.000000	0.368623
1736.000000	0.368732
1737.000000	0.368769
1738.000000	0.368845
1739.000000	0.368808
1740.000000	0.368608
1741.000000	0.368503
1742.000000	0.368385
1743.000000	0.368395
1744.000000	0.368505
1745.000000	0.368365
1746.000000	0.368127
1747.000000	0.368042
1748.000000	0.367920
1749.000000	0.368018
1750.000000	0.368043
1751.000000	0.368164
1752.000000	0.368272
1753.000000	0.368294
1754.000000	0.368210
1755.000000	0.367790
1756.000000	0.367586
1757.000000	0.367443
1758.000000	0.367355
1759.000000	0.367371
1760.000000	0.367425
1761.000000	0.367468
1762.000000	0.367530
1763.000000	0.367776
1764.000000	0.367861
1765.000000	0.367714
1766.000000	0.367807
1767.000000	0.367974
1768.000000	0.367908
1769.000000	0.367946
1770.000000	0.368002
1771.000000	0.367784
1772.000000	0.367745
1773.000000	0.367898
1774.000000	0.367869
1775.000000	0.367705
1776.000000	0.367790
1777.000000	0.367951
1778.000000	0.368014
1779.000000	0.368241
1780.000000	0.368207
1781.000000	0.367847
1782.000000	0.367773
1783.000000	0.367786
1784.000000	0.367795
1785.000000	0.367892
1786.000000	0.368016
1787.000000	0.368105
1788.000000	0.368036
1789.000000	0.368028
1790.000000	0.367882
1791.000000	0.367775
1792.000000	0.367970
1793.000000	0.368009
1794.000000	0.367987
1795.000000	0.368007
1796.000000	0.367930
1797.000000	0.367900
1798.000000	0.367908
1799.000000	0.367879
1800.000000	0.367926
1801.000000	0.368367
1802.000000	0.368167
1803.000000	0.367178
1804.000000	0.367697
1805.000000	0.369599
1806.000000	0.370592
1807.000000	0.372306
1808.000000	0.373040
1809.000000	0.372603
1810.000000	0.372763
1811.000000	0.372825
1812.000000	0.372598
1813.000000	0.372647
1814.000000	0.373263
1815.000000	0.373047
1816.000000	0.372222
1817.000000	0.371897
1818.000000	0.371467
1819.000000	0.371363
1820.000000	0.371162
1821.000000	0.370850
1822.000000	0.370631
1823.000000	0.369800
1824.000000	0.369445
1825.000000	0.369473
1826.000000	0.369449
1827.000000	0.368910
1828.000000	0.369377
1829.000000	0.369733
1830.000000	0.370166
1831.000000	0.370146
1832.000000	0.369791
1833.000000	0.369601
1834.000000	0.368983
1835.000000	0.368989
1836.000000	0.369491
1837.000000	0.369619
1838.000000	0.369949
1839.000000	0.369678
1840.000000	0.368867
1841.000000	0.369103
1842.000000	0.368729
1843.000000	0.367809
1844.000000	0.367599
1845.000000	0.367473
1846.000000	0.367427
1847.000000	0.367550
1848.000000	0.367835
1849.000000	0.368401
1850.000000	0.368138
1851.000000	0.368120
1852.000000	0.368299
1853.000000	0.368342
1854.000000	0.367869
1855.000000	0.367500
1856.000000	0.367085
1857.000000	0.366612
1858.000000	0.365835
1859.000000	0.365637
1860.000000	0.365141
1861.000000	0.363560
1862.000000	0.362449
1863.000000	0.361261
1864.000000	0.360183
1865.000000	0.359356
1866.000000	0.358554
1867.000000	0.357798
1868.000000	0.356615
1869.000000	0.355856
1870.000000	0.354302
1871.000000	0.352854
1872.000000	0.351296
1873.000000	0.349876
1874.000000	0.348614
1875.000000	0.347201
1876.000000	0.345617
1877.000000	0.343572
1878.000000	0.341399
1879.000000	0.339272
1880.000000	0.337279
1881.000000	0.334818
1882.000000	0.332511
1883.000000	0.329629
1884.000000	0.326769
1885.000000	0.323498
1886.000000	0.320415
1887.000000	0.317323
1888.000000	0.313915
1889.000000	0.310049
1890.000000	0.306919
1891.000000	0.303420
1892.000000	0.299101
1893.000000	0.295498
1894.000000	0.291443
1895.000000	0.287186
1896.000000	0.282643
1897.000000	0.278886
1898.000000	0.274714
1899.000000	0.270533
1900.000000	0.266254
1901.000000	0.261954
1902.000000	0.258290
1903.000000	0.254849
1904.000000	0.252485
1905.000000	0.250495
1906.000000	0.248615
1907.000000	0.247036
1908.000000	0.245959
1909.000000	0.244530
1910.000000	0.243329
1911.000000	0.242001
1912.000000	0.240779
1913.000000	0.240064
1914.000000	0.239820
1915.000000	0.239627
1916.000000	0.239227
1917.000000	0.239024
1918.000000	0.239029
1919.000000	0.238751
1920.000000	0.238838
1921.000000	0.239592
1922.000000	0.239949
1923.000000	0.240444
1924.000000	0.241213
1925.000000	0.241547
1926.000000	0.241863
1927.000000	0.242489
1928.000000	0.242919
1929.000000	0.243116
1930.000000	0.243688
1931.000000	0.244666
1932.000000	0.245520
1933.000000	0.246394
1934.000000	0.246872
1935.000000	0.247020
1936.000000	0.247458
1937.000000	0.247815
1938.000000	0.247715
1939.000000	0.247902
1940.000000	0.248226
1941.000000	0.248124
1942.000000	0.248050
1943.000000	0.248745
1944.000000	0.249246
1945.000000	0.249920
1946.000000	0.251188
1947.000000	0.251814
1948.000000	0.251740
1949.000000	0.251584
1950.000000	0.251176
1951.000000	0.250821
1952.000000	0.250528
1953.000000	0.250390
1954.000000	0.250432
1955.000000	0.250603
1956.000000	0.250862
1957.000000	0.251570
1958.000000	0.252101
1959.000000	0.252306
1960.000000	0.252285
1961.000000	0.252040
1962.000000	0.252063
1963.000000	0.252118
1964.000000	0.252672
1965.000000	0.252746
1966.000000	0.252447
1967.000000	0.252607
1968.000000	0.252211
1969.000000	0.252084
1970.000000	0.253044
1971.000000	0.253557
1972.000000	0.253958
1973.000000	0.254425
1974.000000	0.254869
1975.000000	0.255624
1976.000000	0.256807
1977.000000	0.257694
1978.000000	0.258184
1979.000000	0.258866
1980.000000	0.258929
1981.000000	0.258958
1982.000000	0.259382
1983.000000	0.260027
1984.000000	0.260313
1985.000000	0.260279
1986.000000	0.260521
1987.000000	0.260691
1988.000000	0.261251
1989.000000	0.262333
1990.000000	0.263267
1991.000000	0.264047
1992.000000	0.264064
1993.000000	0.263960
1994.000000	0.264718
1995.000000	0.265232
1996.000000	0.266003
1997.000000	0.266783
1998.000000	0.267445
1999.000000	0.268118
2000.000000	0.268904
2001.000000	0.269952
2002.000000	0.270561
2003.000000	0.271265
2004.000000	0.272394
2005.000000	0.273504
2006.000000	0.274983
2007.000000	0.276443
2008.000000	0.277477
2009.000000	0.278063
2010.000000	0.279005
2011.000000	0.279513
2012.000000	0.280289
2013.000000	0.281421
2014.000000	0.282408
2015.000000	0.282719
2016.000000	0.283780
2017.000000	0.284168
2018.000000	0.283984
2019.000000	0.284586
2020.000000	0.285031
2021.000000	0.285825
2022.000000	0.287526
2023.000000	0.288381
2024.000000	0.288864
2025.000000	0.289377
2026.000000	0.289334
2027.000000	0.289331
2028.000000	0.290320
2029.000000	0.291778
2030.000000	0.292725
2031.000000	0.293612
2032.000000	0.294327
2033.000000	0.294765
2034.000000	0.295100
2035.000000	0.295675
2036.000000	0.296158
2037.000000	0.295989
2038.000000	0.296536
2039.000000	0.297746
2040.000000	0.299088
2041.000000	0.299556
2042.000000	0.300756
2043.000000	0.301777
2044.000000	0.301454
2045.000000	0.301791
2046.000000	0.302052
2047.000000	0.302220
2048.000000	0.302121
2049.000000	0.302664
2050.000000	0.303158
2051.000000	0.303546
2052.000000	0.304029
2053.000000	0.304270
2054.000000	0.304557
2055.000000	0.304769
2056.000000	0.305262
2057.000000	0.305612
2058.000000	0.305697
2059.000000	0.305761
2060.000000	0.306016
2061.000000	0.306024
2062.000000	0.306727
2063.000000	0.308347
2064.000000	0.309125
2065.000000	0.310211
2066.000000	0.310796
2067.000000	0.311230
2068.000000	0.311351
2069.000000	0.311251
2070.000000	0.311156
2071.000000	0.310804
2072.000000	0.310915
2073.000000	0.311141
2074.000000	0.311001
2075.000000	0.311238
2076.000000	0.311465
2077.000000	0.311809
2078.000000	0.312406
2079.000000	0.313236
2080.000000	0.314606
2081.000000	0.315201
2082.000000	0.315637
2083.000000	0.316054
2084.000000	0.315725
2085.000000	0.315896
2086.000000	0.316910
2087.000000	0.317730
2088.000000	0.318268
2089.000000	0.319210
2090.000000	0.319754
2091.000000	0.319808
2092.000000	0.320281
2093.000000	0.320926
2094.000000	0.321501
2095.000000	0.322439
2096.000000	0.322913
2097.000000	0.323145
2098.000000	0.322978
2099.000000	0.323304
2100.000000	0.323539
2101.000000	0.323592
2102.000000	0.324548
2103.000000	0.324900
2104.000000	0.324769
2105.000000	0.325311
2106.000000	0.326715
2107.000000	0.326863
2108.000000	0.326660
2109.000000	0.326600
2110.000000	0.325343
2111.000000	0.324973
2112.000000	0.325053
2113.000000	0.325101
2114.000000	0.324809
2115.000000	0.324682
2116.000000	0.325372
2117.000000	0.325625
2118.000000	0.327204
2119.000000	0.328990
2120.000000	0.330035
2121.000000	0.331194
2122.000000	0.331512
2123.000000	0.330673
2124.000000	0.330570
2125.000000	0.330068
2126.000000	0.329930
2127.000000	0.330494
2128.000000	0.330693
2129.000000	0.330836
2130.000000	0.330567
2131.000000	0.330149
2132.000000	0.330122
2133.000000	0.330212
2134.000000	0.330940
2135.000000	0.331265
2136.000000	0.331553
2137.000000	0.331659
2138.000000	0.331349
2139.000000	0.331153
2140.000000	0.330904
2141.000000	0.330576
2142.000000	0.330179
2143.000000	0.329586
2144.000000	0.329048
2145.000000	0.328926
2146.000000	0.329227
2147.000000	0.329028
2148.000000	0.329050
2149.000000	0.329168
2150.000000	0.329105
2151.000000	0.329187
2152.000000	0.329296
2153.000000	0.328791
2154.000000	0.328474
2155.000000	0.327558
2156.000000	0.327441
2157.000000	0.328348
2158.000000	0.328213
2159.000000	0.327957
2160.000000	0.327799
2161.000000	0.326399
2162.000000	0.326322
2163.000000	0.327228
2164.000000	0.327674
2165.000000	0.328895
2166.000000	0.329371
2167.000000	0.328815
2168.000000	0.328498
2169.000000	0.327877
2170.000000	0.327471
2171.000000	0.326721
2172.000000	0.325674
2173.000000	0.325245
2174.000000	0.324297
2175.000000	0.324820
2176.000000	0.327123
2177.000000	0.328424
2178.000000	0.330458
2179.000000	0.331497
2180.000000	0.331691
2181.000000	0.331968
2182.000000	0.331510
2183.000000	0.330318
2184.000000	0.329094
2185.000000	0.327978
2186.000000	0.326567
2187.000000	0.326368
2188.000000	0.326652
2189.000000	0.326207
2190.000000	0.326645
2191.000000	0.327424
2192.000000	0.327671
2193.000000	0.327958
2194.000000	0.328221
2195.000000	0.327975
2196.000000	0.327638
2197.000000	0.326891
2198.000000	0.326672
2199.000000	0.327497
2200.000000	0.327531
2201.000000	0.327561
2202.000000	0.327163
2203.000000	0.325459
2204.000000	0.323301
2205.000000	0.322556
2206.000000	0.320449
2207.000000	0.320174
2208.000000	0.320751
2209.000000	0.321021
2210.000000	0.322785
2211.000000	0.322802
2212.000000	0.322012
2213.000000	0.321304
2214.000000	0.319070
2215.000000	0.319309
2216.000000	0.320985
2217.000000	0.321761
2218.000000	0.323758
2219.000000	0.324789
2220.000000	0.325131
2221.000000	0.324911
2222.000000	0.322907
2223.000000	0.323388
2224.000000	0.324242
2225.000000	0.326501
2226.000000	0.328990
2227.000000	0.329173
2228.000000	0.327243
2229.000000	0.324606
2230.000000	0.321927
2231.000000	0.321477
2232.000000	0.322218
2233.000000	0.321529
2234.000000	0.322413
2235.000000	0.324009
2236.000000	0.324397
2237.000000	0.324497
2238.000000	0.324244
2239.000000	0.322539
2240.000000	0.322971
2241.000000	0.324623
2242.000000	0.325219
2243.000000	0.326406
2244.000000	0.326520
2245.000000	0.324956
2246.000000	0.324117
2247.000000	0.324030
2248.000000	0.323558
2249.000000	0.321670
2250.000000	0.322688
2251.000000	0.323256
2252.000000	0.322380
2253.000000	0.323599
2254.000000	0.322297
2255.000000	0.319246
2256.000000	0.318423
2257.000000	0.318030
2258.000000	0.319193
2259.000000	0.322755
2260.000000	0.323875
2261.000000	0.323511
2262.000000	0.321367
2263.000000	0.319221
2264.000000	0.315551
2265.000000	0.313485
2266.000000	0.311697
2267.000000	0.310049
2268.000000	0.308645
2269.000000	0.307187
2270.000000	0.305851
2271.000000	0.304756
2272.000000	0.304178
2273.000000	0.303497
2274.000000	0.303729
2275.000000	0.301480
2276.000000	0.298558
2277.000000	0.293249
2278.000000	0.288208
2279.000000	0.287200
2280.000000	0.286276
2281.000000	0.287381
2282.000000	0.288511
2283.000000	0.286343
2284.000000	0.285836
2285.000000	0.284692
2286.000000	0.282193
2287.000000	0.282236
2288.000000	0.281099
2289.000000	0.281326
2290.000000	0.284392
2291.000000	0.287428
2292.000000	0.290990
2293.000000	0.292667
2294.000000	0.293075
2295.000000	0.289964
2296.000000	0.289954
2297.000000	0.290195
2298.000000	0.292225
2299.000000	0.297451
2300.000000	0.299828
2301.000000	0.301683
2302.000000	0.302259
2303.000000	0.300680
2304.000000	0.300408
2305.000000	0.299666
2306.000000	0.300225
2307.000000	0.301962
2308.000000	0.303104
2309.000000	0.304310
2310.000000	0.304278
2311.000000	0.304261
2312.000000	0.302609
2313.000000	0.301225
2314.000000	0.302346
2315.000000	0.302044
2316.000000	0.303699
2317.000000	0.303727
2318.000000	0.303115
2319.000000	0.303623
2320.000000	0.300457
2321.000000	0.300406
2322.000000	0.301301
2323.000000	0.300263
2324.000000	0.301569
2325.000000	0.301387
2326.000000	0.298936
2327.000000	0.295022
2328.000000	0.291609
2329.000000	0.289913
2330.000000	0.287503
2331.000000	0.287409
2332.000000	0.287375
2333.000000	0.286665
2334.000000	0.287764
2335.000000	0.288759
2336.000000	0.290344
2337.000000	0.291374
2338.000000	0.292033
2339.000000	0.292189
2340.000000	0.291797
2341.000000	0.291307
2342.000000	0.290192
2343.000000	0.289791
2344.000000	0.289854
2345.000000	0.288836
2346.000000	0.288445
2347.000000	0.287191
2348.000000	0.284524
2349.000000	0.282618
2350.000000	0.280875
2351.000000	0.276359
2352.000000	0.274637
2353.000000	0.275627
2354.000000	0.274258
2355.000000	0.277164
2356.000000	0.278385
2357.000000	0.272259
2358.000000	0.270085
2359.000000	0.270400
2360.000000	0.269750
2361.000000	0.273524
2362.000000	0.273562
2363.000000	0.269962
2364.000000	0.266356
2365.000000	0.263327
2366.000000	0.264223
2367.000000	0.263712
2368.000000	0.265958
2369.000000	0.267460
2370.000000	0.264478
2371.000000	0.264523
2372.000000	0.265688
2373.000000	0.264348
2374.000000	0.261552
2375.000000	0.261285
2376.000000	0.259261
2377.000000	0.256428
2378.000000	0.260222
2379.000000	0.260044
2380.000000	0.257594
2381.000000	0.256675
2382.000000	0.248143
2383.000000	0.245344
2384.000000	0.247254
2385.000000	0.245830
2386.000000	0.251611
2387.000000	0.255620
2388.000000	0.250540
2389.000000	0.247572
2390.000000	0.246892
2391.000000	0.242673
2392.000000	0.240144
2393.000000	0.241295
2394.000000	0.238046
2395.000000	0.238534
2396.000000	0.247343
2397.000000	0.254089
2398.000000	0.258751
2399.000000	0.257801
2400.000000	0.247817
2401.000000	0.232440
2402.000000	0.223018
2403.000000	0.222411
2404.000000	0.217726
2405.000000	0.218689
2406.000000	0.222514
2407.000000	0.222334
2408.000000	0.227367
2409.000000	0.228154
2410.000000	0.228022
2411.000000	0.233137
2412.000000	0.233863
2413.000000	0.235252
2414.000000	0.238257
2415.000000	0.232645
2416.000000	0.231950
2417.000000	0.235135
2418.000000	0.231737
2419.000000	0.232167
2420.000000	0.234386
2421.000000	0.235570
2422.000000	0.240230
2423.000000	0.239603
2424.000000	0.235433
2425.000000	0.231907
2426.000000	0.228181
2427.000000	0.234925
2428.000000	0.237317
2429.000000	0.229663
2430.000000	0.221472
2431.000000	0.209913
2432.000000	0.203262
2433.000000	0.211264
2434.000000	0.221470
2435.000000	0.234369
2436.000000	0.248451
2437.000000	0.249798
2438.000000	0.255507
2439.000000	0.250412
2440.000000	0.232504
2441.000000	0.228140
2442.000000	0.226050
2443.000000	0.224631
2444.000000	0.233557
2445.000000	0.238173
2446.000000	0.233282
2447.000000	0.231909
2448.000000	0.219491
2449.000000	0.208276
2450.000000	0.203303
2451.000000	0.201928
2452.000000	0.213640
2453.000000	0.215759
2454.000000	0.216013
2455.000000	0.198366
2456.000000	0.171882
2457.000000	0.175943
2458.000000	0.187266
2459.000000	0.219256
2460.000000	0.262494
2461.000000	0.289151
2462.000000	0.296831
2463.000000	0.266182
2464.000000	0.232949
2465.000000	0.206750
2466.000000	0.179731
2467.000000	0.197033
2468.000000	0.223746
2469.000000	0.217057
2470.000000	0.222408
2471.000000	0.209554
2472.000000	0.182626
2473.000000	0.188363
2474.000000	0.187489
2475.000000	0.188940
2476.000000	0.203174
2477.000000	0.215132
2478.000000	0.231258
2479.000000	0.218851
2480.000000	0.196383
2481.000000	0.192481
2482.000000	0.170374
2483.000000	0.180788
2484.000000	0.229066
2485.000000	0.252509
2486.000000	0.278076
2487.000000	0.330234
2488.000000	0.327165
2489.000000	0.293195
2490.000000	0.275131
2491.000000	0.225597
2492.000000	0.209669
2493.000000	0.237941
2494.000000	0.250350
2495.000000	0.268939
2496.000000	0.255973
2497.000000	0.198607
2498.000000	0.188387
2499.000000	0.214425
2500.000000	0.210809
