# Wavelength	Nau-1_10_FV7_90_00002.asd.rts.txt
350.000000	0.184791
351.000000	0.198504
352.000000	0.198110
353.000000	0.195673
354.000000	0.198920
355.000000	0.199470
356.000000	0.191772
357.000000	0.184415
358.000000	0.193662
359.000000	0.201742
360.000000	0.201588
361.000000	0.191294
362.000000	0.187793
363.000000	0.187622
364.000000	0.187643
365.000000	0.193125
366.000000	0.197920
367.000000	0.200486
368.000000	0.203995
369.000000	0.200692
370.000000	0.197430
371.000000	0.203002
372.000000	0.204079
373.000000	0.201637
374.000000	0.199235
375.000000	0.201973
376.000000	0.202155
377.000000	0.200254
378.000000	0.205027
379.000000	0.207078
380.000000	0.205762
381.000000	0.204265
382.000000	0.206646
383.000000	0.208448
384.000000	0.207316
385.000000	0.208558
386.000000	0.208300
387.000000	0.206427
388.000000	0.206469
389.000000	0.207101
390.000000	0.207932
391.000000	0.208708
392.000000	0.211746
393.000000	0.213358
394.000000	0.211730
395.000000	0.213610
396.000000	0.214074
397.000000	0.212532
398.000000	0.214604
399.000000	0.214857
400.000000	0.214204
401.000000	0.215751
402.000000	0.215302
403.000000	0.215022
404.000000	0.217046
405.000000	0.218466
406.000000	0.219016
407.000000	0.218960
408.000000	0.218945
409.000000	0.219532
410.000000	0.220474
411.000000	0.220983
412.000000	0.221734
413.000000	0.222474
414.000000	0.222890
415.000000	0.223356
416.000000	0.223717
417.000000	0.223931
418.000000	0.224332
419.000000	0.224278
420.000000	0.223972
421.000000	0.224346
422.000000	0.224915
423.000000	0.225305
424.000000	0.225329
425.000000	0.225671
426.000000	0.225974
427.000000	0.225963
428.000000	0.226056
429.000000	0.226404
430.000000	0.226911
431.000000	0.227119
432.000000	0.227294
433.000000	0.227478
434.000000	0.227713
435.000000	0.227616
436.000000	0.227533
437.000000	0.227824
438.000000	0.228395
439.000000	0.228843
440.000000	0.229079
441.000000	0.229331
442.000000	0.229124
443.000000	0.228758
444.000000	0.229258
445.000000	0.229278
446.000000	0.229235
447.000000	0.229732
448.000000	0.230253
449.000000	0.230781
450.000000	0.231258
451.000000	0.231197
452.000000	0.231761
453.000000	0.232847
454.000000	0.233070
455.000000	0.233429
456.000000	0.234116
457.000000	0.234850
458.000000	0.235484
459.000000	0.235999
460.000000	0.236441
461.000000	0.236670
462.000000	0.237258
463.000000	0.238129
464.000000	0.238539
465.000000	0.238610
466.000000	0.238701
467.000000	0.239514
468.000000	0.240046
469.000000	0.240186
470.000000	0.240282
471.000000	0.240741
472.000000	0.241223
473.000000	0.241498
474.000000	0.241682
475.000000	0.241792
476.000000	0.242012
477.000000	0.242404
478.000000	0.242654
479.000000	0.242978
480.000000	0.243439
481.000000	0.243611
482.000000	0.243881
483.000000	0.244355
484.000000	0.244556
485.000000	0.244686
486.000000	0.245015
487.000000	0.245358
488.000000	0.245654
489.000000	0.245935
490.000000	0.246280
491.000000	0.246504
492.000000	0.246799
493.000000	0.247252
494.000000	0.247526
495.000000	0.247751
496.000000	0.248044
497.000000	0.248574
498.000000	0.248865
499.000000	0.248947
500.000000	0.249276
501.000000	0.249601
502.000000	0.249925
503.000000	0.250258
504.000000	0.250644
505.000000	0.251005
506.000000	0.251284
507.000000	0.251599
508.000000	0.251925
509.000000	0.252227
510.000000	0.252621
511.000000	0.252998
512.000000	0.253376
513.000000	0.253811
514.000000	0.254300
515.000000	0.254776
516.000000	0.255103
517.000000	0.255413
518.000000	0.255808
519.000000	0.256249
520.000000	0.256646
521.000000	0.257009
522.000000	0.257375
523.000000	0.257807
524.000000	0.258272
525.000000	0.258665
526.000000	0.258892
527.000000	0.259290
528.000000	0.259716
529.000000	0.260015
530.000000	0.260313
531.000000	0.260721
532.000000	0.261176
533.000000	0.261554
534.000000	0.261901
535.000000	0.262259
536.000000	0.262716
537.000000	0.263109
538.000000	0.263486
539.000000	0.263951
540.000000	0.264326
541.000000	0.264633
542.000000	0.264962
543.000000	0.265351
544.000000	0.265723
545.000000	0.266010
546.000000	0.266401
547.000000	0.266784
548.000000	0.267181
549.000000	0.267608
550.000000	0.267995
551.000000	0.268390
552.000000	0.268819
553.000000	0.269302
554.000000	0.269742
555.000000	0.270112
556.000000	0.270630
557.000000	0.270977
558.000000	0.271239
559.000000	0.271681
560.000000	0.272154
561.000000	0.272636
562.000000	0.273006
563.000000	0.273349
564.000000	0.273723
565.000000	0.274066
566.000000	0.274399
567.000000	0.274729
568.000000	0.275052
569.000000	0.275419
570.000000	0.275820
571.000000	0.276205
572.000000	0.276503
573.000000	0.276895
574.000000	0.277280
575.000000	0.277544
576.000000	0.277949
577.000000	0.278321
578.000000	0.278575
579.000000	0.278862
580.000000	0.279236
581.000000	0.279676
582.000000	0.280054
583.000000	0.280370
584.000000	0.280645
585.000000	0.280928
586.000000	0.281189
587.000000	0.281428
588.000000	0.281656
589.000000	0.281905
590.000000	0.282160
591.000000	0.282408
592.000000	0.282648
593.000000	0.282926
594.000000	0.283210
595.000000	0.283397
596.000000	0.283608
597.000000	0.283871
598.000000	0.284082
599.000000	0.284247
600.000000	0.284386
601.000000	0.284474
602.000000	0.284703
603.000000	0.284944
604.000000	0.285149
605.000000	0.285392
606.000000	0.285576
607.000000	0.285738
608.000000	0.286001
609.000000	0.286187
610.000000	0.286365
611.000000	0.286633
612.000000	0.286870
613.000000	0.287034
614.000000	0.287148
615.000000	0.287243
616.000000	0.287313
617.000000	0.287363
618.000000	0.287517
619.000000	0.287601
620.000000	0.287656
621.000000	0.287844
622.000000	0.287903
623.000000	0.287891
624.000000	0.287889
625.000000	0.287863
626.000000	0.287949
627.000000	0.288147
628.000000	0.288224
629.000000	0.288438
630.000000	0.288653
631.000000	0.288810
632.000000	0.288959
633.000000	0.289140
634.000000	0.289355
635.000000	0.289559
636.000000	0.289735
637.000000	0.289883
638.000000	0.290102
639.000000	0.290336
640.000000	0.290573
641.000000	0.290668
642.000000	0.290782
643.000000	0.290909
644.000000	0.291004
645.000000	0.291130
646.000000	0.291254
647.000000	0.291336
648.000000	0.291481
649.000000	0.291650
650.000000	0.291817
651.000000	0.292036
652.000000	0.292322
653.000000	0.292585
654.000000	0.292626
655.000000	0.292777
656.000000	0.292993
657.000000	0.293119
658.000000	0.293195
659.000000	0.293301
660.000000	0.293454
661.000000	0.293622
662.000000	0.293750
663.000000	0.293882
664.000000	0.294021
665.000000	0.294224
666.000000	0.294421
667.000000	0.294513
668.000000	0.294651
669.000000	0.294802
670.000000	0.294944
671.000000	0.295091
672.000000	0.295233
673.000000	0.295387
674.000000	0.295607
675.000000	0.295854
676.000000	0.296079
677.000000	0.296260
678.000000	0.296422
679.000000	0.296596
680.000000	0.296790
681.000000	0.296879
682.000000	0.297072
683.000000	0.297316
684.000000	0.297513
685.000000	0.297681
686.000000	0.297907
687.000000	0.298229
688.000000	0.298532
689.000000	0.298724
690.000000	0.298818
691.000000	0.298949
692.000000	0.299086
693.000000	0.299292
694.000000	0.299585
695.000000	0.299785
696.000000	0.299897
697.000000	0.300006
698.000000	0.300098
699.000000	0.300237
700.000000	0.300467
701.000000	0.300693
702.000000	0.300952
703.000000	0.301215
704.000000	0.301404
705.000000	0.301707
706.000000	0.302038
707.000000	0.302287
708.000000	0.302486
709.000000	0.302690
710.000000	0.302939
711.000000	0.303100
712.000000	0.303159
713.000000	0.303193
714.000000	0.303359
715.000000	0.303553
716.000000	0.303747
717.000000	0.303917
718.000000	0.304078
719.000000	0.304237
720.000000	0.304410
721.000000	0.304576
722.000000	0.304701
723.000000	0.304862
724.000000	0.305128
725.000000	0.305335
726.000000	0.305528
727.000000	0.305675
728.000000	0.305811
729.000000	0.305974
730.000000	0.306136
731.000000	0.306315
732.000000	0.306472
733.000000	0.306605
734.000000	0.306639
735.000000	0.306733
736.000000	0.306977
737.000000	0.307160
738.000000	0.307138
739.000000	0.307158
740.000000	0.307246
741.000000	0.307349
742.000000	0.307567
743.000000	0.307842
744.000000	0.308026
745.000000	0.308170
746.000000	0.308301
747.000000	0.308357
748.000000	0.308425
749.000000	0.308532
750.000000	0.308621
751.000000	0.308563
752.000000	0.308576
753.000000	0.308684
754.000000	0.308725
755.000000	0.308809
756.000000	0.308933
757.000000	0.309022
758.000000	0.309146
759.000000	0.309161
760.000000	0.308987
761.000000	0.308983
762.000000	0.308991
763.000000	0.308991
764.000000	0.309105
765.000000	0.309234
766.000000	0.309359
767.000000	0.309475
768.000000	0.309614
769.000000	0.309670
770.000000	0.309650
771.000000	0.309711
772.000000	0.309796
773.000000	0.309824
774.000000	0.309844
775.000000	0.309916
776.000000	0.310041
777.000000	0.310169
778.000000	0.310227
779.000000	0.310153
780.000000	0.310014
781.000000	0.309982
782.000000	0.309960
783.000000	0.310029
784.000000	0.310113
785.000000	0.310210
786.000000	0.310284
787.000000	0.310330
788.000000	0.310427
789.000000	0.310568
790.000000	0.310640
791.000000	0.310540
792.000000	0.310628
793.000000	0.310678
794.000000	0.310523
795.000000	0.310508
796.000000	0.310506
797.000000	0.310462
798.000000	0.310408
799.000000	0.310413
800.000000	0.310404
801.000000	0.310307
802.000000	0.310286
803.000000	0.310302
804.000000	0.310359
805.000000	0.310454
806.000000	0.310394
807.000000	0.310312
808.000000	0.310326
809.000000	0.310162
810.000000	0.310069
811.000000	0.310179
812.000000	0.310101
813.000000	0.310018
814.000000	0.309979
815.000000	0.309948
816.000000	0.309929
817.000000	0.309872
818.000000	0.309685
819.000000	0.309669
820.000000	0.309760
821.000000	0.309818
822.000000	0.309761
823.000000	0.309698
824.000000	0.309627
825.000000	0.309612
826.000000	0.309483
827.000000	0.309393
828.000000	0.309460
829.000000	0.309515
830.000000	0.309506
831.000000	0.309468
832.000000	0.309339
833.000000	0.309306
834.000000	0.309308
835.000000	0.309304
836.000000	0.309285
837.000000	0.309241
838.000000	0.309185
839.000000	0.309107
840.000000	0.309030
841.000000	0.308991
842.000000	0.308949
843.000000	0.308755
844.000000	0.308546
845.000000	0.308372
846.000000	0.308267
847.000000	0.308266
848.000000	0.308265
849.000000	0.308185
850.000000	0.308056
851.000000	0.307849
852.000000	0.307677
853.000000	0.307748
854.000000	0.307763
855.000000	0.307761
856.000000	0.307678
857.000000	0.307444
858.000000	0.307217
859.000000	0.307036
860.000000	0.306988
861.000000	0.307010
862.000000	0.307039
863.000000	0.306937
864.000000	0.306670
865.000000	0.306476
866.000000	0.306464
867.000000	0.306377
868.000000	0.306370
869.000000	0.306334
870.000000	0.306203
871.000000	0.306137
872.000000	0.306036
873.000000	0.305827
874.000000	0.305776
875.000000	0.305637
876.000000	0.305406
877.000000	0.305137
878.000000	0.305125
879.000000	0.305083
880.000000	0.304754
881.000000	0.304550
882.000000	0.304455
883.000000	0.304306
884.000000	0.303868
885.000000	0.303609
886.000000	0.303528
887.000000	0.303502
888.000000	0.303184
889.000000	0.302943
890.000000	0.302830
891.000000	0.302940
892.000000	0.302850
893.000000	0.302594
894.000000	0.302377
895.000000	0.302214
896.000000	0.301997
897.000000	0.301732
898.000000	0.301466
899.000000	0.301217
900.000000	0.301039
901.000000	0.300926
902.000000	0.300916
903.000000	0.300871
904.000000	0.300720
905.000000	0.300391
906.000000	0.300329
907.000000	0.300259
908.000000	0.300075
909.000000	0.299722
910.000000	0.299330
911.000000	0.298937
912.000000	0.298621
913.000000	0.298652
914.000000	0.298504
915.000000	0.298204
916.000000	0.298041
917.000000	0.297904
918.000000	0.297683
919.000000	0.297327
920.000000	0.297032
921.000000	0.296679
922.000000	0.296410
923.000000	0.296399
924.000000	0.296173
925.000000	0.295886
926.000000	0.295651
927.000000	0.295259
928.000000	0.294929
929.000000	0.294734
930.000000	0.294642
931.000000	0.294339
932.000000	0.294016
933.000000	0.293781
934.000000	0.293519
935.000000	0.293315
936.000000	0.293188
937.000000	0.293024
938.000000	0.292797
939.000000	0.292592
940.000000	0.292380
941.000000	0.292225
942.000000	0.292107
943.000000	0.291918
944.000000	0.291543
945.000000	0.291290
946.000000	0.291012
947.000000	0.290780
948.000000	0.290610
949.000000	0.290300
950.000000	0.290192
951.000000	0.290190
952.000000	0.289894
953.000000	0.289515
954.000000	0.289147
955.000000	0.288838
956.000000	0.288879
957.000000	0.288804
958.000000	0.288476
959.000000	0.288084
960.000000	0.287898
961.000000	0.287789
962.000000	0.287640
963.000000	0.287455
964.000000	0.287175
965.000000	0.286912
966.000000	0.286662
967.000000	0.286496
968.000000	0.286230
969.000000	0.285927
970.000000	0.285846
971.000000	0.285691
972.000000	0.285425
973.000000	0.285119
974.000000	0.285115
975.000000	0.284754
976.000000	0.284359
977.000000	0.284228
978.000000	0.283953
979.000000	0.283952
980.000000	0.283834
981.000000	0.283480
982.000000	0.283625
983.000000	0.283678
984.000000	0.283427
985.000000	0.283031
986.000000	0.282898
987.000000	0.282872
988.000000	0.282722
989.000000	0.282762
990.000000	0.282514
991.000000	0.282049
992.000000	0.281700
993.000000	0.281730
994.000000	0.281759
995.000000	0.281640
996.000000	0.281156
997.000000	0.281325
998.000000	0.281308
999.000000	0.280856
1000.000000	0.280689
1001.000000	0.280689
1002.000000	0.281062
1003.000000	0.281102
1004.000000	0.280960
1005.000000	0.280911
1006.000000	0.280848
1007.000000	0.280779
1008.000000	0.280041
1009.000000	0.279373
1010.000000	0.279095
1011.000000	0.278913
1012.000000	0.278895
1013.000000	0.279138
1014.000000	0.279198
1015.000000	0.279076
1016.000000	0.279011
1017.000000	0.278946
1018.000000	0.278979
1019.000000	0.279041
1020.000000	0.279359
1021.000000	0.278864
1022.000000	0.277846
1023.000000	0.278130
1024.000000	0.278582
1025.000000	0.278886
1026.000000	0.280030
1027.000000	0.280060
1028.000000	0.279144
1029.000000	0.278946
1030.000000	0.279138
1031.000000	0.279089
1032.000000	0.278828
1033.000000	0.278989
1034.000000	0.279052
1035.000000	0.279154
1036.000000	0.279034
1037.000000	0.278872
1038.000000	0.278524
1039.000000	0.277629
1040.000000	0.277623
1041.000000	0.278013
1042.000000	0.278503
1043.000000	0.279432
1044.000000	0.279864
1045.000000	0.279991
1046.000000	0.280460
1047.000000	0.280730
1048.000000	0.280821
1049.000000	0.280894
1050.000000	0.280806
1051.000000	0.280930
1052.000000	0.281147
1053.000000	0.281289
1054.000000	0.281807
1055.000000	0.282014
1056.000000	0.281917
1057.000000	0.281893
1058.000000	0.282238
1059.000000	0.282533
1060.000000	0.282978
1061.000000	0.283083
1062.000000	0.282836
1063.000000	0.282751
1064.000000	0.282859
1065.000000	0.283173
1066.000000	0.283331
1067.000000	0.283296
1068.000000	0.283700
1069.000000	0.284423
1070.000000	0.284751
1071.000000	0.285473
1072.000000	0.285762
1073.000000	0.285580
1074.000000	0.285147
1075.000000	0.285490
1076.000000	0.285792
1077.000000	0.285916
1078.000000	0.286667
1079.000000	0.286795
1080.000000	0.286436
1081.000000	0.286532
1082.000000	0.286668
1083.000000	0.286955
1084.000000	0.287842
1085.000000	0.288088
1086.000000	0.287809
1087.000000	0.287975
1088.000000	0.287968
1089.000000	0.288099
1090.000000	0.288473
1091.000000	0.288986
1092.000000	0.289496
1093.000000	0.289759
1094.000000	0.290046
1095.000000	0.290411
1096.000000	0.290637
1097.000000	0.290484
1098.000000	0.290818
1099.000000	0.291385
1100.000000	0.291790
1101.000000	0.292536
1102.000000	0.292748
1103.000000	0.292287
1104.000000	0.292370
1105.000000	0.292396
1106.000000	0.292570
1107.000000	0.293201
1108.000000	0.293599
1109.000000	0.294025
1110.000000	0.294280
1111.000000	0.294433
1112.000000	0.294362
1113.000000	0.294667
1114.000000	0.295004
1115.000000	0.295357
1116.000000	0.296162
1117.000000	0.296393
1118.000000	0.296181
1119.000000	0.296171
1120.000000	0.295946
1121.000000	0.295963
1122.000000	0.296306
1123.000000	0.296663
1124.000000	0.296849
1125.000000	0.297129
1126.000000	0.297485
1127.000000	0.297645
1128.000000	0.297732
1129.000000	0.297794
1130.000000	0.297946
1131.000000	0.297963
1132.000000	0.298137
1133.000000	0.298631
1134.000000	0.298826
1135.000000	0.298865
1136.000000	0.298905
1137.000000	0.298832
1138.000000	0.298754
1139.000000	0.298646
1140.000000	0.298746
1141.000000	0.298836
1142.000000	0.298998
1143.000000	0.299273
1144.000000	0.299616
1145.000000	0.299821
1146.000000	0.300070
1147.000000	0.300193
1148.000000	0.300166
1149.000000	0.300264
1150.000000	0.300347
1151.000000	0.300449
1152.000000	0.300557
1153.000000	0.300709
1154.000000	0.300798
1155.000000	0.300907
1156.000000	0.301089
1157.000000	0.301263
1158.000000	0.301446
1159.000000	0.301514
1160.000000	0.301542
1161.000000	0.301537
1162.000000	0.301483
1163.000000	0.301462
1164.000000	0.301429
1165.000000	0.301483
1166.000000	0.301571
1167.000000	0.301699
1168.000000	0.301685
1169.000000	0.301647
1170.000000	0.301687
1171.000000	0.301676
1172.000000	0.301787
1173.000000	0.302040
1174.000000	0.302182
1175.000000	0.302274
1176.000000	0.302334
1177.000000	0.302403
1178.000000	0.302511
1179.000000	0.302727
1180.000000	0.302704
1181.000000	0.302627
1182.000000	0.302562
1183.000000	0.302502
1184.000000	0.302428
1185.000000	0.302425
1186.000000	0.302601
1187.000000	0.302585
1188.000000	0.302471
1189.000000	0.302382
1190.000000	0.302249
1191.000000	0.302248
1192.000000	0.302399
1193.000000	0.302555
1194.000000	0.302724
1195.000000	0.302812
1196.000000	0.302790
1197.000000	0.302814
1198.000000	0.302817
1199.000000	0.302851
1200.000000	0.302923
1201.000000	0.302920
1202.000000	0.302970
1203.000000	0.303142
1204.000000	0.303144
1205.000000	0.303124
1206.000000	0.303091
1207.000000	0.303081
1208.000000	0.303004
1209.000000	0.302985
1210.000000	0.302938
1211.000000	0.302738
1212.000000	0.302746
1213.000000	0.303001
1214.000000	0.303032
1215.000000	0.302993
1216.000000	0.303038
1217.000000	0.302987
1218.000000	0.302934
1219.000000	0.303074
1220.000000	0.303041
1221.000000	0.302777
1222.000000	0.302631
1223.000000	0.302743
1224.000000	0.302907
1225.000000	0.303041
1226.000000	0.303142
1227.000000	0.302930
1228.000000	0.302680
1229.000000	0.302578
1230.000000	0.302555
1231.000000	0.302453
1232.000000	0.302494
1233.000000	0.302604
1234.000000	0.302704
1235.000000	0.302709
1236.000000	0.302691
1237.000000	0.302735
1238.000000	0.302695
1239.000000	0.302596
1240.000000	0.302544
1241.000000	0.302391
1242.000000	0.302134
1243.000000	0.302090
1244.000000	0.302184
1245.000000	0.302277
1246.000000	0.302325
1247.000000	0.302447
1248.000000	0.302649
1249.000000	0.302691
1250.000000	0.302795
1251.000000	0.302908
1252.000000	0.302972
1253.000000	0.303108
1254.000000	0.303148
1255.000000	0.303062
1256.000000	0.303013
1257.000000	0.302940
1258.000000	0.302860
1259.000000	0.302657
1260.000000	0.302677
1261.000000	0.302765
1262.000000	0.302767
1263.000000	0.302805
1264.000000	0.302957
1265.000000	0.303119
1266.000000	0.302998
1267.000000	0.302891
1268.000000	0.302829
1269.000000	0.302535
1270.000000	0.302446
1271.000000	0.302513
1272.000000	0.302572
1273.000000	0.302651
1274.000000	0.302675
1275.000000	0.302657
1276.000000	0.302556
1277.000000	0.302620
1278.000000	0.302725
1279.000000	0.302674
1280.000000	0.302519
1281.000000	0.302447
1282.000000	0.302264
1283.000000	0.302309
1284.000000	0.302576
1285.000000	0.302661
1286.000000	0.302747
1287.000000	0.302695
1288.000000	0.302533
1289.000000	0.302446
1290.000000	0.302317
1291.000000	0.302211
1292.000000	0.302270
1293.000000	0.302204
1294.000000	0.302130
1295.000000	0.302323
1296.000000	0.302391
1297.000000	0.302369
1298.000000	0.302360
1299.000000	0.302214
1300.000000	0.302028
1301.000000	0.301887
1302.000000	0.301789
1303.000000	0.301837
1304.000000	0.301819
1305.000000	0.301994
1306.000000	0.302020
1307.000000	0.301956
1308.000000	0.302007
1309.000000	0.302087
1310.000000	0.302145
1311.000000	0.302317
1312.000000	0.302344
1313.000000	0.302205
1314.000000	0.302057
1315.000000	0.301941
1316.000000	0.301916
1317.000000	0.302018
1318.000000	0.302148
1319.000000	0.302239
1320.000000	0.302342
1321.000000	0.302353
1322.000000	0.302284
1323.000000	0.302126
1324.000000	0.301982
1325.000000	0.301879
1326.000000	0.301732
1327.000000	0.301706
1328.000000	0.301726
1329.000000	0.301614
1330.000000	0.301484
1331.000000	0.301425
1332.000000	0.301307
1333.000000	0.301319
1334.000000	0.301645
1335.000000	0.301769
1336.000000	0.301670
1337.000000	0.301742
1338.000000	0.301837
1339.000000	0.301883
1340.000000	0.301876
1341.000000	0.302082
1342.000000	0.302032
1343.000000	0.301705
1344.000000	0.301504
1345.000000	0.301310
1346.000000	0.301345
1347.000000	0.301456
1348.000000	0.301515
1349.000000	0.301553
1350.000000	0.301468
1351.000000	0.301221
1352.000000	0.301010
1353.000000	0.300809
1354.000000	0.300698
1355.000000	0.300741
1356.000000	0.300929
1357.000000	0.301039
1358.000000	0.301153
1359.000000	0.301289
1360.000000	0.301353
1361.000000	0.301445
1362.000000	0.301524
1363.000000	0.301479
1364.000000	0.301463
1365.000000	0.301510
1366.000000	0.301490
1367.000000	0.301432
1368.000000	0.301284
1369.000000	0.301216
1370.000000	0.301110
1371.000000	0.301020
1372.000000	0.301060
1373.000000	0.301128
1374.000000	0.301094
1375.000000	0.300915
1376.000000	0.300820
1377.000000	0.300862
1378.000000	0.300853
1379.000000	0.300858
1380.000000	0.300885
1381.000000	0.300815
1382.000000	0.300665
1383.000000	0.300464
1384.000000	0.300260
1385.000000	0.300145
1386.000000	0.300134
1387.000000	0.300180
1388.000000	0.300217
1389.000000	0.300189
1390.000000	0.300136
1391.000000	0.299992
1392.000000	0.299773
1393.000000	0.299635
1394.000000	0.299584
1395.000000	0.299507
1396.000000	0.299410
1397.000000	0.299420
1398.000000	0.299437
1399.000000	0.299367
1400.000000	0.299411
1401.000000	0.299308
1402.000000	0.299097
1403.000000	0.298848
1404.000000	0.298850
1405.000000	0.298726
1406.000000	0.298527
1407.000000	0.298475
1408.000000	0.298268
1409.000000	0.298134
1410.000000	0.298205
1411.000000	0.298138
1412.000000	0.297988
1413.000000	0.297881
1414.000000	0.297726
1415.000000	0.297647
1416.000000	0.297588
1417.000000	0.297499
1418.000000	0.297468
1419.000000	0.297604
1420.000000	0.297722
1421.000000	0.297838
1422.000000	0.297927
1423.000000	0.297991
1424.000000	0.297946
1425.000000	0.297975
1426.000000	0.297920
1427.000000	0.297738
1428.000000	0.297633
1429.000000	0.297547
1430.000000	0.297488
1431.000000	0.297517
1432.000000	0.297481
1433.000000	0.297482
1434.000000	0.297408
1435.000000	0.297317
1436.000000	0.297300
1437.000000	0.297272
1438.000000	0.297285
1439.000000	0.297431
1440.000000	0.297528
1441.000000	0.297628
1442.000000	0.297728
1443.000000	0.297759
1444.000000	0.297850
1445.000000	0.297923
1446.000000	0.298093
1447.000000	0.298256
1448.000000	0.298343
1449.000000	0.298527
1450.000000	0.298626
1451.000000	0.298741
1452.000000	0.298911
1453.000000	0.298957
1454.000000	0.299002
1455.000000	0.299108
1456.000000	0.299215
1457.000000	0.299318
1458.000000	0.299354
1459.000000	0.299383
1460.000000	0.299474
1461.000000	0.299526
1462.000000	0.299555
1463.000000	0.299488
1464.000000	0.299392
1465.000000	0.299422
1466.000000	0.299516
1467.000000	0.299599
1468.000000	0.299651
1469.000000	0.299683
1470.000000	0.299520
1471.000000	0.299428
1472.000000	0.299477
1473.000000	0.299563
1474.000000	0.299549
1475.000000	0.299540
1476.000000	0.299486
1477.000000	0.299399
1478.000000	0.299487
1479.000000	0.299572
1480.000000	0.299604
1481.000000	0.299614
1482.000000	0.299620
1483.000000	0.299602
1484.000000	0.299551
1485.000000	0.299520
1486.000000	0.299428
1487.000000	0.299413
1488.000000	0.299509
1489.000000	0.299572
1490.000000	0.299499
1491.000000	0.299530
1492.000000	0.299519
1493.000000	0.299590
1494.000000	0.299796
1495.000000	0.299834
1496.000000	0.299780
1497.000000	0.299749
1498.000000	0.299678
1499.000000	0.299559
1500.000000	0.299522
1501.000000	0.299591
1502.000000	0.299568
1503.000000	0.299599
1504.000000	0.299696
1505.000000	0.299752
1506.000000	0.299876
1507.000000	0.299881
1508.000000	0.299865
1509.000000	0.299859
1510.000000	0.299743
1511.000000	0.299737
1512.000000	0.299695
1513.000000	0.299594
1514.000000	0.299559
1515.000000	0.299526
1516.000000	0.299644
1517.000000	0.299626
1518.000000	0.299552
1519.000000	0.299570
1520.000000	0.299496
1521.000000	0.299470
1522.000000	0.299467
1523.000000	0.299388
1524.000000	0.299303
1525.000000	0.299183
1526.000000	0.299210
1527.000000	0.299291
1528.000000	0.299244
1529.000000	0.299317
1530.000000	0.299362
1531.000000	0.299385
1532.000000	0.299469
1533.000000	0.299554
1534.000000	0.299592
1535.000000	0.299477
1536.000000	0.299408
1537.000000	0.299466
1538.000000	0.299389
1539.000000	0.299359
1540.000000	0.299465
1541.000000	0.299558
1542.000000	0.299624
1543.000000	0.299720
1544.000000	0.299780
1545.000000	0.299758
1546.000000	0.299770
1547.000000	0.299813
1548.000000	0.299792
1549.000000	0.299792
1550.000000	0.299832
1551.000000	0.299884
1552.000000	0.299954
1553.000000	0.299918
1554.000000	0.299852
1555.000000	0.299836
1556.000000	0.299897
1557.000000	0.299906
1558.000000	0.299914
1559.000000	0.299899
1560.000000	0.299895
1561.000000	0.299877
1562.000000	0.299866
1563.000000	0.299877
1564.000000	0.299909
1565.000000	0.299978
1566.000000	0.299914
1567.000000	0.299983
1568.000000	0.299936
1569.000000	0.299727
1570.000000	0.299713
1571.000000	0.299750
1572.000000	0.299721
1573.000000	0.299832
1574.000000	0.299732
1575.000000	0.299465
1576.000000	0.299366
1577.000000	0.299241
1578.000000	0.299124
1579.000000	0.299141
1580.000000	0.299096
1581.000000	0.299096
1582.000000	0.298988
1583.000000	0.298775
1584.000000	0.298685
1585.000000	0.298627
1586.000000	0.298626
1587.000000	0.298857
1588.000000	0.298887
1589.000000	0.298757
1590.000000	0.298769
1591.000000	0.298761
1592.000000	0.298836
1593.000000	0.299136
1594.000000	0.299215
1595.000000	0.299253
1596.000000	0.299356
1597.000000	0.299436
1598.000000	0.299437
1599.000000	0.299479
1600.000000	0.299441
1601.000000	0.299337
1602.000000	0.299317
1603.000000	0.299397
1604.000000	0.299362
1605.000000	0.299310
1606.000000	0.299220
1607.000000	0.299106
1608.000000	0.299047
1609.000000	0.299045
1610.000000	0.298956
1611.000000	0.298920
1612.000000	0.298816
1613.000000	0.298693
1614.000000	0.298610
1615.000000	0.298550
1616.000000	0.298509
1617.000000	0.298498
1618.000000	0.298411
1619.000000	0.298307
1620.000000	0.298182
1621.000000	0.297912
1622.000000	0.297943
1623.000000	0.298088
1624.000000	0.298181
1625.000000	0.298372
1626.000000	0.298351
1627.000000	0.298164
1628.000000	0.298139
1629.000000	0.298100
1630.000000	0.298087
1631.000000	0.298062
1632.000000	0.298085
1633.000000	0.298110
1634.000000	0.298153
1635.000000	0.298353
1636.000000	0.298390
1637.000000	0.298358
1638.000000	0.298316
1639.000000	0.298216
1640.000000	0.298231
1641.000000	0.298359
1642.000000	0.298437
1643.000000	0.298670
1644.000000	0.298703
1645.000000	0.298620
1646.000000	0.298485
1647.000000	0.298224
1648.000000	0.298038
1649.000000	0.297941
1650.000000	0.297863
1651.000000	0.297815
1652.000000	0.297871
1653.000000	0.297945
1654.000000	0.297999
1655.000000	0.298094
1656.000000	0.298077
1657.000000	0.298050
1658.000000	0.298005
1659.000000	0.298039
1660.000000	0.298040
1661.000000	0.297932
1662.000000	0.297851
1663.000000	0.297721
1664.000000	0.297658
1665.000000	0.297593
1666.000000	0.297647
1667.000000	0.297709
1668.000000	0.297765
1669.000000	0.297901
1670.000000	0.297801
1671.000000	0.297688
1672.000000	0.297596
1673.000000	0.297321
1674.000000	0.297336
1675.000000	0.297470
1676.000000	0.297508
1677.000000	0.297468
1678.000000	0.297483
1679.000000	0.297425
1680.000000	0.297444
1681.000000	0.297594
1682.000000	0.297612
1683.000000	0.297614
1684.000000	0.297586
1685.000000	0.297542
1686.000000	0.297574
1687.000000	0.297585
1688.000000	0.297610
1689.000000	0.297785
1690.000000	0.297773
1691.000000	0.297797
1692.000000	0.297875
1693.000000	0.297809
1694.000000	0.297807
1695.000000	0.297895
1696.000000	0.297808
1697.000000	0.297766
1698.000000	0.297775
1699.000000	0.297847
1700.000000	0.298035
1701.000000	0.298223
1702.000000	0.298257
1703.000000	0.298290
1704.000000	0.298389
1705.000000	0.298455
1706.000000	0.298558
1707.000000	0.298647
1708.000000	0.298715
1709.000000	0.298658
1710.000000	0.298668
1711.000000	0.298595
1712.000000	0.298374
1713.000000	0.298230
1714.000000	0.298048
1715.000000	0.298008
1716.000000	0.298229
1717.000000	0.298140
1718.000000	0.297895
1719.000000	0.297746
1720.000000	0.297482
1721.000000	0.297289
1722.000000	0.297216
1723.000000	0.297188
1724.000000	0.297164
1725.000000	0.297161
1726.000000	0.297212
1727.000000	0.297231
1728.000000	0.297163
1729.000000	0.297000
1730.000000	0.296913
1731.000000	0.296899
1732.000000	0.296831
1733.000000	0.296866
1734.000000	0.296987
1735.000000	0.296921
1736.000000	0.296668
1737.000000	0.296583
1738.000000	0.296509
1739.000000	0.296493
1740.000000	0.296549
1741.000000	0.296595
1742.000000	0.296689
1743.000000	0.296724
1744.000000	0.296759
1745.000000	0.296726
1746.000000	0.296586
1747.000000	0.296554
1748.000000	0.296500
1749.000000	0.296549
1750.000000	0.296449
1751.000000	0.296309
1752.000000	0.296342
1753.000000	0.296246
1754.000000	0.296188
1755.000000	0.296225
1756.000000	0.296220
1757.000000	0.296151
1758.000000	0.296136
1759.000000	0.296191
1760.000000	0.296164
1761.000000	0.296007
1762.000000	0.295961
1763.000000	0.295964
1764.000000	0.295955
1765.000000	0.295990
1766.000000	0.296002
1767.000000	0.295916
1768.000000	0.295801
1769.000000	0.295723
1770.000000	0.295762
1771.000000	0.295774
1772.000000	0.295795
1773.000000	0.295895
1774.000000	0.295942
1775.000000	0.295980
1776.000000	0.296007
1777.000000	0.295961
1778.000000	0.296035
1779.000000	0.296101
1780.000000	0.296281
1781.000000	0.296683
1782.000000	0.296671
1783.000000	0.296545
1784.000000	0.296371
1785.000000	0.296103
1786.000000	0.296272
1787.000000	0.296460
1788.000000	0.296524
1789.000000	0.296547
1790.000000	0.296587
1791.000000	0.296535
1792.000000	0.296666
1793.000000	0.296618
1794.000000	0.296209
1795.000000	0.296112
1796.000000	0.296156
1797.000000	0.296139
1798.000000	0.296374
1799.000000	0.296362
1800.000000	0.296065
1801.000000	0.296551
1802.000000	0.296619
1803.000000	0.295632
1804.000000	0.295852
1805.000000	0.296080
1806.000000	0.296376
1807.000000	0.297658
1808.000000	0.298220
1809.000000	0.298644
1810.000000	0.298343
1811.000000	0.297910
1812.000000	0.297132
1813.000000	0.296572
1814.000000	0.295417
1815.000000	0.294971
1816.000000	0.294891
1817.000000	0.294917
1818.000000	0.295501
1819.000000	0.295791
1820.000000	0.296019
1821.000000	0.296577
1822.000000	0.296745
1823.000000	0.296522
1824.000000	0.296437
1825.000000	0.295893
1826.000000	0.295971
1827.000000	0.296147
1828.000000	0.296666
1829.000000	0.296645
1830.000000	0.297416
1831.000000	0.297997
1832.000000	0.298445
1833.000000	0.298706
1834.000000	0.299564
1835.000000	0.299484
1836.000000	0.298232
1837.000000	0.297629
1838.000000	0.296848
1839.000000	0.296207
1840.000000	0.295510
1841.000000	0.295126
1842.000000	0.294849
1843.000000	0.294276
1844.000000	0.294432
1845.000000	0.295175
1846.000000	0.295839
1847.000000	0.296793
1848.000000	0.297780
1849.000000	0.298122
1850.000000	0.297622
1851.000000	0.297660
1852.000000	0.297228
1853.000000	0.297170
1854.000000	0.297596
1855.000000	0.297567
1856.000000	0.297186
1857.000000	0.296856
1858.000000	0.296569
1859.000000	0.296614
1860.000000	0.296172
1861.000000	0.295359
1862.000000	0.294789
1863.000000	0.293580
1864.000000	0.293435
1865.000000	0.294326
1866.000000	0.294624
1867.000000	0.295160
1868.000000	0.295578
1869.000000	0.295481
1870.000000	0.294792
1871.000000	0.294263
1872.000000	0.293908
1873.000000	0.293607
1874.000000	0.293372
1875.000000	0.293165
1876.000000	0.292985
1877.000000	0.292103
1878.000000	0.291491
1879.000000	0.291234
1880.000000	0.291945
1881.000000	0.292936
1882.000000	0.293343
1883.000000	0.293218
1884.000000	0.293052
1885.000000	0.291753
1886.000000	0.291332
1887.000000	0.291155
1888.000000	0.291202
1889.000000	0.291250
1890.000000	0.291245
1891.000000	0.291600
1892.000000	0.291260
1893.000000	0.290548
1894.000000	0.289615
1895.000000	0.288683
1896.000000	0.287242
1897.000000	0.286673
1898.000000	0.286492
1899.000000	0.286455
1900.000000	0.286655
1901.000000	0.286485
1902.000000	0.286117
1903.000000	0.285594
1904.000000	0.284696
1905.000000	0.283744
1906.000000	0.283117
1907.000000	0.282530
1908.000000	0.282455
1909.000000	0.282695
1910.000000	0.283033
1911.000000	0.282963
1912.000000	0.282729
1913.000000	0.283185
1914.000000	0.283314
1915.000000	0.283369
1916.000000	0.284269
1917.000000	0.284668
1918.000000	0.284754
1919.000000	0.285157
1920.000000	0.285552
1921.000000	0.285113
1922.000000	0.285311
1923.000000	0.285459
1924.000000	0.285499
1925.000000	0.285550
1926.000000	0.284796
1927.000000	0.284448
1928.000000	0.284271
1929.000000	0.284289
1930.000000	0.284376
1931.000000	0.284731
1932.000000	0.285065
1933.000000	0.285469
1934.000000	0.285381
1935.000000	0.285597
1936.000000	0.285767
1937.000000	0.285617
1938.000000	0.286306
1939.000000	0.286800
1940.000000	0.287567
1941.000000	0.288017
1942.000000	0.287841
1943.000000	0.287451
1944.000000	0.287511
1945.000000	0.287292
1946.000000	0.287737
1947.000000	0.288101
1948.000000	0.287510
1949.000000	0.287420
1950.000000	0.287445
1951.000000	0.286956
1952.000000	0.286297
1953.000000	0.285567
1954.000000	0.284983
1955.000000	0.284737
1956.000000	0.285062
1957.000000	0.286180
1958.000000	0.286541
1959.000000	0.286084
1960.000000	0.285447
1961.000000	0.284897
1962.000000	0.284800
1963.000000	0.285129
1964.000000	0.285768
1965.000000	0.286664
1966.000000	0.286947
1967.000000	0.287089
1968.000000	0.287205
1969.000000	0.286430
1970.000000	0.286444
1971.000000	0.286419
1972.000000	0.285904
1973.000000	0.285629
1974.000000	0.285612
1975.000000	0.285668
1976.000000	0.285773
1977.000000	0.286168
1978.000000	0.286644
1979.000000	0.286792
1980.000000	0.286243
1981.000000	0.286040
1982.000000	0.286226
1983.000000	0.286259
1984.000000	0.286157
1985.000000	0.286137
1986.000000	0.286096
1987.000000	0.285780
1988.000000	0.286005
1989.000000	0.286451
1990.000000	0.286899
1991.000000	0.286430
1992.000000	0.285641
1993.000000	0.285044
1994.000000	0.284744
1995.000000	0.285281
1996.000000	0.286037
1997.000000	0.286584
1998.000000	0.287459
1999.000000	0.287876
2000.000000	0.288110
2001.000000	0.288007
2002.000000	0.287778
2003.000000	0.287712
2004.000000	0.287687
2005.000000	0.287680
2006.000000	0.288115
2007.000000	0.288629
2008.000000	0.288819
2009.000000	0.288902
2010.000000	0.288904
2011.000000	0.288237
2012.000000	0.288195
2013.000000	0.288140
2014.000000	0.288722
2015.000000	0.289317
2016.000000	0.289606
2017.000000	0.289920
2018.000000	0.290284
2019.000000	0.290552
2020.000000	0.290318
2021.000000	0.289983
2022.000000	0.289011
2023.000000	0.288420
2024.000000	0.287731
2025.000000	0.287567
2026.000000	0.287692
2027.000000	0.287633
2028.000000	0.287872
2029.000000	0.288130
2030.000000	0.287936
2031.000000	0.288076
2032.000000	0.288000
2033.000000	0.288056
2034.000000	0.288323
2035.000000	0.288961
2036.000000	0.289121
2037.000000	0.289521
2038.000000	0.289652
2039.000000	0.289400
2040.000000	0.289631
2041.000000	0.289301
2042.000000	0.289344
2043.000000	0.289267
2044.000000	0.288353
2045.000000	0.288186
2046.000000	0.287545
2047.000000	0.287185
2048.000000	0.286993
2049.000000	0.287065
2050.000000	0.286919
2051.000000	0.286870
2052.000000	0.286725
2053.000000	0.286666
2054.000000	0.286905
2055.000000	0.287251
2056.000000	0.287650
2057.000000	0.288342
2058.000000	0.288808
2059.000000	0.289371
2060.000000	0.289536
2061.000000	0.289611
2062.000000	0.289329
2063.000000	0.288376
2064.000000	0.287876
2065.000000	0.287484
2066.000000	0.287413
2067.000000	0.288079
2068.000000	0.288446
2069.000000	0.288791
2070.000000	0.289274
2071.000000	0.288967
2072.000000	0.289226
2073.000000	0.289379
2074.000000	0.288743
2075.000000	0.288336
2076.000000	0.287510
2077.000000	0.287059
2078.000000	0.286742
2079.000000	0.286583
2080.000000	0.287009
2081.000000	0.287063
2082.000000	0.286994
2083.000000	0.286883
2084.000000	0.286648
2085.000000	0.286323
2086.000000	0.286713
2087.000000	0.287014
2088.000000	0.287402
2089.000000	0.287650
2090.000000	0.287721
2091.000000	0.287608
2092.000000	0.287393
2093.000000	0.286873
2094.000000	0.286779
2095.000000	0.286790
2096.000000	0.286912
2097.000000	0.287559
2098.000000	0.287430
2099.000000	0.287417
2100.000000	0.287220
2101.000000	0.286550
2102.000000	0.286547
2103.000000	0.286664
2104.000000	0.286691
2105.000000	0.286516
2106.000000	0.286200
2107.000000	0.286231
2108.000000	0.285909
2109.000000	0.286076
2110.000000	0.287028
2111.000000	0.287430
2112.000000	0.287373
2113.000000	0.287764
2114.000000	0.287992
2115.000000	0.287634
2116.000000	0.287532
2117.000000	0.286743
2118.000000	0.285617
2119.000000	0.284875
2120.000000	0.284923
2121.000000	0.285712
2122.000000	0.286147
2123.000000	0.287378
2124.000000	0.287889
2125.000000	0.287644
2126.000000	0.287608
2127.000000	0.287665
2128.000000	0.287773
2129.000000	0.287452
2130.000000	0.287961
2131.000000	0.288051
2132.000000	0.287575
2133.000000	0.288068
2134.000000	0.288092
2135.000000	0.287541
2136.000000	0.287367
2137.000000	0.287093
2138.000000	0.285995
2139.000000	0.286076
2140.000000	0.287047
2141.000000	0.287671
2142.000000	0.288881
2143.000000	0.289090
2144.000000	0.289172
2145.000000	0.288985
2146.000000	0.287909
2147.000000	0.287757
2148.000000	0.287669
2149.000000	0.287834
2150.000000	0.287792
2151.000000	0.286982
2152.000000	0.286573
2153.000000	0.286333
2154.000000	0.286095
2155.000000	0.286751
2156.000000	0.286415
2157.000000	0.285151
2158.000000	0.284671
2159.000000	0.284067
2160.000000	0.284173
2161.000000	0.285753
2162.000000	0.285806
2163.000000	0.284704
2164.000000	0.284455
2165.000000	0.284076
2166.000000	0.282975
2167.000000	0.283729
2168.000000	0.285031
2169.000000	0.284886
2170.000000	0.285493
2171.000000	0.285344
2172.000000	0.284550
2173.000000	0.284081
2174.000000	0.282999
2175.000000	0.282920
2176.000000	0.283396
2177.000000	0.283773
2178.000000	0.285206
2179.000000	0.285911
2180.000000	0.286266
2181.000000	0.286659
2182.000000	0.286427
2183.000000	0.285602
2184.000000	0.285689
2185.000000	0.285472
2186.000000	0.284602
2187.000000	0.284867
2188.000000	0.284673
2189.000000	0.283679
2190.000000	0.283920
2191.000000	0.284360
2192.000000	0.284883
2193.000000	0.286132
2194.000000	0.285873
2195.000000	0.285240
2196.000000	0.284722
2197.000000	0.281939
2198.000000	0.281547
2199.000000	0.282797
2200.000000	0.283724
2201.000000	0.286414
2202.000000	0.287988
2203.000000	0.289158
2204.000000	0.290427
2205.000000	0.289103
2206.000000	0.286870
2207.000000	0.285118
2208.000000	0.284124
2209.000000	0.284219
2210.000000	0.285677
2211.000000	0.285216
2212.000000	0.284578
2213.000000	0.285081
2214.000000	0.286146
2215.000000	0.286280
2216.000000	0.287424
2217.000000	0.286814
2218.000000	0.284246
2219.000000	0.282692
2220.000000	0.279902
2221.000000	0.280075
2222.000000	0.281822
2223.000000	0.282914
2224.000000	0.286018
2225.000000	0.288603
2226.000000	0.287729
2227.000000	0.285831
2228.000000	0.282893
2229.000000	0.280555
2230.000000	0.279621
2231.000000	0.279862
2232.000000	0.281557
2233.000000	0.283012
2234.000000	0.284752
2235.000000	0.287610
2236.000000	0.289033
2237.000000	0.290873
2238.000000	0.290971
2239.000000	0.289105
2240.000000	0.287643
2241.000000	0.285076
2242.000000	0.283492
2243.000000	0.281838
2244.000000	0.280851
2245.000000	0.279996
2246.000000	0.280180
2247.000000	0.280974
2248.000000	0.281980
2249.000000	0.283887
2250.000000	0.287379
2251.000000	0.287546
2252.000000	0.288098
2253.000000	0.289448
2254.000000	0.287120
2255.000000	0.284659
2256.000000	0.284747
2257.000000	0.283830
2258.000000	0.282660
2259.000000	0.280500
2260.000000	0.278211
2261.000000	0.276978
2262.000000	0.274659
2263.000000	0.275003
2264.000000	0.278130
2265.000000	0.279908
2266.000000	0.282608
2267.000000	0.283756
2268.000000	0.283978
2269.000000	0.284466
2270.000000	0.284615
2271.000000	0.283970
2272.000000	0.282961
2273.000000	0.282302
2274.000000	0.280079
2275.000000	0.279503
2276.000000	0.279984
2277.000000	0.281292
2278.000000	0.281463
2279.000000	0.281902
2280.000000	0.282350
2281.000000	0.280966
2282.000000	0.280351
2283.000000	0.281691
2284.000000	0.280336
2285.000000	0.278891
2286.000000	0.278763
2287.000000	0.276988
2288.000000	0.278873
2289.000000	0.281448
2290.000000	0.280723
2291.000000	0.279904
2292.000000	0.277617
2293.000000	0.274791
2294.000000	0.273254
2295.000000	0.272180
2296.000000	0.272850
2297.000000	0.275283
2298.000000	0.276220
2299.000000	0.278538
2300.000000	0.279103
2301.000000	0.276970
2302.000000	0.277135
2303.000000	0.277901
2304.000000	0.278817
2305.000000	0.281671
2306.000000	0.283058
2307.000000	0.283583
2308.000000	0.284210
2309.000000	0.285217
2310.000000	0.282817
2311.000000	0.282531
2312.000000	0.282808
2313.000000	0.281927
2314.000000	0.284164
2315.000000	0.285007
2316.000000	0.284155
2317.000000	0.283314
2318.000000	0.280457
2319.000000	0.277795
2320.000000	0.276445
2321.000000	0.276280
2322.000000	0.277946
2323.000000	0.278284
2324.000000	0.280358
2325.000000	0.282991
2326.000000	0.282574
2327.000000	0.284668
2328.000000	0.285435
2329.000000	0.283673
2330.000000	0.282086
2331.000000	0.282569
2332.000000	0.283625
2333.000000	0.282009
2334.000000	0.283551
2335.000000	0.284718
2336.000000	0.284254
2337.000000	0.283441
2338.000000	0.283851
2339.000000	0.283184
2340.000000	0.278631
2341.000000	0.277697
2342.000000	0.280154
2343.000000	0.279875
2344.000000	0.279421
2345.000000	0.280567
2346.000000	0.280914
2347.000000	0.282407
2348.000000	0.286155
2349.000000	0.288908
2350.000000	0.287750
2351.000000	0.288652
2352.000000	0.288143
2353.000000	0.286994
2354.000000	0.288219
2355.000000	0.288511
2356.000000	0.286908
2357.000000	0.284320
2358.000000	0.283036
2359.000000	0.278356
2360.000000	0.274596
2361.000000	0.275737
2362.000000	0.276403
2363.000000	0.277694
2364.000000	0.277236
2365.000000	0.271882
2366.000000	0.264747
2367.000000	0.257576
2368.000000	0.253880
2369.000000	0.257304
2370.000000	0.262630
2371.000000	0.270621
2372.000000	0.280375
2373.000000	0.284306
2374.000000	0.286531
2375.000000	0.286754
2376.000000	0.280486
2377.000000	0.276005
2378.000000	0.273072
2379.000000	0.267324
2380.000000	0.265327
2381.000000	0.269033
2382.000000	0.273302
2383.000000	0.278388
2384.000000	0.284277
2385.000000	0.282602
2386.000000	0.274641
2387.000000	0.266777
2388.000000	0.259706
2389.000000	0.258693
2390.000000	0.262689
2391.000000	0.266013
2392.000000	0.270684
2393.000000	0.272590
2394.000000	0.273242
2395.000000	0.279347
2396.000000	0.282391
2397.000000	0.281987
2398.000000	0.283048
2399.000000	0.274329
2400.000000	0.261140
2401.000000	0.255898
2402.000000	0.255274
2403.000000	0.258802
2404.000000	0.263374
2405.000000	0.265568
2406.000000	0.265137
2407.000000	0.266056
2408.000000	0.269295
2409.000000	0.270260
2410.000000	0.270671
2411.000000	0.264178
2412.000000	0.256913
2413.000000	0.257914
2414.000000	0.252695
2415.000000	0.244812
2416.000000	0.249438
2417.000000	0.252416
2418.000000	0.258992
2419.000000	0.277944
2420.000000	0.286780
2421.000000	0.293969
2422.000000	0.295253
2423.000000	0.290737
2424.000000	0.288250
2425.000000	0.280523
2426.000000	0.283973
2427.000000	0.284243
2428.000000	0.282763
2429.000000	0.286625
2430.000000	0.283879
2431.000000	0.285523
2432.000000	0.288748
2433.000000	0.287199
2434.000000	0.283213
2435.000000	0.275220
2436.000000	0.263506
2437.000000	0.256993
2438.000000	0.254730
2439.000000	0.263988
2440.000000	0.275636
2441.000000	0.276463
2442.000000	0.285880
2443.000000	0.284045
2444.000000	0.274276
2445.000000	0.278128
2446.000000	0.274101
2447.000000	0.268625
2448.000000	0.272214
2449.000000	0.273348
2450.000000	0.268800
2451.000000	0.261914
2452.000000	0.263514
2453.000000	0.266468
2454.000000	0.256206
2455.000000	0.249459
2456.000000	0.245625
2457.000000	0.239148
2458.000000	0.244459
2459.000000	0.253388
2460.000000	0.248490
2461.000000	0.244828
2462.000000	0.245923
2463.000000	0.244803
2464.000000	0.255666
2465.000000	0.254464
2466.000000	0.232916
2467.000000	0.223621
2468.000000	0.222381
2469.000000	0.222100
2470.000000	0.235324
2471.000000	0.244592
2472.000000	0.243481
2473.000000	0.239172
2474.000000	0.245011
2475.000000	0.268049
2476.000000	0.263736
2477.000000	0.265251
2478.000000	0.264951
2479.000000	0.223936
2480.000000	0.218593
2481.000000	0.231681
2482.000000	0.244640
2483.000000	0.267380
2484.000000	0.280149
2485.000000	0.292602
2486.000000	0.286301
2487.000000	0.302524
2488.000000	0.306651
2489.000000	0.248715
2490.000000	0.198540
2491.000000	0.202854
2492.000000	0.193011
2493.000000	0.211696
2494.000000	0.223950
2495.000000	0.199257
2496.000000	0.198819
2497.000000	0.240753
2498.000000	0.251876
2499.000000	0.261996
2500.000000	0.261278
